-0.005	-0.010	-0.005	-0.005	-0.020	-0.010	0.000	2.671	2.456	2.100	2.002	1.934	1.934	1.943
0.005	-0.015	-0.005	-0.005	-0.015	-0.034	0.000	2.646	2.310	2.158	2.046	1.968	1.943	1.938
-0.015	-0.015	0.000	-0.005	0.000	-0.005	0.000	2.788	2.217	2.178	2.080	2.002	1.958	1.953
-0.010	-0.010	0.000	-0.005	-0.005	0.000	0.000	2.778	2.158	2.178	2.109	2.036	1.978	1.958
-0.005	-0.005	-0.005	-0.005	-0.010	-0.005	0.000	2.646	2.095	2.158	2.124	2.065	1.997	1.973
-0.005	0.000	-0.010	-0.005	0.000	-0.020	-0.005	2.671	2.065	2.134	2.124	2.090	2.021	1.978
-0.005	-0.010	-0.005	0.000	-0.005	-0.005	0.000	2.632	2.026	2.104	2.119	2.104	2.046	2.002
-0.005	0.005	0.000	0.000	-0.005	0.010	0.000	2.744	2.017	2.085	2.114	2.109	2.061	2.021
-0.005	-0.005	-0.005	0.000	0.005	0.024	0.000	2.734	2.012	2.061	2.100	2.119	2.080	2.041
-0.005	-0.029	0.000	0.000	0.005	0.029	0.000	2.642	1.992	2.036	2.080	2.114	2.085	2.051
0.000	-0.024	-0.005	0.000	0.005	0.015	0.000	2.637	1.982	2.026	2.061	2.104	2.090	2.061
-0.005	-0.015	-0.005	0.000	-0.010	0.005	0.000	2.744	1.987	2.017	2.051	2.095	2.085	2.065
-0.005	-0.010	0.000	0.000	-0.005	0.000	0.000	2.642	1.978	2.007	2.041	2.085	2.085	2.070
0.000	-0.020	-0.005	0.000	-0.010	0.010	0.000	2.705	1.982	1.997	2.026	2.070	2.080	2.075
0.000	-0.010	-0.005	-0.005	-0.005	0.000	0.000	2.681	1.982	1.997	2.017	2.061	2.075	2.070
0.000	-0.010	-0.005	0.000	0.005	0.005	0.000	2.710	1.987	1.992	2.012	2.051	2.065	2.075
0.005	0.000	-0.005	-0.005	0.005	0.000	0.000	2.808	1.997	2.002	2.007	2.046	2.061	2.070
0.000	0.005	0.000	-0.005	0.000	-0.010	-0.005	2.622	1.987	1.997	2.007	2.036	2.051	2.061
-0.005	0.005	0.000	-0.005	0.000	-0.005	0.000	2.661	1.982	1.992	2.002	2.031	2.046	2.056
-0.005	0.010	0.000	-0.005	0.005	-0.005	0.000	2.700	1.982	1.992	1.997	2.026	2.036	2.056
0.000	0.010	-0.005	-0.005	0.005	-0.005	0.000	2.676	1.987	1.992	1.992	2.026	2.036	2.046
0.000	0.000	-0.005	-0.005	0.000	-0.024	0.000	2.686	1.987	1.992	1.992	2.021	2.031	2.041
-0.005	0.010	-0.005	-0.005	0.005	-0.005	0.000	2.681	1.987	1.992	1.992	2.021	2.026	2.041
-0.005	0.005	0.000	0.000	0.005	-0.029	0.000	2.666	1.982	1.987	1.992	2.017	2.021	2.026
0.005	0.010	-0.005	0.005	0.005	-0.010	0.000	2.681	1.987	1.987	1.992	2.012	2.021	2.031
-0.005	-0.005	-0.005	0.000	0.005	-0.010	0.000	2.676	1.982	1.987	1.987	2.012	2.017	2.026
-0.005	0.000	0.000	0.000	0.020	-0.039	0.000	2.690	1.982	1.982	1.987	2.012	2.017	2.021
-0.005	-0.020	0.005	0.000	0.020	-0.015	0.000	2.681	1.978	1.978	1.982	2.012	2.017	2.026
-0.010	-0.015	-0.005	0.000	0.020	-0.039	0.000	2.705	1.978	1.978	1.982	2.007	2.007	2.012
-0.010	-0.015	0.000	-0.005	0.015	0.000	0.000	2.666	1.978	1.973	1.978	2.002	2.002	2.021
-0.005	-0.005	-0.005	-0.005	0.010	0.005	-0.005	2.695	1.982	1.978	1.978	1.997	2.002	2.017
-0.005	-0.015	0.000	-0.005	0.000	0.005	0.000	2.666	1.978	1.973	1.973	1.997	1.997	2.012
-0.005	-0.024	0.000	-0.005	-0.005	0.005	0.000	2.700	1.978	1.973	1.973	1.992	1.992	2.007
0.005	-0.020	-0.005	-0.005	-0.010	0.000	0.000	2.671	1.978	1.973	1.973	1.992	1.992	2.002
0.005	-0.010	0.000	-0.005	-0.010	-0.010	0.000	2.695	1.973	1.978	1.973	1.992	1.992	1.992
-0.010	-0.010	0.000	-0.005	-0.020	0.010	0.000	2.690	1.973	1.978	1.973	1.992	1.987	1.997
0.000	-0.005	0.000	-0.005	-0.020	-0.005	0.000	2.671	1.968	1.973	1.978	1.992	1.987	1.992
-0.005	-0.005	0.000	-0.005	-0.020	0.015	0.000	2.705	1.973	1.973	1.973	1.992	1.987	1.997
-0.005	-0.005	0.000	-0.005	-0.024	0.010	0.000	2.690	1.973	1.973	1.973	1.992	1.987	1.992
0.000	0.000	-0.005	0.000	-0.020	0.005	0.000	2.666	1.968	1.978	1.973	1.992	1.987	1.992
0.005	0.024	0.000	-0.005	-0.020	0.000	0.000	2.676	1.973	1.982	1.973	1.992	1.992	1.987
-0.010	0.020	-0.005	0.000	-0.020	-0.010	0.000	2.676	1.963	1.978	1.973	1.992	1.992	1.987
-0.005	0.020	-0.005	0.000	-0.015	0.010	0.000	2.681	1.963	1.973	1.973	1.992	1.992	1.992
0.000	0.015	0.000	0.000	-0.010	-0.024	0.000	2.671	1.963	1.968	1.973	1.992	1.992	1.982
-0.010	0.010	-0.005	0.000	-0.015	0.015	0.000	2.676	1.958	1.963	1.973	1.992	1.992	1.997
-0.005	-0.005	-0.005	0.000	-0.010	0.010	0.000	2.661	1.953	1.958	1.963	1.987	1.992	1.992
0.000	-0.005	0.000	0.000	-0.005	0.000	0.000	2.681	1.958	1.958	1.963	1.982	1.987	1.987
-0.010	-0.005	0.000	-0.005	-0.005	-0.010	0.000	2.690	1.963	1.958	1.958	1.982	1.982	1.987
0.000	-0.010	0.000	-0.005	-0.005	0.005	0.000	2.695	1.958	1.953	1.958	1.982	1.982	1.987
0.000	-0.005	0.000	-0.005	-0.005	0.005	0.000	2.686	1.958	1.958	1.958	1.978	1.978	1.987
0.000	0.000	-0.005	-0.005	-0.005	0.005	0.000	2.686	1.963	1.958	1.953	1.978	1.978	1.982
0.000	-0.005	-0.005	-0.005	-0.005	-0.005	0.000	2.676	1.958	1.958	1.958	1.978	1.978	1.982
0.000	-0.005	-0.005	-0.005	-0.005	0.005	0.000	2.681	1.958	1.958	1.958	1.978	1.973	1.982
-0.015	0.000	-0.005	-0.005	-0.005	0.005	0.000	2.671	1.953	1.958	1.958	1.978	1.978	1.978
-0.005	-0.005	-0.005	-0.005	0.005	-0.005	0.000	2.676	1.953	1.958	1.958	1.978	1.978	1.973
-0.005	-0.005	-0.005	-0.005	0.005	-0.005	0.000	2.681	1.958	1.958	1.958	1.978	1.978	1.978
0.000	-0.005	-0.005	0.000	0.000	-0.010	0.000	2.676	1.953	1.958	1.958	1.978	1.973	1.973
-0.005	0.005	-0.005	-0.005	0.000	0.005	0.000	2.681	1.953	1.958	1.958	1.978	1.973	1.978
0.000	-0.005	-0.005	0.000	0.000	-0.020	0.000	2.671	1.953	1.953	1.958	1.973	1.973	1.973
-0.005	0.000	-0.005	0.000	0.000	-0.015	-0.005	2.681	1.953	1.953	1.953	1.978	1.973	1.973
-0.005	0.000	-0.005	0.000	-0.005	-0.015	0.000	2.676	1.948	1.953	1.953	1.978	1.973	1.973
-0.005	0.005	-0.010	0.000	0.005	0.000	0.000	2.671	1.948	1.953	1.948	1.973	1.973	1.978
-0.010	-0.005	0.000	0.000	0.000	0.005	0.000	2.681	1.943	1.948	1.948	1.973	1.973	1.978
-0.010	-0.005	-0.005	-0.005	-0.005	0.000	0.000	2.676	1.943	1.943	1.943	1.968	1.968	1.968
-0.010	-0.005	-0.005	-0.005	0.000	-0.005	-0.005	2.661	1.938	1.943	1.943	1.968	1.968	1.973
0.005	0.005	0.000	-0.005	0.005	0.000	0.000	2.651	1.943	1.943	1.943	1.963	1.968	1.968
-0.005	-0.005	0.000	-0.005	0.000	0.000	0.000	2.671	1.943	1.943	1.943	1.963	1.963	1.968
-0.005	-0.005	0.000	-0.005	0.000	0.000	0.000	2.681	1.943	1.943	1.938	1.963	1.963	1.968
0.005	0.005	-0.005	-0.005	-0.005	-0.010	0.000	2.681	1.948	1.943	1.943	1.958	1.958	1.963
-0.010	-0.005	-0.005	-0.005	-0.010	-0.005	0.000	2.676	1.943	1.943	1.943	1.963	1.958	1.963
-0.005	-0.005	-0.005	-0.005	-0.015	-0.015	0.000	2.676	1.943	1.943	1.943	1.963	1.958	1.958
-0.005	0.000	-0.010	-0.005	-0.005	-0.015	0.000	2.671	1.938	1.943	1.943	1.963	1.958	1.963
0.000	0.000	0.000	-0.005	0.005	-0.010	0.000	2.671	1.938	1.943	1.943	1.963	1.963	1.963
0.000	0.000	-0.005	0.000	0.005	-0.010	0.000	2.661	1.943	1.943	1.943	1.963	1.963	1.963
-0.010	0.005	-0.005	0.000	0.005	-0.024	0.000	2.681	1.938	1.943	1.943	1.963	1.958	1.958
0.005	-0.010	0.000	0.000	-0.005	-0.015	0.000	2.681	1.943	1.938	1.943	1.963	1.953	1.958
-0.005	-0.010	0.000	0.000	-0.010	0.000	0.000	2.676	1.938	1.938	1.938	1.963	1.958	1.963
0.010	-0.010	-0.005	0.000	0.000	0.005	0.000	2.666	1.938	1.938	1.938	1.958	1.958	1.963
-0.005	-0.005	-0.005	0.000	0.005	-0.020	0.000	2.676	1.938	1.938	1.934	1.958	1.958	1.953
0.000	-0.020	-0.005	0.000	0.029	0.000	0.000	2.671	1.938	1.934	1.934	1.958	1.963	1.963
-0.005	-0.005	-0.005	-0.005	0.010	0.005	0.000	2.676	1.934	1.934	1.934	1.953	1.953	1.958
-0.005	-0.015	-0.005	-0.005	0.000	0.010	0.000	2.676	1.934	1.934	1.934	1.953	1.948	1.958
-0.005	-0.005	-0.010	-0.005	0.005	-0.005	-0.005	2.681	1.934	1.934	1.929	1.953	1.948	1.953
-0.005	-0.024	-0.010	-0.005	-0.010	0.005	0.000	2.661	1.929	1.929	1.929	1.948	1.943	1.948
-0.010	-0.015	-0.005	-0.005	0.000	-0.024	0.000	2.661	1.929	1.929	1.929	1.948	1.943	1.943
-0.005	-0.020	-0.005	-0.005	-0.005	0.015	0.000	2.671	1.929	1.929	1.929	1.948	1.943	1.953
-0.005	-0.005	-0.005	-0.005	-0.005	0.000	0.000	2.671	1.929	1.934	1.929	1.948	1.948	1.948
-0.005	-0.015	0.000	-0.005	0.000	0.005	0.000	2.666	1.934	1.934	1.929	1.948	1.948	1.948
-0.005	-0.015	-0.005	0.000	-0.005	-0.005	0.000	2.661	1.934	1.934	1.929	1.948	1.943	1.948
0.000	-0.010	0.000	0.000	-0.005	-0.015	0.000	2.681	1.934	1.934	1.929	1.948	1.943	1.943
-0.010	-0.005	0.000	0.000	0.000	-0.010	0.000	2.671	1.934	1.938	1.934	1.948	1.948	1.948
-0.005	0.020	-0.005	0.000	0.000	-0.010	0.000	2.676	1.934	1.943	1.934	1.948	1.948	1.948
-0.005	0.010	-0.005	0.000	-0.005	-0.005	0.000	2.671	1.929	1.934	1.934	1.948	1.943	1.948
-0.010	-0.005	-0.005	0.000	-0.010	-0.005	0.000	2.676	1.929	1.924	1.929	1.953	1.943	1.948
-0.005	-0.020	-0.005	0.005	-0.010	-0.005	0.000	2.676	1.929	1.924	1.924	1.948	1.948	1.948
0.000	-0.010	0.000	0.000	-0.005	-0.005	0.000	2.651	1.924	1.924	1.929	1.948	1.943	1.948
-0.010	-0.015	-0.005	-0.005	-0.015	-0.005	0.000	2.676	1.924	1.919	1.924	1.943	1.938	1.943
-0.005	-0.005	0.000	-0.005	-0.005	0.000	0.000	2.671	1.929	1.924	1.924	1.943	1.943	1.948
-0.010	-0.005	0.005	-0.005	-0.005	0.000	0.000	2.681	1.929	1.924	1.924	1.943	1.943	1.943
0.000	-0.005	0.000	-0.005	-0.015	-0.005	0.000	2.666	1.924	1.924	1.924	1.943	1.938	1.943
0.005	0.000	0.000	-0.005	-0.015	0.005	0.000	2.671	1.924	1.924	1.919	1.943	1.938	1.943
0.000	0.000	-0.005	-0.005	-0.010	0.000	0.000	2.661	1.924	1.924	1.924	1.943	1.934	1.938
-0.005	-0.005	-0.005	-0.005	-0.015	0.000	0.000	2.686	1.924	1.919	1.924	1.943	1.938	1.938
0.005	-0.005	0.000	-0.005	-0.015	0.000	0.000	2.681	1.924	1.924	1.924	1.938	1.938	1.938
0.005	-0.005	-0.005	-0.005	0.000	-0.029	0.000	2.676	1.924	1.924	1.924	1.943	1.943	1.934
0.005	0.000	-0.005	-0.005	0.000	0.005	0.000	2.676	1.929	1.929	1.924	1.943	1.943	1.943
-0.005	0.010	-0.005	0.000	0.000	-0.020	0.000	2.666	1.924	1.929	1.924	1.943	1.943	1.938
0.000	0.015	-0.005	0.000	0.010	0.005	0.000	2.671	1.924	1.929	1.924	1.943	1.943	1.948
-0.005	0.000	-0.005	0.000	0.029	0.005	0.000	2.681	1.924	1.924	1.924	1.943	1.948	1.948
-0.005	-0.005	-0.005	-0.005	0.015	0.005	-0.005	2.676	1.924	1.919	1.924	1.943	1.938	1.943
0.005	0.010	-0.005	0.000	0.005	-0.010	0.000	2.676	1.924	1.924	1.924	1.943	1.938	1.938
-0.010	0.000	0.000	0.005	0.005	0.000	0.000	2.671	1.919	1.919	1.924	1.943	1.934	1.943
-0.010	0.010	0.000	0.000	0.000	0.010	0.000	2.671	1.919	1.919	1.924	1.938	1.934	1.943
-0.005	-0.005	-0.005	-0.005	0.000	-0.010	0.000	2.671	1.919	1.914	1.919	1.938	1.934	1.934
-0.005	-0.010	0.000	-0.005	0.000	0.005	0.000	2.681	1.919	1.914	1.914	1.934	1.934	1.934
0.000	-0.015	-0.005	-0.005	-0.010	0.010	0.000	2.676	1.919	1.914	1.914	1.934	1.929	1.938
-0.005	-0.005	-0.005	-0.005	-0.010	0.000	0.000	2.666	1.914	1.919	1.914	1.934	1.929	1.934
0.000	0.005	-0.005	-0.010	-0.005	-0.015	0.000	2.676	1.919	1.919	1.914	1.934	1.929	1.929
-0.005	-0.005	0.000	-0.005	-0.010	-0.024	0.000	2.681	1.919	1.914	1.914	1.929	1.929	1.929
-0.005	0.005	0.000	-0.010	-0.005	-0.005	0.000	2.686	1.924	1.924	1.919	1.934	1.929	1.934
-0.005	0.010	-0.005	-0.005	-0.005	0.000	0.000	2.690	1.919	1.919	1.914	1.934	1.934	1.934
-0.010	0.015	0.000	0.000	-0.010	-0.020	0.000	2.671	1.919	1.924	1.919	1.934	1.934	1.929
0.000	0.010	-0.005	-0.005	-0.015	0.005	0.000	2.676	1.924	1.919	1.919	1.938	1.929	1.934
0.000	0.015	0.000	0.000	-0.010	-0.015	0.000	2.681	1.924	1.924	1.919	1.938	1.934	1.929
0.000	0.010	-0.010	0.000	-0.005	0.000	0.000	2.666	1.919	1.919	1.919	1.938	1.934	1.938
0.000	0.015	-0.005	0.000	-0.005	0.005	0.000	2.671	1.924	1.919	1.919	1.938	1.934	1.938
-0.005	0.010	-0.010	0.000	-0.005	-0.010	0.000	2.681	1.914	1.919	1.914	1.934	1.934	1.934
0.000	0.010	0.000	-0.005	0.000	0.000	0.000	2.681	1.914	1.919	1.919	1.938	1.934	1.934
-0.005	0.015	0.000	0.000	-0.005	0.005	0.000	2.671	1.914	1.919	1.919	1.938	1.934	1.934
-0.005	0.000	0.000	-0.005	-0.005	0.000	0.000	2.671	1.914	1.914	1.914	1.934	1.929	1.929
-0.005	0.010	-0.005	-0.005	-0.005	0.000	0.000	2.686	1.914	1.914	1.914	1.934	1.934	1.934
-0.029	-0.024	0.005	-0.005	0.000	0.005	0.000	2.666	1.904	1.904	1.909	1.934	1.934	1.934
-0.005	-0.029	0.005	-0.005	-0.005	0.005	0.000	2.681	1.914	1.904	1.904	1.929	1.929	1.934
0.000	-0.020	0.000	-0.005	0.000	0.005	0.000	2.666	1.914	1.909	1.909	1.929	1.929	1.934
-0.010	-0.005	0.000	-0.005	-0.005	-0.029	0.000	2.656	1.909	1.914	1.909	1.924	1.924	1.919
0.000	0.015	0.000	-0.005	-0.010	-0.005	0.000	2.681	1.914	1.919	1.909	1.929	1.924	1.929
0.000	-0.005	0.000	-0.005	-0.005	0.000	0.000	2.681	1.914	1.909	1.909	1.929	1.924	1.929
0.000	-0.005	0.000	-0.005	-0.010	0.000	0.000	2.676	1.914	1.914	1.909	1.929	1.929	1.929
0.000	-0.024	0.000	-0.005	-0.005	0.005	0.000	2.666	1.914	1.909	1.909	1.929	1.924	1.929
-0.010	-0.010	-0.005	-0.005	-0.005	-0.005	0.000	2.681	1.914	1.914	1.909	1.929	1.924	1.924
0.005	-0.020	-0.005	0.000	0.000	0.005	0.000	2.666	1.914	1.909	1.909	1.929	1.929	1.929
-0.005	-0.005	-0.005	-0.005	0.000	0.010	0.000	2.676	1.909	1.914	1.914	1.929	1.929	1.929
0.005	-0.010	0.000	0.000	0.000	0.005	0.000	2.681	1.914	1.914	1.914	1.929	1.924	1.929
-0.005	-0.005	-0.005	0.000	-0.010	-0.024	0.000	2.676	1.909	1.914	1.909	1.929	1.919	1.914
0.000	0.000	-0.005	0.000	-0.010	-0.015	0.000	2.686	1.909	1.914	1.914	1.929	1.924	1.924
-0.005	0.015	0.000	0.000	-0.005	0.000	0.000	2.656	1.909	1.914	1.909	1.929	1.924	1.929
0.000	-0.010	0.000	-0.005	0.005	0.005	0.000	2.681	1.909	1.904	1.909	1.929	1.929	1.929
-0.005	-0.010	0.000	-0.005	0.010	0.000	0.000	2.671	1.909	1.904	1.909	1.929	1.924	1.929
0.000	-0.015	-0.005	-0.005	0.000	0.000	0.000	2.666	1.909	1.909	1.909	1.924	1.924	1.924
0.000	-0.005	-0.005	-0.005	0.005	-0.020	0.000	2.681	1.909	1.909	1.904	1.924	1.919	1.919
-0.010	-0.005	-0.010	-0.005	0.000	-0.020	0.000	2.671	1.904	1.904	1.904	1.924	1.919	1.919
-0.005	-0.010	-0.005	-0.005	-0.005	-0.010	0.000	2.661	1.909	1.904	1.904	1.924	1.919	1.919
-0.005	-0.005	0.000	-0.005	0.000	0.000	0.000	2.681	1.909	1.909	1.909	1.924	1.919	1.924
-0.010	-0.005	0.000	-0.005	-0.005	0.000	0.000	2.676	1.909	1.909	1.904	1.924	1.919	1.924
-0.005	0.000	-0.005	-0.005	-0.015	-0.010	0.000	2.651	1.909	1.914	1.909	1.924	1.919	1.919
-0.010	0.020	-0.005	-0.005	0.005	-0.010	0.000	2.671	1.909	1.914	1.909	1.929	1.924	1.919
-0.010	0.015	-0.010	-0.005	0.005	-0.010	0.000	2.676	1.909	1.909	1.909	1.929	1.924	1.924
-0.010	0.015	-0.005	0.000	-0.005	0.005	0.000	2.681	1.909	1.909	1.909	1.929	1.919	1.929
-0.005	0.015	-0.010	0.000	-0.010	0.010	-0.005	2.681	1.914	1.909	1.909	1.929	1.919	1.924
0.000	0.010	0.000	0.000	-0.005	0.005	0.000	2.686	1.909	1.909	1.909	1.929	1.924	1.924
-0.010	0.015	0.000	0.000	-0.005	0.000	0.000	2.666	1.909	1.909	1.909	1.929	1.924	1.924
0.000	0.010	0.000	0.000	-0.005	0.000	0.000	2.681	1.909	1.904	1.909	1.929	1.919	1.919
0.015	-0.010	0.005	0.000	-0.020	-0.005	0.000	2.661	1.914	1.904	1.904	1.924	1.919	1.919
0.005	-0.015	-0.005	-0.005	-0.005	-0.005	0.000	2.661	1.904	1.904	1.904	1.924	1.919	1.919
0.000	-0.010	0.000	-0.005	0.000	-0.015	0.000	2.661	1.899	1.904	1.904	1.919	1.919	1.919
0.005	-0.015	0.005	-0.005	-0.010	-0.020	0.000	2.671	1.904	1.904	1.899	1.919	1.914	1.914
-0.005	-0.010	0.005	-0.005	-0.005	0.000	0.000	2.676	1.904	1.904	1.899	1.919	1.919	1.919
-0.005	0.000	0.000	-0.005	0.000	-0.005	0.000	2.681	1.904	1.904	1.899	1.919	1.919	1.919
-0.005	0.005	-0.005	-0.005	0.000	0.000	0.000	2.666	1.904	1.904	1.904	1.919	1.919	1.919
0.000	0.000	-0.005	-0.005	-0.005	0.005	0.000	2.666	1.909	1.904	1.904	1.919	1.914	1.919
-0.005	0.010	0.000	-0.005	-0.005	0.000	0.000	2.656	1.904	1.909	1.904	1.919	1.914	1.924
-0.005	0.015	-0.010	-0.005	0.000	-0.005	0.000	2.661	1.904	1.904	1.904	1.924	1.919	1.919
-0.005	0.005	-0.005	-0.005	0.005	-0.015	0.000	2.617	1.895	1.904	1.904	1.924	1.919	1.914
-0.010	0.005	-0.005	-0.005	0.000	0.000	0.000	2.637	1.895	1.899	1.899	1.924	1.919	1.924
-0.010	0.005	-0.005	0.000	0.000	-0.005	0.000	2.812	1.914	1.904	1.899	1.924	1.919	1.919
0.000	0.010	-0.005	0.000	-0.005	-0.010	0.000	2.671	1.914	1.909	1.904	1.924	1.919	1.919
-0.005	0.005	-0.005	0.000	0.005	-0.005	0.000	2.671	1.909	1.904	1.904	1.919	1.919	1.924
-0.010	-0.005	-0.005	0.000	0.000	0.005	0.000	2.666	1.909	1.904	1.899	1.924	1.919	1.919
-0.015	-0.015	-0.005	0.000	0.010	-0.005	0.000	2.671	1.904	1.899	1.899	1.919	1.919	1.919
-0.005	-0.015	-0.005	0.000	0.000	0.000	0.000	2.656	1.904	1.899	1.899	1.919	1.914	1.919
0.000	-0.005	-0.005	0.000	-0.005	-0.010	0.000	2.666	1.909	1.904	1.899	1.919	1.909	1.914
0.005	-0.020	0.000	-0.005	-0.015	0.000	0.000	2.651	1.904	1.895	1.899	1.919	1.909	1.914
-0.005	-0.029	0.000	-0.005	0.005	-0.005	0.000	2.646	1.899	1.895	1.899	1.914	1.914	1.914
-0.005	-0.029	-0.005	-0.005	0.005	-0.034	0.000	2.646	1.895	1.895	1.895	1.914	1.914	1.904
0.005	-0.020	0.000	-0.005	-0.005	-0.010	0.000	2.646	1.895	1.899	1.899	1.914	1.909	1.914
0.005	-0.015	0.000	-0.005	-0.015	0.005	0.000	2.671	1.899	1.899	1.895	1.914	1.909	1.914
0.000	-0.015	-0.010	-0.005	-0.010	0.005	0.000	2.622	1.895	1.895	1.895	1.914	1.909	1.914
0.000	-0.015	-0.005	-0.005	0.000	0.000	0.000	2.637	1.890	1.899	1.895	1.914	1.914	1.914
0.000	-0.010	-0.005	-0.005	0.015	0.005	-0.005	2.817	1.895	1.899	1.899	1.919	1.914	1.919
-0.010	0.005	0.000	-0.005	-0.015	-0.010	0.000	2.676	1.899	1.904	1.899	1.914	1.909	1.909
-0.005	0.010	0.000	0.000	-0.015	-0.005	0.000	2.671	1.899	1.904	1.899	1.919	1.909	1.909
-0.005	0.000	-0.005	0.000	-0.020	0.005	0.000	2.671	1.899	1.899	1.899	1.919	1.909	1.914
-0.005	0.005	-0.005	0.000	-0.020	0.005	0.000	2.676	1.904	1.904	1.899	1.919	1.914	1.914
0.005	-0.005	0.000	0.000	-0.010	-0.005	-0.005	2.676	1.904	1.899	1.899	1.919	1.914	1.914
-0.010	-0.010	-0.005	0.000	-0.010	0.005	0.000	2.666	1.899	1.895	1.895	1.919	1.914	1.914
-0.010	0.000	-0.005	0.000	-0.015	0.000	0.000	2.651	1.895	1.895	1.895	1.914	1.914	1.909
-0.005	0.010	0.000	-0.005	0.000	0.005	0.000	2.656	1.895	1.899	1.895	1.914	1.914	1.914
0.000	0.000	0.005	0.000	0.005	0.000	0.000	2.651	1.895	1.895	1.899	1.914	1.914	1.914
-0.005	0.005	0.000	-0.005	0.005	0.000	0.000	2.642	1.895	1.895	1.895	1.914	1.914	1.914
-0.005	0.005	-0.005	-0.005	0.000	-0.029	0.000	2.666	1.890	1.890	1.895	1.909	1.909	1.904
-0.005	0.000	0.000	-0.005	0.015	0.005	0.000	2.637	1.890	1.890	1.895	1.914	1.914	1.914
-0.010	0.005	-0.005	-0.005	0.024	0.000	0.000	2.637	1.890	1.890	1.890	1.909	1.914	1.914
0.010	0.000	-0.005	-0.005	0.000	-0.015	0.000	2.637	1.895	1.890	1.890	1.909	1.904	1.909
-0.005	-0.005	-0.005	-0.005	-0.005	0.005	0.000	2.681	1.895	1.890	1.890	1.909	1.904	1.914
0.000	-0.005	-0.005	-0.005	0.000	0.000	0.000	2.676	1.899	1.890	1.890	1.909	1.909	1.909
-0.005	-0.005	0.000	0.000	0.000	0.000	0.000	2.686	1.899	1.895	1.890	1.909	1.904	1.909
-0.005	0.005	-0.005	0.000	-0.005	-0.010	0.000	2.656	1.899	1.899	1.895	1.914	1.904	1.904
0.000	-0.005	-0.005	0.000	-0.005	0.000	0.000	2.676	1.904	1.899	1.890	1.914	1.904	1.904
0.000	0.005	-0.005	0.000	0.000	0.000	0.000	2.666	1.899	1.899	1.895	1.909	1.909	1.909
-0.005	0.005	-0.005	0.000	-0.005	-0.005	0.000	2.651	1.895	1.899	1.895	1.914	1.909	1.909
0.000	-0.005	-0.005	0.000	-0.005	0.000	0.000	2.651	1.895	1.895	1.895	1.909	1.909	1.909
-0.005	0.000	-0.005	0.000	-0.010	-0.024	0.000	2.637	1.890	1.895	1.890	1.909	1.904	1.899
-0.005	-0.005	0.000	-0.005	-0.005	-0.024	0.000	2.637	1.890	1.890	1.890	1.909	1.909	1.904
-0.005	-0.005	-0.005	-0.005	0.000	0.005	-0.005	2.661	1.890	1.885	1.890	1.909	1.904	1.909
0.000	-0.024	-0.005	-0.005	-0.005	-0.020	0.000	2.666	1.890	1.880	1.885	1.909	1.904	1.904
0.000	-0.024	-0.005	0.000	0.000	0.005	0.000	2.632	1.885	1.885	1.885	1.904	1.904	1.909
-0.005	-0.005	0.000	-0.005	-0.005	0.005	0.000	2.637	1.885	1.890	1.885	1.904	1.899	1.909
0.000	-0.010	-0.005	-0.005	-0.010	0.000	0.000	2.651	1.885	1.890	1.885	1.904	1.899	1.904
-0.005	0.000	0.000	-0.005	0.005	-0.005	0.000	2.666	1.890	1.890	1.890	1.904	1.904	1.899
0.010	-0.005	-0.005	-0.005	0.000	-0.005	0.000	2.686	1.895	1.890	1.890	1.904	1.899	1.904
0.000	-0.005	0.000	-0.005	0.000	0.005	0.000	2.676	1.895	1.890	1.890	1.904	1.904	1.904
0.005	-0.005	0.000	0.000	0.000	-0.020	0.000	2.676	1.899	1.890	1.890	1.909	1.899	1.899
0.005	-0.005	0.000	-0.005	-0.005	-0.010	0.000	2.671	1.899	1.890	1.890	1.909	1.899	1.904
0.000	-0.005	0.000	0.000	-0.005	0.010	0.000	2.661	1.899	1.895	1.890	1.909	1.904	1.909
0.000	0.005	-0.005	0.000	-0.010	-0.005	0.000	2.651	1.895	1.899	1.895	1.909	1.904	1.904
-0.005	0.005	-0.005	0.000	-0.005	-0.015	0.000	2.651	1.890	1.895	1.895	1.909	1.904	1.899
0.000	0.005	-0.010	0.000	0.000	0.005	0.000	2.642	1.890	1.895	1.895	1.909	1.904	1.909
-0.010	0.005	0.000	0.000	0.000	0.005	0.000	2.661	1.890	1.895	1.890	1.909	1.909	1.904
0.005	0.000	-0.005	0.000	-0.010	-0.005	0.000	2.803	1.909	1.895	1.890	1.909	1.904	1.904
-0.005	-0.005	-0.005	0.000	0.000	-0.010	0.000	2.646	1.899	1.890	1.890	1.909	1.904	1.899
-0.005	-0.005	0.000	-0.005	-0.010	0.000	0.000	2.646	1.895	1.890	1.890	1.909	1.899	1.904
-0.010	-0.005	-0.005	-0.005	-0.005	0.000	0.000	2.671	1.890	1.895	1.890	1.909	1.904	1.904
0.000	-0.005	-0.005	-0.005	-0.005	-0.005	0.000	2.676	1.899	1.895	1.890	1.909	1.904	1.904
-0.005	-0.010	-0.005	-0.005	0.000	0.005	0.000	2.676	1.895	1.895	1.890	1.909	1.904	1.904
-0.005	-0.015	0.000	-0.005	-0.005	-0.015	-0.005	2.676	1.890	1.890	1.890	1.904	1.904	1.899
0.000	-0.015	0.000	-0.010	0.000	0.000	0.000	2.676	1.895	1.890	1.890	1.909	1.904	1.904
-0.005	-0.024	0.000	-0.005	-0.005	0.005	0.000	2.661	1.895	1.890	1.890	1.909	1.904	1.909
-0.005	-0.020	-0.005	-0.005	-0.005	0.000	0.000	2.651	1.890	1.890	1.890	1.909	1.904	1.904
-0.010	-0.020	-0.005	-0.005	-0.005	-0.005	-0.005	2.651	1.890	1.890	1.890	1.909	1.904	1.904
0.000	-0.005	-0.005	-0.005	-0.005	0.000	-0.005	2.656	1.895	1.895	1.890	1.909	1.904	1.904
-0.010	-0.010	0.000	0.000	-0.010	0.000	0.000	2.646	1.885	1.890	1.890	1.909	1.904	1.904
-0.005	-0.005	-0.005	0.000	-0.005	-0.020	0.000	2.632	1.885	1.890	1.890	1.909	1.904	1.899
0.000	0.000	0.000	0.000	-0.005	0.000	0.000	2.798	1.904	1.899	1.895	1.909	1.904	1.909
0.000	-0.010	-0.005	0.000	0.000	-0.005	0.000	2.637	1.895	1.890	1.890	1.909	1.909	1.904
-0.005	-0.010	-0.005	0.000	-0.005	-0.005	0.000	2.607	1.890	1.895	1.890	1.909	1.904	1.904
0.000	0.000	0.000	0.000	-0.005	-0.010	-0.005	2.837	1.914	1.899	1.890	1.909	1.904	1.899
0.000	-0.010	0.000	0.000	-0.005	0.005	0.000	2.676	1.904	1.895	1.895	1.909	1.904	1.909
-0.010	-0.005	0.005	-0.005	0.000	0.000	0.000	2.666	1.899	1.895	1.895	1.909	1.904	1.904
0.000	-0.020	-0.005	-0.005	0.005	0.000	0.000	2.671	1.899	1.895	1.890	1.909	1.904	1.904
-0.010	0.000	-0.010	-0.005	0.000	-0.005	0.000	2.661	1.895	1.899	1.890	1.909	1.904	1.904
-0.005	0.000	-0.010	-0.005	0.000	0.000	0.000	2.671	1.895	1.895	1.890	1.909	1.904	1.904
-0.005	-0.005	-0.005	-0.005	0.000	-0.005	0.000	2.651	1.895	1.895	1.895	1.909	1.904	1.904
-0.005	-0.005	0.000	-0.005	0.000	-0.005	0.000	2.666	1.895	1.895	1.895	1.909	1.904	1.904
0.000	0.000	-0.005	-0.005	-0.005	-0.020	0.000	2.646	1.895	1.895	1.895	1.909	1.904	1.899
-0.010	-0.005	-0.005	-0.005	-0.005	-0.005	0.000	2.637	1.885	1.895	1.895	1.909	1.904	1.909
0.000	-0.005	-0.005	-0.005	0.005	0.000	0.000	2.646	1.890	1.890	1.895	1.914	1.909	1.909
-0.010	0.005	-0.005	0.000	-0.005	0.000	0.000	2.773	1.899	1.895	1.895	1.909	1.909	1.909
-0.005	0.005	0.000	-0.005	0.000	0.005	0.000	2.646	1.899	1.895	1.895	1.914	1.909	1.909
-0.005	0.000	0.000	0.000	0.000	-0.010	0.000	2.759	1.909	1.899	1.895	1.914	1.909	1.904
-0.010	0.000	0.000	0.000	0.000	-0.020	0.000	2.666	1.909	1.899	1.899	1.909	1.909	1.904
0.000	-0.010	-0.005	0.005	0.000	-0.005	0.000	2.651	1.899	1.895	1.895	1.914	1.909	1.909
0.000	-0.005	0.000	0.000	0.000	0.010	0.000	2.666	1.899	1.899	1.895	1.914	1.909	1.914
0.000	0.000	0.000	0.000	0.000	0.000	0.000	2.676	1.899	1.899	1.895	1.914	1.909	1.909
0.000	0.015	0.000	0.000	-0.005	0.000	0.000	2.661	1.895	1.899	1.895	1.909	1.904	1.909
-0.005	0.010	0.000	-0.005	-0.010	-0.029	0.000	2.656	1.895	1.895	1.899	1.909	1.904	1.899
-0.010	0.005	0.000	-0.005	-0.010	0.005	0.000	2.666	1.890	1.890	1.895	1.909	1.904	1.909
-0.010	-0.010	0.005	-0.005	-0.005	-0.024	0.000	2.661	1.890	1.885	1.890	1.909	1.909	1.899
-0.015	-0.005	0.005	-0.005	-0.005	0.015	0.000	2.661	1.890	1.890	1.890	1.909	1.909	1.914
-0.015	-0.005	0.000	-0.005	-0.005	-0.005	0.000	2.803	1.909	1.895	1.890	1.909	1.904	1.904
-0.005	0.005	0.000	-0.005	0.000	0.000	0.000	2.676	1.904	1.899	1.890	1.909	1.904	1.909
0.000	0.010	0.000	-0.005	0.000	0.005	0.000	2.666	1.904	1.899	1.895	1.914	1.909	1.909
-0.005	0.010	0.000	-0.005	-0.005	0.000	0.000	2.666	1.904	1.904	1.895	1.914	1.909	1.909
-0.005	0.005	0.000	-0.005	-0.010	0.000	0.000	2.661	1.895	1.895	1.895	1.914	1.909	1.909
-0.005	0.010	-0.005	-0.005	0.000	0.005	-0.005	2.656	1.899	1.899	1.895	1.914	1.909	1.909
0.000	0.000	-0.010	0.000	-0.005	-0.015	0.000	2.603	1.890	1.895	1.895	1.914	1.909	1.904
0.000	-0.005	-0.005	0.000	-0.010	0.000	0.000	2.666	1.890	1.895	1.895	1.914	1.909	1.909
-0.005	0.005	-0.005	0.000	-0.005	-0.010	0.000	2.661	1.890	1.890	1.890	1.914	1.909	1.904
-0.005	-0.005	0.000	0.000	-0.005	0.005	0.000	2.671	1.890	1.890	1.890	1.914	1.909	1.909
-0.005	0.000	-0.005	0.000	-0.005	-0.015	0.000	2.671	1.895	1.890	1.890	1.909	1.909	1.904
-0.005	-0.005	0.000	-0.005	0.005	0.005	0.000	2.671	1.895	1.890	1.890	1.909	1.909	1.914
-0.005	0.000	0.000	-0.005	0.005	0.000	0.000	2.661	1.890	1.890	1.890	1.909	1.904	1.909
-0.005	-0.010	0.000	-0.005	-0.005	-0.029	0.000	2.637	1.885	1.885	1.890	1.904	1.904	1.899
-0.005	-0.005	0.005	-0.005	-0.010	-0.005	0.000	2.734	1.899	1.890	1.890	1.904	1.904	1.904
-0.005	0.005	-0.005	-0.005	-0.005	-0.005	0.000	2.671	1.895	1.895	1.885	1.904	1.904	1.904
0.005	-0.005	-0.005	-0.005	0.005	0.000	0.000	2.681	1.899	1.890	1.885	1.904	1.909	1.904
-0.005	-0.020	0.000	-0.005	-0.010	-0.010	0.000	2.666	1.899	1.890	1.885	1.904	1.899	1.904
0.005	0.000	-0.005	-0.005	-0.010	-0.020	0.000	2.661	1.895	1.899	1.890	1.904	1.904	1.899
0.000	0.005	-0.010	-0.005	0.005	0.000	-0.005	2.666	1.895	1.895	1.895	1.909	1.904	1.909
0.005	-0.010	-0.005	-0.005	0.005	-0.015	0.000	2.656	1.895	1.895	1.890	1.909	1.909	1.904
0.000	-0.010	-0.005	-0.005	0.005	0.010	0.000	2.656	1.890	1.895	1.895	1.909	1.909	1.909
-0.005	-0.010	-0.010	0.000	-0.005	0.000	0.000	2.671	1.890	1.890	1.890	1.909	1.904	1.904
0.000	-0.010	-0.005	0.000	-0.005	-0.005	0.000	2.642	1.895	1.895	1.890	1.909	1.904	1.904
-0.005	0.010	-0.005	0.000	0.005	0.010	0.000	2.661	1.890	1.895	1.895	1.914	1.909	1.909
-0.010	0.005	-0.010	0.000	-0.005	0.000	0.000	2.632	1.890	1.895	1.890	1.909	1.904	1.904
-0.005	-0.005	-0.005	0.000	0.000	0.000	0.000	2.656	1.885	1.885	1.890	1.909	1.909	1.904
0.000	-0.010	-0.005	0.000	0.005	0.000	0.000	2.646	1.885	1.885	1.890	1.909	1.909	1.904
-0.005	-0.015	-0.005	-0.005	0.010	0.005	0.000	2.656	1.885	1.885	1.885	1.904	1.904	1.909
0.000	-0.010	0.000	-0.005	-0.005	0.005	0.000	2.646	1.885	1.885	1.885	1.904	1.899	1.904
0.005	-0.015	-0.005	-0.005	-0.010	0.000	0.000	2.764	1.899	1.885	1.885	1.904	1.899	1.904
-0.005	-0.015	-0.005	-0.005	-0.005	0.010	0.000	2.666	1.899	1.890	1.885	1.904	1.899	1.904
0.005	-0.005	-0.005	-0.010	0.000	0.005	0.000	2.671	1.899	1.895	1.885	1.904	1.899	1.904
0.000	-0.005	-0.005	-0.010	-0.005	0.010	0.000	2.671	1.890	1.895	1.890	1.904	1.899	1.899
-0.005	-0.010	-0.005	-0.005	-0.015	0.005	0.000	2.676	1.890	1.890	1.885	1.904	1.895	1.899
-0.005	-0.010	-0.005	-0.005	-0.010	-0.015	0.000	2.656	1.890	1.895	1.890	1.904	1.899	1.895
-0.005	0.000	-0.005	-0.005	-0.020	-0.005	0.000	2.656	1.890	1.895	1.890	1.909	1.899	1.899
-0.005	0.000	-0.005	-0.005	-0.015	-0.005	-0.005	2.666	1.895	1.890	1.890	1.909	1.899	1.899
-0.010	0.000	-0.005	-0.005	-0.010	-0.005	0.000	2.651	1.890	1.890	1.890	1.909	1.904	1.899
-0.005	-0.010	-0.005	-0.005	-0.005	-0.015	0.000	2.656	1.890	1.885	1.890	1.909	1.904	1.899
-0.005	-0.015	0.000	0.000	0.000	-0.005	0.000	2.617	1.885	1.885	1.890	1.909	1.904	1.909
-0.010	-0.010	-0.005	0.000	-0.010	0.000	-0.005	2.661	1.885	1.885	1.885	1.909	1.904	1.904
-0.010	-0.015	0.000	0.000	-0.010	-0.015	0.000	2.666	1.885	1.885	1.885	1.909	1.904	1.899
-0.015	0.000	-0.005	0.000	-0.005	-0.005	0.000	2.803	1.904	1.895	1.885	1.909	1.904	1.904
-0.010	0.005	0.000	0.000	0.000	0.000	-0.005	2.637	1.899	1.895	1.890	1.904	1.904	1.904
-0.010	0.005	0.000	-0.005	0.024	0.000	0.000	2.622	1.890	1.890	1.890	1.904	1.909	1.909
-0.005	-0.005	0.000	-0.005	0.015	-0.005	-0.005	2.671	1.890	1.885	1.885	1.904	1.904	1.904
0.000	0.000	-0.005	-0.005	-0.005	-0.005	-0.005	2.646	1.890	1.890	1.885	1.904	1.899	1.904
-0.005	0.000	-0.005	-0.005	0.000	-0.029	0.000	2.671	1.890	1.890	1.885	1.904	1.899	1.895
-0.015	0.000	-0.005	-0.005	-0.010	0.010	0.000	2.681	1.890	1.890	1.890	1.904	1.895	1.904
-0.010	0.005	0.005	-0.005	-0.010	-0.015	0.000	2.676	1.890	1.890	1.890	1.904	1.899	1.895
0.000	0.010	0.000	-0.005	-0.005	0.010	0.000	2.710	1.904	1.895	1.890	1.909	1.904	1.904
-0.005	-0.005	0.000	-0.005	0.005	0.005	0.000	2.637	1.890	1.890	1.890	1.909	1.904	1.904
-0.005	0.000	-0.005	0.000	0.000	0.005	0.000	2.666	1.895	1.895	1.890	1.909	1.904	1.904
-0.005	-0.005	0.005	0.000	0.000	0.010	0.000	2.666	1.895	1.890	1.890	1.909	1.904	1.904
-0.005	0.000	0.000	0.000	0.005	0.005	0.000	2.676	1.895	1.895	1.890	1.909	1.904	1.904
0.000	-0.010	0.000	0.000	0.000	-0.005	0.000	2.666	1.895	1.895	1.890	1.909	1.904	1.904
0.000	-0.015	0.000	0.000	0.000	0.000	0.000	2.671	1.895	1.895	1.890	1.909	1.904	1.899
-0.010	-0.010	-0.005	0.000	0.000	-0.005	0.000	2.671	1.890	1.890	1.890	1.909	1.904	1.904
0.000	-0.005	-0.005	0.000	-0.010	0.000	-0.005	2.705	1.899	1.895	1.890	1.909	1.904	1.904
-0.005	-0.010	-0.005	-0.005	-0.010	-0.010	0.000	2.681	1.899	1.895	1.890	1.909	1.899	1.899
0.005	-0.005	-0.005	-0.005	-0.005	-0.005	0.000	2.676	1.895	1.890	1.890	1.909	1.899	1.899
0.000	-0.005	-0.005	-0.005	-0.005	-0.005	0.000	2.671	1.895	1.890	1.890	1.909	1.904	1.899
-0.005	-0.015	-0.005	-0.005	0.005	0.000	0.000	2.676	1.895	1.890	1.885	1.904	1.904	1.904
-0.010	-0.010	-0.005	-0.005	0.000	-0.005	0.000	2.666	1.890	1.890	1.885	1.904	1.904	1.904
0.000	-0.005	-0.005	-0.005	-0.005	-0.005	0.000	2.671	1.890	1.890	1.890	1.904	1.899	1.899
-0.005	0.000	0.000	-0.005	-0.005	0.000	0.000	2.681	1.895	1.895	1.890	1.904	1.899	1.904
-0.005	0.000	0.000	-0.010	-0.010	-0.010	0.000	2.695	1.895	1.890	1.890	1.909	1.895	1.899
0.000	-0.005	0.005	-0.010	-0.010	-0.005	0.000	2.651	1.895	1.895	1.890	1.909	1.899	1.899
0.000	-0.015	0.000	-0.005	-0.010	-0.015	0.000	2.661	1.895	1.890	1.890	1.909	1.904	1.904
0.005	-0.005	-0.010	-0.005	-0.005	0.015	0.000	2.686	1.899	1.890	1.890	1.909	1.904	1.909
0.010	-0.010	-0.005	-0.005	-0.005	0.005	0.000	2.671	1.899	1.895	1.890	1.909	1.904	1.904
-0.005	-0.005	-0.005	0.000	0.000	0.015	0.000	2.686	1.895	1.895	1.890	1.909	1.904	1.909
0.000	-0.005	-0.005	0.000	0.000	0.005	0.000	2.666	1.895	1.895	1.890	1.909	1.909	1.909
-0.005	0.005	-0.005	0.000	0.005	0.000	0.000	2.671	1.895	1.895	1.890	1.909	1.909	1.909
0.000	0.024	-0.005	0.000	0.000	0.005	0.000	2.690	1.899	1.904	1.895	1.909	1.904	1.909
-0.005	0.015	-0.005	0.000	-0.005	-0.020	0.000	2.656	1.890	1.899	1.895	1.914	1.904	1.899
-0.005	0.000	0.000	-0.005	0.000	0.000	0.000	2.686	1.890	1.890	1.890	1.909	1.909	1.909
-0.005	0.015	-0.010	0.000	-0.005	-0.005	0.000	2.671	1.895	1.895	1.890	1.909	1.904	1.904
-0.005	0.000	-0.005	0.000	0.000	-0.005	0.000	2.656	1.890	1.890	1.890	1.909	1.904	1.904
0.000	-0.005	-0.005	-0.005	0.005	-0.015	0.000	2.666	1.890	1.890	1.890	1.909	1.904	1.904
-0.005	0.000	0.005	-0.005	0.000	0.000	0.000	2.651	1.890	1.890	1.890	1.909	1.904	1.909
-0.005	-0.010	-0.005	-0.005	0.000	0.000	0.000	2.671	1.890	1.885	1.885	1.904	1.899	1.904
0.000	0.000	0.000	-0.005	0.000	-0.020	0.000	2.690	1.890	1.890	1.885	1.904	1.899	1.899
-0.005	0.005	-0.005	-0.005	0.000	-0.010	0.000	2.676	1.895	1.890	1.885	1.904	1.904	1.899
0.000	0.000	-0.005	-0.005	-0.005	-0.005	0.000	2.671	1.890	1.890	1.890	1.904	1.904	1.904
0.000	-0.005	-0.005	-0.005	-0.005	-0.005	0.000	2.671	1.895	1.890	1.885	1.904	1.904	1.904
0.000	-0.005	-0.005	-0.005	0.000	0.000	0.000	2.676	1.895	1.890	1.890	1.904	1.899	1.904
0.000	0.010	-0.005	-0.005	0.000	-0.005	-0.005	2.681	1.895	1.895	1.890	1.909	1.904	1.904
-0.005	0.000	-0.005	0.000	0.000	-0.010	0.000	2.686	1.895	1.895	1.890	1.909	1.904	1.904
-0.005	0.010	-0.005	0.000	0.000	-0.015	0.000	2.686	1.899	1.899	1.895	1.909	1.904	1.904
-0.005	0.000	0.000	0.000	0.000	-0.005	0.000	2.666	1.895	1.895	1.895	1.909	1.904	1.904
-0.005	0.005	-0.005	0.000	0.000	-0.005	0.000	2.676	1.895	1.895	1.890	1.909	1.904	1.904
0.000	-0.005	0.000	0.000	0.000	-0.024	0.000	2.676	1.895	1.890	1.890	1.909	1.904	1.899
-0.005	-0.010	-0.005	0.000	0.000	0.000	0.000	2.671	1.890	1.890	1.890	1.909	1.904	1.909
-0.005	-0.005	-0.010	0.000	0.000	0.005	0.000	2.671	1.895	1.890	1.885	1.909	1.904	1.904
-0.005	-0.005	-0.010	0.000	-0.005	-0.005	0.000	2.661	1.895	1.890	1.890	1.904	1.899	1.899
0.000	-0.010	-0.005	-0.005	-0.005	-0.010	0.000	2.676	1.890	1.890	1.890	1.909	1.899	1.899
-0.005	-0.015	0.000	-0.005	-0.005	0.005	0.000	2.686	1.895	1.890	1.890	1.904	1.899	1.904
-0.005	0.005	-0.005	-0.005	-0.005	-0.005	0.000	2.671	1.890	1.895	1.890	1.904	1.899	1.899
-0.005	-0.005	0.000	-0.005	-0.010	0.000	-0.005	2.656	1.890	1.890	1.890	1.904	1.899	1.904
-0.010	-0.020	0.000	-0.005	-0.010	0.005	0.000	2.671	1.895	1.885	1.890	1.904	1.899	1.904
0.000	-0.015	0.000	-0.005	-0.005	0.000	0.000	2.671	1.895	1.890	1.890	1.904	1.904	1.904
-0.015	-0.010	-0.005	-0.005	0.000	0.000	0.000	2.676	1.895	1.890	1.890	1.904	1.904	1.904
-0.010	-0.020	-0.010	-0.005	0.000	0.000	0.000	2.676	1.895	1.890	1.890	1.909	1.904	1.904
-0.005	0.000	-0.005	-0.005	-0.005	-0.010	0.000	2.676	1.899	1.899	1.890	1.909	1.904	1.904
-0.015	-0.005	-0.010	0.000	-0.005	-0.024	0.000	2.700	1.899	1.895	1.895	1.909	1.904	1.895
-0.010	-0.005	-0.005	0.000	-0.005	0.000	-0.005	2.686	1.904	1.899	1.895	1.909	1.904	1.904
0.000	-0.005	-0.005	0.000	0.000	-0.020	0.000	2.671	1.899	1.899	1.895	1.909	1.904	1.899
-0.010	0.005	0.000	0.000	-0.005	0.005	0.000	2.661	1.895	1.899	1.895	1.909	1.904	1.909
-0.005	0.000	-0.005	0.000	0.000	0.010	0.000	2.676	1.895	1.895	1.895	1.909	1.904	1.909
0.000	-0.010	0.000	0.000	-0.005	0.005	0.000	2.686	1.895	1.890	1.895	1.909	1.904	1.904
-0.010	-0.005	0.000	-0.005	-0.005	0.005	0.000	2.676	1.895	1.895	1.890	1.909	1.904	1.909
-0.005	0.000	0.000	-0.005	-0.005	0.010	0.000	2.690	1.899	1.895	1.890	1.909	1.904	1.909
0.000	-0.005	0.000	-0.005	-0.005	-0.005	0.000	2.690	1.899	1.895	1.890	1.909	1.904	1.904
-0.005	-0.015	-0.005	-0.005	0.000	0.010	0.000	2.661	1.890	1.890	1.890	1.909	1.904	1.909
0.000	-0.020	0.000	-0.005	0.000	0.005	0.000	2.661	1.895	1.890	1.890	1.909	1.904	1.904
0.000	-0.015	-0.005	-0.005	0.005	-0.020	0.000	2.681	1.895	1.890	1.890	1.909	1.904	1.899
0.000	0.000	-0.005	-0.005	-0.005	0.000	0.000	2.686	1.899	1.895	1.890	1.909	1.904	1.904
-0.005	-0.005	0.000	-0.005	-0.005	0.010	0.000	2.671	1.899	1.895	1.895	1.909	1.904	1.909
0.005	0.000	-0.005	-0.005	-0.005	0.005	0.000	2.676	1.899	1.899	1.895	1.909	1.904	1.909
-0.005	0.000	-0.005	0.000	-0.005	0.005	0.000	2.690	1.899	1.899	1.895	1.914	1.909	1.904
-0.005	0.010	-0.005	-0.005	-0.005	0.010	0.000	2.695	1.899	1.899	1.895	1.909	1.909	1.909
0.000	0.000	-0.010	0.000	0.000	-0.010	0.000	2.690	1.890	1.895	1.899	1.914	1.909	1.904
-0.010	0.000	-0.005	0.000	-0.005	-0.015	0.000	2.666	1.895	1.895	1.895	1.914	1.904	1.904
-0.015	0.000	-0.005	0.000	-0.005	-0.015	0.000	2.676	1.895	1.895	1.895	1.909	1.909	1.899
0.005	-0.010	0.005	0.000	-0.005	-0.020	0.000	2.666	1.895	1.895	1.895	1.914	1.909	1.904
0.005	0.000	0.000	0.000	-0.005	-0.010	0.000	2.661	1.895	1.895	1.895	1.909	1.909	1.904
0.005	-0.005	0.000	0.000	0.000	-0.010	0.000	2.661	1.895	1.895	1.890	1.909	1.904	1.909
0.005	0.000	-0.005	0.000	0.000	-0.005	0.000	2.661	1.890	1.895	1.890	1.909	1.909	1.909
-0.010	-0.015	0.005	-0.005	-0.005	-0.005	0.000	2.690	1.890	1.885	1.890	1.909	1.904	1.909
0.000	-0.010	-0.005	-0.005	-0.005	-0.029	0.000	2.666	1.890	1.890	1.885	1.904	1.904	1.899
0.005	-0.005	-0.005	-0.005	-0.005	0.000	0.000	2.651	1.890	1.890	1.885	1.904	1.904	1.909
0.000	0.000	-0.005	-0.005	-0.010	0.005	0.000	2.676	1.895	1.895	1.885	1.904	1.904	1.909
0.000	0.000	0.000	-0.005	-0.010	0.010	0.000	2.690	1.899	1.895	1.890	1.909	1.899	1.909
-0.005	-0.024	0.000	-0.005	-0.005	-0.005	0.000	2.690	1.895	1.885	1.885	1.909	1.904	1.904
-0.005	-0.024	0.000	0.000	0.010	0.005	-0.005	2.676	1.899	1.890	1.890	1.909	1.909	1.909
0.000	-0.024	-0.005	0.000	0.000	0.000	0.000	2.666	1.899	1.895	1.890	1.909	1.904	1.909
0.000	0.005	-0.005	0.000	0.000	0.005	0.000	2.686	1.899	1.899	1.895	1.909	1.904	1.909
-0.005	0.005	-0.005	0.000	0.010	-0.010	0.000	2.676	1.899	1.904	1.895	1.909	1.909	1.904
0.000	0.010	-0.005	0.000	-0.005	0.005	-0.005	2.666	1.899	1.899	1.895	1.909	1.904	1.909
-0.005	0.005	-0.005	0.000	0.000	-0.005	0.000	2.686	1.899	1.899	1.895	1.914	1.909	1.904
0.000	0.000	-0.005	0.000	0.000	-0.005	0.000	2.671	1.899	1.899	1.895	1.914	1.909	1.909
0.005	0.000	-0.010	0.000	-0.005	0.005	0.000	2.676	1.899	1.895	1.895	1.909	1.909	1.909
-0.005	-0.005	0.000	-0.005	-0.015	-0.015	0.000	2.686	1.895	1.895	1.895	1.914	1.904	1.904
-0.005	-0.010	-0.005	0.000	-0.020	0.000	0.000	2.666	1.895	1.890	1.890	1.909	1.904	1.904
-0.005	-0.005	-0.005	0.000	-0.010	0.000	0.000	2.676	1.895	1.890	1.895	1.909	1.904	1.904
-0.005	-0.010	0.000	-0.005	-0.005	0.005	0.000	2.651	1.895	1.890	1.890	1.909	1.909	1.909
-0.005	-0.005	-0.005	-0.005	0.000	0.000	0.000	2.671	1.895	1.890	1.890	1.909	1.904	1.904
0.005	-0.005	-0.005	-0.005	0.005	0.005	0.000	2.651	1.895	1.895	1.890	1.909	1.904	1.909
-0.005	-0.005	0.000	-0.005	-0.005	-0.005	0.000	2.681	1.895	1.890	1.890	1.909	1.904	1.904
-0.005	-0.005	0.000	-0.005	-0.020	-0.005	0.000	2.671	1.895	1.895	1.890	1.909	1.899	1.904
-0.005	0.000	0.000	-0.005	-0.010	0.000	0.000	2.661	1.895	1.895	1.890	1.909	1.904	1.904
0.005	0.010	-0.005	-0.005	0.000	-0.010	0.000	2.671	1.899	1.895	1.895	1.909	1.909	1.904
0.000	0.005	-0.005	-0.005	0.000	0.005	-0.005	2.695	1.899	1.895	1.895	1.909	1.909	1.909
0.000	0.005	0.000	0.000	0.010	-0.005	0.000	2.671	1.895	1.899	1.895	1.909	1.909	1.904
0.000	0.005	0.000	0.000	0.000	0.000	0.000	2.681	1.899	1.899	1.899	1.914	1.904	1.909
-0.010	0.005	0.000	0.000	0.000	-0.005	0.000	2.656	1.895	1.899	1.895	1.914	1.909	1.909
-0.005	0.010	0.000	0.000	0.000	0.000	0.000	2.686	1.895	1.895	1.895	1.914	1.909	1.909
0.000	0.000	-0.005	0.000	-0.005	0.005	0.000	2.676	1.895	1.890	1.895	1.914	1.904	1.909
-0.010	-0.005	-0.005	0.000	0.005	-0.005	0.000	2.661	1.890	1.890	1.890	1.909	1.909	1.909
-0.005	-0.010	-0.005	0.000	0.005	-0.020	0.000	2.671	1.895	1.890	1.890	1.909	1.904	1.899
0.000	-0.005	0.000	-0.005	0.000	-0.010	0.000	2.690	1.895	1.895	1.890	1.909	1.904	1.904
-0.005	-0.010	0.000	-0.005	-0.005	-0.020	0.000	2.651	1.890	1.890	1.890	1.909	1.904	1.904
0.000	-0.005	0.000	-0.005	-0.010	-0.005	0.000	2.676	1.895	1.895	1.890	1.909	1.899	1.909
0.000	-0.010	-0.005	-0.005	-0.005	-0.010	0.000	2.671	1.895	1.890	1.890	1.904	1.899	1.904
-0.005	-0.005	-0.005	-0.010	0.000	0.000	0.000	2.676	1.895	1.890	1.890	1.909	1.904	1.904
0.000	-0.005	-0.010	-0.005	0.010	0.000	0.000	2.666	1.895	1.895	1.890	1.904	1.909	1.909
-0.005	0.000	-0.005	-0.005	0.005	-0.005	0.000	2.676	1.895	1.895	1.890	1.909	1.904	1.904
0.000	-0.010	-0.005	-0.005	-0.015	-0.005	0.000	2.661	1.895	1.890	1.895	1.909	1.899	1.904
-0.005	-0.005	-0.005	-0.005	-0.020	0.000	0.000	2.686	1.895	1.895	1.895	1.909	1.899	1.904
-0.005	0.000	0.000	0.000	-0.015	-0.015	0.000	2.671	1.895	1.899	1.890	1.914	1.904	1.899
-0.010	-0.005	0.000	0.000	-0.015	0.010	0.000	2.681	1.899	1.895	1.895	1.909	1.904	1.909
-0.005	0.000	-0.005	0.000	-0.015	0.010	-0.005	2.681	1.899	1.899	1.895	1.914	1.909	1.909
-0.005	0.000	-0.005	0.000	0.000	0.000	0.000	2.676	1.899	1.899	1.895	1.914	1.909	1.909
0.000	0.000	-0.005	0.000	0.005	0.010	-0.005	2.681	1.899	1.899	1.895	1.914	1.914	1.909
0.000	-0.005	-0.005	0.000	0.015	0.010	0.000	2.666	1.899	1.895	1.895	1.909	1.909	1.909
0.000	0.000	-0.005	0.000	0.010	0.005	0.000	2.661	1.899	1.899	1.895	1.909	1.909	1.909
0.000	0.010	-0.005	0.000	0.000	-0.005	0.000	2.695	1.899	1.899	1.895	1.909	1.904	1.904
0.000	-0.005	-0.005	0.000	0.005	-0.010	0.000	2.676	1.895	1.895	1.895	1.909	1.909	1.904
-0.005	-0.010	-0.005	-0.005	0.000	-0.015	0.000	2.676	1.895	1.890	1.890	1.909	1.904	1.899
0.000	-0.020	0.000	-0.005	-0.005	0.000	0.000	2.666	1.899	1.890	1.890	1.909	1.904	1.909
0.000	-0.010	-0.005	-0.005	0.005	0.005	0.000	2.676	1.899	1.890	1.890	1.909	1.904	1.909
-0.015	0.000	-0.005	-0.005	-0.005	-0.005	0.000	2.661	1.890	1.895	1.890	1.909	1.904	1.904
-0.005	0.000	-0.005	-0.005	0.000	-0.020	0.000	2.676	1.895	1.895	1.895	1.909	1.904	1.899
-0.005	-0.005	-0.005	-0.005	-0.005	0.010	0.000	2.681	1.899	1.895	1.890	1.909	1.904	1.904
-0.005	-0.005	0.000	-0.005	-0.015	0.005	0.000	2.700	1.904	1.899	1.895	1.914	1.899	1.904
0.005	-0.010	-0.005	-0.005	-0.010	-0.010	0.000	2.651	1.899	1.895	1.895	1.914	1.904	1.899
-0.005	0.005	-0.005	-0.005	-0.005	-0.010	0.000	2.681	1.899	1.899	1.895	1.914	1.909	1.904
-0.010	0.000	0.000	-0.005	0.000	-0.005	0.000	2.681	1.899	1.899	1.895	1.914	1.909	1.909
-0.005	0.010	-0.005	0.000	0.015	-0.010	0.000	2.666	1.895	1.899	1.895	1.914	1.914	1.909
0.000	0.000	-0.005	0.000	0.010	-0.015	0.000	2.661	1.895	1.895	1.895	1.914	1.909	1.904
-0.010	0.000	-0.010	0.000	-0.005	-0.005	0.000	2.671	1.890	1.895	1.895	1.909	1.909	1.914
-0.005	-0.005	-0.005	0.000	0.005	-0.010	0.000	2.666	1.890	1.890	1.895	1.909	1.909	1.909
-0.010	-0.005	-0.005	0.000	-0.005	-0.010	0.000	2.695	1.895	1.890	1.890	1.909	1.909	1.904
-0.010	0.000	0.000	-0.005	-0.005	0.010	0.000	2.686	1.895	1.890	1.890	1.914	1.904	1.909
0.000	-0.020	0.000	0.000	-0.010	0.005	0.000	2.681	1.899	1.890	1.890	1.909	1.904	1.909
-0.010	-0.024	-0.005	-0.005	-0.010	0.000	0.000	2.671	1.895	1.890	1.890	1.904	1.904	1.909
0.000	-0.034	0.000	-0.010	-0.015	-0.010	0.000	2.686	1.899	1.890	1.885	1.904	1.899	1.899
0.000	-0.020	-0.005	-0.005	-0.015	-0.005	0.000	2.666	1.895	1.890	1.885	1.904	1.904	1.904
0.000	-0.020	-0.005	-0.005	-0.010	0.005	0.000	2.676	1.895	1.895	1.890	1.904	1.904	1.904
0.005	-0.005	0.000	-0.010	-0.005	0.005	0.000	2.681	1.899	1.899	1.890	1.909	1.904	1.904
0.005	-0.005	0.000	-0.010	-0.005	0.000	0.000	2.690	1.899	1.899	1.895	1.909	1.904	1.904
-0.005	-0.010	0.000	-0.005	-0.010	-0.015	0.000	2.676	1.899	1.899	1.895	1.909	1.904	1.904
0.000	-0.005	-0.005	-0.005	-0.005	0.005	0.000	2.666	1.895	1.899	1.895	1.909	1.909	1.909
0.000	0.010	0.000	0.000	-0.010	0.005	0.000	2.676	1.895	1.899	1.899	1.914	1.904	1.909
-0.015	0.000	0.005	-0.005	-0.005	0.000	0.000	2.676	1.895	1.899	1.899	1.914	1.909	1.909
0.000	0.000	0.000	0.000	0.034	0.005	0.000	2.676	1.899	1.899	1.899	1.914	1.924	1.914
0.005	0.000	-0.005	0.000	0.024	0.000	0.000	2.656	1.899	1.899	1.895	1.914	1.914	1.914
-0.010	0.000	-0.005	0.000	0.005	-0.005	0.000	2.676	1.895	1.895	1.895	1.914	1.909	1.909
-0.005	-0.005	-0.005	0.000	0.000	0.000	0.000	2.690	1.899	1.895	1.895	1.909	1.904	1.909
-0.005	0.000	0.000	0.000	-0.005	-0.005	0.000	2.676	1.895	1.895	1.895	1.909	1.904	1.904
-0.005	0.010	-0.005	0.000	0.005	-0.005	0.000	2.676	1.899	1.899	1.895	1.909	1.909	1.904
0.000	0.000	0.000	-0.005	0.000	-0.010	0.000	2.676	1.895	1.895	1.895	1.909	1.904	1.904
-0.010	-0.015	0.005	-0.005	0.000	-0.015	0.000	2.676	1.890	1.885	1.890	1.909	1.904	1.899
0.000	-0.010	-0.005	-0.005	-0.005	-0.024	0.000	2.661	1.895	1.890	1.890	1.909	1.904	1.899
-0.005	-0.010	-0.010	-0.005	0.000	0.000	0.000	2.666	1.890	1.890	1.885	1.909	1.904	1.909
-0.010	-0.015	-0.005	-0.005	0.000	-0.010	0.000	2.671	1.895	1.890	1.890	1.909	1.904	1.904
-0.005	-0.005	-0.005	-0.005	0.000	-0.010	0.000	2.690	1.899	1.895	1.890	1.909	1.904	1.904
-0.005	0.000	0.000	-0.005	0.010	0.000	0.000	2.666	1.895	1.895	1.890	1.909	1.909	1.909
-0.005	-0.005	0.000	-0.005	0.010	-0.010	0.000	2.676	1.895	1.895	1.895	1.909	1.909	1.904
-0.020	0.005	0.005	-0.005	0.015	-0.010	0.000	2.681	1.895	1.899	1.895	1.914	1.909	1.909
-0.005	0.000	0.000	0.000	0.005	-0.020	0.000	2.676	1.899	1.899	1.895	1.914	1.904	1.904
-0.015	0.005	-0.005	0.000	0.005	-0.015	0.000	2.671	1.895	1.899	1.895	1.914	1.909	1.904
-0.005	0.010	-0.005	0.005	0.015	-0.005	0.000	2.666	1.895	1.899	1.895	1.914	1.909	1.909
-0.010	0.000	0.000	0.000	0.020	-0.015	0.000	2.676	1.895	1.890	1.895	1.909	1.909	1.909
-0.020	0.005	-0.005	0.000	0.005	0.000	0.000	2.686	1.899	1.895	1.895	1.914	1.904	1.914
-0.005	0.000	-0.005	0.000	-0.005	-0.005	0.000	2.681	1.899	1.890	1.895	1.909	1.904	1.909
-0.005	0.000	-0.005	-0.005	-0.029	0.005	0.000	2.671	1.895	1.895	1.890	1.909	1.895	1.909
-0.005	0.000	-0.005	-0.005	-0.029	0.015	-0.005	2.681	1.899	1.895	1.890	1.909	1.899	1.904
0.000	-0.010	-0.005	-0.005	-0.024	0.005	0.000	2.690	1.899	1.890	1.885	1.909	1.904	1.899
-0.005	-0.010	-0.005	0.000	-0.020	0.000	0.000	2.661	1.895	1.890	1.890	1.909	1.904	1.899
-0.005	-0.010	0.000	-0.005	0.000	-0.005	0.000	2.661	1.895	1.895	1.890	1.909	1.909	1.899
-0.005	-0.005	-0.005	-0.005	-0.029	0.005	0.000	2.671	1.895	1.895	1.890	1.904	1.899	1.904
0.000	-0.005	-0.010	-0.005	-0.039	0.005	0.000	2.666	1.895	1.895	1.890	1.904	1.899	1.904
0.005	-0.015	-0.010	-0.005	-0.024	0.000	0.000	2.671	1.895	1.890	1.890	1.904	1.904	1.904
-0.005	-0.010	-0.010	-0.005	-0.015	0.000	-0.005	2.671	1.895	1.895	1.890	1.909	1.904	1.904
0.000	-0.005	-0.005	-0.005	-0.010	-0.015	0.000	2.671	1.895	1.895	1.895	1.909	1.904	1.899
-0.005	0.005	-0.005	-0.005	-0.020	-0.015	0.000	2.681	1.899	1.899	1.895	1.909	1.904	1.899
0.000	0.010	-0.005	0.000	-0.020	0.000	0.000	2.676	1.895	1.895	1.895	1.914	1.904	1.904
-0.010	-0.005	0.005	0.000	-0.010	0.010	0.000	2.681	1.895	1.895	1.895	1.914	1.909	1.909
0.005	0.005	0.000	0.000	0.005	0.015	0.000	2.681	1.899	1.899	1.895	1.914	1.914	1.914
-0.005	0.010	-0.005	0.000	0.024	0.015	0.000	2.671	1.899	1.899	1.895	1.914	1.919	1.914
-0.005	-0.010	0.000	0.000	0.029	0.000	0.000	2.661	1.895	1.895	1.895	1.914	1.919	1.914
-0.005	-0.005	-0.005	0.000	0.020	0.005	0.000	2.671	1.895	1.895	1.895	1.914	1.909	1.914
0.005	0.000	-0.005	0.000	0.005	0.005	0.000	2.661	1.895	1.895	1.895	1.909	1.904	1.909
-0.005	0.005	-0.005	0.000	-0.005	-0.020	0.000	2.671	1.895	1.895	1.890	1.909	1.899	1.899
0.000	-0.005	-0.005	-0.005	-0.010	-0.010	0.000	2.681	1.890	1.895	1.890	1.909	1.899	1.904
0.005	0.000	0.000	-0.005	0.000	0.010	0.000	2.676	1.895	1.895	1.890	1.909	1.904	1.909
-0.005	-0.005	0.000	-0.005	0.000	0.010	0.000	2.676	1.899	1.890	1.890	1.909	1.904	1.904
-0.005	-0.005	-0.005	-0.005	0.000	-0.005	0.000	2.686	1.899	1.895	1.890	1.909	1.904	1.904
0.010	0.005	-0.005	-0.005	0.000	-0.015	0.000	2.681	1.895	1.899	1.890	1.909	1.904	1.899
-0.005	0.005	0.000	-0.005	-0.015	0.000	0.000	2.676	1.895	1.895	1.895	1.909	1.899	1.904
0.000	0.020	0.000	0.000	-0.015	-0.005	0.000	2.671	1.899	1.904	1.895	1.914	1.904	1.904
0.000	0.015	0.000	0.000	0.000	-0.015	0.000	2.671	1.899	1.899	1.899	1.914	1.909	1.904
0.000	0.024	0.000	-0.005	-0.005	-0.015	0.000	2.676	1.899	1.899	1.895	1.919	1.909	1.904
0.000	0.020	0.000	-0.005	-0.010	0.000	0.000	2.681	1.899	1.899	1.895	1.914	1.909	1.909
0.000	0.010	0.000	0.000	-0.010	-0.010	0.000	2.671	1.895	1.899	1.895	1.914	1.909	1.909
-0.005	0.015	0.000	0.000	-0.005	-0.010	0.000	2.666	1.899	1.895	1.895	1.914	1.909	1.909
-0.015	0.005	-0.005	0.000	-0.010	-0.005	0.000	2.681	1.895	1.895	1.895	1.914	1.909	1.909
-0.010	0.005	-0.005	0.000	-0.005	-0.005	0.000	2.671	1.895	1.890	1.895	1.914	1.909	1.909
-0.005	0.020	0.000	0.000	0.000	0.005	0.000	2.676	1.895	1.899	1.895	1.909	1.909	1.914
-0.010	-0.005	0.000	-0.005	0.005	0.005	0.000	2.671	1.895	1.890	1.890	1.909	1.909	1.909
-0.005	-0.005	-0.005	-0.005	0.000	-0.005	0.000	2.681	1.895	1.890	1.890	1.909	1.909	1.909
0.005	-0.010	-0.005	-0.005	0.000	0.005	0.000	2.676	1.899	1.890	1.890	1.904	1.904	1.909
0.000	-0.010	-0.005	-0.005	-0.005	0.005	0.000	2.686	1.895	1.890	1.890	1.909	1.904	1.909
-0.015	-0.020	0.000	-0.005	0.000	0.005	0.000	2.666	1.890	1.890	1.890	1.904	1.904	1.904
-0.010	-0.010	0.000	-0.005	0.000	-0.005	0.000	2.671	1.895	1.895	1.890	1.909	1.904	1.904
-0.010	-0.015	0.000	-0.005	0.000	0.000	0.000	2.661	1.895	1.890	1.890	1.904	1.904	1.904
0.010	-0.020	0.000	-0.005	0.000	0.000	0.000	2.671	1.899	1.890	1.890	1.909	1.904	1.904
-0.005	-0.020	0.000	0.000	0.000	-0.005	0.000	2.681	1.899	1.895	1.890	1.909	1.904	1.904
-0.005	-0.010	0.000	-0.005	0.005	-0.005	0.000	2.690	1.899	1.899	1.890	1.909	1.904	1.904
0.000	-0.015	0.000	0.000	-0.005	0.005	0.000	2.681	1.899	1.895	1.895	1.909	1.904	1.904
-0.005	0.000	-0.005	0.000	-0.005	0.000	0.000	2.681	1.904	1.904	1.895	1.909	1.909	1.904
0.005	0.010	0.000	0.000	-0.005	-0.020	0.000	2.676	1.904	1.904	1.899	1.914	1.904	1.904
0.000	0.010	-0.010	0.000	0.000	-0.015	0.000	2.676	1.899	1.899	1.895	1.914	1.909	1.904
-0.010	0.010	-0.005	0.000	-0.005	0.005	0.000	2.676	1.899	1.899	1.899	1.914	1.904	1.909
0.000	0.005	-0.005	0.000	0.000	0.000	0.000	2.676	1.899	1.899	1.899	1.914	1.909	1.909
-0.010	0.000	-0.005	-0.005	0.000	-0.015	-0.005	2.676	1.895	1.895	1.895	1.914	1.904	1.899
0.000	-0.005	-0.005	-0.005	-0.005	0.000	0.000	2.676	1.895	1.895	1.895	1.909	1.904	1.909
-0.005	-0.010	-0.005	-0.005	0.000	-0.024	0.000	2.671	1.895	1.890	1.895	1.909	1.909	1.904
0.000	-0.010	-0.005	-0.005	0.000	-0.015	0.000	2.671	1.895	1.895	1.890	1.909	1.904	1.904
-0.005	-0.005	-0.005	-0.005	-0.005	0.005	0.000	2.666	1.895	1.895	1.890	1.909	1.904	1.909
0.000	-0.010	-0.005	-0.005	-0.005	0.005	0.000	2.666	1.895	1.890	1.890	1.909	1.904	1.909
0.000	-0.015	0.000	-0.005	-0.010	-0.005	0.000	2.661	1.895	1.890	1.890	1.909	1.904	1.904
-0.010	0.005	0.000	-0.005	-0.005	0.010	0.000	2.671	1.895	1.899	1.890	1.909	1.909	1.909
-0.005	-0.005	0.005	-0.005	0.000	0.000	0.000	2.686	1.895	1.895	1.895	1.909	1.909	1.904
-0.015	0.000	0.000	-0.005	0.000	0.005	0.000	2.681	1.895	1.899	1.895	1.914	1.909	1.909
-0.010	0.010	-0.005	0.000	0.000	0.005	0.000	2.666	1.895	1.899	1.895	1.914	1.909	1.909
-0.010	-0.005	-0.005	0.000	0.000	0.000	0.000	2.681	1.899	1.895	1.895	1.914	1.909	1.909
-0.010	-0.005	-0.005	0.000	0.000	-0.005	0.000	2.671	1.899	1.895	1.895	1.914	1.909	1.909
-0.005	0.000	-0.005	0.000	-0.010	-0.005	0.000	2.671	1.899	1.899	1.895	1.909	1.904	1.904
-0.010	0.005	-0.010	0.000	-0.005	-0.005	0.000	2.676	1.895	1.895	1.895	1.914	1.909	1.904
-0.005	-0.005	-0.005	0.000	-0.005	-0.015	0.000	2.690	1.899	1.890	1.890	1.914	1.909	1.904
0.000	0.010	-0.005	0.000	0.005	-0.015	0.000	2.666	1.895	1.899	1.890	1.914	1.914	1.904
0.000	-0.005	-0.005	0.000	-0.005	-0.010	0.000	2.676	1.890	1.890	1.890	1.909	1.904	1.904
-0.005	0.000	-0.005	-0.005	0.010	-0.005	0.000	2.676	1.895	1.890	1.890	1.909	1.909	1.909
-0.005	-0.005	0.000	-0.005	0.005	-0.020	0.000	2.676	1.895	1.890	1.890	1.909	1.909	1.904
0.000	-0.010	0.000	-0.005	0.000	-0.005	0.000	2.671	1.895	1.890	1.890	1.909	1.904	1.909
0.000	-0.005	0.000	-0.005	-0.005	0.005	0.000	2.671	1.899	1.895	1.890	1.909	1.904	1.909
-0.005	0.000	0.000	-0.005	-0.010	0.000	0.000	2.671	1.895	1.895	1.890	1.909	1.904	1.909
0.000	-0.005	0.000	-0.010	-0.010	-0.005	0.000	2.686	1.899	1.895	1.890	1.909	1.904	1.904
0.000	-0.015	0.000	-0.005	-0.010	0.000	0.000	2.661	1.899	1.895	1.890	1.909	1.904	1.904
0.005	-0.005	0.000	-0.005	0.000	-0.005	0.000	2.671	1.899	1.895	1.890	1.914	1.909	1.909
0.000	0.000	-0.005	0.000	0.000	-0.005	0.000	2.671	1.895	1.895	1.895	1.909	1.904	1.904
-0.005	-0.005	-0.005	0.000	0.000	-0.020	0.000	2.661	1.899	1.895	1.895	1.909	1.909	1.899
0.000	-0.005	-0.010	0.000	0.000	-0.020	-0.005	2.681	1.899	1.895	1.895	1.914	1.904	1.904
0.000	0.010	-0.005	0.000	0.000	0.000	0.000	2.676	1.899	1.899	1.895	1.914	1.909	1.909
-0.020	0.000	0.000	0.000	0.000	-0.010	0.000	2.671	1.895	1.895	1.895	1.914	1.904	1.904
0.000	0.005	-0.005	0.000	-0.010	-0.010	0.000	2.676	1.895	1.895	1.895	1.914	1.904	1.909
-0.015	0.000	-0.005	0.000	-0.010	0.005	0.000	2.671	1.890	1.895	1.890	1.909	1.909	1.909
-0.005	-0.005	0.000	0.000	-0.015	0.005	0.000	2.666	1.895	1.890	1.890	1.909	1.904	1.909
-0.005	-0.015	0.000	0.000	-0.010	0.000	0.000	2.661	1.890	1.890	1.890	1.909	1.904	1.904
-0.010	-0.005	0.000	-0.005	-0.010	-0.010	0.000	2.676	1.890	1.890	1.890	1.909	1.904	1.904
-0.015	-0.015	-0.005	-0.005	0.005	0.010	0.000	2.666	1.890	1.890	1.885	1.909	1.909	1.909
0.000	-0.010	0.000	-0.005	0.000	-0.005	0.000	2.676	1.899	1.890	1.890	1.904	1.904	1.904
0.000	-0.010	0.000	-0.005	-0.005	-0.020	0.000	2.681	1.899	1.890	1.890	1.909	1.904	1.899
0.000	-0.005	0.000	-0.005	-0.005	-0.005	0.000	2.676	1.895	1.895	1.890	1.909	1.904	1.904
0.000	-0.010	0.000	-0.005	0.005	0.010	0.000	2.676	1.899	1.890	1.890	1.909	1.904	1.909
-0.005	-0.005	0.000	-0.005	-0.005	-0.010	0.000	2.676	1.899	1.899	1.890	1.909	1.904	1.904
-0.010	-0.005	0.000	-0.005	-0.015	0.020	-0.005	2.681	1.899	1.899	1.895	1.909	1.904	1.909
-0.005	0.005	-0.005	-0.005	-0.020	0.015	0.000	2.690	1.899	1.899	1.895	1.914	1.904	1.904
0.000	0.000	-0.005	0.000	-0.020	0.005	0.000	2.671	1.904	1.899	1.895	1.914	1.904	1.904
-0.005	0.000	-0.005	-0.005	-0.005	0.010	0.000	2.681	1.904	1.899	1.895	1.914	1.909	1.904
-0.005	-0.005	-0.005	0.000	0.000	0.005	0.000	2.676	1.899	1.899	1.895	1.914	1.909	1.909
-0.010	-0.015	-0.005	0.000	0.000	0.005	0.000	2.676	1.895	1.895	1.895	1.914	1.909	1.909
-0.005	-0.010	-0.005	0.000	0.005	0.010	-0.005	2.681	1.899	1.895	1.895	1.914	1.909	1.909
0.005	-0.015	0.000	0.000	0.000	0.005	0.000	2.671	1.899	1.895	1.890	1.909	1.909	1.904
0.000	-0.010	-0.005	0.000	0.015	-0.005	0.000	2.666	1.895	1.895	1.890	1.909	1.914	1.909
0.010	-0.015	0.000	-0.005	0.039	0.005	0.000	2.681	1.899	1.890	1.895	1.909	1.914	1.914
0.005	-0.020	0.000	-0.005	0.000	0.005	0.000	2.676	1.895	1.895	1.895	1.909	1.904	1.909
0.005	-0.020	0.000	-0.005	0.000	0.000	0.000	2.676	1.899	1.895	1.890	1.909	1.904	1.904
0.000	-0.015	0.000	-0.005	0.015	-0.020	0.000	2.661	1.895	1.895	1.890	1.909	1.909	1.904
0.005	-0.020	-0.005	-0.005	-0.005	-0.015	0.000	2.671	1.895	1.895	1.890	1.909	1.899	1.904
0.000	-0.015	0.000	-0.005	-0.029	-0.024	0.000	2.681	1.895	1.895	1.890	1.909	1.895	1.899
0.000	-0.005	-0.005	-0.005	-0.024	-0.020	0.000	2.681	1.895	1.899	1.895	1.909	1.899	1.899
-0.005	0.010	0.000	-0.005	-0.029	-0.010	-0.005	2.686	1.895	1.904	1.895	1.914	1.899	1.904
-0.010	0.000	-0.005	0.000	-0.015	-0.005	0.000	2.661	1.895	1.895	1.895	1.914	1.909	1.904
-0.005	-0.005	0.000	-0.005	-0.005	-0.020	-0.005	2.681	1.895	1.895	1.895	1.914	1.909	1.904
-0.010	-0.005	0.000	0.000	0.029	-0.005	0.000	2.686	1.899	1.895	1.895	1.914	1.919	1.909
-0.010	-0.005	-0.005	-0.005	0.020	-0.024	0.000	2.686	1.899	1.895	1.890	1.914	1.914	1.909
-0.010	0.000	-0.005	0.000	0.029	-0.015	0.000	2.676	1.895	1.899	1.895	1.914	1.914	1.914
-0.015	0.000	-0.005	0.000	0.020	0.005	0.000	2.681	1.899	1.899	1.895	1.914	1.914	1.919
0.000	-0.005	-0.005	0.005	-0.015	0.020	0.000	2.671	1.904	1.895	1.895	1.914	1.904	1.914
-0.015	0.000	-0.010	0.000	-0.044	0.000	0.000	2.671	1.895	1.895	1.890	1.909	1.895	1.904
0.005	0.005	-0.005	-0.005	-0.039	0.020	0.000	2.681	1.904	1.895	1.895	1.909	1.899	1.909
0.000	0.000	-0.010	0.000	-0.005	-0.015	0.000	2.671	1.895	1.895	1.890	1.909	1.909	1.904
-0.010	-0.010	-0.005	-0.005	0.005	0.005	0.000	2.666	1.895	1.890	1.895	1.909	1.909	1.909
0.000	-0.005	-0.010	-0.005	-0.010	0.000	0.000	2.676	1.895	1.895	1.890	1.909	1.904	1.904
0.010	0.020	-0.005	-0.005	-0.005	0.015	0.000	2.671	1.895	1.899	1.895	1.909	1.904	1.909
0.000	0.015	-0.005	-0.005	0.000	0.005	0.000	2.617	1.890	1.895	1.895	1.909	1.909	1.909
0.000	0.010	-0.005	-0.005	0.005	-0.005	0.000	2.822	1.885	1.895	1.895	1.914	1.909	1.909
0.000	0.010	0.000	-0.005	0.000	-0.005	0.000	2.651	1.890	1.895	1.890	1.914	1.904	1.909
-0.010	0.015	0.000	-0.005	-0.005	-0.005	0.000	2.671	1.890	1.890	1.895	1.914	1.904	1.909
0.000	0.015	-0.005	0.000	0.000	-0.020	0.000	2.671	1.895	1.890	1.890	1.909	1.909	1.899
0.000	0.015	0.000	-0.005	-0.005	-0.015	0.000	2.666	1.895	1.895	1.890	1.909	1.909	1.909
-0.005	0.010	-0.005	0.000	-0.005	-0.010	0.000	2.671	1.895	1.895	1.890	1.909	1.909	1.909
-0.015	0.005	-0.005	0.000	0.000	-0.005	0.000	2.666	1.895	1.895	1.895	1.909	1.909	1.909
-0.005	0.005	-0.005	-0.005	0.005	-0.010	0.000	2.671	1.899	1.890	1.890	1.914	1.909	1.909
-0.015	0.000	-0.005	0.000	0.000	-0.015	0.000	2.671	1.890	1.890	1.890	1.909	1.904	1.904
-0.010	0.005	-0.005	0.000	0.000	-0.010	0.000	2.637	1.890	1.890	1.890	1.909	1.904	1.909
-0.010	-0.015	-0.005	0.000	-0.005	-0.005	0.000	2.632	1.890	1.885	1.885	1.904	1.904	1.909
0.000	-0.010	0.000	-0.005	-0.010	-0.005	0.000	2.646	1.885	1.890	1.885	1.904	1.899	1.904
-0.005	0.000	0.000	0.000	-0.005	0.000	0.000	2.666	1.895	1.890	1.885	1.904	1.899	1.904
0.005	0.000	0.000	-0.005	0.005	-0.010	0.000	2.803	1.904	1.895	1.890	1.904	1.904	1.904
-0.005	-0.010	-0.005	-0.005	0.000	-0.010	0.000	2.632	1.895	1.890	1.885	1.904	1.899	1.899
-0.015	0.000	-0.005	-0.005	0.000	0.000	0.000	2.642	1.895	1.895	1.885	1.904	1.899	1.904
-0.010	-0.005	0.000	-0.005	0.000	-0.005	0.000	2.681	1.895	1.890	1.890	1.904	1.899	1.904
0.005	-0.005	0.000	-0.005	-0.005	-0.024	0.000	2.676	1.895	1.895	1.890	1.904	1.904	1.895
-0.005	0.005	0.000	-0.005	0.000	-0.010	0.000	2.671	1.899	1.895	1.890	1.909	1.899	1.899
0.000	0.000	0.000	-0.005	0.000	0.005	0.000	2.676	1.895	1.895	1.890	1.909	1.904	1.909
-0.005	0.005	0.000	0.000	-0.005	0.005	0.000	2.681	1.899	1.895	1.895	1.909	1.904	1.909
-0.005	0.000	-0.005	-0.005	-0.005	0.000	0.000	2.661	1.895	1.890	1.895	1.914	1.904	1.904
-0.005	-0.005	-0.005	0.000	-0.005	0.005	0.000	2.656	1.895	1.890	1.890	1.909	1.904	1.909
0.000	-0.005	-0.005	0.000	-0.005	0.005	0.000	2.656	1.890	1.890	1.890	1.909	1.904	1.904
-0.015	0.000	-0.005	0.000	-0.005	-0.005	0.000	2.651	1.885	1.895	1.890	1.909	1.904	1.904
-0.005	0.010	-0.005	0.000	-0.005	0.005	0.000	2.656	1.890	1.895	1.890	1.909	1.904	1.904
0.000	0.000	-0.010	0.000	0.000	0.000	0.000	2.651	1.885	1.890	1.890	1.904	1.904	1.904
-0.005	-0.010	-0.005	0.000	-0.005	0.005	0.000	2.808	1.904	1.885	1.890	1.909	1.904	1.904
-0.005	-0.015	-0.005	-0.005	-0.005	0.005	0.000	2.642	1.895	1.890	1.885	1.904	1.899	1.904
-0.005	-0.005	-0.005	-0.005	0.000	-0.010	-0.005	2.808	1.914	1.895	1.890	1.904	1.904	1.899
0.000	-0.010	-0.005	-0.005	-0.005	0.000	0.000	2.827	1.924	1.899	1.890	1.904	1.899	1.904
0.005	-0.015	-0.005	-0.005	-0.005	-0.015	0.000	2.671	1.919	1.904	1.895	1.904	1.899	1.895
0.005	-0.010	-0.005	-0.005	-0.005	0.005	0.000	2.671	1.909	1.909	1.895	1.909	1.899	1.904
0.000	-0.005	-0.005	-0.005	-0.005	-0.024	0.000	2.651	1.899	1.909	1.899	1.914	1.904	1.895
0.000	-0.010	-0.005	-0.005	-0.005	0.005	0.000	2.681	1.899	1.904	1.899	1.914	1.904	1.904
-0.010	-0.015	-0.005	-0.005	-0.005	-0.005	0.000	2.671	1.895	1.899	1.899	1.914	1.909	1.909
-0.005	-0.005	-0.005	0.000	0.005	0.005	0.000	2.646	1.895	1.899	1.899	1.914	1.914	1.909
0.005	-0.015	-0.005	0.000	0.000	0.000	0.000	2.646	1.895	1.899	1.899	1.919	1.914	1.909
-0.005	0.005	-0.005	-0.005	0.000	-0.005	0.000	2.656	1.895	1.899	1.899	1.919	1.909	1.909
0.000	-0.010	0.000	0.000	-0.005	0.005	0.000	2.637	1.890	1.895	1.899	1.919	1.909	1.914
-0.005	-0.005	-0.005	0.000	0.000	-0.010	-0.005	2.656	1.885	1.895	1.895	1.919	1.914	1.904
-0.005	-0.010	0.000	0.000	0.005	0.000	0.000	2.778	1.899	1.895	1.895	1.914	1.914	1.914
-0.010	-0.010	-0.010	0.000	-0.005	0.005	0.000	2.622	1.890	1.890	1.890	1.914	1.909	1.914
-0.010	-0.020	-0.005	-0.005	-0.005	0.000	0.000	2.808	1.904	1.890	1.890	1.909	1.909	1.914
-0.005	-0.010	0.000	0.000	-0.010	0.000	0.000	2.666	1.909	1.899	1.890	1.909	1.909	1.909
0.000	0.000	-0.005	-0.005	0.000	-0.024	0.000	2.676	1.904	1.899	1.890	1.909	1.909	1.899
0.000	0.010	0.000	-0.005	-0.005	-0.010	0.000	2.661	1.899	1.904	1.899	1.909	1.904	1.909
-0.010	0.005	-0.005	-0.005	-0.010	-0.005	0.000	2.666	1.895	1.895	1.895	1.909	1.904	1.909
-0.005	0.005	0.000	-0.005	-0.005	-0.024	0.000	2.666	1.895	1.899	1.895	1.909	1.904	1.904
-0.010	0.005	-0.005	-0.005	0.000	-0.015	0.000	2.666	1.895	1.895	1.895	1.914	1.909	1.909
-0.005	0.000	0.000	-0.005	-0.020	0.000	0.000	2.676	1.895	1.895	1.895	1.909	1.904	1.909
-0.010	0.010	0.000	-0.005	-0.015	0.000	0.000	2.651	1.895	1.899	1.895	1.909	1.909	1.909
-0.005	0.015	0.000	-0.005	0.000	0.005	0.000	2.651	1.895	1.899	1.895	1.914	1.914	1.909
-0.005	0.010	-0.005	-0.005	0.005	0.000	0.000	2.651	1.895	1.895	1.895	1.914	1.914	1.909
-0.010	0.010	-0.010	0.000	0.010	0.000	0.000	2.646	1.890	1.895	1.895	1.914	1.914	1.914
0.000	-0.005	-0.005	0.000	0.000	-0.005	0.000	2.764	1.904	1.895	1.890	1.914	1.909	1.909
-0.010	0.005	-0.005	0.000	-0.005	0.000	0.000	2.632	1.895	1.899	1.890	1.914	1.909	1.909
-0.005	0.000	0.005	0.000	-0.010	0.000	0.000	2.808	1.914	1.899	1.895	1.914	1.909	1.909
-0.005	0.005	0.000	0.000	-0.015	-0.020	0.000	2.827	1.929	1.904	1.895	1.914	1.904	1.899
0.000	-0.010	0.000	0.000	-0.010	0.005	0.000	2.676	1.919	1.904	1.895	1.914	1.909	1.909
0.000	0.000	0.000	-0.005	-0.005	-0.010	-0.005	2.681	1.909	1.909	1.899	1.914	1.909	1.909
0.005	-0.005	-0.010	0.000	0.000	0.010	0.000	2.661	1.904	1.904	1.899	1.914	1.909	1.914
-0.005	-0.005	-0.005	-0.005	-0.005	0.000	0.000	2.661	1.899	1.904	1.899	1.914	1.909	1.909
-0.005	-0.010	0.000	-0.005	-0.005	-0.005	0.000	2.666	1.895	1.899	1.899	1.914	1.909	1.909
-0.005	-0.010	-0.010	-0.005	-0.005	0.000	-0.005	2.661	1.895	1.899	1.895	1.914	1.909	1.909
0.000	-0.015	-0.005	-0.005	-0.005	0.010	0.000	2.666	1.895	1.895	1.895	1.914	1.909	1.914
-0.005	-0.005	-0.005	-0.005	0.000	0.005	-0.005	2.637	1.885	1.899	1.895	1.914	1.914	1.909
0.000	-0.005	0.000	-0.005	0.000	0.000	0.000	2.646	1.890	1.895	1.899	1.914	1.909	1.909
-0.005	0.000	0.000	-0.005	0.000	0.000	0.000	2.651	1.890	1.895	1.895	1.919	1.914	1.909
0.000	-0.010	-0.005	-0.005	-0.005	-0.005	0.000	2.725	1.899	1.895	1.895	1.919	1.909	1.914
-0.005	-0.005	-0.005	-0.005	-0.010	-0.005	0.000	2.651	1.895	1.895	1.895	1.914	1.909	1.914
0.000	0.000	-0.005	0.000	0.000	0.000	0.000	2.637	1.895	1.895	1.895	1.914	1.909	1.914
-0.005	0.005	-0.005	0.000	-0.005	-0.020	0.000	2.661	1.914	1.899	1.895	1.914	1.909	1.909
-0.005	0.005	-0.005	0.000	-0.010	-0.015	0.000	2.681	1.914	1.904	1.895	1.919	1.909	1.909
-0.005	0.010	0.000	0.000	0.010	-0.015	0.000	2.671	1.909	1.904	1.899	1.919	1.914	1.909
-0.005	0.000	0.000	0.000	0.000	0.005	0.000	2.671	1.904	1.899	1.899	1.919	1.914	1.919
-0.010	0.000	-0.005	0.000	-0.010	0.000	0.000	2.651	1.899	1.899	1.899	1.914	1.909	1.914
-0.005	-0.005	0.000	0.000	-0.010	0.005	0.000	2.676	1.899	1.895	1.895	1.914	1.909	1.914
-0.010	-0.015	0.000	-0.005	-0.010	-0.005	0.000	2.651	1.895	1.895	1.895	1.914	1.909	1.909
-0.010	-0.010	0.000	-0.005	-0.005	-0.005	-0.005	2.666	1.895	1.895	1.895	1.914	1.909	1.909
0.005	0.000	-0.005	-0.005	-0.005	0.005	0.000	2.651	1.895	1.899	1.895	1.914	1.904	1.909
-0.005	-0.010	-0.005	-0.005	-0.005	0.005	0.000	2.646	1.895	1.895	1.895	1.914	1.909	1.909
0.000	-0.005	0.000	-0.010	-0.005	-0.020	0.000	2.656	1.895	1.895	1.895	1.909	1.909	1.904
0.000	-0.005	-0.005	-0.005	-0.005	-0.010	0.000	2.705	1.895	1.895	1.895	1.909	1.909	1.909
0.000	0.000	0.000	-0.005	0.000	0.010	0.000	2.817	1.914	1.899	1.895	1.914	1.909	1.914
-0.005	-0.005	-0.005	0.000	0.010	0.005	0.000	2.632	1.909	1.899	1.899	1.914	1.914	1.914
-0.005	-0.005	-0.005	0.000	-0.005	-0.005	0.000	2.837	1.924	1.909	1.895	1.914	1.909	1.909
0.000	0.000	-0.005	-0.005	-0.005	-0.005	0.000	2.686	1.919	1.909	1.904	1.919	1.909	1.909
-0.010	0.000	-0.005	0.000	-0.005	0.000	0.000	2.681	1.909	1.914	1.904	1.919	1.909	1.909
0.000	-0.005	-0.005	0.000	0.000	0.000	0.000	2.666	1.904	1.909	1.904	1.924	1.914	1.909
-0.015	0.015	-0.010	0.000	0.005	0.010	-0.005	2.651	1.904	1.909	1.904	1.919	1.914	1.909
-0.005	0.000	-0.005	0.000	0.000	0.005	0.000	2.666	1.899	1.904	1.904	1.919	1.914	1.914
-0.005	0.005	0.000	0.000	-0.005	0.015	0.000	2.671	1.899	1.904	1.904	1.924	1.914	1.919
0.005	0.010	-0.005	0.000	0.000	0.005	0.000	2.651	1.899	1.899	1.904	1.919	1.914	1.914
0.000	-0.005	-0.010	0.000	-0.010	-0.020	0.000	2.642	1.890	1.895	1.899	1.919	1.909	1.909
-0.010	0.000	-0.005	-0.005	-0.005	0.000	0.000	2.803	1.890	1.890	1.895	1.919	1.914	1.914
0.005	-0.010	-0.005	-0.005	-0.015	-0.020	-0.005	2.671	1.895	1.890	1.895	1.914	1.909	1.904
0.005	-0.010	0.000	-0.005	-0.005	-0.024	0.000	2.651	1.890	1.890	1.895	1.914	1.909	1.909
-0.005	-0.010	-0.005	-0.005	-0.010	-0.034	0.000	2.666	1.890	1.890	1.890	1.914	1.909	1.904
0.000	-0.015	-0.005	-0.005	-0.005	-0.020	0.000	2.661	1.895	1.885	1.890	1.909	1.909	1.909
-0.005	0.005	-0.005	-0.005	-0.005	0.000	0.000	2.651	1.895	1.895	1.890	1.909	1.914	1.919
0.000	-0.005	-0.005	-0.005	0.005	-0.010	0.000	2.612	1.885	1.890	1.890	1.914	1.914	1.909
-0.005	-0.005	-0.005	-0.005	0.000	0.005	0.000	2.681	1.895	1.895	1.890	1.914	1.914	1.914
0.000	-0.005	0.000	-0.005	0.005	0.005	0.000	2.671	1.895	1.895	1.890	1.909	1.909	1.919
-0.005	0.000	-0.005	-0.005	0.005	0.005	-0.005	2.681	1.899	1.895	1.890	1.914	1.914	1.914
-0.010	0.000	-0.005	0.000	0.024	0.000	0.000	2.656	1.899	1.895	1.895	1.914	1.914	1.914
-0.005	0.005	-0.005	0.000	0.010	0.010	0.000	2.671	1.899	1.895	1.895	1.914	1.909	1.914
-0.005	0.005	0.000	0.000	-0.005	0.000	0.000	2.666	1.899	1.895	1.895	1.914	1.904	1.909
-0.005	0.000	0.000	0.000	-0.010	-0.005	0.000	2.642	1.899	1.895	1.890	1.914	1.904	1.909
-0.010	-0.005	-0.005	0.000	-0.005	-0.005	0.000	2.612	1.904	1.895	1.890	1.909	1.909	1.904
-0.005	-0.010	-0.005	0.000	-0.005	-0.015	0.000	2.666	1.899	1.895	1.890	1.909	1.904	1.904
-0.010	-0.005	0.000	0.000	-0.005	0.005	0.000	2.671	1.899	1.895	1.890	1.909	1.909	1.909
-0.005	-0.015	-0.005	-0.005	-0.005	-0.005	0.000	2.661	1.899	1.895	1.890	1.909	1.904	1.904
-0.005	-0.020	-0.005	-0.005	-0.010	-0.005	0.000	2.661	1.895	1.895	1.890	1.909	1.899	1.899
-0.005	-0.010	-0.010	-0.005	0.000	-0.005	0.000	2.656	1.895	1.895	1.890	1.909	1.904	1.904
-0.005	0.000	0.000	-0.010	0.000	0.000	0.000	2.651	1.890	1.895	1.890	1.909	1.904	1.909
0.000	-0.010	-0.005	-0.005	0.000	-0.005	0.000	2.661	1.895	1.895	1.890	1.909	1.904	1.904
-0.005	-0.005	-0.005	-0.005	-0.010	-0.005	0.000	2.661	1.895	1.895	1.890	1.909	1.904	1.904
-0.005	0.005	-0.005	-0.005	-0.020	0.005	0.000	2.646	1.890	1.899	1.890	1.914	1.904	1.904
-0.005	0.010	0.000	-0.005	-0.015	0.000	0.000	2.656	1.895	1.899	1.895	1.914	1.904	1.904
-0.005	0.000	-0.005	-0.005	-0.005	0.000	0.000	2.773	1.904	1.895	1.895	1.909	1.909	1.909
-0.010	-0.010	-0.005	0.000	-0.005	-0.010	0.000	2.646	1.899	1.895	1.895	1.914	1.909	1.909
0.000	0.000	0.000	0.000	-0.005	0.010	0.000	2.656	1.899	1.899	1.895	1.914	1.909	1.909
0.000	0.000	-0.005	0.000	-0.005	0.010	-0.005	2.666	1.904	1.899	1.895	1.914	1.909	1.909
0.000	-0.005	-0.005	0.000	-0.015	-0.005	0.000	2.666	1.899	1.895	1.895	1.914	1.904	1.904
0.000	-0.005	-0.005	0.000	0.000	-0.005	0.000	2.778	1.909	1.899	1.895	1.914	1.909	1.909
-0.005	-0.005	0.000	0.000	0.005	-0.010	0.000	2.666	1.904	1.899	1.895	1.914	1.909	1.909
-0.010	-0.010	0.000	0.000	0.000	-0.010	0.000	2.666	1.899	1.899	1.895	1.914	1.909	1.904
-0.005	-0.005	-0.005	0.000	0.000	-0.005	0.000	2.666	1.899	1.899	1.895	1.909	1.909	1.909
-0.005	-0.015	-0.005	-0.005	0.000	-0.020	0.000	2.666	1.899	1.895	1.895	1.909	1.909	1.899
0.000	-0.010	-0.010	-0.005	0.005	-0.010	0.000	2.666	1.895	1.890	1.890	1.909	1.904	1.909
0.005	-0.010	-0.005	-0.005	-0.020	-0.005	0.000	2.646	1.890	1.895	1.895	1.909	1.899	1.909
0.000	-0.005	0.000	-0.005	-0.020	-0.005	0.000	2.651	1.890	1.895	1.895	1.909	1.899	1.909
-0.005	-0.010	-0.005	-0.005	-0.024	0.000	0.000	2.646	1.890	1.890	1.895	1.909	1.904	1.909
-0.015	0.000	-0.010	-0.005	-0.015	0.000	0.000	2.651	1.890	1.890	1.890	1.914	1.904	1.909
0.005	0.000	-0.005	-0.005	-0.020	0.000	0.000	2.627	1.890	1.890	1.890	1.909	1.904	1.904
0.000	0.000	0.000	0.000	-0.010	0.000	0.000	2.661	1.890	1.890	1.890	1.914	1.909	1.909
-0.005	0.000	0.000	-0.005	0.005	-0.005	0.000	2.671	1.895	1.895	1.895	1.914	1.914	1.909
0.005	-0.005	0.000	0.000	0.044	0.000	0.000	2.612	1.890	1.890	1.890	1.909	1.924	1.914
0.005	0.000	-0.005	0.000	0.044	-0.010	0.000	2.627	1.890	1.890	1.890	1.909	1.919	1.914
0.000	0.000	-0.005	0.000	0.024	0.005	0.000	2.632	1.890	1.890	1.890	1.909	1.909	1.914
0.005	0.005	-0.005	0.005	0.015	-0.010	0.000	2.666	1.895	1.890	1.890	1.909	1.904	1.909
-0.005	-0.005	-0.005	0.000	-0.010	0.010	0.000	2.686	1.895	1.890	1.885	1.909	1.899	1.914
-0.020	-0.005	0.000	0.000	-0.034	-0.005	0.000	2.661	1.890	1.890	1.890	1.909	1.895	1.904
0.005	0.000	0.000	-0.005	-0.034	0.005	0.000	2.666	1.895	1.890	1.885	1.904	1.895	1.904
-0.005	-0.005	0.000	-0.005	-0.010	0.005	0.000	2.666	1.890	1.890	1.885	1.904	1.904	1.904
-0.015	-0.010	0.005	-0.005	0.015	0.000	-0.005	2.676	1.890	1.885	1.890	1.904	1.909	1.904
-0.005	-0.010	0.000	-0.005	0.015	0.000	0.000	2.681	1.895	1.890	1.885	1.904	1.904	1.904
0.000	-0.015	0.000	-0.005	0.005	-0.005	0.000	2.661	1.895	1.890	1.890	1.904	1.899	1.904
-0.005	-0.020	-0.005	-0.005	-0.005	0.000	0.000	2.666	1.895	1.890	1.885	1.904	1.899	1.904
0.005	-0.005	-0.005	-0.005	-0.015	-0.020	0.000	2.666	1.895	1.895	1.885	1.904	1.895	1.895
0.000	-0.005	-0.005	-0.005	0.000	0.005	0.000	2.671	1.895	1.895	1.890	1.904	1.904	1.904
-0.005	0.000	0.000	-0.005	-0.005	0.015	0.000	2.681	1.899	1.895	1.890	1.909	1.904	1.909
0.000	-0.005	-0.005	0.000	-0.005	0.010	0.000	2.666	1.899	1.895	1.895	1.909	1.904	1.904
-0.005	0.000	-0.005	-0.005	-0.005	0.005	0.000	2.671	1.899	1.895	1.890	1.909	1.904	1.904
-0.005	0.010	-0.005	-0.005	-0.010	0.005	0.000	2.671	1.899	1.899	1.895	1.909	1.904	1.904
0.000	0.010	-0.005	0.000	-0.005	0.000	0.000	2.661	1.895	1.899	1.895	1.909	1.904	1.904
0.000	0.005	0.000	0.000	-0.010	-0.020	0.000	2.686	1.899	1.899	1.895	1.914	1.904	1.899
0.000	0.000	-0.005	0.000	-0.005	-0.005	0.000	2.681	1.899	1.895	1.895	1.914	1.909	1.904
-0.005	-0.005	-0.005	-0.005	0.000	-0.015	0.000	2.666	1.895	1.890	1.895	1.909	1.904	1.899
-0.005	0.000	-0.005	0.000	-0.005	-0.015	0.000	2.666	1.895	1.895	1.895	1.909	1.904	1.899
-0.005	-0.005	0.000	0.000	-0.005	-0.015	0.000	2.656	1.890	1.890	1.890	1.909	1.904	1.904
-0.005	-0.010	0.000	-0.005	-0.005	-0.010	0.000	2.676	1.890	1.885	1.885	1.909	1.904	1.904
-0.020	-0.010	0.000	-0.005	-0.005	0.000	0.000	2.686	1.890	1.890	1.890	1.909	1.904	1.909
-0.010	-0.005	0.000	-0.010	-0.005	0.020	0.000	2.681	1.895	1.890	1.885	1.909	1.904	1.909
-0.010	-0.005	-0.005	-0.005	0.005	-0.005	0.000	2.656	1.895	1.895	1.885	1.904	1.904	1.904
0.000	-0.005	-0.005	-0.005	-0.005	0.005	0.000	2.676	1.899	1.890	1.890	1.904	1.899	1.904
-0.005	0.000	-0.005	-0.005	-0.010	0.000	0.000	2.681	1.899	1.895	1.890	1.909	1.899	1.904
-0.015	0.005	-0.005	-0.005	-0.020	0.005	0.000	2.676	1.895	1.899	1.890	1.909	1.904	1.904
-0.005	0.010	-0.005	-0.005	-0.005	0.005	0.000	2.690	1.904	1.899	1.895	1.909	1.904	1.904
-0.010	-0.005	-0.005	-0.005	0.000	-0.005	0.000	2.666	1.899	1.895	1.890	1.909	1.909	1.904
-0.005	0.005	-0.005	0.000	0.005	-0.029	-0.005	2.671	1.899	1.899	1.899	1.909	1.909	1.899
-0.005	0.005	-0.005	0.000	0.010	0.005	0.000	2.666	1.895	1.899	1.895	1.914	1.909	1.914
0.000	-0.005	-0.005	0.000	0.005	0.000	0.000	2.671	1.899	1.895	1.895	1.914	1.909	1.909
0.000	-0.005	-0.005	0.005	-0.005	0.010	0.000	2.681	1.899	1.895	1.895	1.914	1.904	1.909
-0.015	-0.005	-0.005	0.000	-0.010	0.005	0.000	2.666	1.895	1.890	1.890	1.909	1.904	1.909
-0.005	-0.005	-0.005	0.000	0.000	0.000	0.000	2.671	1.895	1.895	1.890	1.909	1.909	1.904
0.005	-0.005	0.000	0.000	0.000	-0.010	0.000	2.681	1.899	1.895	1.890	1.909	1.904	1.904
-0.005	-0.005	0.000	0.000	-0.010	0.005	0.000	2.656	1.895	1.895	1.890	1.909	1.904	1.904
0.000	-0.005	-0.005	-0.005	-0.010	0.000	-0.005	2.686	1.895	1.890	1.890	1.909	1.904	1.904
0.000	-0.010	-0.010	-0.005	0.005	-0.015	0.000	2.671	1.895	1.890	1.890	1.909	1.904	1.899
0.000	-0.005	-0.005	-0.005	-0.005	0.000	0.000	2.671	1.890	1.895	1.890	1.909	1.904	1.904
0.000	-0.005	-0.005	-0.005	-0.005	-0.015	0.000	2.686	1.895	1.890	1.890	1.904	1.904	1.904
0.005	-0.010	-0.005	-0.005	-0.005	0.005	0.000	2.681	1.895	1.890	1.890	1.909	1.904	1.909
-0.005	-0.005	0.000	-0.005	-0.005	-0.024	0.000	2.666	1.895	1.895	1.890	1.909	1.904	1.899
-0.005	-0.005	-0.010	-0.005	0.005	0.000	0.000	2.686	1.899	1.895	1.890	1.909	1.909	1.909
-0.010	0.000	-0.005	-0.005	0.000	-0.020	0.000	2.661	1.899	1.899	1.895	1.909	1.904	1.904
-0.005	0.000	0.000	0.000	0.015	-0.010	0.000	2.676	1.899	1.895	1.895	1.914	1.909	1.909
-0.005	-0.005	-0.005	-0.005	0.005	0.000	0.000	2.676	1.895	1.895	1.890	1.909	1.909	1.914
-0.005	-0.005	-0.005	0.000	0.000	0.005	0.000	2.666	1.899	1.899	1.890	1.914	1.909	1.909
-0.005	0.000	0.000	0.000	0.000	-0.005	0.000	2.681	1.899	1.895	1.899	1.909	1.909	1.909
-0.005	-0.005	-0.005	0.005	0.000	-0.010	0.000	2.671	1.895	1.890	1.895	1.909	1.904	1.909
-0.015	-0.010	0.000	0.000	0.010	-0.010	0.000	2.686	1.899	1.890	1.890	1.909	1.909	1.904
0.000	-0.005	-0.005	0.000	-0.010	-0.020	0.000	2.686	1.899	1.895	1.890	1.909	1.899	1.904
-0.005	0.000	-0.005	0.000	-0.010	0.010	0.000	2.666	1.895	1.895	1.890	1.909	1.904	1.909
-0.005	-0.015	0.000	0.000	-0.010	0.005	0.000	2.671	1.895	1.890	1.890	1.909	1.904	1.904
0.000	-0.010	-0.005	-0.005	-0.005	-0.024	0.000	2.671	1.895	1.895	1.890	1.904	1.904	1.899
0.005	-0.010	-0.005	-0.005	0.000	0.005	0.000	2.666	1.895	1.890	1.890	1.909	1.904	1.904
0.000	-0.010	0.000	-0.005	-0.010	0.005	0.000	2.676	1.890	1.890	1.890	1.904	1.904	1.909
-0.005	0.000	-0.005	-0.005	-0.010	0.000	0.000	2.661	1.895	1.895	1.890	1.909	1.904	1.904
-0.005	0.000	-0.005	-0.005	-0.010	0.005	0.000	2.666	1.895	1.895	1.890	1.909	1.904	1.904
-0.005	-0.010	0.000	-0.005	-0.005	-0.005	0.000	2.666	1.895	1.895	1.890	1.909	1.904	1.899
0.005	-0.005	0.000	0.000	-0.010	-0.005	0.000	2.686	1.899	1.895	1.895	1.909	1.904	1.904
-0.005	-0.005	0.000	-0.005	-0.010	0.005	0.000	2.686	1.899	1.895	1.895	1.909	1.904	1.909
-0.005	-0.020	0.000	-0.005	-0.005	0.000	0.000	2.681	1.899	1.890	1.895	1.909	1.909	1.904
0.005	-0.015	-0.010	0.000	-0.005	0.005	0.000	2.681	1.899	1.895	1.890	1.909	1.909	1.909
-0.005	-0.005	-0.005	0.000	-0.005	-0.024	0.000	2.671	1.899	1.895	1.895	1.909	1.909	1.904
0.000	-0.010	-0.010	0.000	-0.010	-0.015	0.000	2.676	1.899	1.895	1.890	1.909	1.904	1.904
-0.005	-0.020	0.000	0.000	-0.005	-0.020	0.000	2.681	1.895	1.895	1.890	1.909	1.909	1.899
0.000	-0.010	-0.005	0.000	-0.005	0.005	0.000	2.695	1.899	1.899	1.895	1.909	1.909	1.914
-0.015	-0.010	-0.005	0.000	0.000	0.005	0.000	2.671	1.890	1.895	1.890	1.909	1.909	1.909
-0.005	-0.005	-0.005	-0.005	0.000	0.005	0.000	2.666	1.890	1.890	1.890	1.909	1.909	1.909
-0.010	-0.024	0.005	-0.005	0.000	-0.020	0.000	2.671	1.895	1.890	1.890	1.909	1.904	1.904
-0.005	-0.010	-0.005	0.000	0.000	-0.020	0.000	2.676	1.895	1.895	1.890	1.904	1.904	1.904
0.005	-0.005	0.000	-0.005	0.000	-0.010	0.000	2.676	1.895	1.895	1.895	1.909	1.904	1.904
-0.005	-0.010	0.000	-0.005	-0.010	0.000	0.000	2.666	1.895	1.895	1.890	1.909	1.899	1.904
-0.010	-0.005	0.000	-0.010	-0.010	0.005	0.000	2.676	1.895	1.895	1.890	1.909	1.904	1.904
0.005	0.000	-0.005	-0.005	-0.005	0.000	0.000	2.681	1.899	1.899	1.895	1.909	1.904	1.904
0.000	-0.010	0.000	-0.005	0.010	-0.005	0.000	2.681	1.899	1.895	1.895	1.909	1.909	1.904
0.010	-0.005	-0.005	-0.005	0.005	-0.005	0.000	2.676	1.904	1.899	1.895	1.914	1.909	1.904
0.005	0.005	0.000	0.000	-0.010	0.000	0.000	2.676	1.899	1.899	1.899	1.914	1.904	1.909
-0.010	0.005	-0.005	-0.005	-0.015	-0.010	0.000	2.676	1.895	1.895	1.899	1.909	1.904	1.904
0.000	0.005	-0.005	0.000	-0.010	-0.015	-0.005	2.646	1.899	1.899	1.895	1.914	1.909	1.899
0.000	0.005	0.000	0.000	-0.005	-0.005	0.000	2.681	1.895	1.899	1.899	1.914	1.909	1.909
-0.010	0.010	-0.005	0.000	-0.024	-0.005	0.000	2.676	1.895	1.895	1.895	1.914	1.904	1.904
0.000	0.000	-0.005	0.000	-0.024	-0.005	0.000	2.700	1.899	1.895	1.895	1.914	1.904	1.904
-0.005	0.020	-0.005	0.000	-0.010	-0.005	0.000	2.656	1.890	1.899	1.895	1.914	1.909	1.909
-0.005	0.020	-0.005	0.000	0.010	-0.010	0.000	2.676	1.895	1.895	1.895	1.914	1.914	1.909
0.000	0.020	-0.005	-0.005	0.024	0.000	0.000	2.671	1.899	1.895	1.895	1.914	1.919	1.914
-0.005	0.010	0.000	-0.005	0.063	0.000	0.000	2.681	1.895	1.895	1.890	1.914	1.924	1.919
0.000	0.000	-0.005	-0.005	0.024	0.010	0.000	2.676	1.895	1.890	1.890	1.909	1.909	1.914
-0.005	0.005	0.000	-0.005	0.000	0.000	0.000	2.676	1.895	1.890	1.890	1.909	1.899	1.909
-0.005	-0.005	0.000	-0.010	0.005	0.010	-0.005	2.676	1.899	1.890	1.890	1.909	1.904	1.909
-0.005	-0.005	-0.005	-0.005	-0.010	-0.020	-0.005	2.690	1.904	1.895	1.890	1.909	1.899	1.899
0.000	0.000	-0.005	-0.005	-0.005	0.005	0.000	2.676	1.899	1.895	1.890	1.909	1.904	1.909
-0.005	0.010	-0.005	-0.005	-0.005	-0.024	0.000	2.676	1.899	1.899	1.895	1.909	1.899	1.899
-0.005	-0.010	-0.005	-0.005	-0.015	0.005	0.000	2.666	1.899	1.895	1.895	1.914	1.899	1.909
-0.010	0.000	-0.005	0.000	-0.024	-0.005	0.000	2.690	1.899	1.895	1.895	1.909	1.904	1.904
-0.010	0.010	-0.005	0.000	-0.005	-0.015	0.000	2.666	1.895	1.899	1.895	1.914	1.909	1.904
-0.005	0.005	0.000	0.000	-0.005	0.005	0.000	2.666	1.895	1.899	1.899	1.914	1.909	1.909
0.000	0.010	-0.005	0.000	0.000	-0.015	0.000	2.681	1.895	1.899	1.895	1.914	1.909	1.909
-0.005	0.000	-0.010	0.000	0.000	0.005	0.000	2.676	1.899	1.890	1.895	1.909	1.909	1.909
-0.005	0.000	0.000	0.000	-0.005	0.005	0.000	2.676	1.899	1.895	1.895	1.914	1.909	1.909
0.005	-0.020	-0.005	0.000	-0.005	0.000	0.000	2.656	1.895	1.890	1.890	1.909	1.909	1.909
0.005	-0.024	-0.005	0.000	-0.005	-0.029	0.000	2.671	1.895	1.890	1.890	1.909	1.904	1.899
-0.005	-0.020	0.000	-0.005	0.005	-0.010	0.000	2.671	1.890	1.890	1.890	1.909	1.904	1.904
-0.005	-0.015	-0.005	-0.005	-0.005	0.020	0.000	2.651	1.885	1.890	1.890	1.909	1.904	1.914
-0.005	-0.015	-0.005	-0.005	-0.015	0.010	0.000	2.676	1.890	1.890	1.890	1.904	1.899	1.909
0.005	-0.020	0.000	-0.005	-0.020	0.010	0.000	2.695	1.899	1.895	1.885	1.909	1.899	1.904
0.005	-0.020	-0.005	-0.005	-0.015	-0.005	0.000	2.676	1.899	1.895	1.890	1.904	1.899	1.899
-0.010	-0.015	-0.005	-0.005	-0.020	0.000	-0.005	2.666	1.895	1.895	1.890	1.909	1.904	1.904
0.000	0.000	0.000	-0.005	-0.005	-0.015	0.000	2.681	1.899	1.899	1.890	1.909	1.904	1.899
0.000	0.005	-0.005	-0.005	-0.005	0.005	0.000	2.676	1.899	1.904	1.895	1.909	1.909	1.904
0.000	0.010	0.000	0.000	0.000	0.000	-0.005	2.661	1.899	1.904	1.899	1.914	1.909	1.909
0.000	0.010	-0.005	-0.005	0.000	-0.005	0.000	2.681	1.895	1.899	1.899	1.914	1.909	1.904
-0.005	0.010	-0.005	0.000	-0.005	0.010	0.000	2.676	1.899	1.899	1.899	1.914	1.909	1.909
-0.005	0.010	-0.010	0.000	-0.005	0.000	0.000	2.676	1.904	1.895	1.899	1.914	1.909	1.909
0.000	-0.005	-0.005	0.000	0.000	0.010	0.000	2.681	1.899	1.895	1.895	1.914	1.909	1.909
0.005	-0.015	-0.005	0.000	-0.005	0.000	0.000	2.661	1.895	1.895	1.895	1.914	1.909	1.909
-0.005	0.000	0.000	0.000	0.000	-0.005	0.000	2.661	1.895	1.895	1.895	1.914	1.909	1.909
0.000	0.005	-0.005	0.000	-0.005	0.005	0.000	2.666	1.895	1.899	1.890	1.914	1.904	1.909
-0.005	0.000	0.000	0.000	0.005	0.005	0.000	2.661	1.895	1.895	1.895	1.909	1.909	1.904
-0.005	-0.005	-0.005	-0.005	0.000	-0.005	-0.005	2.671	1.895	1.890	1.890	1.909	1.904	1.909
-0.005	-0.010	0.000	-0.005	0.000	0.005	0.000	2.666	1.890	1.890	1.890	1.909	1.904	1.909
0.005	-0.005	0.000	-0.005	0.000	0.005	0.000	2.681	1.899	1.890	1.890	1.909	1.904	1.904
-0.010	0.010	0.000	-0.005	0.000	-0.010	0.000	2.651	1.890	1.895	1.890	1.909	1.904	1.904
-0.010	0.005	0.000	-0.005	-0.005	-0.020	0.000	2.676	1.895	1.895	1.890	1.909	1.904	1.904
-0.005	-0.005	-0.005	-0.005	0.000	-0.015	0.000	2.666	1.895	1.890	1.890	1.909	1.904	1.904
-0.005	-0.005	-0.005	-0.005	-0.005	0.010	0.000	2.671	1.895	1.890	1.890	1.909	1.904	1.909
-0.010	-0.005	-0.005	-0.005	0.000	0.005	0.000	2.676	1.895	1.890	1.890	1.909	1.904	1.909
-0.005	-0.005	0.000	-0.005	0.000	0.010	0.000	2.671	1.899	1.895	1.890	1.909	1.904	1.909
-0.005	0.005	0.000	-0.005	-0.010	-0.015	0.000	2.681	1.899	1.895	1.895	1.909	1.904	1.899
-0.005	0.015	-0.005	-0.005	-0.005	0.000	0.000	2.651	1.895	1.899	1.895	1.914	1.909	1.909
0.000	-0.020	-0.005	0.000	0.005	-0.010	0.000	2.651	1.895	1.890	1.890	1.909	1.909	1.909
-0.010	-0.015	-0.010	0.000	0.005	0.000	0.000	2.676	1.890	1.890	1.890	1.909	1.909	1.904
-0.005	-0.010	-0.005	0.000	0.000	0.000	0.000	2.681	1.895	1.890	1.890	1.909	1.904	1.909
0.000	-0.020	-0.005	0.000	0.000	0.000	0.000	2.681	1.899	1.890	1.890	1.909	1.904	1.904
0.000	-0.010	-0.005	-0.005	0.000	0.000	-0.005	2.671	1.895	1.895	1.890	1.904	1.904	1.909
0.000	-0.005	-0.005	-0.005	0.000	0.000	0.000	2.666	1.895	1.895	1.890	1.904	1.904	1.904
-0.005	-0.010	0.000	-0.005	-0.020	-0.010	0.000	2.666	1.895	1.895	1.890	1.904	1.895	1.899
-0.005	-0.010	-0.005	-0.005	-0.010	-0.005	0.000	2.676	1.890	1.890	1.890	1.904	1.899	1.899
-0.010	-0.005	0.000	-0.005	-0.010	0.000	0.000	2.676	1.890	1.890	1.890	1.904	1.904	1.904
-0.005	-0.010	0.000	-0.005	0.005	-0.015	0.000	2.676	1.895	1.890	1.890	1.909	1.904	1.904
-0.005	-0.005	0.000	-0.005	-0.005	-0.005	0.000	2.671	1.895	1.895	1.890	1.904	1.904	1.899
0.010	0.000	0.000	-0.005	-0.005	-0.005	0.000	2.671	1.899	1.895	1.890	1.909	1.899	1.904
0.000	0.000	0.000	-0.005	-0.029	-0.015	0.000	2.671	1.895	1.899	1.890	1.909	1.899	1.899
-0.005	-0.010	-0.005	0.000	-0.005	-0.005	0.000	2.681	1.895	1.895	1.895	1.909	1.909	1.904
-0.005	-0.005	0.000	0.000	0.024	0.005	0.000	2.676	1.899	1.895	1.895	1.909	1.919	1.909
-0.005	0.005	0.000	0.000	0.039	0.000	0.000	2.700	1.904	1.899	1.895	1.914	1.919	1.914
0.000	0.010	-0.005	-0.005	0.005	0.005	0.000	2.661	1.899	1.904	1.895	1.914	1.904	1.909
-0.005	0.005	0.000	0.000	-0.005	0.000	0.000	2.686	1.899	1.899	1.895	1.914	1.904	1.909
-0.010	-0.005	-0.010	0.000	-0.010	-0.020	0.000	2.681	1.899	1.895	1.895	1.914	1.904	1.899
-0.005	-0.005	-0.005	0.000	-0.005	-0.020	0.000	2.681	1.895	1.895	1.895	1.914	1.904	1.904
-0.005	-0.010	-0.005	0.000	0.000	0.000	0.000	2.686	1.895	1.890	1.895	1.914	1.904	1.909
-0.005	-0.005	-0.005	-0.005	-0.005	0.000	0.000	2.681	1.899	1.895	1.890	1.909	1.904	1.904
0.000	-0.015	-0.005	-0.005	0.000	-0.010	0.000	2.676	1.895	1.895	1.890	1.909	1.904	1.904
0.005	-0.010	-0.005	-0.005	0.000	0.005	0.000	2.666	1.895	1.895	1.890	1.909	1.904	1.904
-0.005	-0.020	-0.010	-0.005	-0.005	0.000	0.000	2.681	1.890	1.890	1.890	1.909	1.904	1.909
-0.005	-0.005	0.000	-0.005	-0.005	0.005	0.000	2.676	1.895	1.895	1.890	1.909	1.904	1.909
0.000	0.005	0.000	-0.005	-0.010	0.010	0.000	2.676	1.895	1.899	1.890	1.909	1.904	1.909
-0.005	0.000	0.000	-0.005	-0.010	0.005	0.000	2.666	1.899	1.895	1.895	1.909	1.904	1.904
0.000	0.000	-0.005	-0.005	0.000	0.005	0.000	2.666	1.895	1.895	1.895	1.909	1.909	1.904
0.000	-0.005	-0.005	-0.005	0.020	-0.005	0.000	2.681	1.899	1.895	1.895	1.914	1.909	1.909
-0.010	0.000	-0.005	0.000	0.010	0.005	0.000	2.666	1.895	1.899	1.895	1.909	1.909	1.909
-0.005	-0.005	-0.005	-0.005	-0.005	0.000	0.000	2.695	1.899	1.895	1.899	1.914	1.904	1.904
0.000	0.015	-0.005	0.000	-0.024	-0.010	0.000	2.656	1.904	1.899	1.895	1.914	1.904	1.899
0.000	0.020	-0.005	0.000	-0.015	-0.010	0.000	2.681	1.904	1.904	1.899	1.914	1.909	1.904
0.000	0.015	-0.005	0.000	0.000	-0.005	0.000	2.676	1.899	1.899	1.899	1.914	1.914	1.909
-0.005	0.020	-0.005	0.000	-0.010	-0.020	0.000	2.681	1.899	1.899	1.899	1.914	1.904	1.899
-0.005	0.000	-0.005	0.000	-0.020	0.005	0.000	2.666	1.895	1.895	1.895	1.914	1.909	1.909
-0.010	-0.005	-0.005	-0.005	0.000	0.005	0.000	2.671	1.890	1.890	1.890	1.914	1.909	1.909
-0.005	0.000	0.000	-0.005	0.010	0.005	0.000	2.666	1.895	1.890	1.890	1.914	1.909	1.909
0.000	-0.005	0.000	-0.005	-0.005	-0.005	0.000	2.700	1.895	1.890	1.895	1.914	1.909	1.909
0.000	-0.005	0.000	-0.005	-0.010	0.005	0.000	2.671	1.899	1.890	1.890	1.909	1.904	1.909
0.000	-0.005	-0.005	-0.005	-0.020	0.005	0.000	2.671	1.899	1.895	1.890	1.909	1.904	1.909
0.005	0.000	-0.005	-0.005	-0.010	0.005	0.000	2.661	1.895	1.895	1.890	1.909	1.904	1.909
0.000	-0.015	0.000	-0.005	-0.005	-0.005	0.000	2.681	1.895	1.890	1.890	1.909	1.904	1.904
0.000	-0.020	0.005	-0.005	0.000	-0.015	0.000	2.676	1.895	1.890	1.890	1.909	1.904	1.899
-0.005	-0.015	-0.005	-0.005	-0.005	-0.010	0.000	2.671	1.895	1.890	1.890	1.909	1.904	1.904
-0.005	-0.015	-0.005	-0.005	-0.015	0.005	0.000	2.671	1.895	1.895	1.890	1.909	1.904	1.909
-0.010	-0.005	0.000	0.000	-0.020	-0.010	0.000	2.681	1.895	1.895	1.890	1.909	1.904	1.904
-0.005	0.000	-0.010	0.000	0.000	-0.015	0.000	2.681	1.895	1.895	1.890	1.909	1.909	1.904
-0.005	-0.005	0.000	0.000	0.005	0.005	0.000	2.686	1.899	1.895	1.895	1.909	1.909	1.909
-0.010	0.000	-0.005	0.000	0.005	-0.020	0.000	2.676	1.899	1.895	1.890	1.914	1.909	1.904
-0.005	-0.010	0.000	0.000	0.015	0.000	0.000	2.661	1.895	1.890	1.890	1.909	1.909	1.914
-0.005	-0.010	-0.005	0.000	0.005	0.005	0.000	2.661	1.895	1.895	1.890	1.909	1.909	1.909
-0.005	0.020	-0.005	0.000	0.000	0.005	0.000	2.676	1.895	1.899	1.895	1.909	1.904	1.909
-0.005	0.010	0.005	0.000	0.005	-0.005	0.000	2.681	1.895	1.895	1.895	1.909	1.904	1.904
-0.005	0.000	-0.005	0.000	0.000	-0.020	0.000	2.700	1.899	1.895	1.890	1.909	1.904	1.904
-0.015	0.005	0.000	-0.005	0.010	0.000	0.000	2.656	1.895	1.895	1.890	1.909	1.904	1.904
-0.005	-0.005	0.000	-0.005	0.010	0.000	0.000	2.671	1.895	1.890	1.890	1.909	1.909	1.904
-0.010	-0.005	-0.005	-0.005	0.000	-0.005	0.000	2.676	1.895	1.890	1.890	1.909	1.904	1.904
-0.005	0.005	0.000	-0.005	0.015	-0.010	0.000	2.661	1.895	1.895	1.890	1.909	1.909	1.904
-0.005	0.000	-0.005	-0.005	0.020	-0.010	-0.005	2.681	1.890	1.890	1.890	1.909	1.909	1.904
-0.015	-0.005	-0.005	-0.005	0.015	-0.015	0.000	2.681	1.890	1.890	1.890	1.909	1.909	1.904
-0.010	-0.005	0.000	-0.005	0.020	-0.015	0.000	2.681	1.899	1.895	1.890	1.909	1.909	1.904
-0.005	-0.005	0.000	0.000	0.015	-0.034	0.000	2.671	1.899	1.895	1.895	1.909	1.904	1.904
-0.005	0.000	-0.005	0.000	0.000	-0.010	0.000	2.676	1.899	1.895	1.890	1.909	1.904	1.904
0.000	-0.005	-0.005	-0.005	-0.005	-0.005	0.000	2.681	1.899	1.895	1.895	1.909	1.899	1.909
-0.005	0.005	-0.005	0.000	-0.015	-0.020	0.000	2.676	1.899	1.899	1.895	1.909	1.904	1.904
-0.010	-0.005	0.000	0.000	-0.005	0.000	0.000	2.676	1.899	1.895	1.895	1.909	1.904	1.909
0.000	-0.010	-0.005	0.000	-0.015	0.000	0.000	2.651	1.899	1.895	1.890	1.914	1.904	1.904
0.000	-0.005	-0.005	0.005	-0.024	0.000	0.000	2.666	1.895	1.895	1.895	1.909	1.899	1.904
0.000	-0.005	-0.005	0.000	-0.015	0.000	0.000	2.676	1.895	1.895	1.890	1.909	1.904	1.904
0.000	-0.015	-0.005	0.000	-0.015	0.010	0.000	2.681	1.895	1.890	1.890	1.909	1.904	1.909
-0.005	-0.010	-0.005	-0.005	-0.010	0.010	0.000	2.661	1.890	1.890	1.890	1.909	1.904	1.904
-0.010	-0.010	-0.005	-0.005	-0.024	-0.005	0.000	2.666	1.890	1.890	1.890	1.904	1.899	1.904
-0.010	-0.005	-0.005	-0.005	-0.024	0.010	0.000	2.671	1.890	1.890	1.890	1.904	1.899	1.904
-0.005	-0.005	0.005	-0.010	-0.024	0.005	0.000	2.676	1.895	1.890	1.890	1.909	1.899	1.904
-0.005	-0.005	0.000	-0.005	-0.020	0.015	0.000	2.671	1.895	1.895	1.890	1.909	1.904	1.904
-0.005	-0.015	-0.005	-0.005	-0.005	0.005	0.000	2.666	1.895	1.890	1.890	1.904	1.904	1.904
0.000	-0.024	0.000	-0.005	-0.005	0.005	0.000	2.671	1.899	1.890	1.890	1.909	1.909	1.909
0.005	-0.010	-0.005	0.000	-0.015	-0.005	-0.005	2.686	1.899	1.899	1.890	1.909	1.904	1.904
0.005	-0.015	-0.005	0.000	-0.015	0.010	0.000	2.671	1.895	1.895	1.895	1.909	1.904	1.909
0.005	-0.005	-0.005	0.000	-0.010	0.005	0.000	2.686	1.899	1.899	1.895	1.909	1.909	1.904
0.000	0.005	-0.005	0.000	-0.005	-0.005	0.000	2.671	1.899	1.904	1.895	1.914	1.909	1.904
0.000	0.029	0.000	0.000	-0.005	0.000	0.000	2.676	1.899	1.909	1.899	1.914	1.909	1.909
0.000	0.015	-0.005	0.000	-0.010	-0.015	0.000	2.671	1.895	1.904	1.899	1.914	1.904	1.899
0.005	0.010	-0.005	0.000	-0.005	-0.015	-0.005	2.666	1.895	1.895	1.899	1.914	1.909	1.899
0.000	0.024	0.000	0.000	-0.010	-0.005	0.000	2.666	1.895	1.899	1.899	1.914	1.909	1.909
0.000	-0.010	-0.005	0.000	-0.010	-0.005	0.000	2.686	1.895	1.885	1.890	1.914	1.909	1.909
-0.005	-0.005	-0.005	0.000	-0.005	0.000	0.000	2.656	1.890	1.890	1.890	1.909	1.909	1.909
0.000	0.000	-0.010	-0.005	0.000	0.010	-0.005	2.671	1.890	1.890	1.890	1.909	1.909	1.909
0.000	-0.005	-0.005	-0.005	0.010	-0.005	0.000	2.666	1.895	1.890	1.890	1.909	1.909	1.904
-0.010	0.000	0.000	-0.005	0.054	0.015	0.000	2.671	1.895	1.890	1.890	1.909	1.919	1.919
-0.005	-0.005	0.000	-0.005	0.024	0.005	0.000	2.676	1.895	1.890	1.890	1.909	1.904	1.914
-0.010	-0.005	-0.010	-0.005	0.034	-0.010	0.000	2.676	1.890	1.890	1.890	1.909	1.909	1.909
-0.005	0.005	0.000	-0.005	0.010	0.000	0.000	2.666	1.895	1.895	1.890	1.909	1.899	1.909
0.000	-0.005	0.000	-0.005	-0.010	-0.005	0.000	2.690	1.899	1.895	1.895	1.909	1.895	1.904
0.005	0.005	-0.005	-0.005	-0.015	-0.005	0.000	2.661	1.899	1.899	1.890	1.909	1.899	1.899
0.000	0.000	0.000	0.000	-0.005	-0.015	0.000	2.656	1.890	1.895	1.895	1.909	1.904	1.904
-0.005	0.000	0.000	0.000	-0.015	-0.029	0.000	2.676	1.895	1.895	1.895	1.909	1.904	1.895
0.000	0.000	-0.005	0.000	-0.020	-0.015	0.000	2.666	1.895	1.890	1.890	1.909	1.904	1.904
0.000	-0.020	-0.005	0.000	-0.005	-0.010	0.000	2.676	1.895	1.885	1.890	1.909	1.909	1.904
-0.005	-0.010	-0.005	0.000	0.005	-0.010	0.000	2.676	1.895	1.890	1.890	1.909	1.909	1.904
0.000	-0.005	-0.005	0.000	-0.005	-0.024	0.000	2.671	1.895	1.895	1.890	1.909	1.904	1.904
-0.005	0.000	-0.005	0.000	-0.005	-0.010	0.000	2.676	1.895	1.890	1.890	1.909	1.904	1.904
0.000	-0.005	0.000	0.000	0.000	-0.005	0.000	2.671	1.895	1.895	1.890	1.909	1.904	1.904
-0.005	-0.005	0.000	-0.005	0.005	-0.005	0.000	2.666	1.890	1.895	1.890	1.909	1.904	1.909
-0.005	-0.005	-0.005	-0.005	-0.005	-0.005	0.000	2.661	1.890	1.890	1.890	1.909	1.904	1.904
-0.010	0.000	0.000	-0.005	0.000	-0.020	0.000	2.666	1.890	1.890	1.890	1.904	1.899	1.899
-0.015	-0.005	-0.005	-0.005	0.000	0.015	0.000	2.642	1.885	1.885	1.885	1.909	1.904	1.909
0.000	-0.005	0.000	-0.005	0.010	0.015	0.000	2.681	1.895	1.890	1.885	1.904	1.904	1.909
0.000	0.010	-0.005	-0.005	-0.005	0.005	0.000	2.676	1.895	1.895	1.890	1.904	1.899	1.904
0.000	-0.005	0.000	-0.005	-0.005	-0.005	0.000	2.676	1.899	1.895	1.890	1.904	1.904	1.899
-0.005	0.000	-0.005	-0.005	0.000	-0.005	0.000	2.690	1.895	1.890	1.890	1.909	1.899	1.899
-0.005	-0.020	-0.005	0.000	-0.005	-0.005	0.000	2.676	1.899	1.890	1.890	1.909	1.904	1.904
-0.005	-0.020	-0.005	-0.005	-0.010	0.000	0.000	2.671	1.904	1.895	1.890	1.909	1.904	1.899
-0.005	-0.024	-0.005	0.000	-0.010	0.000	0.000	2.676	1.899	1.890	1.890	1.909	1.899	1.904
-0.005	-0.015	-0.005	0.000	-0.005	0.000	0.000	2.676	1.899	1.895	1.890	1.909	1.904	1.904
-0.005	-0.015	-0.005	0.000	-0.005	-0.005	0.000	2.661	1.899	1.899	1.895	1.909	1.904	1.904
-0.005	-0.005	-0.005	0.000	-0.010	0.000	0.000	2.681	1.899	1.899	1.895	1.909	1.904	1.904
-0.005	-0.005	-0.005	0.000	-0.005	-0.010	0.000	2.661	1.895	1.899	1.895	1.909	1.904	1.899
-0.005	-0.010	-0.005	0.000	0.005	0.005	0.000	2.681	1.895	1.895	1.895	1.909	1.909	1.909
0.000	-0.010	-0.010	0.000	0.005	-0.005	0.000	2.671	1.890	1.890	1.890	1.909	1.904	1.904
-0.005	-0.005	-0.005	0.000	-0.005	-0.005	0.000	2.676	1.890	1.890	1.890	1.909	1.904	1.904
-0.005	-0.005	-0.005	-0.005	-0.005	0.000	0.000	2.690	1.895	1.890	1.890	1.909	1.904	1.904
-0.005	0.000	-0.005	-0.005	0.000	-0.010	0.000	2.671	1.890	1.890	1.890	1.909	1.904	1.904
-0.010	-0.005	-0.005	-0.005	-0.005	0.000	0.000	2.666	1.890	1.895	1.890	1.909	1.904	1.904
-0.005	-0.005	-0.005	-0.005	-0.005	-0.010	0.000	2.676	1.890	1.890	1.890	1.909	1.904	1.904
-0.005	0.015	-0.005	-0.005	-0.005	0.000	-0.005	2.681	1.895	1.899	1.890	1.909	1.904	1.904
-0.010	0.015	0.000	-0.010	-0.005	-0.005	0.000	2.681	1.895	1.899	1.895	1.909	1.904	1.904
-0.005	0.020	0.000	-0.005	-0.005	-0.005	0.000	2.686	1.899	1.895	1.895	1.914	1.904	1.904
-0.010	0.015	-0.005	-0.005	-0.005	0.000	0.000	2.681	1.899	1.899	1.895	1.914	1.909	1.904
0.000	0.015	-0.005	0.000	-0.005	-0.010	0.000	2.671	1.899	1.895	1.895	1.914	1.909	1.904
0.005	0.000	-0.010	0.000	-0.005	0.000	0.000	2.661	1.899	1.899	1.895	1.914	1.909	1.909
-0.005	0.010	-0.005	0.000	-0.005	-0.005	0.000	2.681	1.899	1.899	1.895	1.914	1.909	1.909
0.000	0.015	-0.005	0.000	0.000	-0.010	0.000	2.676	1.904	1.899	1.895	1.914	1.909	1.909
0.000	0.000	0.000	0.000	0.000	0.000	0.000	2.666	1.899	1.895	1.895	1.914	1.909	1.909
-0.005	-0.010	-0.005	0.000	-0.005	-0.005	0.000	2.681	1.899	1.895	1.895	1.914	1.909	1.909
-0.010	0.005	0.000	-0.005	0.000	-0.005	0.000	2.671	1.895	1.895	1.895	1.909	1.909	1.909
0.000	0.000	-0.005	0.000	-0.005	0.010	0.000	2.676	1.895	1.890	1.890	1.909	1.909	1.909
-0.005	-0.010	0.000	-0.005	-0.005	0.000	0.000	2.671	1.895	1.890	1.890	1.909	1.904	1.909
-0.005	-0.005	0.000	-0.005	0.000	0.000	0.000	2.681	1.895	1.890	1.890	1.909	1.904	1.904
-0.005	0.000	0.000	-0.005	-0.005	-0.015	0.000	2.681	1.895	1.890	1.890	1.909	1.904	1.904
-0.005	-0.010	-0.005	-0.005	-0.005	0.005	0.000	2.676	1.895	1.890	1.890	1.909	1.904	1.909
-0.005	-0.005	0.000	-0.010	-0.005	0.000	0.000	2.686	1.895	1.890	1.890	1.909	1.904	1.904
0.000	-0.005	-0.005	-0.005	0.000	-0.020	0.000	2.681	1.899	1.895	1.890	1.909	1.904	1.904
-0.005	0.005	-0.005	-0.005	0.000	0.000	-0.005	2.671	1.899	1.895	1.890	1.909	1.909	1.909
0.000	0.000	-0.005	0.000	0.000	-0.005	0.000	2.686	1.899	1.899	1.895	1.909	1.909	1.909
0.000	0.000	-0.005	-0.005	0.000	-0.005	0.000	2.666	1.899	1.899	1.895	1.914	1.904	1.904
-0.005	0.010	0.000	0.000	0.000	-0.005	-0.005	2.666	1.899	1.899	1.895	1.914	1.909	1.909
0.000	0.000	-0.005	-0.005	-0.005	-0.015	0.000	2.676	1.899	1.895	1.895	1.914	1.909	1.904
0.000	0.000	-0.005	0.000	-0.010	0.000	0.000	2.676	1.899	1.899	1.895	1.914	1.909	1.909
0.000	0.005	-0.005	0.000	-0.005	-0.010	0.000	2.686	1.899	1.895	1.895	1.914	1.909	1.909
0.000	-0.010	-0.005	0.000	-0.005	-0.020	0.000	2.666	1.895	1.895	1.895	1.914	1.909	1.904
-0.010	-0.005	0.000	-0.005	-0.005	-0.024	0.000	2.671	1.895	1.890	1.895	1.914	1.909	1.904
-0.010	-0.010	0.000	-0.005	-0.005	0.005	0.000	2.681	1.895	1.890	1.895	1.909	1.909	1.914
-0.010	-0.010	-0.005	0.000	-0.005	0.005	0.000	2.651	1.890	1.890	1.890	1.909	1.909	1.909
-0.010	0.000	-0.005	-0.005	-0.005	0.005	0.000	2.666	1.895	1.895	1.890	1.909	1.909	1.909
-0.005	-0.005	0.000	-0.010	-0.005	0.000	0.000	2.676	1.899	1.890	1.890	1.909	1.904	1.904
0.000	-0.010	-0.005	-0.005	0.005	-0.005	-0.005	2.686	1.899	1.890	1.890	1.909	1.909	1.909
-0.005	-0.005	0.000	-0.005	0.000	0.000	0.000	2.666	1.895	1.890	1.890	1.909	1.904	1.909
-0.010	0.005	-0.005	-0.005	0.000	-0.005	0.000	2.632	1.890	1.895	1.895	1.909	1.904	1.904
0.000	-0.005	-0.005	-0.005	-0.005	-0.005	0.000	2.783	1.904	1.895	1.890	1.909	1.904	1.904
0.000	-0.005	-0.010	-0.005	-0.005	0.000	0.000	2.661	1.904	1.899	1.895	1.909	1.904	1.909
-0.005	0.005	-0.005	-0.005	-0.005	-0.005	0.000	2.646	1.899	1.904	1.895	1.909	1.904	1.904
-0.005	-0.005	-0.005	0.000	-0.005	0.000	0.000	2.632	1.895	1.899	1.895	1.909	1.909	1.904
-0.005	0.000	-0.010	0.000	-0.005	-0.015	0.000	2.715	1.899	1.899	1.899	1.914	1.909	1.899
-0.005	-0.015	-0.005	0.000	0.005	-0.005	0.000	2.646	1.895	1.895	1.895	1.914	1.909	1.909
0.005	-0.015	-0.005	0.005	-0.005	0.000	0.000	2.627	1.895	1.895	1.895	1.914	1.909	1.909
0.000	0.005	0.000	0.000	-0.005	0.000	0.000	2.715	1.899	1.899	1.895	1.914	1.909	1.909
0.005	-0.005	0.000	0.000	0.000	-0.015	0.000	2.729	1.909	1.899	1.895	1.914	1.909	1.904
-0.005	-0.005	0.000	0.000	0.000	0.005	0.000	2.729	1.904	1.895	1.895	1.914	1.909	1.914
0.000	-0.010	-0.005	0.000	-0.010	-0.020	0.000	2.651	1.899	1.899	1.895	1.909	1.909	1.899
-0.005	-0.010	-0.005	-0.005	0.000	0.005	0.000	2.651	1.904	1.895	1.895	1.909	1.909	1.914
-0.005	-0.005	0.000	-0.005	0.010	0.005	0.000	2.637	1.895	1.895	1.895	1.909	1.909	1.909
-0.005	-0.005	-0.005	-0.005	0.005	0.005	0.000	2.588	1.885	1.895	1.895	1.909	1.909	1.914
0.000	-0.005	0.000	-0.005	0.000	-0.005	0.000	2.637	1.890	1.890	1.895	1.909	1.904	1.909
-0.015	-0.005	-0.005	-0.010	0.005	-0.005	0.000	2.651	1.885	1.890	1.890	1.909	1.909	1.904
0.000	-0.005	-0.005	-0.005	-0.005	0.000	0.000	2.666	1.890	1.890	1.890	1.909	1.904	1.909
-0.005	-0.005	0.000	-0.005	0.000	-0.005	0.000	2.627	1.885	1.890	1.890	1.909	1.904	1.909
-0.005	-0.005	-0.005	-0.005	-0.005	-0.010	0.000	2.622	1.885	1.890	1.890	1.909	1.904	1.909
-0.010	0.005	-0.005	-0.005	-0.010	-0.010	0.000	2.725	1.895	1.895	1.890	1.909	1.904	1.904
-0.005	0.000	0.000	-0.005	-0.010	-0.010	0.000	2.729	1.904	1.895	1.890	1.909	1.904	1.904
-0.005	-0.005	-0.005	0.000	0.000	0.000	0.000	2.642	1.895	1.895	1.890	1.909	1.909	1.909
-0.005	-0.005	0.000	0.000	-0.005	0.000	0.000	2.734	1.904	1.899	1.890	1.914	1.909	1.909
-0.010	0.000	0.000	-0.005	0.000	0.005	0.000	2.622	1.899	1.895	1.895	1.909	1.909	1.909
-0.010	0.000	0.000	0.000	-0.015	0.005	0.000	2.671	1.899	1.895	1.890	1.909	1.904	1.909
-0.010	0.000	-0.005	0.000	-0.010	0.000	0.000	2.734	1.904	1.899	1.895	1.909	1.904	1.904
-0.005	-0.010	-0.005	0.000	-0.010	-0.020	-0.005	2.681	1.899	1.895	1.890	1.909	1.904	1.899
-0.005	-0.005	-0.005	-0.005	-0.015	0.010	0.000	2.617	1.890	1.890	1.890	1.909	1.904	1.909
-0.005	-0.005	-0.005	-0.005	0.005	0.005	0.000	2.783	1.904	1.895	1.895	1.909	1.909	1.909
-0.015	-0.010	-0.005	-0.005	0.000	0.005	0.000	2.632	1.895	1.895	1.890	1.909	1.904	1.904
-0.005	-0.020	0.000	-0.005	0.000	-0.005	0.000	2.695	1.899	1.895	1.895	1.909	1.904	1.904
-0.005	-0.005	0.000	-0.010	0.000	-0.010	0.000	2.700	1.904	1.895	1.890	1.909	1.904	1.904
0.005	-0.020	-0.005	-0.005	-0.010	-0.015	0.000	2.676	1.899	1.895	1.895	1.909	1.899	1.899
0.005	-0.024	-0.005	-0.005	-0.010	-0.005	0.000	2.671	1.899	1.895	1.890	1.909	1.904	1.904
0.005	-0.015	0.000	-0.005	-0.005	-0.010	0.000	2.671	1.899	1.899	1.899	1.909	1.909	1.904
0.005	0.000	-0.005	0.000	-0.005	-0.005	0.000	2.676	1.899	1.904	1.895	1.914	1.909	1.909
0.005	-0.005	-0.005	-0.005	-0.010	0.000	0.000	2.681	1.899	1.899	1.895	1.914	1.909	1.909
-0.005	-0.005	-0.005	0.000	0.005	0.000	0.000	2.671	1.899	1.899	1.895	1.914	1.914	1.909
-0.005	0.000	-0.005	0.000	0.005	-0.005	0.000	2.690	1.899	1.899	1.899	1.914	1.909	1.909
-0.005	0.005	-0.005	0.000	0.000	0.010	0.000	2.671	1.899	1.899	1.899	1.914	1.909	1.914
-0.010	0.005	-0.005	0.000	0.005	-0.005	0.000	2.661	1.895	1.899	1.899	1.914	1.909	1.909
-0.010	0.000	-0.005	0.000	0.000	0.010	0.000	2.686	1.895	1.899	1.895	1.914	1.909	1.914
-0.005	0.000	0.000	0.000	-0.005	0.010	0.000	2.686	1.899	1.895	1.895	1.914	1.909	1.909
-0.005	0.005	-0.005	-0.005	0.000	0.010	0.000	2.705	1.899	1.895	1.899	1.914	1.909	1.909
-0.005	-0.005	0.000	-0.005	-0.005	-0.024	0.000	2.661	1.895	1.890	1.895	1.909	1.904	1.899
-0.005	0.005	-0.005	0.000	-0.005	-0.005	0.000	2.686	1.899	1.895	1.895	1.909	1.909	1.904
-0.005	0.000	0.000	-0.005	-0.005	-0.020	0.000	2.666	1.895	1.895	1.890	1.909	1.909	1.904
-0.005	-0.010	0.000	-0.005	0.005	0.000	0.000	2.686	1.895	1.895	1.890	1.914	1.909	1.909
-0.010	-0.010	0.000	-0.005	0.005	0.015	0.000	2.661	1.899	1.890	1.895	1.909	1.909	1.909
-0.005	0.005	-0.005	-0.005	-0.005	0.005	0.000	2.700	1.899	1.895	1.895	1.909	1.904	1.909
0.005	0.000	-0.005	-0.005	-0.005	-0.020	0.000	2.671	1.899	1.899	1.895	1.909	1.904	1.904
0.000	-0.010	-0.005	-0.005	0.000	-0.010	0.000	2.686	1.899	1.895	1.895	1.909	1.909	1.904
0.000	-0.010	-0.005	-0.005	-0.005	0.010	0.000	2.681	1.899	1.895	1.895	1.914	1.909	1.914
-0.005	0.020	0.000	0.000	0.005	0.005	0.000	2.637	1.895	1.904	1.895	1.914	1.914	1.909
-0.005	0.015	-0.005	0.000	0.015	0.000	-0.005	2.642	1.895	1.899	1.899	1.914	1.914	1.914
0.005	0.010	-0.005	0.000	0.005	0.005	0.000	2.793	1.909	1.904	1.899	1.914	1.909	1.914
-0.005	0.015	-0.005	0.000	-0.010	-0.015	0.000	2.656	1.899	1.904	1.899	1.914	1.904	1.904
0.000	0.015	0.000	0.000	-0.010	-0.020	0.000	2.632	1.895	1.899	1.899	1.914	1.904	1.904
0.000	0.005	-0.005	0.000	-0.005	-0.029	0.000	2.725	1.895	1.895	1.895	1.914	1.909	1.904
0.000	0.005	-0.005	0.000	0.000	-0.005	0.000	2.627	1.890	1.895	1.895	1.914	1.909	1.909
-0.005	0.005	0.000	0.000	-0.020	-0.005	0.000	2.642	1.890	1.890	1.890	1.914	1.904	1.904
0.000	-0.010	-0.005	-0.005	-0.039	-0.010	0.000	2.637	1.885	1.885	1.890	1.909	1.899	1.904
0.000	0.010	-0.005	-0.005	-0.039	0.000	0.000	2.656	1.885	1.890	1.890	1.909	1.899	1.904
-0.010	-0.010	0.000	-0.005	-0.024	-0.005	0.000	2.622	1.880	1.880	1.885	1.909	1.904	1.904
-0.005	-0.005	0.005	-0.005	0.000	0.000	0.000	2.651	1.880	1.880	1.885	1.909	1.914	1.909
-0.005	0.000	-0.010	-0.005	0.029	0.020	0.000	2.734	1.890	1.885	1.885	1.904	1.919	1.919
-0.005	0.000	-0.005	-0.005	0.020	-0.015	0.000	2.676	1.895	1.890	1.885	1.904	1.909	1.904
0.000	0.000	-0.005	-0.005	0.010	0.005	0.000	2.739	1.904	1.890	1.885	1.904	1.904	1.909
0.000	-0.005	-0.005	-0.005	0.010	0.010	0.000	2.676	1.904	1.895	1.890	1.904	1.909	1.914
0.000	-0.005	-0.005	0.000	0.005	-0.005	0.000	2.739	1.909	1.899	1.890	1.904	1.904	1.904
0.000	0.000	-0.005	-0.005	0.000	0.015	-0.005	2.695	1.909	1.899	1.895	1.909	1.899	1.909
-0.005	-0.005	-0.010	0.000	-0.010	0.015	0.000	2.700	1.909	1.904	1.890	1.909	1.904	1.904
0.005	0.000	-0.005	0.000	-0.005	0.000	0.000	2.671	1.904	1.904	1.899	1.909	1.904	1.904
-0.010	-0.005	0.000	0.000	-0.005	-0.005	0.000	2.666	1.895	1.899	1.899	1.914	1.904	1.899
-0.010	-0.010	0.000	0.000	0.034	-0.005	0.000	2.690	1.899	1.899	1.899	1.914	1.914	1.909
-0.005	-0.005	-0.010	0.000	0.029	0.005	0.000	2.671	1.899	1.895	1.895	1.914	1.909	1.909
0.000	0.000	0.000	0.000	0.000	0.005	0.000	2.676	1.895	1.899	1.895	1.914	1.904	1.909
-0.005	-0.010	0.000	-0.005	-0.015	0.000	0.000	2.671	1.895	1.895	1.895	1.909	1.899	1.904
0.000	-0.005	0.000	0.000	-0.020	0.000	0.000	2.686	1.895	1.895	1.895	1.909	1.899	1.904
0.000	0.000	-0.005	-0.005	-0.005	-0.024	0.000	2.671	1.895	1.895	1.895	1.909	1.904	1.899
-0.005	-0.015	-0.005	-0.005	-0.005	-0.020	0.000	2.671	1.895	1.890	1.890	1.909	1.904	1.895
0.000	-0.015	0.000	-0.005	-0.020	0.000	0.000	2.686	1.895	1.890	1.890	1.909	1.899	1.904
-0.005	-0.005	0.000	-0.005	-0.024	-0.005	0.000	2.666	1.895	1.895	1.890	1.909	1.904	1.899
-0.005	0.010	0.000	-0.005	-0.015	-0.034	0.000	2.700	1.899	1.895	1.895	1.914	1.904	1.899
-0.005	0.000	0.000	-0.005	-0.010	-0.010	-0.005	2.681	1.895	1.895	1.895	1.914	1.904	1.899
0.000	-0.005	0.000	0.000	0.000	0.000	0.000	2.681	1.899	1.895	1.895	1.914	1.914	1.914
-0.005	-0.005	-0.005	0.000	0.010	-0.020	0.000	2.695	1.899	1.890	1.895	1.914	1.914	1.909
-0.005	-0.024	-0.005	0.000	0.010	0.005	0.000	2.690	1.899	1.885	1.890	1.914	1.909	1.914
0.005	-0.010	0.000	-0.005	0.005	0.005	0.000	2.676	1.904	1.895	1.895	1.914	1.909	1.914
0.000	-0.015	0.000	0.000	-0.005	0.010	0.000	2.695	1.904	1.899	1.890	1.914	1.909	1.909
0.000	-0.010	-0.005	0.000	0.000	-0.015	0.000	2.661	1.899	1.899	1.890	1.909	1.909	1.904
0.000	-0.010	-0.005	0.000	-0.005	0.010	0.000	2.676	1.899	1.895	1.895	1.909	1.904	1.914
-0.005	-0.005	0.000	0.000	-0.005	0.000	0.000	2.681	1.899	1.899	1.895	1.909	1.904	1.909
0.000	-0.005	0.000	0.000	-0.005	0.010	0.000	2.661	1.895	1.899	1.895	1.909	1.909	1.909
-0.005	-0.005	0.000	-0.005	-0.005	0.005	0.000	2.637	1.890	1.895	1.895	1.909	1.909	1.904
0.000	-0.005	0.000	-0.005	-0.005	0.000	0.000	2.759	1.904	1.895	1.895	1.909	1.904	1.904
-0.005	-0.005	0.000	-0.005	0.000	-0.005	0.000	2.666	1.895	1.895	1.895	1.909	1.904	1.904
-0.005	0.005	0.000	-0.005	-0.005	0.000	0.000	2.651	1.890	1.895	1.895	1.909	1.909	1.909
-0.005	-0.005	0.000	-0.005	0.000	0.000	0.000	2.734	1.899	1.895	1.895	1.909	1.904	1.904
0.000	-0.005	0.000	-0.005	-0.005	0.000	0.000	2.622	1.899	1.895	1.895	1.909	1.904	1.904
0.000	-0.010	-0.005	-0.005	-0.005	-0.005	0.000	2.739	1.909	1.895	1.890	1.909	1.904	1.904
0.000	0.000	0.000	-0.005	-0.005	-0.010	0.000	2.744	1.914	1.904	1.895	1.914	1.909	1.904
-0.005	0.005	-0.005	-0.005	0.000	-0.005	0.000	2.642	1.904	1.904	1.899	1.914	1.909	1.904
-0.005	0.010	-0.005	0.000	0.000	0.000	0.000	2.622	1.895	1.904	1.899	1.914	1.909	1.909
-0.005	0.010	-0.005	0.000	-0.005	-0.005	0.000	2.646	1.895	1.899	1.899	1.914	1.909	1.909
-0.005	0.010	-0.005	0.000	0.000	-0.015	0.000	2.739	1.904	1.899	1.899	1.919	1.909	1.904
-0.005	0.005	0.000	0.000	0.005	0.000	0.000	2.681	1.899	1.899	1.899	1.919	1.914	1.914
0.000	0.000	-0.005	0.000	0.000	0.010	0.000	2.671	1.899	1.895	1.899	1.919	1.914	1.914
-0.005	0.000	-0.005	0.005	-0.005	0.005	0.000	2.661	1.895	1.895	1.895	1.914	1.909	1.909
-0.005	-0.005	-0.010	0.000	-0.005	-0.010	0.000	2.739	1.904	1.895	1.895	1.914	1.909	1.904
-0.005	0.000	-0.005	0.000	0.000	0.000	0.000	2.666	1.895	1.895	1.895	1.909	1.909	1.909
0.000	-0.010	-0.005	0.000	0.000	-0.005	0.000	2.690	1.899	1.895	1.895	1.909	1.909	1.914
-0.005	0.000	0.000	-0.005	-0.005	0.005	0.000	2.676	1.899	1.899	1.895	1.909	1.909	1.909
0.000	0.005	0.000	-0.005	-0.005	0.005	0.000	2.666	1.895	1.899	1.895	1.909	1.909	1.909
0.005	0.000	-0.005	-0.005	0.000	0.000	0.000	2.666	1.899	1.895	1.895	1.909	1.909	1.909
0.000	0.000	-0.005	-0.005	-0.005	-0.005	0.000	2.666	1.895	1.899	1.895	1.909	1.909	1.909
-0.005	-0.005	-0.005	-0.005	-0.005	-0.005	0.000	2.666	1.890	1.890	1.895	1.914	1.909	1.909
0.000	0.000	0.000	-0.005	0.000	-0.010	0.000	2.666	1.895	1.895	1.895	1.909	1.904	1.904
0.000	0.000	0.000	-0.005	-0.005	-0.039	0.000	2.690	1.899	1.895	1.895	1.914	1.904	1.899
-0.005	0.000	0.000	-0.005	-0.010	-0.005	0.000	2.671	1.895	1.899	1.895	1.914	1.904	1.909
0.000	0.000	0.000	0.000	0.000	-0.005	0.000	2.666	1.899	1.899	1.895	1.914	1.914	1.914
0.000	-0.005	-0.005	0.000	-0.005	-0.005	0.000	2.681	1.899	1.895	1.895	1.914	1.909	1.909
0.000	0.015	0.000	0.000	0.000	0.000	-0.005	2.661	1.899	1.904	1.899	1.914	1.909	1.914
-0.005	0.015	-0.005	0.000	0.000	-0.005	0.000	2.686	1.899	1.899	1.899	1.914	1.909	1.909
-0.005	0.010	-0.005	0.000	0.010	0.000	0.000	2.676	1.899	1.895	1.895	1.914	1.914	1.914
0.005	-0.005	-0.005	0.000	0.000	0.005	0.000	2.695	1.909	1.895	1.895	1.914	1.909	1.909
0.000	-0.005	0.000	0.000	0.005	0.000	0.000	2.690	1.904	1.895	1.895	1.914	1.909	1.909
-0.005	-0.015	0.000	-0.005	-0.010	0.005	0.000	2.661	1.899	1.895	1.895	1.909	1.909	1.909
-0.005	-0.015	0.000	-0.005	0.000	0.000	0.000	2.671	1.899	1.890	1.890	1.909	1.909	1.909
0.000	-0.005	-0.005	0.000	0.005	-0.005	0.000	2.690	1.899	1.899	1.890	1.909	1.909	1.909
-0.005	-0.015	0.000	-0.005	0.010	-0.015	0.000	2.671	1.890	1.890	1.890	1.909	1.904	1.904
0.000	-0.010	0.000	-0.005	0.000	0.000	0.000	2.671	1.899	1.895	1.890	1.909	1.909	1.909
-0.005	-0.015	-0.005	-0.005	0.000	-0.015	0.000	2.676	1.895	1.890	1.895	1.909	1.904	1.909
0.000	-0.005	-0.005	-0.005	-0.010	0.000	0.000	2.646	1.895	1.895	1.895	1.909	1.899	1.909
0.000	-0.005	-0.005	-0.005	-0.005	0.005	0.000	2.637	1.890	1.895	1.895	1.909	1.904	1.909
-0.005	-0.010	-0.005	-0.005	-0.005	-0.010	0.000	2.646	1.890	1.890	1.895	1.914	1.904	1.904
0.000	-0.010	-0.005	0.000	-0.010	0.000	0.000	2.661	1.890	1.895	1.890	1.914	1.909	1.909
-0.005	-0.010	-0.005	0.000	0.000	-0.010	0.000	2.773	1.904	1.895	1.890	1.914	1.909	1.904
0.000	0.000	-0.005	0.000	0.000	0.000	0.000	2.734	1.909	1.899	1.895	1.914	1.909	1.909
-0.010	0.010	-0.005	-0.005	-0.010	0.010	0.000	2.671	1.904	1.904	1.895	1.914	1.909	1.909
-0.005	0.010	-0.005	0.000	-0.020	0.005	0.000	2.651	1.909	1.904	1.899	1.914	1.904	1.909
-0.010	0.015	-0.005	0.000	-0.010	0.005	0.000	2.637	1.904	1.909	1.899	1.914	1.909	1.909
-0.010	0.005	0.000	0.000	-0.005	-0.010	0.000	2.739	1.904	1.899	1.899	1.914	1.909	1.904
-0.010	-0.010	0.000	0.000	0.000	-0.005	0.000	2.715	1.909	1.899	1.899	1.914	1.909	1.909
-0.005	-0.010	-0.005	0.000	0.005	0.010	0.000	2.666	1.904	1.899	1.895	1.914	1.914	1.914
-0.005	-0.020	0.000	-0.005	0.000	0.005	-0.005	2.720	1.904	1.899	1.895	1.914	1.909	1.909
-0.005	-0.010	-0.005	-0.005	0.000	0.005	0.000	2.666	1.904	1.904	1.895	1.914	1.909	1.909
-0.005	-0.005	0.000	-0.005	-0.005	0.000	0.000	2.744	1.909	1.904	1.899	1.914	1.909	1.909
0.000	-0.015	0.000	-0.005	-0.015	-0.020	0.000	2.827	1.909	1.899	1.899	1.914	1.904	1.899
-0.005	-0.015	0.000	-0.005	0.000	0.005	0.000	2.710	1.909	1.904	1.899	1.914	1.914	1.909
0.000	-0.015	-0.005	-0.005	0.005	-0.005	0.000	2.666	1.904	1.904	1.899	1.914	1.914	1.909
-0.005	0.024	0.000	-0.005	0.015	0.000	0.000	2.700	1.909	1.914	1.909	1.919	1.914	1.914
-0.005	0.020	-0.005	-0.005	0.000	-0.010	0.000	2.676	1.909	1.909	1.904	1.919	1.914	1.909
0.005	0.010	-0.005	0.000	0.000	0.000	0.000	2.671	1.899	1.909	1.904	1.924	1.914	1.914
-0.005	0.015	-0.005	0.000	0.000	0.000	0.000	2.700	1.904	1.909	1.904	1.919	1.914	1.914
0.000	0.005	-0.010	0.000	-0.005	-0.010	0.000	2.671	1.904	1.904	1.904	1.924	1.914	1.914
0.000	0.005	-0.005	0.000	-0.010	0.000	0.000	2.671	1.899	1.899	1.904	1.924	1.919	1.914
-0.005	0.000	0.000	0.000	-0.010	0.000	0.000	2.661	1.899	1.899	1.904	1.924	1.919	1.914
-0.010	0.000	-0.005	0.000	-0.010	0.000	0.000	2.681	1.899	1.899	1.899	1.919	1.914	1.919
-0.005	-0.005	-0.005	0.000	-0.005	-0.020	0.000	2.661	1.899	1.895	1.899	1.919	1.914	1.909
0.005	-0.005	-0.005	0.000	-0.010	0.010	0.000	2.666	1.899	1.899	1.895	1.919	1.914	1.919
-0.005	-0.005	-0.005	-0.005	-0.005	0.005	0.000	2.666	1.899	1.895	1.895	1.914	1.914	1.919
0.000	0.005	0.000	-0.005	-0.005	0.000	0.000	2.676	1.899	1.899	1.895	1.914	1.914	1.914
0.000	-0.010	0.000	-0.005	-0.005	0.005	0.000	2.686	1.899	1.890	1.895	1.914	1.914	1.914
-0.005	-0.010	0.000	-0.005	0.000	0.005	0.000	2.686	1.899	1.895	1.895	1.914	1.914	1.914
0.000	-0.005	-0.005	-0.005	0.000	0.000	0.000	2.690	1.899	1.899	1.895	1.909	1.909	1.914
-0.005	0.005	-0.005	-0.005	0.010	-0.015	0.000	2.671	1.899	1.899	1.899	1.914	1.914	1.909
0.000	-0.005	-0.005	-0.005	0.010	0.000	0.000	2.671	1.899	1.899	1.895	1.914	1.914	1.914
0.005	0.000	-0.005	0.000	-0.005	-0.015	0.000	2.671	1.904	1.904	1.899	1.914	1.909	1.909
0.000	0.000	0.000	0.000	0.000	0.005	0.000	2.690	1.904	1.899	1.899	1.914	1.909	1.914
0.000	0.000	-0.010	0.000	-0.010	-0.020	0.000	2.686	1.904	1.899	1.899	1.914	1.909	1.909
-0.005	0.000	-0.005	-0.005	-0.005	0.005	0.000	2.666	1.899	1.904	1.899	1.919	1.909	1.914
-0.010	0.000	0.000	0.000	-0.015	0.000	0.000	2.690	1.904	1.899	1.899	1.919	1.909	1.909
-0.005	0.000	-0.005	0.000	-0.015	-0.010	0.000	2.681	1.899	1.904	1.899	1.919	1.909	1.904
-0.010	0.000	-0.005	0.000	-0.020	0.000	0.000	2.632	1.895	1.899	1.899	1.914	1.909	1.914
-0.005	-0.005	-0.005	0.000	0.015	0.005	0.000	2.661	1.909	1.899	1.895	1.914	1.919	1.914
-0.005	-0.010	-0.005	0.000	0.020	0.000	0.000	2.656	1.904	1.895	1.895	1.914	1.919	1.914
0.000	-0.020	0.000	-0.005	0.005	0.000	0.000	2.769	1.895	1.895	1.895	1.914	1.909	1.914
-0.010	-0.024	0.000	-0.005	0.000	0.000	0.000	2.720	1.904	1.895	1.895	1.914	1.909	1.909
-0.005	-0.020	-0.005	-0.005	0.000	-0.010	0.000	2.627	1.895	1.895	1.895	1.914	1.904	1.909
0.005	-0.020	0.000	-0.005	-0.005	-0.005	0.000	2.646	1.895	1.899	1.895	1.909	1.904	1.909
-0.010	-0.020	0.000	-0.005	-0.010	-0.010	0.000	2.739	1.899	1.895	1.895	1.909	1.904	1.904
0.005	-0.024	-0.005	-0.005	0.005	-0.010	0.000	2.729	1.909	1.899	1.895	1.914	1.909	1.909
0.000	-0.020	0.000	-0.005	0.005	-0.005	0.000	2.627	1.899	1.899	1.899	1.914	1.909	1.909
-0.005	-0.020	-0.005	-0.005	0.000	0.000	0.000	2.651	1.895	1.899	1.899	1.914	1.909	1.909
0.000	-0.010	0.000	-0.005	0.010	-0.005	0.000	2.734	1.909	1.899	1.899	1.914	1.914	1.909
0.000	-0.005	0.000	0.000	-0.005	-0.024	0.000	2.676	1.904	1.904	1.899	1.919	1.909	1.904
-0.005	-0.005	-0.005	0.000	-0.010	0.005	0.000	2.734	1.904	1.904	1.899	1.914	1.909	1.914
-0.005	-0.005	-0.005	0.000	-0.005	0.000	0.000	2.700	1.904	1.904	1.899	1.919	1.909	1.914
-0.005	0.000	-0.005	0.000	-0.015	-0.010	0.000	2.739	1.909	1.909	1.899	1.919	1.909	1.904
0.000	0.000	0.000	0.000	-0.010	0.010	0.000	2.661	1.904	1.904	1.904	1.919	1.914	1.914
0.005	0.000	0.000	0.000	-0.005	0.000	0.000	2.695	1.904	1.904	1.904	1.919	1.914	1.914
0.000	0.000	0.000	0.000	-0.010	0.010	-0.005	2.671	1.904	1.904	1.899	1.919	1.914	1.914
0.000	0.024	-0.005	0.000	-0.020	-0.005	0.000	2.676	1.904	1.909	1.904	1.919	1.909	1.909
0.005	0.020	-0.005	-0.005	-0.010	0.000	-0.005	2.671	1.899	1.904	1.899	1.919	1.914	1.909
-0.005	0.015	-0.005	-0.005	-0.005	0.000	0.000	2.671	1.895	1.899	1.899	1.919	1.914	1.914
0.005	0.015	0.000	0.000	0.010	-0.005	0.000	2.661	1.895	1.899	1.899	1.919	1.919	1.914
-0.005	0.000	0.000	-0.005	0.005	-0.024	0.000	2.671	1.895	1.890	1.895	1.914	1.914	1.904
0.000	0.000	0.000	-0.005	0.005	-0.010	0.000	2.686	1.899	1.895	1.895	1.914	1.914	1.914
0.000	0.005	-0.005	-0.005	-0.005	-0.020	0.000	2.671	1.899	1.895	1.895	1.914	1.909	1.909
-0.005	-0.020	-0.005	-0.005	-0.010	0.010	0.000	2.666	1.890	1.890	1.890	1.914	1.909	1.919
-0.005	-0.010	-0.005	-0.005	-0.015	0.005	0.000	2.666	1.899	1.895	1.890	1.914	1.909	1.914
-0.005	0.000	-0.005	-0.005	0.000	-0.010	0.000	2.666	1.899	1.899	1.895	1.914	1.914	1.909
0.000	0.000	0.000	0.000	-0.005	-0.010	0.000	2.686	1.899	1.899	1.895	1.914	1.914	1.909
-0.005	0.005	-0.005	0.000	0.005	0.005	0.000	2.681	1.899	1.899	1.895	1.914	1.914	1.919
-0.005	-0.020	-0.005	0.000	-0.005	0.010	0.000	2.690	1.904	1.895	1.895	1.914	1.909	1.919
-0.005	-0.005	-0.010	0.000	-0.005	-0.005	0.000	2.686	1.904	1.899	1.895	1.914	1.909	1.914
-0.005	-0.005	-0.005	0.000	0.000	0.000	0.000	2.686	1.904	1.899	1.895	1.914	1.914	1.909
-0.005	-0.005	-0.005	0.000	0.005	0.005	0.000	2.676	1.904	1.899	1.895	1.914	1.914	1.914
-0.005	-0.005	0.000	-0.005	0.000	-0.010	0.000	2.690	1.904	1.899	1.895	1.914	1.909	1.909
-0.015	-0.005	-0.005	0.000	0.005	0.000	0.000	2.666	1.895	1.895	1.895	1.914	1.909	1.914
-0.005	-0.005	-0.005	-0.005	0.000	-0.015	0.000	2.681	1.899	1.899	1.895	1.909	1.909	1.909
0.000	0.010	0.000	-0.005	0.005	-0.020	0.000	2.676	1.899	1.904	1.895	1.914	1.909	1.904
-0.005	0.010	-0.005	-0.005	0.000	0.005	0.000	2.593	1.890	1.899	1.895	1.909	1.909	1.909
0.005	0.015	0.000	-0.005	0.000	0.000	0.000	2.632	1.885	1.895	1.895	1.914	1.909	1.909
0.000	0.005	-0.005	-0.005	-0.005	-0.010	0.000	2.651	1.890	1.890	1.890	1.914	1.909	1.904
-0.005	0.005	-0.005	-0.005	-0.005	0.010	0.000	2.656	1.890	1.890	1.890	1.914	1.909	1.909
0.000	0.005	-0.005	-0.005	-0.005	0.005	0.000	2.778	1.904	1.890	1.890	1.914	1.904	1.909
0.005	0.000	-0.005	-0.005	-0.005	-0.005	0.000	2.627	1.899	1.895	1.890	1.914	1.909	1.904
-0.010	0.005	-0.005	-0.005	-0.005	0.000	0.000	2.642	1.890	1.895	1.895	1.914	1.909	1.909
0.000	0.000	0.000	0.000	-0.005	0.000	0.000	2.749	1.890	1.890	1.895	1.914	1.909	1.909
0.000	0.000	0.000	0.000	-0.005	0.005	0.000	2.651	1.895	1.890	1.895	1.914	1.909	1.909
-0.005	0.000	0.000	0.000	-0.005	-0.015	0.000	2.651	1.895	1.895	1.890	1.914	1.909	1.909
-0.005	0.000	-0.005	0.000	-0.005	0.000	0.000	2.710	1.899	1.895	1.890	1.909	1.909	1.909
-0.010	-0.005	0.000	-0.005	-0.005	0.000	0.000	2.681	1.899	1.895	1.890	1.909	1.909	1.909
-0.005	-0.005	0.000	-0.005	0.000	0.000	0.000	2.729	1.909	1.895	1.890	1.909	1.904	1.909
0.000	-0.005	-0.005	0.000	0.000	0.000	0.000	2.666	1.899	1.895	1.890	1.909	1.904	1.909
-0.005	-0.015	0.000	0.000	-0.005	-0.005	0.000	2.749	1.909	1.895	1.890	1.909	1.904	1.904
-0.005	-0.005	0.005	-0.005	-0.010	0.000	0.000	2.803	1.899	1.895	1.895	1.909	1.904	1.904
-0.010	-0.015	0.000	-0.005	-0.005	-0.005	0.000	2.739	1.909	1.899	1.890	1.909	1.904	1.904
0.000	-0.005	-0.005	-0.005	-0.005	-0.020	0.000	2.681	1.909	1.904	1.895	1.909	1.904	1.899
0.000	0.000	-0.005	-0.005	-0.005	-0.005	0.000	2.695	1.904	1.904	1.899	1.909	1.909	1.904
-0.010	-0.005	0.000	-0.005	-0.005	0.000	0.000	2.666	1.899	1.899	1.899	1.914	1.909	1.909
-0.005	-0.010	0.000	-0.005	-0.005	-0.024	0.000	2.671	1.899	1.899	1.899	1.914	1.909	1.904
0.000	-0.005	-0.005	-0.005	-0.005	-0.005	0.000	2.671	1.899	1.899	1.899	1.914	1.909	1.909
0.000	-0.005	0.000	-0.005	0.000	0.000	0.000	2.666	1.899	1.899	1.904	1.919	1.909	1.909
-0.005	-0.005	0.000	0.000	0.000	0.000	0.000	2.676	1.899	1.899	1.899	1.919	1.914	1.909
-0.005	-0.005	0.005	0.000	0.000	-0.010	0.000	2.671	1.899	1.899	1.899	1.919	1.914	1.909
-0.015	0.000	-0.005	0.000	0.000	-0.024	0.000	2.690	1.904	1.899	1.899	1.919	1.914	1.909
-0.005	-0.005	-0.005	0.000	0.000	0.005	0.000	2.686	1.909	1.904	1.899	1.919	1.914	1.919
0.000	-0.005	-0.005	0.000	0.000	0.000	0.000	2.666	1.904	1.899	1.899	1.919	1.914	1.914
0.000	-0.005	-0.005	0.000	-0.010	0.000	0.000	2.666	1.899	1.899	1.895	1.914	1.909	1.914
0.005	-0.010	0.000	0.005	-0.005	0.000	0.000	2.656	1.899	1.899	1.895	1.919	1.914	1.914
-0.010	-0.015	0.000	0.000	0.000	-0.020	0.000	2.695	1.895	1.895	1.895	1.914	1.909	1.904
-0.010	-0.005	0.000	-0.005	-0.005	0.005	0.000	2.676	1.899	1.895	1.895	1.914	1.909	1.914
-0.005	-0.010	0.000	-0.005	-0.005	0.010	0.000	2.690	1.899	1.895	1.895	1.909	1.909	1.914
-0.005	-0.005	0.000	-0.005	-0.005	0.000	0.000	2.686	1.904	1.899	1.895	1.909	1.909	1.909
0.005	-0.005	-0.005	-0.005	0.000	0.005	0.000	2.686	1.904	1.899	1.895	1.914	1.909	1.909
-0.005	-0.010	0.000	-0.005	-0.005	0.000	0.000	2.666	1.899	1.899	1.895	1.914	1.909	1.909
0.000	-0.005	-0.005	-0.005	-0.005	0.005	0.000	2.690	1.899	1.899	1.895	1.914	1.909	1.909
-0.005	0.005	-0.005	-0.005	-0.010	0.005	0.000	2.690	1.899	1.904	1.899	1.914	1.909	1.909
-0.005	0.000	-0.005	-0.005	0.005	0.000	0.000	2.686	1.909	1.904	1.899	1.919	1.914	1.909
0.000	0.005	-0.005	-0.005	0.029	-0.005	0.000	2.676	1.899	1.904	1.899	1.919	1.919	1.914
-0.005	-0.005	-0.005	0.000	0.005	-0.005	0.000	2.598	1.895	1.899	1.899	1.919	1.909	1.909
-0.015	0.000	-0.005	0.000	-0.010	-0.005	0.000	2.622	1.885	1.899	1.899	1.914	1.909	1.909
0.000	-0.010	0.000	-0.005	0.000	0.000	-0.005	2.651	1.899	1.890	1.899	1.919	1.909	1.909
-0.005	-0.005	-0.005	0.000	0.024	-0.005	0.000	2.671	1.895	1.895	1.895	1.919	1.919	1.914
-0.005	-0.005	-0.005	0.000	0.015	-0.005	0.000	2.773	1.899	1.895	1.895	1.914	1.909	1.914
0.000	0.015	-0.005	0.000	-0.010	-0.005	0.000	2.632	1.890	1.895	1.899	1.914	1.904	1.909
-0.005	0.005	0.000	-0.005	-0.010	-0.005	0.000	2.646	1.890	1.895	1.890	1.914	1.904	1.909
-0.005	0.010	-0.005	0.000	0.000	-0.005	0.000	2.642	1.885	1.890	1.895	1.914	1.909	1.909
0.000	-0.005	-0.005	-0.005	-0.005	0.000	0.000	2.734	1.899	1.890	1.890	1.909	1.904	1.909
-0.005	-0.005	0.000	-0.005	-0.005	-0.005	-0.005	2.622	1.890	1.885	1.890	1.909	1.904	1.909
0.005	-0.015	0.000	-0.005	-0.010	0.000	0.000	2.612	1.885	1.885	1.890	1.904	1.904	1.909
0.005	-0.010	0.000	-0.005	-0.020	-0.010	0.000	2.656	1.890	1.885	1.885	1.904	1.899	1.904
-0.005	-0.005	0.000	-0.005	-0.020	0.010	0.000	2.637	1.885	1.890	1.885	1.904	1.904	1.909
0.000	-0.005	-0.005	-0.005	-0.005	0.000	0.000	2.676	1.895	1.890	1.890	1.909	1.904	1.904
-0.005	-0.005	-0.005	-0.005	-0.005	0.015	0.000	2.744	1.899	1.890	1.890	1.909	1.904	1.909
0.000	0.000	0.000	-0.005	-0.005	0.005	0.000	2.705	1.904	1.899	1.890	1.909	1.904	1.909
0.005	0.000	-0.005	-0.005	-0.005	0.010	0.000	2.744	1.914	1.904	1.895	1.909	1.904	1.909
0.000	0.000	-0.005	0.000	0.005	0.000	0.000	2.700	1.909	1.904	1.895	1.909	1.909	1.904
-0.005	0.005	-0.005	0.000	0.005	-0.020	0.000	2.686	1.904	1.904	1.899	1.914	1.909	1.904
-0.005	0.005	-0.005	0.000	-0.010	0.005	-0.005	2.671	1.904	1.904	1.899	1.914	1.904	1.909
-0.010	0.015	-0.005	0.000	-0.005	-0.010	-0.005	2.666	1.899	1.904	1.895	1.914	1.904	1.904
-0.005	0.015	0.000	0.000	-0.005	0.000	0.000	2.695	1.899	1.904	1.899	1.914	1.909	1.909
0.000	0.005	0.000	0.000	-0.005	-0.005	0.000	2.661	1.899	1.899	1.899	1.914	1.909	1.909
0.000	0.000	-0.005	0.000	-0.015	-0.005	0.000	2.666	1.895	1.895	1.895	1.914	1.909	1.909
-0.005	0.005	-0.005	-0.005	0.000	0.000	0.000	2.661	1.899	1.895	1.899	1.914	1.909	1.909
0.000	0.000	0.000	0.000	-0.010	0.000	0.000	2.681	1.895	1.895	1.895	1.914	1.909	1.909
-0.005	-0.005	0.005	-0.005	-0.005	0.005	0.000	2.676	1.895	1.895	1.890	1.914	1.909	1.909
-0.010	-0.005	-0.005	-0.005	-0.010	-0.015	0.000	2.676	1.895	1.895	1.890	1.909	1.909	1.904
-0.005	-0.015	0.000	-0.005	-0.010	-0.010	0.000	2.666	1.895	1.890	1.890	1.909	1.909	1.909
0.000	-0.005	0.000	-0.005	-0.005	-0.005	0.000	2.661	1.895	1.895	1.890	1.909	1.909	1.909
0.000	-0.005	0.005	-0.005	-0.010	-0.024	0.000	2.700	1.904	1.895	1.895	1.914	1.904	1.904
-0.010	-0.010	0.000	-0.005	0.000	0.000	0.000	2.676	1.895	1.895	1.890	1.909	1.909	1.909
0.005	-0.005	0.000	0.000	0.010	0.005	0.000	2.686	1.904	1.899	1.895	1.909	1.914	1.914
-0.005	-0.005	-0.005	0.000	0.000	0.000	0.000	2.686	1.895	1.899	1.895	1.909	1.909	1.914
0.000	0.010	0.000	0.000	0.000	-0.020	0.000	2.690	1.899	1.904	1.899	1.914	1.909	1.909
-0.005	-0.005	-0.005	0.000	-0.005	0.005	0.000	2.671	1.899	1.899	1.895	1.914	1.909	1.914
0.000	-0.005	-0.005	0.000	0.020	-0.015	0.000	2.695	1.904	1.899	1.895	1.914	1.914	1.909
0.000	0.000	-0.005	0.000	0.029	-0.005	0.000	2.686	1.904	1.899	1.899	1.914	1.919	1.914
0.000	0.005	-0.010	0.000	0.024	0.005	0.000	2.690	1.899	1.899	1.899	1.914	1.914	1.914
-0.005	0.000	-0.005	0.000	0.015	-0.005	0.000	2.686	1.899	1.895	1.899	1.914	1.909	1.909
0.000	-0.010	-0.010	-0.005	0.000	0.005	0.000	2.676	1.899	1.890	1.895	1.914	1.904	1.914
0.005	-0.015	-0.005	0.000	0.005	0.000	0.000	2.632	1.895	1.895	1.890	1.909	1.904	1.909
0.000	-0.010	-0.005	-0.005	-0.010	-0.005	0.000	2.646	1.890	1.890	1.890	1.909	1.904	1.904
-0.005	-0.010	0.000	-0.005	-0.005	0.000	0.000	2.676	1.890	1.890	1.890	1.909	1.904	1.904
-0.010	-0.005	-0.005	-0.005	-0.015	-0.010	0.000	2.642	1.885	1.890	1.890	1.909	1.899	1.899
-0.005	-0.010	-0.005	-0.005	0.000	-0.015	0.000	2.720	1.895	1.890	1.890	1.909	1.904	1.904
0.000	-0.015	0.005	-0.005	-0.005	0.005	0.000	2.676	1.895	1.890	1.890	1.909	1.904	1.909
-0.015	-0.010	0.000	-0.005	-0.010	0.005	0.000	2.651	1.890	1.890	1.890	1.909	1.899	1.909
-0.005	-0.020	-0.005	-0.005	-0.024	-0.010	0.000	2.734	1.904	1.895	1.890	1.909	1.899	1.899
-0.005	-0.005	-0.005	-0.005	-0.015	0.000	0.000	2.754	1.909	1.899	1.890	1.909	1.904	1.904
-0.005	-0.005	-0.005	0.000	-0.005	-0.029	0.000	2.627	1.899	1.904	1.895	1.909	1.909	1.899
