-0.005	0.010	-0.005	0.000	0.015	-0.005	0.034	1.802	3.442	2.549	2.324	2.144	2.187	2.153
0.000	-0.015	0.005	-0.005	-0.039	0.020	0.034	1.763	2.979	2.681	2.417	2.217	2.178	2.168
0.005	0.005	0.005	-0.005	-0.059	0.024	0.034	1.797	2.651	2.690	2.495	2.295	2.202	2.178
-0.020	0.020	0.000	-0.005	-0.034	-0.015	0.034	1.812	2.412	2.632	2.534	2.368	2.246	2.183
-0.015	0.015	-0.005	0.000	-0.020	0.010	0.039	1.758	2.231	2.529	2.534	2.422	2.300	2.217
-0.015	0.005	-0.015	0.005	0.039	0.020	0.034	1.787	2.114	2.417	2.505	2.451	2.354	2.266
-0.020	0.005	0.000	0.005	0.054	0.005	0.034	1.807	2.036	2.319	2.461	2.466	2.388	2.290
-0.020	0.005	-0.010	0.005	0.054	0.010	0.034	1.812	1.982	2.231	2.402	2.451	2.407	2.324
-0.010	-0.005	-0.010	0.005	0.039	0.005	0.039	1.768	1.943	2.153	2.334	2.427	2.407	2.344
-0.015	0.005	-0.005	-0.005	0.005	0.000	0.034	1.782	1.914	2.100	2.275	2.388	2.393	2.358
-0.010	-0.015	0.010	-0.005	0.005	-0.010	0.034	1.748	1.895	2.041	2.212	2.344	2.383	2.358
-0.005	-0.015	0.010	0.000	0.015	-0.010	0.034	1.807	1.895	1.997	2.153	2.300	2.363	2.363
0.010	-0.010	0.000	-0.005	0.010	-0.005	0.034	1.772	1.890	1.978	2.100	2.251	2.329	2.349
0.005	-0.010	0.000	-0.005	-0.015	0.005	0.034	1.797	1.885	1.953	2.061	2.202	2.290	2.339
0.005	-0.020	0.000	-0.005	0.015	-0.024	0.034	1.748	1.875	1.934	2.026	2.163	2.261	2.314
0.010	-0.010	0.000	0.000	0.049	0.010	0.034	1.792	1.875	1.919	1.997	2.124	2.231	2.300
0.000	0.000	0.005	0.000	0.020	-0.015	0.034	1.797	1.875	1.914	1.973	2.090	2.183	2.261
0.005	0.000	0.000	0.005	-0.029	0.000	0.034	1.777	1.865	1.904	1.953	2.056	2.134	2.231
0.000	0.015	-0.005	0.000	-0.049	0.015	0.034	1.807	1.865	1.895	1.938	2.026	2.100	2.197
-0.005	0.010	-0.010	0.010	-0.039	0.024	0.039	1.792	1.860	1.890	1.924	2.007	2.075	2.168
-0.015	0.010	-0.005	0.005	-0.039	0.015	0.039	1.719	1.841	1.875	1.909	1.987	2.051	2.134
-0.005	0.005	-0.010	0.005	0.015	0.015	0.034	1.792	1.836	1.865	1.899	1.968	2.036	2.109
-0.005	0.020	-0.005	0.005	0.020	0.010	0.034	1.768	1.831	1.865	1.890	1.953	2.017	2.080
0.005	0.005	-0.005	0.005	0.000	-0.005	0.034	1.782	1.821	1.855	1.880	1.934	1.987	2.051
0.000	0.005	-0.005	0.015	0.000	-0.010	0.034	1.777	1.812	1.846	1.870	1.929	1.968	2.026
0.000	0.010	0.000	0.015	0.024	-0.024	0.034	1.812	1.807	1.836	1.860	1.914	1.958	2.007
0.005	-0.010	-0.005	0.020	-0.015	-0.020	0.034	1.729	1.787	1.816	1.846	1.899	1.929	1.987
0.010	-0.010	0.000	0.015	-0.005	-0.015	0.034	1.772	1.782	1.812	1.841	1.885	1.919	1.968
0.000	-0.020	-0.005	0.015	0.024	0.000	0.039	1.797	1.768	1.797	1.826	1.875	1.914	1.958
0.005	-0.010	0.000	0.010	0.020	-0.005	0.034	1.802	1.768	1.797	1.816	1.870	1.895	1.938
0.015	-0.005	0.015	0.015	-0.005	0.000	0.039	1.772	1.758	1.787	1.812	1.855	1.880	1.924
0.015	-0.034	0.015	0.024	-0.010	-0.005	0.034	1.768	1.743	1.763	1.797	1.851	1.870	1.904
0.000	-0.054	0.005	0.000	-0.010	0.005	0.034	1.797	1.729	1.753	1.782	1.826	1.855	1.895
0.000	-0.044	0.000	-0.034	0.005	-0.024	0.034	1.748	1.719	1.748	1.768	1.807	1.846	1.875
0.000	0.010	0.000	-0.039	0.020	-0.010	0.034	1.792	1.714	1.753	1.768	1.802	1.836	1.870
0.000	0.117	-0.005	-0.029	0.024	-0.015	0.034	1.802	1.709	1.772	1.768	1.802	1.831	1.855
-0.005	0.073	-0.005	-0.010	0.015	-0.010	0.039	1.768	1.689	1.738	1.758	1.797	1.816	1.846
-0.010	0.015	-0.010	-0.015	-0.020	-0.005	0.039	1.787	1.680	1.709	1.743	1.787	1.797	1.831
-0.005	-0.039	-0.020	-0.005	-0.020	-0.010	0.039	1.797	1.675	1.685	1.724	1.777	1.792	1.816
0.000	-0.010	-0.020	-0.005	-0.024	-0.010	0.039	1.777	1.670	1.689	1.714	1.768	1.782	1.807
-0.010	-0.010	-0.010	0.015	-0.010	-0.015	0.039	1.724	1.650	1.685	1.709	1.763	1.782	1.802
-0.010	0.010	-0.005	0.015	0.015	-0.010	0.034	1.797	1.646	1.680	1.704	1.748	1.777	1.797
-0.010	0.020	0.005	-0.005	0.000	0.010	0.034	1.807	1.641	1.670	1.694	1.738	1.758	1.787
-0.010	0.034	0.015	-0.010	-0.054	0.015	0.039	1.738	1.631	1.665	1.689	1.724	1.738	1.772
-0.010	0.039	0.000	-0.020	-0.063	0.010	0.034	1.802	1.626	1.655	1.675	1.714	1.724	1.758
0.010	-0.024	0.005	-0.024	0.010	0.020	0.034	1.763	1.621	1.631	1.665	1.704	1.743	1.758
0.015	-0.088	0.010	-0.034	0.054	0.015	0.034	1.758	1.611	1.611	1.646	1.694	1.733	1.753
0.005	-0.039	0.010	-0.059	0.024	-0.010	0.034	1.797	1.606	1.621	1.641	1.680	1.709	1.733
-0.005	-0.044	0.005	-0.054	0.024	0.024	0.034	1.802	1.592	1.611	1.631	1.670	1.699	1.733
0.005	-0.029	0.000	-0.039	0.024	0.034	0.034	1.753	1.587	1.611	1.621	1.670	1.689	1.719
-0.005	0.000	-0.010	-0.024	0.044	0.010	0.034	1.709	1.572	1.611	1.621	1.665	1.685	1.709
-0.015	0.010	-0.010	-0.005	0.034	0.034	0.034	1.753	1.562	1.602	1.616	1.660	1.680	1.704
-0.015	0.063	0.000	0.000	0.029	0.024	0.034	1.782	1.562	1.606	1.616	1.655	1.670	1.689
0.005	-0.020	-0.005	0.015	0.000	0.024	0.034	1.787	1.558	1.572	1.602	1.646	1.650	1.680
-0.005	0.049	0.000	0.015	-0.034	0.005	0.034	1.782	1.553	1.587	1.597	1.641	1.636	1.665
-0.005	0.059	-0.015	0.020	-0.034	-0.005	0.034	1.812	1.548	1.577	1.587	1.636	1.636	1.655
0.000	0.024	-0.005	0.029	-0.044	-0.010	0.034	1.797	1.548	1.558	1.582	1.626	1.631	1.641
-0.005	0.010	-0.010	0.044	-0.020	-0.015	0.034	1.777	1.533	1.553	1.572	1.621	1.636	1.641
-0.005	-0.063	0.000	0.029	-0.005	-0.049	0.034	1.768	1.523	1.523	1.558	1.606	1.631	1.626
-0.005	-0.054	0.000	0.029	-0.005	-0.020	0.034	1.787	1.519	1.528	1.553	1.592	1.616	1.631
0.000	-0.015	0.010	0.020	-0.010	-0.020	0.034	1.772	1.514	1.533	1.548	1.587	1.606	1.626
0.000	-0.034	0.010	0.005	0.010	-0.024	0.034	1.782	1.514	1.523	1.538	1.577	1.602	1.616
0.005	0.020	0.015	0.000	0.029	-0.034	0.034	1.802	1.504	1.533	1.543	1.567	1.597	1.616
0.005	-0.020	0.015	-0.005	0.024	0.005	0.029	1.802	1.499	1.514	1.533	1.562	1.587	1.611
-0.005	0.093	0.005	0.000	-0.010	0.010	0.029	1.802	1.499	1.543	1.533	1.558	1.567	1.602
0.010	0.034	-0.005	-0.005	-0.034	0.005	0.029	1.738	1.484	1.504	1.523	1.553	1.558	1.582
0.005	-0.005	-0.005	0.000	-0.063	0.005	0.029	1.797	1.475	1.489	1.514	1.548	1.543	1.572
-0.010	-0.010	-0.005	-0.005	-0.083	-0.005	0.029	1.807	1.470	1.484	1.504	1.543	1.538	1.558
-0.005	-0.010	0.000	-0.005	-0.034	-0.020	0.029	1.743	1.460	1.479	1.494	1.533	1.553	1.553
-0.005	-0.005	0.005	-0.005	-0.020	-0.015	0.029	1.748	1.445	1.470	1.494	1.528	1.548	1.558
-0.015	0.005	0.005	0.000	-0.029	0.005	0.029	1.802	1.450	1.465	1.484	1.523	1.538	1.558
-0.005	-0.010	0.005	0.000	-0.010	-0.015	0.029	1.802	1.450	1.460	1.479	1.519	1.533	1.543
0.000	-0.010	-0.005	0.005	0.044	-0.005	0.029	1.782	1.445	1.455	1.470	1.509	1.548	1.548
-0.005	0.005	-0.020	0.005	0.093	0.005	0.029	1.787	1.440	1.460	1.465	1.504	1.543	1.548
0.000	0.010	-0.010	0.000	0.093	0.005	0.029	1.768	1.440	1.455	1.465	1.499	1.528	1.543
0.000	-0.005	-0.005	0.005	0.029	-0.005	0.029	1.777	1.436	1.445	1.460	1.489	1.499	1.528
0.005	-0.015	0.005	0.010	-0.024	0.024	0.029	1.768	1.426	1.436	1.455	1.484	1.484	1.523
-0.005	-0.020	0.000	0.000	-0.024	0.039	0.029	1.797	1.421	1.431	1.450	1.479	1.479	1.514
0.000	-0.015	0.015	0.005	0.029	0.010	0.029	1.787	1.416	1.426	1.445	1.479	1.489	1.499
0.005	-0.029	0.015	0.005	0.044	0.015	0.029	1.777	1.411	1.421	1.436	1.470	1.489	1.494
0.005	-0.024	0.005	0.000	-0.020	0.000	0.034	1.724	1.401	1.416	1.426	1.460	1.460	1.484
0.000	0.010	0.000	0.000	-0.078	0.005	0.029	1.802	1.396	1.421	1.426	1.455	1.440	1.475
0.010	0.000	0.010	0.005	-0.063	0.010	0.029	1.802	1.396	1.406	1.421	1.455	1.455	1.465
0.010	0.000	0.005	0.000	0.020	0.000	0.034	1.753	1.387	1.406	1.416	1.450	1.475	1.470
0.005	-0.005	0.010	-0.005	0.034	0.005	0.029	1.753	1.377	1.396	1.411	1.440	1.465	1.470
0.010	0.024	0.005	-0.015	0.034	0.000	0.029	1.807	1.382	1.401	1.406	1.436	1.455	1.465
0.000	0.049	-0.005	-0.020	0.054	-0.005	0.029	1.807	1.377	1.396	1.401	1.436	1.455	1.460
-0.005	0.024	-0.010	-0.010	0.039	0.005	0.034	1.777	1.367	1.387	1.396	1.426	1.440	1.455
-0.010	0.005	-0.020	0.000	-0.005	0.000	0.034	1.787	1.362	1.372	1.387	1.426	1.421	1.440
0.000	-0.015	-0.020	0.000	-0.020	0.005	0.034	1.792	1.367	1.367	1.377	1.416	1.416	1.436
0.010	-0.010	-0.015	0.005	-0.034	-0.010	0.034	1.733	1.357	1.367	1.377	1.411	1.411	1.421
0.005	-0.063	-0.010	-0.005	-0.024	-0.024	0.034	1.787	1.348	1.348	1.367	1.401	1.411	1.416
0.010	0.010	0.000	0.000	-0.020	-0.039	0.034	1.812	1.353	1.367	1.372	1.401	1.411	1.411
0.010	0.010	0.010	0.005	0.034	-0.024	0.034	1.797	1.353	1.367	1.372	1.401	1.421	1.421
0.010	0.015	0.010	0.010	0.073	-0.039	0.034	1.792	1.343	1.362	1.372	1.401	1.421	1.416
0.015	0.005	0.010	0.020	0.068	-0.015	0.029	1.763	1.343	1.353	1.367	1.401	1.416	1.421
0.010	0.010	0.005	0.024	0.068	-0.015	0.034	1.812	1.338	1.348	1.357	1.392	1.406	1.416
0.010	-0.063	-0.010	0.010	0.015	-0.005	0.034	1.758	1.323	1.323	1.343	1.382	1.382	1.411
0.000	-0.024	-0.010	-0.005	-0.044	0.015	0.034	1.772	1.323	1.333	1.338	1.367	1.362	1.401
-0.005	0.054	-0.005	-0.015	-0.044	0.015	0.034	1.782	1.323	1.353	1.343	1.367	1.362	1.387
0.000	0.000	0.005	-0.005	-0.005	0.010	0.029	1.807	1.323	1.328	1.338	1.367	1.372	1.382
-0.005	-0.054	0.005	0.000	-0.020	0.029	0.034	1.758	1.309	1.313	1.333	1.362	1.367	1.382
-0.010	0.000	0.005	-0.010	-0.020	0.029	0.029	1.782	1.309	1.323	1.328	1.357	1.362	1.377
-0.015	0.015	-0.005	0.000	-0.049	0.029	0.029	1.782	1.309	1.323	1.328	1.357	1.353	1.367
-0.010	0.024	-0.010	0.029	-0.059	0.020	0.029	1.763	1.309	1.323	1.323	1.362	1.353	1.362
-0.010	0.000	-0.010	0.034	-0.054	-0.005	0.029	1.777	1.299	1.309	1.318	1.353	1.348	1.353
-0.010	0.015	-0.010	0.015	-0.073	0.015	0.029	1.807	1.299	1.309	1.318	1.343	1.343	1.353
-0.020	0.024	-0.005	0.000	-0.029	-0.020	0.029	1.782	1.294	1.309	1.313	1.338	1.353	1.343
-0.005	0.010	-0.010	0.020	-0.005	-0.015	0.034	1.763	1.289	1.299	1.309	1.343	1.357	1.353
-0.005	0.015	0.000	0.005	-0.024	-0.029	0.034	1.782	1.284	1.299	1.309	1.333	1.343	1.343
0.000	0.005	0.015	-0.034	-0.015	-0.005	0.029	1.826	1.289	1.289	1.304	1.323	1.338	1.348
0.010	-0.010	0.010	-0.034	0.010	-0.034	0.034	1.768	1.284	1.289	1.299	1.318	1.338	1.333
0.020	-0.034	0.005	-0.049	0.024	0.000	0.029	1.812	1.284	1.274	1.289	1.313	1.333	1.343
0.010	-0.068	0.005	-0.039	0.010	-0.020	0.029	1.816	1.294	1.270	1.284	1.313	1.323	1.333
0.005	-0.063	0.000	-0.024	-0.020	0.005	0.029	1.777	1.279	1.274	1.284	1.309	1.309	1.333
0.000	-0.049	0.005	-0.020	0.010	-0.010	0.029	1.772	1.274	1.274	1.284	1.309	1.318	1.323
-0.010	-0.044	0.015	-0.010	0.039	0.005	0.029	1.812	1.270	1.279	1.284	1.309	1.323	1.323
-0.015	0.088	0.005	-0.010	0.054	-0.005	0.029	1.782	1.274	1.323	1.294	1.313	1.323	1.323
-0.015	0.127	0.000	-0.005	0.103	0.000	0.034	1.797	1.270	1.309	1.299	1.313	1.328	1.328
-0.010	0.020	-0.010	-0.015	0.049	-0.015	0.034	1.807	1.265	1.265	1.284	1.309	1.304	1.318
-0.020	0.068	-0.010	-0.005	-0.020	0.000	0.029	1.802	1.270	1.284	1.284	1.309	1.289	1.309
-0.005	0.015	-0.005	0.005	-0.010	-0.010	0.034	1.787	1.265	1.265	1.279	1.309	1.299	1.304
-0.005	-0.020	0.000	0.005	-0.024	0.000	0.034	1.753	1.255	1.250	1.274	1.304	1.294	1.304
-0.015	-0.034	0.000	0.010	-0.020	-0.034	0.029	1.768	1.245	1.245	1.265	1.299	1.299	1.289
-0.010	-0.068	-0.005	0.010	0.063	0.005	0.029	1.753	1.245	1.240	1.255	1.294	1.318	1.309
-0.010	-0.015	-0.005	0.010	0.024	-0.005	0.034	1.797	1.245	1.255	1.255	1.289	1.294	1.299
0.000	0.020	-0.005	0.010	-0.024	-0.005	0.034	1.787	1.250	1.260	1.255	1.284	1.279	1.294
-0.005	-0.005	-0.005	0.010	-0.054	0.015	0.034	1.812	1.250	1.255	1.255	1.279	1.274	1.294
0.000	0.020	0.005	0.005	-0.063	0.020	0.029	1.743	1.245	1.255	1.260	1.279	1.270	1.289
0.010	-0.005	0.010	0.005	-0.029	0.024	0.029	1.797	1.240	1.245	1.255	1.279	1.279	1.284
0.010	-0.020	-0.005	0.005	-0.005	0.015	0.034	1.782	1.240	1.240	1.245	1.274	1.284	1.279
0.000	-0.020	-0.005	0.000	0.010	0.000	0.029	1.782	1.230	1.235	1.245	1.270	1.284	1.279
0.015	-0.029	-0.010	0.000	0.039	-0.020	0.034	1.787	1.230	1.230	1.235	1.265	1.284	1.274
0.005	-0.015	0.000	0.005	0.034	-0.020	0.034	1.802	1.230	1.235	1.240	1.265	1.274	1.274
-0.010	-0.015	0.005	0.005	0.024	0.005	0.034	1.733	1.221	1.230	1.235	1.265	1.270	1.274
-0.005	-0.005	0.000	0.005	0.034	0.000	0.029	1.792	1.221	1.230	1.235	1.260	1.265	1.274
-0.010	0.005	0.000	0.005	0.015	0.005	0.034	1.812	1.226	1.230	1.235	1.260	1.260	1.270
-0.015	0.010	0.000	0.010	0.010	0.000	0.029	1.777	1.226	1.230	1.230	1.260	1.260	1.265
-0.010	0.024	0.005	0.015	-0.029	0.005	0.029	1.772	1.226	1.235	1.235	1.255	1.245	1.260
-0.015	0.024	0.015	0.000	-0.039	0.010	0.034	1.797	1.226	1.230	1.235	1.255	1.245	1.255
-0.015	0.020	0.000	0.000	-0.024	0.010	0.034	1.812	1.221	1.226	1.230	1.255	1.245	1.250
-0.010	0.010	-0.010	0.005	-0.034	-0.005	0.034	1.753	1.216	1.221	1.221	1.250	1.245	1.245
-0.005	-0.010	-0.015	0.005	-0.034	-0.020	0.029	1.758	1.211	1.216	1.221	1.245	1.245	1.240
-0.005	-0.010	-0.005	0.005	-0.020	-0.005	0.034	1.807	1.211	1.211	1.221	1.245	1.245	1.245
-0.010	-0.015	0.000	0.000	-0.005	-0.005	0.029	1.777	1.201	1.206	1.216	1.240	1.245	1.245
0.005	-0.010	-0.005	0.005	0.010	0.000	0.034	1.758	1.201	1.206	1.211	1.240	1.250	1.245
0.005	-0.005	0.000	0.005	0.029	-0.005	0.029	1.797	1.201	1.206	1.211	1.235	1.250	1.245
0.005	-0.034	-0.005	0.005	0.049	-0.005	0.034	1.753	1.196	1.191	1.206	1.230	1.245	1.245
0.000	-0.024	0.020	-0.005	0.044	-0.005	0.029	1.802	1.201	1.201	1.211	1.230	1.240	1.245
0.015	-0.015	0.029	-0.005	0.039	0.000	0.034	1.699	1.191	1.201	1.206	1.226	1.235	1.240
0.020	-0.005	0.015	0.000	-0.020	-0.005	0.029	1.777	1.191	1.201	1.201	1.226	1.216	1.230
-0.005	0.000	0.000	0.000	-0.054	-0.005	0.029	1.772	1.187	1.196	1.196	1.226	1.206	1.221
0.005	0.000	0.000	0.000	-0.049	-0.020	0.029	1.802	1.191	1.191	1.196	1.221	1.211	1.216
-0.005	0.005	-0.005	-0.005	-0.034	-0.010	0.029	1.724	1.177	1.191	1.196	1.216	1.216	1.216
0.000	0.005	-0.015	-0.005	-0.020	-0.010	0.029	1.787	1.182	1.187	1.191	1.216	1.216	1.216
-0.005	0.015	-0.010	-0.005	-0.015	0.000	0.029	1.807	1.187	1.187	1.191	1.216	1.216	1.221
0.000	0.020	-0.005	-0.010	-0.005	-0.015	0.034	1.772	1.187	1.191	1.191	1.211	1.221	1.211
0.005	0.010	-0.005	-0.010	0.034	-0.005	0.029	1.802	1.187	1.187	1.191	1.211	1.226	1.221
-0.005	0.024	-0.010	-0.024	0.044	0.010	0.029	1.807	1.187	1.191	1.187	1.206	1.221	1.226
0.000	0.024	-0.010	-0.020	0.015	0.010	0.029	1.807	1.191	1.191	1.191	1.206	1.211	1.216
0.010	0.005	-0.005	-0.005	0.000	0.024	0.029	1.733	1.182	1.182	1.187	1.211	1.206	1.221
0.005	-0.020	0.000	0.005	0.039	0.020	0.029	1.782	1.187	1.172	1.187	1.211	1.216	1.216
0.005	-0.039	0.000	0.000	0.015	0.010	0.029	1.807	1.182	1.172	1.182	1.211	1.206	1.206
0.010	-0.034	0.015	0.015	-0.015	0.015	0.029	1.753	1.177	1.172	1.182	1.206	1.201	1.211
0.005	-0.039	-0.005	0.010	0.010	0.010	0.029	1.802	1.177	1.172	1.172	1.201	1.206	1.201
-0.005	-0.020	-0.005	-0.005	0.039	0.005	0.034	1.763	1.172	1.177	1.172	1.196	1.211	1.201
-0.010	0.122	-0.015	-0.010	0.068	0.015	0.034	1.797	1.177	1.221	1.187	1.196	1.211	1.211
-0.005	0.103	-0.015	0.000	0.024	0.000	0.029	1.768	1.172	1.191	1.187	1.201	1.191	1.201
-0.010	-0.015	-0.005	0.000	-0.015	0.000	0.029	1.802	1.172	1.157	1.182	1.201	1.182	1.196
-0.010	0.083	0.005	-0.005	-0.044	-0.005	0.029	1.753	1.167	1.187	1.182	1.196	1.177	1.187
-0.010	-0.024	0.015	-0.005	-0.034	0.000	0.034	1.733	1.152	1.143	1.177	1.196	1.187	1.191
-0.015	-0.122	0.015	0.000	-0.029	0.010	0.029	1.812	1.157	1.118	1.157	1.196	1.187	1.191
-0.010	-0.005	0.000	0.010	-0.039	-0.005	0.029	1.753	1.162	1.172	1.157	1.191	1.187	1.182
-0.005	0.029	-0.010	0.024	-0.029	0.000	0.034	1.738	1.157	1.172	1.162	1.191	1.191	1.191
0.005	0.005	0.000	0.034	-0.029	-0.015	0.029	1.807	1.162	1.162	1.167	1.191	1.187	1.187
-0.010	0.059	0.005	0.029	-0.024	-0.005	0.034	1.816	1.167	1.177	1.172	1.191	1.191	1.187
0.005	0.039	0.005	0.005	-0.059	0.015	0.034	1.768	1.157	1.167	1.167	1.182	1.177	1.187
0.000	0.029	0.000	0.000	-0.054	0.005	0.034	1.763	1.157	1.162	1.162	1.182	1.177	1.182
0.029	0.015	0.000	-0.015	0.000	0.010	0.034	1.797	1.172	1.157	1.162	1.182	1.196	1.187
0.024	-0.015	0.005	-0.029	0.044	0.005	0.034	1.758	1.162	1.147	1.157	1.172	1.196	1.187
0.034	-0.078	0.005	-0.049	0.068	-0.010	0.039	1.753	1.152	1.133	1.147	1.167	1.196	1.187
0.020	-0.049	-0.005	-0.039	0.054	0.005	0.034	1.777	1.152	1.143	1.147	1.172	1.182	1.187
0.000	-0.020	0.000	-0.005	0.049	-0.010	0.034	1.807	1.152	1.152	1.147	1.177	1.177	1.177
0.000	-0.020	0.000	0.010	0.010	0.010	0.039	1.782	1.147	1.152	1.147	1.177	1.167	1.182
-0.010	-0.005	-0.005	0.029	-0.024	0.000	0.039	1.792	1.147	1.152	1.147	1.182	1.162	1.172
-0.015	0.015	-0.005	0.010	-0.024	-0.010	0.034	1.816	1.147	1.157	1.152	1.172	1.162	1.162
-0.010	0.005	0.005	-0.015	-0.034	-0.010	0.039	1.743	1.143	1.152	1.152	1.162	1.162	1.162
-0.015	0.024	0.005	-0.020	0.000	-0.039	0.039	1.797	1.143	1.152	1.152	1.167	1.172	1.157
-0.010	-0.005	0.000	-0.029	0.020	-0.049	0.039	1.816	1.147	1.138	1.147	1.167	1.172	1.157
-0.010	0.000	-0.005	-0.020	-0.005	-0.044	0.034	1.719	1.133	1.143	1.143	1.167	1.162	1.157
-0.020	0.015	-0.010	-0.020	0.005	-0.010	0.034	1.792	1.138	1.143	1.147	1.162	1.167	1.172
-0.010	0.005	-0.005	-0.029	-0.034	-0.005	0.034	1.792	1.147	1.138	1.143	1.162	1.152	1.162
-0.010	-0.020	-0.005	-0.015	-0.039	-0.015	0.039	1.738	1.133	1.133	1.143	1.162	1.152	1.157
0.005	-0.034	-0.005	-0.005	-0.020	-0.024	0.034	1.782	1.138	1.123	1.138	1.167	1.157	1.157
-0.005	-0.039	-0.020	-0.010	0.005	-0.005	0.034	1.807	1.143	1.128	1.128	1.162	1.167	1.162
-0.010	-0.088	-0.010	0.005	0.034	0.005	0.034	1.709	1.133	1.113	1.128	1.157	1.172	1.172
-0.005	0.020	0.010	0.010	0.068	0.024	0.034	1.772	1.143	1.162	1.147	1.162	1.177	1.177
0.015	0.063	0.029	0.015	0.063	0.024	0.034	1.797	1.152	1.162	1.157	1.167	1.172	1.172
0.010	0.000	0.029	0.029	0.029	0.015	0.034	1.802	1.147	1.143	1.147	1.172	1.157	1.167
0.015	-0.020	0.020	0.020	0.034	0.020	0.034	1.802	1.143	1.133	1.143	1.167	1.162	1.167
0.015	-0.024	0.005	0.015	0.049	0.015	0.034	1.777	1.143	1.133	1.133	1.162	1.167	1.162
-0.005	0.044	-0.005	0.010	0.034	0.020	0.039	1.772	1.138	1.162	1.143	1.157	1.157	1.162
-0.005	0.127	-0.010	0.010	-0.015	0.015	0.034	1.797	1.143	1.172	1.147	1.162	1.143	1.152
-0.005	0.029	-0.010	0.005	-0.034	0.010	0.034	1.807	1.138	1.133	1.143	1.157	1.143	1.143
-0.005	0.005	-0.010	0.005	-0.068	0.015	0.034	1.714	1.128	1.128	1.138	1.157	1.138	1.143
0.000	0.015	-0.005	0.005	-0.088	0.010	0.034	1.772	1.133	1.133	1.138	1.157	1.138	1.138
-0.005	0.005	-0.015	0.000	-0.059	-0.005	0.034	1.787	1.128	1.128	1.133	1.157	1.147	1.138
0.000	-0.010	-0.015	0.005	-0.039	-0.005	0.034	1.772	1.123	1.123	1.128	1.152	1.152	1.143
-0.005	-0.005	-0.010	0.005	-0.020	0.000	0.034	1.787	1.133	1.123	1.128	1.152	1.157	1.147
0.000	0.010	0.005	0.005	-0.039	-0.005	0.034	1.807	1.133	1.133	1.133	1.152	1.147	1.147
0.005	-0.005	0.015	0.005	-0.054	-0.010	0.034	1.709	1.123	1.123	1.128	1.152	1.143	1.147
0.000	-0.029	0.005	0.005	-0.029	0.000	0.034	1.738	1.118	1.118	1.123	1.147	1.152	1.147
0.000	-0.024	0.010	0.000	0.015	-0.005	0.034	1.772	1.123	1.113	1.123	1.147	1.162	1.152
0.010	-0.029	0.010	0.000	0.039	0.000	0.039	1.758	1.123	1.113	1.123	1.147	1.162	1.152
0.005	0.010	0.005	-0.005	0.044	-0.015	0.034	1.797	1.128	1.128	1.123	1.143	1.157	1.152
0.000	0.015	-0.005	0.000	0.098	-0.029	0.034	1.768	1.123	1.128	1.123	1.143	1.167	1.152
0.005	-0.020	-0.005	0.000	0.127	0.000	0.034	1.792	1.123	1.113	1.118	1.143	1.167	1.162
0.010	-0.024	-0.005	-0.005	0.122	0.010	0.039	1.792	1.128	1.118	1.118	1.143	1.162	1.162
-0.005	-0.010	-0.005	0.005	0.073	0.010	0.034	1.763	1.123	1.123	1.118	1.138	1.138	1.152
-0.005	0.005	0.000	0.005	0.039	0.000	0.034	1.738	1.123	1.128	1.123	1.138	1.128	1.143
-0.010	0.020	0.000	0.010	0.000	-0.005	0.034	1.812	1.123	1.128	1.123	1.143	1.118	1.133
-0.015	0.020	-0.005	0.020	-0.054	-0.020	0.034	1.758	1.118	1.128	1.123	1.143	1.108	1.118
-0.015	0.010	0.000	0.015	-0.088	0.010	0.034	1.753	1.118	1.123	1.123	1.138	1.113	1.128
-0.010	0.005	-0.005	0.010	-0.068	0.020	0.034	1.777	1.113	1.118	1.118	1.138	1.123	1.128
-0.005	0.000	-0.005	0.005	-0.034	0.010	0.034	1.782	1.118	1.113	1.118	1.138	1.133	1.123
0.000	0.000	-0.005	-0.005	-0.034	0.005	0.029	1.787	1.123	1.113	1.118	1.138	1.128	1.123
0.000	-0.015	0.000	-0.005	-0.015	-0.010	0.029	1.792	1.123	1.113	1.118	1.138	1.138	1.123
0.010	-0.010	-0.005	0.000	-0.024	0.005	0.029	1.777	1.123	1.113	1.113	1.138	1.133	1.128
0.010	-0.029	-0.005	-0.005	-0.044	0.000	0.029	1.748	1.113	1.108	1.113	1.133	1.128	1.123
0.005	-0.024	0.000	-0.015	-0.010	0.005	0.034	1.768	1.113	1.108	1.113	1.133	1.138	1.133
0.010	-0.020	-0.005	-0.010	0.015	-0.005	0.029	1.792	1.113	1.113	1.113	1.133	1.143	1.133
0.005	-0.015	-0.005	-0.024	0.029	-0.024	0.029	1.797	1.113	1.113	1.113	1.128	1.138	1.128
-0.005	-0.005	0.000	-0.020	-0.010	0.005	0.034	1.777	1.113	1.118	1.113	1.128	1.123	1.133
0.000	-0.010	0.015	-0.010	-0.029	-0.005	0.034	1.772	1.108	1.118	1.118	1.133	1.123	1.128
0.000	-0.005	0.020	-0.015	-0.039	-0.015	0.029	1.777	1.113	1.113	1.118	1.133	1.118	1.118
0.000	0.000	0.005	-0.020	-0.029	0.000	0.034	1.802	1.113	1.113	1.113	1.133	1.123	1.123
-0.010	0.010	0.000	-0.015	0.015	0.005	0.029	1.792	1.108	1.113	1.113	1.133	1.138	1.133
-0.010	0.010	-0.005	-0.010	0.034	-0.005	0.029	1.758	1.108	1.113	1.113	1.133	1.143	1.128
-0.015	0.010	-0.010	-0.005	0.005	-0.005	0.034	1.797	1.108	1.113	1.113	1.133	1.128	1.128
-0.010	0.015	-0.005	-0.005	-0.020	0.005	0.034	1.787	1.113	1.113	1.113	1.133	1.123	1.128
0.000	0.010	-0.005	0.005	-0.010	0.010	0.034	1.753	1.113	1.113	1.113	1.133	1.128	1.128
0.000	0.010	-0.010	0.010	-0.020	0.005	0.034	1.792	1.113	1.113	1.113	1.133	1.128	1.123
0.000	0.005	0.000	0.005	0.005	-0.005	0.034	1.802	1.118	1.108	1.113	1.133	1.133	1.128
0.010	-0.010	0.000	0.010	0.020	0.005	0.034	1.768	1.113	1.108	1.113	1.133	1.138	1.133
0.015	-0.015	-0.010	0.010	0.020	-0.005	0.029	1.792	1.113	1.108	1.108	1.133	1.133	1.128
0.010	-0.015	0.000	0.000	0.015	0.010	0.029	1.777	1.113	1.108	1.108	1.128	1.128	1.128
0.020	-0.020	0.000	0.000	0.034	-0.010	0.034	1.748	1.113	1.108	1.108	1.128	1.133	1.128
0.015	-0.020	0.005	0.000	-0.020	-0.015	0.029	1.797	1.113	1.108	1.108	1.128	1.113	1.113
0.010	-0.020	-0.010	0.005	-0.063	-0.024	0.029	1.724	1.104	1.108	1.104	1.128	1.108	1.108
0.005	-0.010	0.000	0.005	-0.024	-0.049	0.029	1.763	1.099	1.104	1.104	1.128	1.118	1.108
-0.010	-0.010	0.005	0.000	0.024	-0.020	0.034	1.777	1.099	1.104	1.104	1.128	1.138	1.118
0.000	0.000	0.005	0.000	0.059	-0.010	0.034	1.797	1.104	1.108	1.104	1.128	1.143	1.133
-0.005	0.005	0.005	0.005	0.073	0.010	0.034	1.782	1.108	1.108	1.108	1.128	1.138	1.138
-0.005	0.010	0.000	0.005	0.015	0.029	0.034	1.763	1.113	1.108	1.104	1.128	1.118	1.138
-0.005	0.015	-0.015	0.005	0.005	0.029	0.034	1.777	1.113	1.108	1.104	1.123	1.118	1.128
-0.020	0.000	-0.010	-0.005	0.029	0.020	0.029	1.797	1.108	1.104	1.104	1.123	1.123	1.123
-0.010	0.005	-0.010	0.005	0.000	0.010	0.034	1.743	1.104	1.108	1.104	1.123	1.113	1.118
-0.005	0.005	-0.005	0.005	-0.005	0.010	0.029	1.797	1.108	1.104	1.104	1.123	1.113	1.113
-0.020	0.000	0.000	0.000	-0.044	0.005	0.034	1.807	1.108	1.104	1.104	1.123	1.104	1.108
-0.005	0.010	0.005	0.000	-0.044	-0.020	0.029	1.782	1.113	1.108	1.108	1.123	1.108	1.104
0.005	0.005	0.005	-0.005	0.015	0.000	0.034	1.758	1.108	1.108	1.108	1.123	1.128	1.118
-0.005	0.000	0.005	-0.005	0.068	0.010	0.034	1.812	1.108	1.108	1.108	1.128	1.143	1.123
-0.005	-0.005	0.005	-0.005	0.049	0.010	0.029	1.812	1.108	1.104	1.104	1.123	1.128	1.123
0.000	0.005	0.000	0.000	0.005	0.010	0.034	1.802	1.108	1.108	1.104	1.123	1.108	1.118
0.005	-0.005	0.000	0.000	-0.044	0.005	0.029	1.782	1.108	1.104	1.104	1.123	1.104	1.113
0.010	0.000	0.010	0.000	-0.020	0.000	0.034	1.758	1.104	1.108	1.104	1.123	1.113	1.108
0.005	0.000	0.010	0.000	-0.020	-0.010	0.029	1.772	1.099	1.104	1.104	1.123	1.113	1.104
0.005	0.010	0.005	0.000	-0.024	-0.010	0.029	1.787	1.099	1.104	1.104	1.123	1.113	1.108
-0.005	0.010	-0.005	-0.005	-0.005	-0.005	0.029	1.787	1.099	1.104	1.104	1.123	1.118	1.108
-0.015	0.010	0.000	0.000	0.005	-0.005	0.029	1.782	1.099	1.104	1.104	1.118	1.123	1.113
-0.015	0.015	-0.010	-0.005	0.034	-0.029	0.029	1.792	1.099	1.104	1.104	1.123	1.128	1.113
-0.015	0.010	-0.005	-0.005	0.039	0.000	0.029	1.797	1.104	1.099	1.099	1.123	1.123	1.123
-0.020	0.024	0.005	-0.005	0.010	0.020	0.029	1.738	1.104	1.104	1.099	1.118	1.118	1.123
-0.010	0.010	0.000	0.000	0.005	0.015	0.029	1.763	1.099	1.104	1.104	1.118	1.118	1.118
0.000	0.000	0.005	0.000	0.000	0.010	0.029	1.768	1.099	1.099	1.099	1.123	1.113	1.118
0.000	-0.005	-0.005	0.000	-0.005	0.005	0.029	1.807	1.104	1.099	1.099	1.118	1.113	1.113
-0.005	-0.005	-0.005	0.000	-0.020	-0.015	0.029	1.782	1.104	1.094	1.094	1.118	1.108	1.108
0.010	-0.024	-0.005	0.000	-0.010	0.005	0.029	1.787	1.104	1.094	1.094	1.113	1.113	1.108
0.015	-0.034	-0.005	0.000	-0.005	0.010	0.029	1.768	1.104	1.094	1.094	1.113	1.113	1.113
0.000	-0.029	0.000	0.000	-0.024	0.010	0.034	1.768	1.099	1.094	1.094	1.113	1.108	1.108
0.020	-0.029	0.005	0.000	-0.029	-0.005	0.034	1.724	1.094	1.094	1.094	1.113	1.108	1.104
0.010	-0.024	0.000	-0.005	0.000	0.005	0.029	1.797	1.094	1.089	1.094	1.113	1.113	1.108
0.005	-0.024	0.000	0.000	-0.005	-0.024	0.029	1.763	1.094	1.094	1.094	1.113	1.108	1.099
0.005	-0.005	-0.005	0.000	-0.029	0.005	0.034	1.807	1.094	1.099	1.094	1.108	1.104	1.108
-0.005	0.010	0.000	0.000	-0.044	0.005	0.034	1.724	1.084	1.099	1.094	1.113	1.104	1.104
-0.010	0.010	0.000	-0.005	-0.034	0.020	0.034	1.797	1.094	1.094	1.094	1.113	1.104	1.108
-0.010	0.010	0.005	-0.005	-0.005	0.005	0.029	1.802	1.094	1.094	1.094	1.113	1.113	1.104
-0.010	0.015	-0.010	0.000	0.024	0.015	0.034	1.777	1.094	1.094	1.094	1.113	1.123	1.113
-0.005	0.010	-0.010	0.000	0.020	0.010	0.034	1.772	1.094	1.094	1.094	1.113	1.118	1.113
-0.015	0.005	-0.015	0.000	0.020	-0.005	0.034	1.743	1.089	1.089	1.094	1.113	1.113	1.108
-0.010	0.024	-0.015	0.000	-0.010	0.005	0.029	1.733	1.089	1.094	1.089	1.108	1.104	1.108
-0.010	0.020	-0.010	0.000	-0.034	-0.015	0.029	1.792	1.094	1.094	1.094	1.108	1.099	1.099
0.000	0.015	-0.010	0.000	-0.020	-0.024	0.034	1.777	1.099	1.094	1.094	1.108	1.104	1.094
0.010	0.015	-0.010	0.000	-0.010	-0.034	0.034	1.777	1.099	1.094	1.094	1.108	1.104	1.094
0.005	0.000	-0.010	0.000	-0.024	-0.015	0.029	1.763	1.094	1.089	1.094	1.108	1.104	1.099
0.010	-0.005	0.010	0.000	-0.024	-0.024	0.034	1.768	1.094	1.089	1.094	1.113	1.104	1.099
0.005	-0.010	0.034	0.000	-0.039	-0.020	0.029	1.782	1.094	1.089	1.099	1.113	1.104	1.099
0.015	-0.029	0.024	-0.005	-0.039	-0.005	0.029	1.797	1.094	1.084	1.089	1.108	1.104	1.104
0.015	-0.029	0.010	0.000	0.010	0.000	0.029	1.782	1.094	1.084	1.084	1.108	1.118	1.108
-0.005	-0.034	0.000	0.000	0.078	0.010	0.034	1.797	1.094	1.079	1.084	1.108	1.133	1.118
0.005	-0.005	0.000	0.000	0.039	0.010	0.034	1.719	1.089	1.094	1.084	1.108	1.113	1.113
-0.015	0.015	-0.005	0.000	0.010	0.000	0.034	1.772	1.084	1.099	1.084	1.104	1.104	1.108
-0.005	0.049	-0.005	0.000	-0.005	0.005	0.034	1.758	1.084	1.099	1.094	1.104	1.099	1.104
-0.005	0.010	-0.005	0.005	-0.010	-0.005	0.034	1.758	1.084	1.084	1.089	1.108	1.099	1.099
-0.015	0.005	-0.010	0.005	0.024	0.000	0.034	1.729	1.084	1.084	1.089	1.108	1.108	1.104
-0.024	0.010	-0.010	0.000	0.068	-0.005	0.034	1.807	1.089	1.084	1.084	1.108	1.123	1.104
-0.020	0.010	-0.010	0.000	0.093	-0.010	0.034	1.733	1.084	1.084	1.089	1.104	1.123	1.108
-0.015	-0.005	-0.010	0.005	0.088	-0.005	0.034	1.792	1.089	1.079	1.084	1.108	1.113	1.113
-0.005	0.000	-0.005	0.005	0.068	-0.020	0.034	1.782	1.094	1.084	1.084	1.104	1.104	1.104
-0.005	-0.005	0.000	0.000	0.024	0.010	0.029	1.772	1.094	1.084	1.089	1.104	1.089	1.108
0.005	-0.010	0.000	-0.005	-0.044	0.024	0.029	1.812	1.099	1.084	1.089	1.104	1.074	1.094
0.005	-0.010	0.005	0.000	-0.073	-0.010	0.034	1.758	1.094	1.089	1.084	1.099	1.074	1.079
0.000	-0.015	0.005	0.005	-0.078	0.015	0.034	1.787	1.089	1.089	1.089	1.104	1.079	1.089
0.005	-0.015	0.010	0.000	-0.063	0.005	0.029	1.802	1.094	1.089	1.089	1.104	1.089	1.084
0.000	-0.015	0.005	-0.010	-0.010	0.015	0.029	1.812	1.094	1.089	1.084	1.104	1.104	1.094
0.000	0.000	0.000	-0.010	-0.005	0.010	0.034	1.772	1.089	1.094	1.089	1.104	1.104	1.094
0.000	-0.005	-0.005	-0.010	-0.015	-0.005	0.029	1.758	1.089	1.089	1.084	1.104	1.099	1.089
0.000	-0.005	0.000	-0.010	-0.044	0.005	0.029	1.807	1.089	1.089	1.084	1.104	1.094	1.094
-0.005	0.010	-0.010	-0.005	-0.034	-0.005	0.029	1.782	1.089	1.094	1.089	1.104	1.094	1.089
0.000	-0.005	-0.010	-0.010	0.000	0.005	0.029	1.787	1.089	1.084	1.089	1.104	1.104	1.099
0.000	0.005	0.000	-0.005	0.024	0.015	0.029	1.812	1.094	1.094	1.089	1.104	1.113	1.104
0.000	0.005	-0.005	-0.010	0.020	0.010	0.029	1.797	1.094	1.089	1.089	1.104	1.108	1.104
-0.005	0.000	-0.005	-0.005	0.005	0.005	0.029	1.777	1.094	1.094	1.089	1.108	1.104	1.099
0.000	-0.005	0.000	0.000	-0.005	-0.005	0.029	1.777	1.094	1.089	1.094	1.108	1.099	1.099
0.000	-0.005	0.000	0.000	0.088	-0.005	0.029	1.821	1.099	1.089	1.089	1.113	1.128	1.108
-0.010	-0.020	0.005	0.000	0.107	-0.015	0.029	1.787	1.099	1.089	1.089	1.113	1.123	1.108
0.005	-0.015	0.000	0.000	0.010	-0.020	0.029	1.792	1.099	1.094	1.089	1.108	1.094	1.104
0.010	-0.005	0.000	0.005	-0.005	-0.005	0.034	1.797	1.104	1.094	1.094	1.108	1.094	1.104
0.015	-0.005	-0.005	0.005	-0.029	-0.010	0.029	1.753	1.094	1.099	1.094	1.108	1.089	1.094
0.000	-0.005	-0.005	0.015	-0.054	-0.029	0.029	1.797	1.094	1.094	1.094	1.108	1.089	1.084
0.010	-0.010	0.010	0.010	-0.020	0.000	0.029	1.792	1.099	1.094	1.094	1.113	1.104	1.099
0.005	0.005	0.010	0.015	0.005	-0.010	0.029	1.777	1.094	1.099	1.094	1.113	1.108	1.099
0.005	-0.005	0.010	0.015	0.010	-0.015	0.029	1.777	1.089	1.094	1.094	1.108	1.113	1.099
0.010	0.005	0.000	0.005	-0.020	-0.015	0.029	1.802	1.094	1.094	1.089	1.108	1.099	1.099
0.005	0.010	-0.010	0.000	-0.054	-0.010	0.034	1.724	1.084	1.094	1.089	1.104	1.094	1.094
-0.005	0.000	-0.010	-0.005	-0.039	-0.024	0.029	1.802	1.084	1.084	1.089	1.104	1.099	1.089
-0.005	0.015	-0.020	-0.010	0.000	0.005	0.034	1.787	1.084	1.089	1.089	1.104	1.108	1.108
0.005	0.015	0.000	-0.024	0.010	0.000	0.034	1.802	1.094	1.089	1.089	1.099	1.108	1.104
0.010	0.024	0.005	-0.024	0.000	0.010	0.029	1.733	1.089	1.094	1.094	1.104	1.104	1.108
-0.010	0.029	0.000	-0.010	-0.005	0.000	0.034	1.758	1.084	1.089	1.094	1.108	1.104	1.104
-0.005	0.010	-0.005	0.005	0.005	0.005	0.029	1.772	1.089	1.084	1.089	1.113	1.108	1.104
-0.010	-0.005	-0.005	0.000	0.024	0.010	0.029	1.802	1.089	1.079	1.089	1.108	1.113	1.108
-0.010	0.015	-0.005	0.005	0.034	-0.020	0.029	1.812	1.094	1.089	1.089	1.113	1.108	1.099
-0.015	-0.010	0.000	0.005	0.029	0.005	0.034	1.807	1.094	1.084	1.084	1.108	1.108	1.108
-0.005	-0.020	-0.005	0.005	0.010	0.020	0.034	1.714	1.084	1.079	1.084	1.104	1.104	1.108
0.005	-0.015	0.000	0.005	-0.015	-0.005	0.029	1.797	1.089	1.084	1.084	1.104	1.094	1.094
0.005	-0.029	0.000	0.000	-0.024	0.020	0.034	1.802	1.094	1.079	1.079	1.099	1.094	1.099
0.015	-0.044	0.000	0.000	-0.020	0.029	0.034	1.772	1.089	1.079	1.079	1.099	1.094	1.099
0.010	-0.024	0.000	0.005	-0.015	0.024	0.029	1.792	1.089	1.084	1.084	1.099	1.094	1.099
-0.005	-0.010	-0.005	0.000	0.010	0.010	0.029	1.763	1.084	1.089	1.084	1.099	1.104	1.094
0.000	-0.010	-0.005	0.000	0.059	0.000	0.029	1.782	1.084	1.089	1.079	1.104	1.113	1.094
-0.005	0.010	-0.005	0.005	0.029	-0.020	0.029	1.763	1.079	1.089	1.084	1.099	1.099	1.094
-0.005	0.024	0.000	0.000	-0.005	-0.020	0.029	1.763	1.079	1.089	1.089	1.099	1.089	1.089
-0.010	0.034	0.015	0.005	-0.039	-0.020	0.034	1.763	1.084	1.094	1.089	1.104	1.084	1.084
0.000	0.010	0.020	0.005	-0.005	-0.034	0.029	1.802	1.084	1.079	1.094	1.108	1.099	1.089
-0.005	0.005	0.010	0.000	0.005	-0.010	0.029	1.792	1.089	1.079	1.084	1.104	1.104	1.094
-0.010	0.015	0.000	0.005	-0.005	-0.010	0.029	1.753	1.084	1.084	1.084	1.104	1.104	1.094
-0.005	-0.005	0.000	0.005	-0.024	-0.005	0.029	1.704	1.079	1.074	1.079	1.099	1.094	1.094
0.000	-0.010	-0.005	0.000	-0.054	0.000	0.029	1.777	1.084	1.079	1.079	1.099	1.089	1.094
0.000	-0.020	-0.005	0.000	-0.059	0.000	0.029	1.782	1.089	1.074	1.074	1.099	1.089	1.089
0.015	-0.010	-0.010	0.000	-0.068	0.000	0.029	1.768	1.084	1.079	1.074	1.099	1.084	1.089
0.005	-0.024	-0.010	0.000	-0.034	-0.015	0.029	1.802	1.084	1.074	1.074	1.094	1.094	1.089
0.000	-0.024	-0.005	-0.005	0.039	0.000	0.034	1.821	1.089	1.079	1.074	1.099	1.118	1.099
0.010	-0.029	0.005	0.000	0.078	0.005	0.029	1.733	1.089	1.079	1.079	1.099	1.118	1.108
0.020	-0.024	0.000	-0.005	0.054	0.005	0.029	1.802	1.094	1.079	1.079	1.094	1.104	1.104
0.005	-0.015	0.000	0.000	0.049	0.005	0.034	1.738	1.084	1.084	1.079	1.094	1.099	1.099
0.005	-0.015	0.000	0.000	0.024	-0.005	0.029	1.792	1.089	1.084	1.084	1.094	1.089	1.094
0.010	-0.010	0.000	-0.005	0.010	-0.015	0.029	1.812	1.089	1.089	1.084	1.094	1.084	1.089
0.000	0.010	0.000	-0.005	0.015	0.010	0.029	1.777	1.089	1.094	1.084	1.099	1.094	1.094
0.010	0.010	0.000	-0.005	0.005	0.010	0.034	1.753	1.089	1.089	1.084	1.104	1.089	1.094
0.010	0.010	0.000	0.005	-0.005	0.015	0.029	1.758	1.079	1.089	1.089	1.099	1.089	1.094
0.000	0.024	-0.005	0.000	-0.010	0.015	0.034	1.792	1.084	1.089	1.089	1.104	1.094	1.094
-0.015	0.015	-0.005	-0.005	-0.039	0.005	0.034	1.787	1.079	1.084	1.084	1.099	1.089	1.084
-0.034	0.029	-0.010	0.000	-0.029	-0.015	0.034	1.768	1.074	1.084	1.084	1.099	1.089	1.084
-0.024	0.015	-0.010	0.000	-0.015	0.005	0.034	1.758	1.074	1.074	1.084	1.104	1.099	1.089
-0.024	0.024	-0.015	0.000	0.024	0.010	0.034	1.777	1.079	1.079	1.079	1.104	1.108	1.094
-0.024	0.015	-0.010	0.005	0.024	0.000	0.034	1.748	1.079	1.079	1.079	1.099	1.104	1.094
-0.005	0.010	-0.010	0.005	0.005	0.005	0.034	1.787	1.089	1.079	1.079	1.099	1.094	1.094
-0.005	0.005	0.005	0.010	-0.024	0.020	0.034	1.748	1.084	1.079	1.084	1.099	1.089	1.099
0.005	0.000	0.015	-0.005	0.010	0.020	0.034	1.812	1.094	1.079	1.084	1.099	1.099	1.094
0.024	0.000	0.015	-0.005	0.010	0.005	0.034	1.763	1.094	1.084	1.084	1.094	1.099	1.094
0.020	0.000	0.020	-0.005	0.000	0.000	0.029	1.792	1.094	1.084	1.084	1.099	1.094	1.089
0.000	-0.005	0.010	-0.005	0.000	-0.010	0.034	1.758	1.084	1.084	1.079	1.099	1.094	1.084
-0.010	-0.005	0.005	-0.005	0.010	-0.029	0.034	1.777	1.079	1.079	1.074	1.099	1.094	1.084
-0.010	-0.005	0.000	-0.005	-0.005	-0.024	0.034	1.787	1.079	1.074	1.079	1.094	1.089	1.084
-0.024	0.010	-0.005	-0.005	-0.029	-0.020	0.034	1.802	1.079	1.079	1.074	1.094	1.084	1.084
-0.024	0.015	0.000	0.000	-0.044	-0.020	0.029	1.748	1.084	1.084	1.074	1.094	1.084	1.079
-0.015	0.024	-0.005	-0.005	-0.029	-0.029	0.034	1.758	1.079	1.084	1.079	1.094	1.089	1.084
0.010	0.010	-0.005	-0.005	-0.005	-0.020	0.029	1.792	1.089	1.084	1.079	1.094	1.094	1.089
0.005	0.005	-0.005	-0.005	-0.015	-0.010	0.029	1.758	1.089	1.084	1.079	1.099	1.094	1.089
-0.005	0.010	-0.015	-0.005	-0.015	0.010	0.029	1.802	1.084	1.084	1.079	1.099	1.094	1.094
0.000	0.010	-0.010	-0.005	-0.020	0.010	0.029	1.777	1.084	1.084	1.079	1.094	1.094	1.094
-0.010	0.000	-0.005	-0.005	-0.010	0.000	0.029	1.812	1.089	1.079	1.084	1.099	1.094	1.094
-0.015	-0.020	-0.010	-0.005	-0.005	0.010	0.029	1.807	1.089	1.074	1.079	1.099	1.094	1.094
0.000	-0.010	-0.005	-0.005	-0.005	0.015	0.029	1.753	1.084	1.084	1.079	1.094	1.099	1.099
-0.005	-0.024	-0.005	-0.005	0.015	0.015	0.029	1.792	1.084	1.074	1.079	1.099	1.099	1.094
0.000	-0.034	0.000	0.005	0.029	0.015	0.029	1.787	1.089	1.079	1.079	1.099	1.104	1.094
0.005	-0.024	0.005	-0.005	0.029	-0.010	0.034	1.787	1.089	1.079	1.079	1.099	1.099	1.094
0.044	-0.010	0.010	0.000	0.015	0.010	0.029	1.787	1.094	1.089	1.084	1.099	1.094	1.094
0.029	-0.015	0.000	-0.010	-0.005	0.000	0.034	1.797	1.089	1.084	1.084	1.094	1.089	1.089
0.015	0.005	-0.005	-0.005	0.005	0.000	0.029	1.792	1.089	1.089	1.084	1.099	1.094	1.089
0.005	-0.005	-0.005	-0.005	0.015	-0.010	0.029	1.743	1.074	1.084	1.084	1.099	1.099	1.089
-0.015	0.000	-0.005	0.000	0.005	-0.005	0.029	1.763	1.074	1.079	1.084	1.099	1.094	1.089
-0.029	0.020	-0.005	0.000	0.024	-0.005	0.034	1.807	1.074	1.084	1.084	1.104	1.099	1.094
-0.024	0.024	0.000	0.000	0.034	0.000	0.029	1.802	1.084	1.089	1.084	1.104	1.104	1.094
-0.029	0.024	-0.005	0.000	0.024	-0.010	0.034	1.768	1.079	1.084	1.079	1.099	1.099	1.094
-0.024	0.015	-0.010	0.000	0.005	0.000	0.029	1.792	1.084	1.084	1.079	1.099	1.094	1.094
-0.024	0.029	-0.005	0.000	-0.005	-0.029	0.034	1.738	1.079	1.084	1.084	1.099	1.089	1.084
-0.020	0.015	0.000	0.005	-0.020	-0.015	0.034	1.797	1.084	1.079	1.084	1.099	1.089	1.089
-0.015	0.000	0.000	0.005	-0.044	-0.005	0.034	1.753	1.084	1.079	1.079	1.099	1.084	1.089
-0.010	0.000	0.000	0.005	0.010	-0.005	0.034	1.807	1.084	1.079	1.079	1.099	1.104	1.094
0.000	0.000	0.005	0.000	0.034	0.000	0.029	1.802	1.089	1.079	1.084	1.099	1.108	1.099
0.005	-0.005	0.015	0.005	0.010	0.010	0.029	1.787	1.094	1.079	1.084	1.099	1.094	1.099
0.005	-0.020	0.010	-0.005	-0.029	0.015	0.029	1.797	1.089	1.079	1.079	1.094	1.089	1.094
0.015	-0.020	0.005	-0.005	-0.044	0.005	0.034	1.743	1.084	1.079	1.074	1.094	1.084	1.089
0.015	-0.010	-0.005	-0.005	-0.015	-0.005	0.034	1.792	1.084	1.079	1.079	1.094	1.094	1.084
0.015	-0.015	0.000	-0.005	0.039	-0.015	0.029	1.787	1.089	1.084	1.079	1.094	1.104	1.089
0.010	-0.015	-0.005	0.000	0.000	0.000	0.029	1.802	1.084	1.079	1.074	1.094	1.094	1.089
0.005	-0.005	-0.005	0.000	-0.015	0.005	0.029	1.763	1.084	1.084	1.079	1.094	1.089	1.094
0.000	0.000	-0.010	0.005	-0.063	0.005	0.029	1.782	1.084	1.084	1.079	1.094	1.079	1.089
-0.005	0.005	0.005	0.000	-0.049	0.010	0.029	1.792	1.089	1.084	1.084	1.099	1.089	1.084
-0.005	0.005	0.005	0.005	0.020	0.005	0.029	1.763	1.084	1.089	1.084	1.104	1.108	1.094
0.000	0.010	0.010	0.000	0.044	0.005	0.029	1.797	1.089	1.084	1.089	1.099	1.108	1.094
-0.005	0.000	0.000	0.005	-0.010	-0.020	0.029	1.763	1.084	1.084	1.084	1.099	1.094	1.089
0.010	0.005	-0.005	0.005	0.020	-0.005	0.029	1.768	1.089	1.089	1.084	1.099	1.104	1.094
0.010	-0.015	-0.005	0.000	0.103	-0.020	0.029	1.807	1.089	1.079	1.084	1.104	1.123	1.099
0.000	-0.024	0.000	0.005	0.117	-0.044	0.029	1.782	1.089	1.079	1.084	1.104	1.118	1.094
-0.005	-0.020	0.010	-0.005	0.083	-0.015	0.029	1.812	1.089	1.079	1.084	1.099	1.104	1.104
-0.005	-0.020	0.015	0.000	0.020	-0.049	0.029	1.753	1.079	1.079	1.084	1.099	1.079	1.089
-0.005	-0.024	0.005	0.000	-0.024	0.010	0.034	1.772	1.084	1.079	1.079	1.099	1.074	1.099
-0.010	-0.020	0.010	0.000	-0.054	0.010	0.029	1.802	1.089	1.079	1.079	1.099	1.074	1.089
-0.010	-0.029	0.005	0.010	-0.049	0.000	0.034	1.758	1.084	1.079	1.079	1.099	1.079	1.084
-0.005	-0.020	0.000	0.000	-0.029	0.010	0.029	1.797	1.084	1.084	1.079	1.094	1.084	1.089
-0.010	-0.010	0.000	0.005	-0.024	0.015	0.034	1.802	1.089	1.084	1.079	1.099	1.094	1.084
-0.010	0.000	0.000	0.000	-0.044	0.010	0.034	1.797	1.084	1.089	1.084	1.099	1.084	1.089
-0.005	0.000	-0.005	0.000	-0.024	0.029	0.034	1.777	1.089	1.089	1.079	1.099	1.094	1.089
-0.005	0.000	-0.005	0.010	-0.020	0.010	0.034	1.787	1.089	1.084	1.084	1.099	1.094	1.089
-0.005	0.010	-0.005	0.005	-0.039	0.020	0.034	1.777	1.084	1.084	1.084	1.099	1.089	1.089
-0.015	0.010	-0.005	0.000	-0.029	0.020	0.029	1.772	1.084	1.084	1.084	1.099	1.094	1.089
-0.005	0.005	-0.005	0.000	-0.010	0.015	0.029	1.772	1.084	1.084	1.084	1.099	1.099	1.094
0.000	0.054	-0.010	0.000	0.000	-0.010	0.034	1.758	1.089	1.099	1.089	1.104	1.099	1.089
-0.005	0.054	-0.015	0.000	0.005	-0.005	0.034	1.782	1.084	1.094	1.089	1.104	1.099	1.089
0.005	0.010	-0.005	0.000	0.034	-0.020	0.029	1.748	1.084	1.079	1.089	1.104	1.108	1.094
0.000	-0.005	-0.005	0.000	0.049	-0.024	0.029	1.792	1.084	1.074	1.084	1.104	1.108	1.094
0.005	-0.015	0.000	0.000	0.005	-0.029	0.034	1.753	1.079	1.074	1.079	1.104	1.094	1.089
0.015	-0.024	-0.005	0.000	-0.020	-0.039	0.034	1.714	1.074	1.069	1.074	1.094	1.089	1.089
0.020	-0.024	0.000	0.000	-0.034	-0.024	0.034	1.758	1.074	1.074	1.074	1.094	1.084	1.089
0.020	-0.024	0.005	0.000	0.005	-0.005	0.034	1.802	1.084	1.074	1.074	1.099	1.099	1.094
0.024	-0.029	0.010	0.000	0.005	-0.010	0.034	1.797	1.089	1.074	1.074	1.094	1.099	1.094
0.010	-0.034	0.010	-0.005	0.029	0.000	0.034	1.714	1.079	1.074	1.074	1.094	1.104	1.099
0.005	-0.024	0.000	0.000	0.005	0.029	0.029	1.797	1.079	1.074	1.074	1.094	1.089	1.104
0.005	-0.015	0.000	0.000	-0.049	0.029	0.029	1.802	1.084	1.079	1.074	1.094	1.074	1.094
-0.005	-0.005	0.000	0.000	-0.073	0.024	0.034	1.792	1.084	1.084	1.074	1.094	1.074	1.084
-0.005	0.000	0.005	0.000	-0.063	0.010	0.029	1.772	1.084	1.084	1.079	1.094	1.079	1.079
-0.015	0.005	0.000	0.000	0.000	0.000	0.029	1.777	1.084	1.084	1.079	1.094	1.104	1.084
-0.005	0.005	-0.005	0.005	0.068	-0.015	0.029	1.802	1.084	1.084	1.079	1.099	1.113	1.089
-0.010	0.029	-0.005	0.000	0.093	-0.010	0.029	1.772	1.089	1.089	1.084	1.099	1.118	1.099
-0.010	0.029	-0.005	0.005	0.059	-0.020	0.029	1.763	1.084	1.089	1.084	1.099	1.099	1.094
-0.015	0.020	0.000	0.000	0.024	-0.005	0.029	1.797	1.089	1.084	1.084	1.099	1.089	1.094
0.000	0.005	0.010	0.000	0.000	0.000	0.029	1.821	1.094	1.084	1.089	1.099	1.089	1.094
0.000	-0.005	0.010	0.005	-0.015	0.005	0.029	1.743	1.084	1.079	1.084	1.099	1.084	1.094
-0.005	-0.010	0.010	0.005	-0.010	-0.024	0.029	1.797	1.089	1.074	1.084	1.099	1.089	1.084
0.005	-0.020	0.005	0.005	0.000	0.015	0.029	1.787	1.084	1.079	1.079	1.099	1.094	1.094
0.010	-0.020	0.010	0.005	0.020	0.020	0.029	1.792	1.084	1.079	1.079	1.099	1.099	1.094
0.005	-0.015	0.005	0.000	0.000	0.010	0.029	1.782	1.084	1.079	1.079	1.099	1.089	1.089
0.020	-0.029	0.005	0.000	0.015	0.010	0.029	1.748	1.084	1.079	1.074	1.094	1.099	1.094
0.000	-0.005	0.005	0.000	0.000	0.015	0.029	1.777	1.079	1.084	1.079	1.099	1.094	1.094
-0.005	0.005	0.000	0.000	-0.015	0.005	0.034	1.792	1.084	1.084	1.079	1.094	1.084	1.089
-0.005	0.005	-0.005	0.005	-0.073	0.000	0.029	1.753	1.079	1.084	1.079	1.094	1.074	1.079
-0.010	0.015	-0.005	0.000	-0.068	-0.010	0.034	1.802	1.084	1.084	1.079	1.094	1.079	1.079
-0.015	0.024	-0.005	-0.005	-0.024	0.005	0.029	1.812	1.089	1.084	1.079	1.099	1.094	1.084
-0.005	0.020	-0.005	-0.005	0.020	0.010	0.034	1.777	1.084	1.089	1.084	1.099	1.108	1.094
-0.010	0.015	-0.005	0.000	-0.005	-0.015	0.029	1.743	1.084	1.084	1.079	1.099	1.094	1.089
-0.010	0.015	-0.005	0.005	0.005	0.010	0.029	1.763	1.079	1.084	1.084	1.099	1.104	1.094
-0.005	0.010	-0.005	0.005	0.044	-0.029	0.029	1.797	1.089	1.079	1.084	1.099	1.108	1.089
0.005	0.000	0.000	0.000	0.015	-0.005	0.029	1.797	1.089	1.079	1.084	1.099	1.099	1.094
0.005	0.000	0.005	0.000	0.000	-0.020	0.029	1.729	1.084	1.084	1.084	1.099	1.094	1.089
0.000	-0.005	0.005	0.000	0.015	-0.015	0.029	1.782	1.084	1.079	1.084	1.099	1.099	1.094
0.010	-0.005	0.000	-0.005	0.034	0.015	0.034	1.792	1.084	1.079	1.079	1.099	1.099	1.104
0.005	-0.024	0.005	-0.005	0.010	0.015	0.034	1.797	1.089	1.074	1.079	1.099	1.094	1.099
0.010	-0.029	0.000	0.000	0.015	0.020	0.034	1.704	1.084	1.074	1.074	1.094	1.094	1.094
0.005	-0.015	-0.010	0.000	0.029	0.024	0.029	1.797	1.084	1.079	1.074	1.094	1.099	1.099
0.000	-0.010	-0.010	-0.005	0.068	0.020	0.029	1.787	1.084	1.079	1.074	1.094	1.104	1.099
0.000	-0.005	0.010	-0.005	0.029	0.010	0.029	1.797	1.089	1.084	1.084	1.094	1.089	1.089
0.000	0.005	0.020	0.000	0.024	-0.005	0.029	1.768	1.084	1.089	1.089	1.099	1.094	1.084
0.005	0.015	-0.005	-0.005	0.010	-0.024	0.029	1.787	1.084	1.089	1.084	1.099	1.084	1.079
0.015	0.020	0.000	-0.005	-0.049	-0.029	0.029	1.743	1.084	1.089	1.084	1.099	1.069	1.074
0.000	0.024	0.005	0.005	-0.068	-0.044	0.034	1.753	1.074	1.084	1.084	1.099	1.074	1.069
-0.005	0.029	0.000	0.000	-0.054	-0.039	0.034	1.763	1.069	1.084	1.084	1.099	1.084	1.074
-0.029	0.024	0.000	-0.005	-0.039	-0.039	0.034	1.797	1.064	1.074	1.079	1.099	1.089	1.079
-0.020	0.015	-0.010	-0.005	-0.024	-0.029	0.029	1.797	1.074	1.069	1.074	1.099	1.094	1.084
-0.024	0.010	-0.010	0.000	-0.044	-0.010	0.029	1.733	1.069	1.069	1.074	1.094	1.094	1.089
-0.020	0.020	-0.005	-0.005	-0.059	-0.015	0.029	1.768	1.074	1.074	1.074	1.094	1.084	1.089
-0.010	0.005	-0.005	-0.005	-0.029	0.005	0.029	1.782	1.084	1.074	1.074	1.094	1.099	1.094
0.000	0.015	0.000	-0.005	0.005	0.015	0.029	1.753	1.084	1.074	1.074	1.094	1.104	1.099
0.005	0.005	0.000	-0.005	0.020	0.015	0.029	1.768	1.084	1.074	1.074	1.094	1.104	1.104
0.015	0.015	0.005	-0.005	0.034	0.020	0.034	1.772	1.084	1.079	1.074	1.094	1.104	1.104
0.020	-0.010	0.005	-0.010	0.024	0.015	0.034	1.758	1.084	1.074	1.074	1.089	1.099	1.099
0.029	-0.010	0.005	-0.005	0.005	0.010	0.029	1.782	1.084	1.079	1.074	1.089	1.089	1.094
0.029	-0.015	0.005	0.000	0.000	0.010	0.029	1.738	1.079	1.079	1.074	1.089	1.084	1.089
0.020	0.000	-0.005	-0.005	-0.005	-0.005	0.029	1.768	1.079	1.079	1.074	1.089	1.084	1.084
0.005	0.000	-0.010	-0.005	-0.010	0.020	0.029	1.792	1.079	1.079	1.069	1.094	1.084	1.089
0.005	-0.005	0.000	0.000	-0.005	0.010	0.034	1.782	1.079	1.079	1.074	1.089	1.084	1.084
0.000	0.000	-0.005	0.000	0.005	-0.005	0.029	1.772	1.074	1.079	1.079	1.094	1.089	1.089
-0.015	0.020	-0.015	-0.005	0.005	0.005	0.029	1.787	1.074	1.079	1.079	1.094	1.089	1.089
-0.005	0.010	-0.015	0.000	-0.024	0.005	0.034	1.719	1.074	1.079	1.074	1.094	1.084	1.084
-0.005	0.020	-0.010	0.000	-0.029	0.010	0.029	1.802	1.084	1.079	1.079	1.094	1.079	1.084
-0.010	0.015	-0.015	-0.005	-0.024	0.010	0.029	1.787	1.084	1.074	1.074	1.094	1.084	1.084
-0.010	0.015	-0.015	0.000	0.010	0.015	0.029	1.768	1.074	1.079	1.079	1.094	1.099	1.089
-0.005	0.005	-0.010	-0.010	0.034	0.005	0.034	1.787	1.079	1.074	1.079	1.094	1.099	1.089
-0.020	0.005	-0.005	-0.005	-0.029	0.005	0.029	1.797	1.079	1.074	1.079	1.094	1.079	1.084
-0.010	0.000	0.000	-0.005	-0.029	-0.005	0.029	1.816	1.084	1.074	1.074	1.094	1.084	1.079
-0.005	-0.024	0.000	-0.005	0.029	0.010	0.029	1.787	1.079	1.069	1.074	1.094	1.104	1.094
-0.005	-0.020	0.010	-0.005	0.024	0.020	0.029	1.768	1.079	1.074	1.074	1.094	1.094	1.094
-0.005	-0.020	0.015	-0.005	-0.010	0.005	0.029	1.807	1.084	1.074	1.079	1.094	1.084	1.084
0.000	0.000	0.010	0.000	0.015	0.005	0.029	1.729	1.079	1.084	1.074	1.094	1.094	1.089
-0.005	0.000	0.000	-0.005	0.024	0.005	0.029	1.787	1.084	1.079	1.074	1.094	1.094	1.089
-0.005	-0.005	-0.005	0.000	0.029	0.000	0.034	1.792	1.084	1.079	1.074	1.094	1.094	1.089
0.005	0.000	-0.005	-0.005	0.015	-0.005	0.029	1.807	1.089	1.084	1.074	1.094	1.089	1.089
0.010	0.010	0.005	-0.005	0.000	-0.015	0.034	1.797	1.089	1.089	1.084	1.094	1.084	1.084
0.005	0.000	0.010	0.000	0.005	-0.005	0.029	1.787	1.089	1.089	1.084	1.099	1.089	1.084
-0.005	0.010	0.000	-0.005	0.000	0.005	0.029	1.792	1.089	1.089	1.084	1.099	1.089	1.089
-0.015	0.005	0.000	-0.005	-0.005	0.005	0.029	1.753	1.079	1.084	1.084	1.099	1.089	1.089
-0.020	0.000	0.000	-0.005	-0.005	-0.005	0.029	1.787	1.084	1.079	1.084	1.099	1.089	1.084
-0.020	0.000	-0.005	0.000	0.000	-0.015	0.029	1.802	1.089	1.079	1.079	1.099	1.094	1.084
-0.005	-0.010	0.000	-0.005	0.020	0.005	0.029	1.777	1.084	1.079	1.079	1.094	1.099	1.094
0.000	-0.010	-0.005	0.000	0.000	0.000	0.034	1.797	1.089	1.079	1.079	1.099	1.094	1.089
0.010	-0.024	-0.005	0.000	-0.005	0.005	0.029	1.782	1.094	1.079	1.079	1.099	1.094	1.089
0.015	-0.034	-0.005	0.000	-0.029	-0.015	0.029	1.802	1.094	1.084	1.079	1.094	1.084	1.084
0.010	-0.039	0.000	0.000	-0.020	0.000	0.029	1.797	1.089	1.079	1.084	1.099	1.089	1.089
0.015	-0.034	0.000	0.000	-0.010	-0.005	0.029	1.792	1.099	1.084	1.084	1.099	1.089	1.089
0.015	-0.039	0.010	0.000	-0.015	0.000	0.034	1.753	1.094	1.089	1.084	1.099	1.094	1.089
0.024	-0.029	0.005	0.000	-0.034	-0.005	0.034	1.782	1.089	1.089	1.084	1.099	1.084	1.089
0.024	-0.034	0.005	0.000	-0.049	0.000	0.034	1.758	1.084	1.084	1.084	1.099	1.089	1.084
0.020	-0.015	0.005	0.005	-0.054	0.005	0.034	1.763	1.084	1.089	1.084	1.104	1.089	1.084
0.000	-0.005	0.000	0.005	-0.063	0.000	0.034	1.748	1.074	1.084	1.084	1.104	1.089	1.084
-0.005	0.005	0.000	0.010	0.020	-0.005	0.029	1.758	1.069	1.084	1.084	1.104	1.113	1.094
-0.010	0.005	-0.010	0.005	0.073	0.005	0.034	1.797	1.074	1.079	1.079	1.104	1.123	1.104
-0.015	0.024	-0.010	0.005	0.146	0.010	0.034	1.792	1.079	1.084	1.079	1.104	1.143	1.113
-0.010	0.024	-0.015	0.010	0.122	0.010	0.034	1.729	1.074	1.079	1.079	1.104	1.118	1.113
-0.015	0.020	-0.005	0.005	0.024	0.000	0.034	1.797	1.074	1.079	1.079	1.099	1.084	1.104
-0.015	0.005	-0.005	0.010	0.000	-0.005	0.034	1.797	1.084	1.074	1.079	1.099	1.084	1.094
-0.010	-0.005	-0.005	0.010	-0.015	-0.010	0.029	1.753	1.079	1.074	1.074	1.094	1.084	1.094
-0.010	-0.005	-0.005	0.010	-0.024	-0.005	0.034	1.743	1.079	1.074	1.074	1.094	1.084	1.089
0.015	-0.010	0.005	0.000	0.000	-0.024	0.029	1.768	1.089	1.079	1.074	1.094	1.089	1.084
0.029	-0.010	0.005	0.000	0.015	0.000	0.034	1.787	1.089	1.079	1.079	1.094	1.094	1.094
0.015	0.005	0.010	0.000	0.000	0.000	0.029	1.802	1.089	1.089	1.079	1.094	1.089	1.089
0.000	0.010	0.005	0.000	-0.044	0.000	0.034	1.763	1.084	1.084	1.079	1.094	1.079	1.084
-0.010	0.000	0.000	0.000	-0.068	0.000	0.029	1.738	1.074	1.079	1.079	1.094	1.074	1.079
-0.015	0.000	0.005	0.005	-0.039	0.005	0.029	1.792	1.074	1.074	1.079	1.094	1.089	1.084
-0.020	0.000	0.005	0.005	-0.034	0.005	0.029	1.807	1.079	1.074	1.074	1.094	1.089	1.084
-0.024	0.000	0.005	0.000	0.015	0.000	0.029	1.753	1.079	1.074	1.079	1.099	1.108	1.089
-0.020	0.005	-0.010	0.005	0.137	-0.010	0.029	1.768	1.074	1.079	1.074	1.099	1.133	1.099
-0.020	0.020	-0.005	0.005	0.098	-0.029	0.029	1.748	1.074	1.079	1.074	1.099	1.108	1.094
-0.020	0.015	0.000	0.000	0.010	-0.024	0.029	1.812	1.084	1.079	1.079	1.094	1.079	1.089
-0.005	0.015	0.000	0.000	-0.059	-0.015	0.029	1.802	1.089	1.084	1.079	1.094	1.064	1.084
0.005	0.010	-0.005	0.000	-0.088	-0.010	0.029	1.733	1.089	1.079	1.079	1.094	1.064	1.079
0.010	-0.005	-0.005	0.005	-0.078	-0.005	0.029	1.787	1.089	1.079	1.079	1.094	1.074	1.079
0.000	-0.005	-0.005	0.000	-0.063	0.015	0.029	1.797	1.089	1.074	1.079	1.094	1.084	1.084
0.010	0.000	0.000	-0.005	-0.024	0.010	0.034	1.802	1.089	1.079	1.079	1.099	1.094	1.084
0.005	0.005	0.000	0.000	0.005	-0.005	0.029	1.772	1.084	1.079	1.079	1.099	1.104	1.089
0.010	-0.020	-0.005	0.000	0.073	0.000	0.034	1.792	1.084	1.079	1.079	1.099	1.118	1.094
0.015	-0.020	-0.005	0.000	0.068	0.000	0.029	1.802	1.089	1.079	1.079	1.099	1.108	1.099
0.015	-0.034	0.000	0.000	0.039	0.029	0.034	1.738	1.079	1.074	1.079	1.094	1.099	1.104
0.005	-0.034	-0.005	0.000	0.068	0.024	0.034	1.768	1.079	1.074	1.074	1.094	1.104	1.104
0.005	-0.020	0.005	-0.005	0.073	0.024	0.034	1.797	1.084	1.079	1.079	1.094	1.099	1.099
0.010	-0.005	0.000	0.000	0.020	0.024	0.029	1.777	1.084	1.084	1.079	1.094	1.084	1.094
0.005	0.005	0.000	0.000	-0.039	0.010	0.029	1.787	1.084	1.084	1.079	1.094	1.069	1.079
-0.010	-0.015	0.000	0.000	-0.039	0.010	0.029	1.797	1.079	1.079	1.079	1.094	1.074	1.079
-0.010	0.039	0.005	0.000	-0.034	0.010	0.034	1.816	1.089	1.094	1.084	1.099	1.079	1.079
-0.005	0.034	0.000	0.000	-0.034	-0.010	0.034	1.763	1.079	1.089	1.089	1.099	1.084	1.074
0.005	0.049	0.005	0.000	-0.029	0.000	0.034	1.758	1.084	1.089	1.089	1.099	1.089	1.079
0.044	0.054	0.005	0.000	-0.029	0.005	0.029	1.807	1.099	1.094	1.089	1.104	1.094	1.084
0.024	0.039	-0.005	0.000	-0.024	-0.005	0.034	1.772	1.084	1.084	1.089	1.104	1.094	1.084
0.005	0.010	-0.005	0.000	-0.015	0.000	0.034	1.768	1.079	1.074	1.084	1.104	1.099	1.089
-0.020	-0.005	-0.010	0.000	-0.005	0.005	0.034	1.792	1.069	1.069	1.074	1.099	1.099	1.094
-0.034	-0.010	-0.005	0.000	-0.015	-0.015	0.029	1.753	1.069	1.069	1.074	1.099	1.099	1.089
-0.034	-0.020	0.005	0.000	-0.020	-0.005	0.034	1.797	1.074	1.069	1.074	1.094	1.094	1.094
-0.039	-0.024	0.005	0.000	-0.010	0.005	0.029	1.738	1.069	1.064	1.069	1.094	1.094	1.094
-0.024	-0.015	-0.005	-0.005	-0.015	0.005	0.034	1.797	1.074	1.069	1.069	1.089	1.089	1.094
-0.024	-0.029	0.000	-0.005	-0.010	0.005	0.029	1.768	1.079	1.069	1.069	1.089	1.089	1.089
-0.010	-0.029	0.000	0.000	-0.005	-0.005	0.029	1.782	1.084	1.069	1.069	1.089	1.089	1.089
0.000	-0.015	0.000	-0.005	0.015	-0.020	0.029	1.787	1.089	1.079	1.074	1.089	1.094	1.084
-0.010	-0.005	0.000	-0.005	0.010	-0.005	0.029	1.821	1.084	1.079	1.074	1.089	1.089	1.089
0.005	-0.010	-0.005	0.000	-0.015	0.005	0.029	1.777	1.084	1.079	1.074	1.089	1.084	1.089
0.010	0.005	0.000	0.000	-0.015	-0.010	0.029	1.763	1.084	1.084	1.079	1.094	1.084	1.079
0.010	0.015	-0.010	0.000	-0.029	0.000	0.029	1.802	1.084	1.084	1.079	1.094	1.084	1.084
0.000	0.010	-0.010	0.000	-0.010	0.005	0.029	1.777	1.089	1.084	1.079	1.094	1.089	1.084
0.000	0.010	-0.005	0.000	0.020	0.005	0.029	1.797	1.089	1.084	1.084	1.094	1.099	1.089
0.005	-0.005	-0.010	0.000	0.015	0.000	0.034	1.787	1.089	1.084	1.079	1.099	1.094	1.089
0.005	-0.010	-0.010	0.000	-0.010	-0.020	0.029	1.743	1.089	1.084	1.079	1.094	1.089	1.084
0.000	-0.005	-0.005	0.000	-0.010	0.010	0.029	1.802	1.089	1.084	1.084	1.099	1.089	1.094
-0.010	0.005	0.005	0.000	-0.010	0.010	0.029	1.792	1.084	1.089	1.084	1.099	1.094	1.089
-0.005	-0.010	-0.005	-0.005	-0.010	0.000	0.029	1.831	1.089	1.084	1.079	1.099	1.094	1.089
0.005	-0.020	0.000	-0.005	0.044	0.000	0.029	1.738	1.089	1.079	1.084	1.099	1.108	1.094
0.010	-0.015	0.000	0.000	0.073	-0.005	0.029	1.782	1.089	1.079	1.084	1.099	1.108	1.099
0.005	-0.024	0.010	-0.005	0.029	0.000	0.029	1.797	1.084	1.074	1.084	1.099	1.094	1.094
0.010	-0.020	0.005	0.000	-0.005	0.000	0.034	1.748	1.084	1.084	1.079	1.099	1.089	1.094
0.000	0.000	0.000	-0.005	0.005	0.005	0.029	1.792	1.084	1.084	1.079	1.099	1.089	1.094
0.005	-0.005	0.000	-0.005	0.000	-0.005	0.034	1.797	1.084	1.084	1.079	1.099	1.089	1.084
0.005	-0.005	0.000	-0.005	0.010	0.010	0.029	1.748	1.084	1.084	1.079	1.099	1.094	1.094
0.010	0.005	-0.005	0.000	0.005	0.005	0.034	1.685	1.079	1.084	1.079	1.094	1.094	1.094
0.000	0.015	0.000	-0.010	-0.005	0.000	0.029	1.787	1.079	1.084	1.084	1.099	1.089	1.089
0.010	0.020	-0.010	-0.015	-0.015	-0.005	0.034	1.768	1.079	1.084	1.079	1.094	1.089	1.089
-0.005	0.015	-0.010	-0.015	-0.015	0.000	0.029	1.777	1.079	1.084	1.079	1.099	1.089	1.089
-0.005	0.010	-0.005	-0.010	-0.015	0.000	0.029	1.802	1.084	1.079	1.084	1.099	1.089	1.089
-0.005	0.024	-0.005	-0.005	-0.005	0.000	0.034	1.782	1.084	1.084	1.084	1.099	1.094	1.089
0.000	0.020	-0.005	0.000	-0.020	0.000	0.034	1.797	1.089	1.079	1.079	1.099	1.094	1.089
0.000	0.000	-0.005	0.005	-0.005	-0.010	0.029	1.738	1.079	1.079	1.079	1.099	1.099	1.089
0.000	0.010	0.005	0.015	-0.005	0.000	0.034	1.802	1.084	1.074	1.079	1.104	1.099	1.094
0.005	-0.005	0.005	0.020	-0.005	-0.005	0.029	1.797	1.089	1.074	1.079	1.104	1.099	1.094
0.000	-0.015	0.000	0.020	-0.010	0.000	0.034	1.772	1.089	1.074	1.079	1.104	1.094	1.094
0.000	-0.015	0.010	0.024	-0.005	-0.005	0.034	1.753	1.079	1.079	1.079	1.099	1.099	1.094
0.010	-0.015	0.010	0.015	0.000	-0.010	0.029	1.768	1.074	1.074	1.074	1.099	1.099	1.089
0.005	-0.015	0.010	0.015	0.010	0.000	0.029	1.758	1.074	1.074	1.074	1.094	1.099	1.094
0.005	-0.005	0.000	0.005	0.000	-0.015	0.029	1.792	1.079	1.074	1.074	1.094	1.089	1.089
0.005	-0.005	0.005	0.005	-0.010	0.000	0.034	1.670	1.074	1.079	1.074	1.094	1.089	1.089
0.000	-0.005	0.005	0.000	-0.020	0.000	0.029	1.792	1.074	1.074	1.074	1.089	1.084	1.089
-0.005	0.000	0.010	0.000	-0.010	0.000	0.029	1.787	1.079	1.079	1.074	1.094	1.089	1.089
-0.010	0.010	0.000	-0.005	0.005	-0.015	0.029	1.782	1.079	1.079	1.074	1.089	1.094	1.084
-0.024	0.005	0.005	-0.005	0.049	-0.015	0.029	1.787	1.084	1.079	1.074	1.094	1.104	1.094
-0.015	0.015	0.000	-0.005	0.024	-0.010	0.034	1.792	1.089	1.084	1.079	1.094	1.089	1.089
-0.015	0.010	0.000	-0.005	-0.005	0.010	0.029	1.782	1.084	1.084	1.079	1.094	1.084	1.094
-0.015	0.029	-0.010	-0.005	-0.010	0.005	0.029	1.772	1.089	1.089	1.079	1.094	1.084	1.089
-0.024	0.029	-0.005	-0.010	0.010	0.010	0.029	1.782	1.089	1.089	1.079	1.094	1.094	1.094
-0.015	0.000	-0.015	-0.005	0.029	0.010	0.029	1.758	1.084	1.074	1.079	1.094	1.094	1.089
0.000	0.000	-0.010	-0.010	0.020	-0.010	0.029	1.821	1.089	1.079	1.079	1.094	1.089	1.089
0.000	-0.010	-0.005	-0.015	-0.029	0.015	0.029	1.787	1.089	1.079	1.079	1.094	1.079	1.089
0.005	-0.020	0.000	-0.010	-0.054	0.000	0.029	1.743	1.084	1.079	1.084	1.094	1.074	1.079
0.000	-0.015	0.005	-0.005	-0.015	-0.005	0.029	1.792	1.084	1.074	1.084	1.099	1.094	1.079
0.000	-0.005	0.010	-0.005	0.020	0.010	0.029	1.816	1.084	1.084	1.079	1.099	1.104	1.089
-0.005	-0.024	0.000	-0.010	-0.005	0.000	0.029	1.787	1.084	1.079	1.079	1.094	1.089	1.089
-0.005	-0.020	0.005	-0.010	0.005	-0.005	0.034	1.802	1.084	1.079	1.079	1.099	1.094	1.084
0.000	-0.005	0.005	-0.010	-0.020	0.010	0.034	1.777	1.084	1.084	1.079	1.094	1.084	1.089
-0.005	0.000	0.005	-0.005	-0.010	0.000	0.029	1.680	1.074	1.079	1.079	1.094	1.094	1.084
0.005	0.005	0.000	-0.005	0.068	-0.015	0.034	1.792	1.079	1.079	1.084	1.099	1.113	1.089
-0.005	0.015	-0.005	-0.010	0.088	0.005	0.029	1.787	1.084	1.079	1.079	1.099	1.108	1.104
0.000	0.015	0.000	-0.010	0.015	0.010	0.029	1.816	1.084	1.084	1.079	1.099	1.089	1.094
-0.010	0.015	-0.010	-0.005	0.034	0.000	0.029	1.729	1.079	1.084	1.079	1.094	1.094	1.094
0.005	0.010	-0.005	0.000	-0.010	0.005	0.029	1.787	1.084	1.079	1.084	1.099	1.084	1.089
-0.005	0.029	-0.005	-0.005	0.010	0.015	0.029	1.802	1.084	1.084	1.084	1.099	1.094	1.094
0.000	0.010	0.005	0.005	-0.044	0.000	0.029	1.772	1.089	1.084	1.084	1.099	1.079	1.084
0.010	0.010	-0.005	0.000	-0.073	-0.005	0.034	1.768	1.084	1.084	1.079	1.099	1.079	1.079
0.005	0.000	0.000	-0.005	-0.024	-0.015	0.029	1.802	1.079	1.079	1.079	1.094	1.089	1.079
-0.005	-0.010	0.000	-0.005	-0.078	-0.005	0.034	1.777	1.079	1.074	1.079	1.094	1.074	1.074
0.005	-0.010	-0.005	-0.005	-0.088	-0.005	0.034	1.768	1.079	1.074	1.079	1.094	1.079	1.084
0.000	-0.010	0.000	-0.005	-0.024	0.015	0.029	1.787	1.074	1.074	1.079	1.094	1.099	1.089
0.000	-0.015	0.005	-0.010	0.054	-0.005	0.034	1.753	1.079	1.074	1.074	1.094	1.123	1.094
0.005	-0.005	0.000	-0.010	0.171	-0.015	0.029	1.797	1.079	1.074	1.079	1.094	1.143	1.104
0.000	-0.010	0.005	-0.015	0.127	-0.010	0.034	1.826	1.084	1.074	1.074	1.094	1.108	1.104
0.000	0.000	0.005	-0.015	0.024	-0.010	0.029	1.772	1.084	1.079	1.074	1.089	1.079	1.094
-0.005	0.000	-0.005	-0.020	0.015	-0.020	0.034	1.772	1.079	1.079	1.074	1.089	1.079	1.089
-0.010	0.000	-0.005	-0.024	-0.020	-0.010	0.034	1.777	1.079	1.074	1.074	1.089	1.074	1.084
-0.015	0.000	-0.010	-0.020	-0.044	-0.020	0.034	1.807	1.079	1.074	1.074	1.089	1.064	1.074
-0.010	0.015	0.000	-0.020	-0.049	-0.010	0.029	1.777	1.084	1.079	1.079	1.094	1.074	1.074
-0.005	0.010	0.000	-0.015	-0.039	-0.010	0.034	1.802	1.089	1.084	1.079	1.094	1.084	1.079
-0.010	0.005	-0.005	-0.010	-0.020	0.005	0.029	1.743	1.079	1.079	1.079	1.094	1.089	1.084
-0.005	0.000	0.000	-0.005	-0.054	0.000	0.029	1.758	1.084	1.079	1.079	1.094	1.079	1.084
-0.005	0.010	-0.005	0.000	-0.034	0.005	0.029	1.777	1.079	1.079	1.079	1.099	1.094	1.084
0.000	0.020	-0.005	-0.005	0.015	0.020	0.029	1.802	1.084	1.084	1.079	1.099	1.108	1.089
-0.005	0.020	0.000	0.000	0.039	-0.005	0.029	1.816	1.084	1.084	1.084	1.099	1.108	1.094
0.000	-0.005	0.005	0.005	0.029	-0.005	0.034	1.807	1.089	1.079	1.079	1.099	1.104	1.094
0.005	-0.005	0.000	0.010	0.010	0.005	0.034	1.792	1.089	1.079	1.079	1.099	1.094	1.099
0.000	-0.010	0.005	0.010	0.000	0.010	0.029	1.797	1.089	1.079	1.079	1.099	1.094	1.094
0.010	-0.010	0.010	0.010	-0.005	0.010	0.029	1.768	1.089	1.079	1.079	1.099	1.094	1.094
0.005	-0.005	0.010	0.015	-0.005	-0.010	0.029	1.738	1.084	1.084	1.079	1.099	1.094	1.089
0.005	0.000	0.000	0.015	-0.010	-0.005	0.029	1.802	1.079	1.079	1.079	1.099	1.094	1.089
-0.005	-0.005	0.000	0.015	-0.015	0.005	0.029	1.787	1.079	1.079	1.079	1.099	1.089	1.089
-0.005	0.000	0.005	0.015	-0.020	-0.015	0.029	1.777	1.084	1.079	1.079	1.099	1.089	1.084
0.000	0.000	0.000	0.015	-0.015	0.000	0.034	1.807	1.084	1.074	1.079	1.099	1.089	1.089
-0.010	0.005	0.000	0.005	-0.010	0.000	0.029	1.802	1.084	1.084	1.079	1.099	1.094	1.089
-0.005	0.000	0.000	0.005	-0.005	-0.010	0.034	1.743	1.079	1.079	1.079	1.094	1.094	1.089
-0.015	0.010	-0.005	0.005	-0.010	-0.020	0.029	1.797	1.079	1.079	1.079	1.094	1.089	1.084
0.005	0.005	0.000	0.005	-0.010	0.000	0.034	1.753	1.089	1.079	1.079	1.094	1.094	1.089
0.005	0.000	0.000	0.005	-0.005	0.005	0.029	1.777	1.089	1.079	1.079	1.094	1.094	1.094
0.005	0.005	-0.005	0.005	-0.005	-0.010	0.034	1.782	1.084	1.084	1.079	1.094	1.089	1.089
0.005	0.005	-0.005	0.024	-0.020	0.005	0.029	1.787	1.084	1.084	1.084	1.104	1.089	1.094
0.010	-0.010	0.000	0.024	-0.020	0.015	0.034	1.763	1.084	1.079	1.079	1.099	1.094	1.094
0.005	-0.020	0.000	0.015	-0.024	0.010	0.034	1.802	1.084	1.074	1.079	1.094	1.089	1.089
0.015	-0.020	0.000	0.005	-0.029	0.015	0.034	1.733	1.084	1.074	1.079	1.094	1.089	1.089
0.010	-0.010	0.005	0.005	-0.020	0.010	0.029	1.792	1.084	1.079	1.079	1.094	1.089	1.089
0.015	-0.015	0.005	0.005	-0.039	0.000	0.034	1.758	1.084	1.079	1.074	1.094	1.084	1.084
0.015	-0.005	0.000	0.005	-0.054	-0.005	0.034	1.816	1.084	1.079	1.074	1.094	1.079	1.084
0.015	-0.010	0.000	0.000	0.020	0.000	0.034	1.758	1.079	1.079	1.074	1.094	1.108	1.089
0.005	-0.010	0.000	0.005	0.093	0.000	0.034	1.758	1.079	1.079	1.079	1.094	1.118	1.099
-0.005	-0.005	-0.010	0.010	0.059	-0.005	0.034	1.797	1.079	1.079	1.074	1.099	1.099	1.094
0.000	0.005	-0.005	0.020	0.010	0.000	0.034	1.777	1.084	1.084	1.079	1.099	1.089	1.094
-0.010	0.015	-0.005	0.024	0.015	0.005	0.034	1.777	1.084	1.084	1.079	1.099	1.094	1.094
-0.020	0.020	-0.005	0.024	0.049	-0.005	0.029	1.807	1.084	1.084	1.079	1.104	1.104	1.094
-0.015	0.015	-0.005	0.029	0.020	-0.010	0.039	1.782	1.089	1.084	1.079	1.099	1.094	1.094
-0.005	0.005	0.000	0.039	0.015	-0.010	0.039	1.763	1.089	1.084	1.084	1.099	1.094	1.094
-0.005	0.010	0.000	0.029	0.015	-0.010	0.034	1.792	1.089	1.084	1.084	1.099	1.094	1.089
-0.010	0.010	0.000	0.024	0.005	0.000	0.034	1.802	1.089	1.084	1.084	1.099	1.094	1.094
-0.005	0.000	0.000	0.015	0.005	0.005	0.034	1.797	1.089	1.084	1.084	1.099	1.094	1.094
0.005	-0.010	0.005	0.015	-0.020	-0.005	0.034	1.768	1.089	1.084	1.084	1.099	1.089	1.084
-0.010	-0.005	0.000	0.005	-0.010	0.015	0.034	1.772	1.084	1.079	1.079	1.099	1.094	1.094
0.000	-0.024	-0.005	0.000	0.000	0.010	0.029	1.782	1.079	1.074	1.079	1.094	1.094	1.094
0.005	-0.010	0.000	0.000	0.020	0.010	0.029	1.792	1.084	1.079	1.079	1.094	1.099	1.089
0.000	-0.010	0.010	-0.005	-0.020	-0.010	0.029	1.782	1.084	1.084	1.079	1.094	1.084	1.084
0.000	-0.010	0.010	-0.005	-0.039	0.010	0.034	1.743	1.074	1.079	1.079	1.094	1.084	1.089
0.000	-0.020	0.005	-0.010	-0.020	0.010	0.034	1.753	1.074	1.074	1.074	1.094	1.084	1.089
0.005	0.000	0.000	-0.010	-0.024	0.005	0.029	1.797	1.084	1.079	1.074	1.094	1.089	1.084
-0.010	0.005	0.000	-0.010	-0.015	0.000	0.029	1.812	1.079	1.084	1.079	1.094	1.089	1.084
-0.010	0.005	0.000	-0.020	-0.010	-0.005	0.034	1.772	1.079	1.079	1.079	1.094	1.089	1.084
-0.005	0.010	0.000	-0.024	0.000	0.000	0.044	1.797	1.084	1.084	1.084	1.094	1.094	1.089
-0.005	0.015	0.000	-0.020	0.034	-0.020	0.044	1.816	1.089	1.084	1.079	1.099	1.104	1.084
-0.010	0.000	0.000	-0.010	0.024	0.010	0.044	1.772	1.084	1.079	1.079	1.099	1.099	1.099
0.000	0.010	-0.005	-0.010	0.034	0.005	0.044	1.733	1.084	1.089	1.084	1.099	1.099	1.099
-0.010	0.005	0.000	-0.010	0.020	0.000	0.044	1.763	1.079	1.084	1.079	1.099	1.094	1.089
0.000	0.000	-0.010	-0.010	-0.010	0.005	0.044	1.807	1.089	1.079	1.079	1.099	1.084	1.089
-0.005	0.000	-0.005	0.000	-0.029	-0.010	0.044	1.743	1.074	1.084	1.079	1.099	1.084	1.084
0.000	0.000	-0.010	-0.005	-0.010	0.005	0.044	1.719	1.074	1.079	1.079	1.099	1.094	1.089
0.000	-0.015	-0.005	-0.015	0.005	0.005	0.044	1.768	1.074	1.069	1.079	1.094	1.099	1.094
0.010	-0.015	0.005	-0.020	-0.010	-0.005	0.044	1.792	1.079	1.069	1.079	1.094	1.089	1.089
0.015	-0.010	0.005	-0.020	-0.015	0.000	0.044	1.782	1.084	1.074	1.074	1.094	1.089	1.084
0.000	-0.020	0.000	-0.024	0.005	-0.005	0.044	1.787	1.084	1.074	1.074	1.094	1.094	1.089
0.015	-0.010	0.000	-0.024	0.005	-0.005	0.044	1.792	1.084	1.079	1.074	1.094	1.094	1.089
0.010	0.015	0.005	-0.020	0.000	-0.015	0.039	1.807	1.089	1.084	1.079	1.094	1.089	1.079
0.005	0.005	0.000	-0.015	0.015	-0.020	0.034	1.758	1.084	1.084	1.074	1.094	1.094	1.084
0.000	-0.015	-0.005	-0.010	0.029	0.000	0.029	1.777	1.079	1.074	1.074	1.094	1.094	1.094
-0.005	-0.005	-0.010	-0.015	-0.005	-0.005	0.034	1.763	1.079	1.079	1.074	1.094	1.084	1.089
0.000	0.010	-0.005	-0.015	0.024	0.010	0.034	1.797	1.084	1.084	1.079	1.094	1.094	1.094
-0.010	-0.005	0.000	-0.015	-0.010	0.010	0.034	1.733	1.084	1.079	1.084	1.094	1.084	1.089
0.000	0.029	-0.005	-0.010	-0.024	-0.024	0.029	1.772	1.084	1.089	1.084	1.099	1.084	1.074
0.000	0.024	0.000	-0.010	0.005	0.015	0.034	1.807	1.089	1.089	1.084	1.099	1.094	1.089
0.005	0.024	0.005	-0.015	-0.015	0.015	0.034	1.738	1.084	1.089	1.084	1.099	1.089	1.094
0.000	0.015	0.000	-0.010	-0.029	0.015	0.029	1.782	1.084	1.084	1.084	1.099	1.089	1.089
-0.005	-0.005	0.005	-0.015	0.049	0.010	0.029	1.772	1.079	1.074	1.079	1.104	1.113	1.094
-0.005	-0.015	0.000	-0.005	0.054	0.010	0.029	1.704	1.069	1.069	1.079	1.099	1.108	1.099
0.000	-0.020	0.005	-0.010	0.034	-0.005	0.029	1.782	1.074	1.069	1.074	1.099	1.099	1.089
0.005	-0.015	0.005	-0.015	0.024	0.005	0.029	1.787	1.079	1.074	1.074	1.094	1.094	1.094
0.005	-0.024	0.000	-0.020	-0.005	-0.005	0.029	1.807	1.084	1.074	1.069	1.089	1.084	1.089
0.000	-0.020	0.005	-0.020	-0.029	-0.010	0.034	1.748	1.079	1.074	1.069	1.089	1.079	1.084
-0.005	0.000	0.000	-0.015	-0.029	-0.005	0.034	1.787	1.079	1.079	1.074	1.089	1.079	1.084
-0.005	0.000	0.000	-0.010	-0.039	-0.005	0.029	1.787	1.079	1.079	1.074	1.094	1.079	1.084
-0.010	0.000	-0.005	-0.005	-0.083	-0.005	0.034	1.748	1.069	1.079	1.074	1.094	1.074	1.074
-0.015	0.010	-0.005	0.000	-0.024	0.005	0.029	1.729	1.064	1.074	1.074	1.094	1.094	1.084
-0.015	0.015	-0.010	0.010	-0.005	-0.015	0.029	1.743	1.064	1.074	1.074	1.099	1.099	1.084
-0.024	0.020	-0.005	0.015	-0.059	0.005	0.029	1.797	1.069	1.074	1.074	1.099	1.084	1.084
-0.010	0.000	-0.005	0.020	-0.063	-0.005	0.029	1.763	1.074	1.069	1.074	1.094	1.089	1.084
0.000	0.010	0.000	0.024	0.083	-0.005	0.029	1.787	1.079	1.069	1.074	1.099	1.128	1.099
-0.010	-0.005	-0.005	0.024	0.156	0.000	0.029	1.792	1.084	1.069	1.074	1.099	1.138	1.108
-0.010	-0.005	-0.005	0.024	0.122	-0.005	0.034	1.787	1.074	1.074	1.069	1.094	1.108	1.108
-0.010	-0.010	-0.005	0.020	0.029	-0.010	0.029	1.802	1.079	1.069	1.069	1.089	1.084	1.099
-0.005	-0.020	0.000	0.020	0.010	-0.010	0.034	1.792	1.084	1.069	1.069	1.089	1.079	1.089
0.000	-0.015	0.005	0.015	-0.020	-0.015	0.034	1.724	1.084	1.074	1.069	1.084	1.069	1.084
0.010	-0.015	0.005	0.005	-0.024	-0.015	0.034	1.743	1.079	1.074	1.074	1.084	1.074	1.079
0.005	-0.010	0.005	0.000	0.039	-0.024	0.029	1.802	1.079	1.074	1.074	1.089	1.094	1.079
0.020	-0.020	0.005	0.000	0.078	-0.015	0.029	1.758	1.079	1.074	1.069	1.089	1.099	1.089
0.015	-0.015	0.005	-0.005	0.029	-0.015	0.029	1.802	1.079	1.079	1.074	1.089	1.079	1.084
0.015	-0.005	0.000	-0.005	-0.054	-0.010	0.029	1.763	1.079	1.079	1.074	1.089	1.060	1.074
0.015	0.000	0.000	0.000	-0.039	-0.010	0.029	1.807	1.084	1.079	1.074	1.089	1.074	1.074
0.005	0.005	0.000	0.005	0.005	0.005	0.029	1.782	1.074	1.084	1.079	1.094	1.089	1.084
0.000	0.015	0.000	0.005	-0.020	0.015	0.034	1.782	1.074	1.079	1.079	1.094	1.084	1.084
-0.005	0.015	0.000	0.015	-0.049	0.020	0.029	1.787	1.074	1.079	1.074	1.094	1.074	1.079
-0.010	0.010	0.000	0.015	-0.049	0.029	0.029	1.797	1.084	1.079	1.079	1.094	1.084	1.084
-0.015	0.010	-0.010	0.020	-0.068	0.029	0.029	1.763	1.079	1.074	1.074	1.094	1.079	1.079
-0.020	0.005	-0.010	0.020	-0.020	0.020	0.029	1.738	1.074	1.079	1.074	1.094	1.099	1.084
-0.015	0.015	-0.010	0.020	0.029	0.015	0.029	1.797	1.079	1.074	1.074	1.099	1.108	1.089
-0.005	0.020	-0.005	0.015	0.034	0.015	0.029	1.763	1.084	1.079	1.079	1.099	1.104	1.094
0.000	0.010	-0.005	0.015	0.000	-0.010	0.029	1.782	1.084	1.079	1.079	1.094	1.089	1.084
0.005	-0.005	0.000	0.010	-0.049	-0.010	0.029	1.797	1.084	1.074	1.079	1.089	1.074	1.079
0.000	-0.015	0.000	0.000	-0.078	-0.005	0.029	1.797	1.084	1.074	1.074	1.089	1.074	1.074
0.005	-0.015	0.000	0.000	-0.005	-0.005	0.029	1.792	1.079	1.074	1.074	1.089	1.094	1.084
0.005	-0.020	0.000	-0.005	0.024	-0.010	0.029	1.792	1.079	1.074	1.074	1.089	1.094	1.084
0.000	-0.020	0.000	-0.010	-0.005	-0.010	0.029	1.777	1.079	1.074	1.074	1.089	1.089	1.089
0.010	0.000	0.000	-0.010	0.015	0.015	0.029	1.748	1.074	1.079	1.074	1.089	1.094	1.094
0.005	-0.005	0.005	-0.005	0.054	0.015	0.029	1.777	1.074	1.074	1.079	1.094	1.104	1.094
0.005	0.000	0.000	-0.005	0.024	0.000	0.029	1.792	1.084	1.079	1.079	1.094	1.089	1.089
0.005	0.005	0.000	0.000	-0.015	-0.005	0.029	1.777	1.079	1.079	1.074	1.094	1.079	1.084
0.000	0.010	-0.005	0.005	-0.020	0.020	0.029	1.772	1.074	1.079	1.074	1.094	1.084	1.089
0.000	0.015	-0.005	0.010	-0.024	0.015	0.034	1.797	1.079	1.079	1.079	1.094	1.084	1.089
0.000	0.010	-0.005	0.015	-0.024	0.015	0.029	1.792	1.089	1.079	1.079	1.099	1.084	1.084
-0.010	0.010	-0.005	0.015	-0.020	0.010	0.029	1.753	1.079	1.079	1.079	1.099	1.089	1.084
-0.005	0.020	0.000	0.015	-0.020	0.000	0.029	1.772	1.079	1.079	1.079	1.099	1.089	1.084
-0.005	0.015	-0.005	0.015	-0.010	0.000	0.029	1.797	1.079	1.074	1.079	1.099	1.094	1.084
-0.015	0.005	0.005	0.010	-0.005	-0.005	0.029	1.758	1.074	1.074	1.079	1.094	1.094	1.084
0.000	-0.005	0.000	0.005	0.005	-0.005	0.034	1.802	1.079	1.074	1.079	1.094	1.094	1.089
-0.005	-0.010	0.010	0.000	0.000	-0.005	0.029	1.787	1.084	1.074	1.074	1.094	1.094	1.089
0.005	-0.005	0.005	-0.005	0.000	0.000	0.034	1.816	1.089	1.079	1.074	1.094	1.089	1.089
0.015	-0.010	0.005	-0.005	-0.010	0.000	0.029	1.743	1.079	1.074	1.074	1.089	1.089	1.089
0.010	-0.015	0.005	-0.010	-0.010	-0.005	0.029	1.792	1.084	1.074	1.074	1.089	1.084	1.079
0.000	-0.015	0.000	-0.015	0.005	0.000	0.029	1.797	1.084	1.074	1.074	1.089	1.089	1.089
0.010	-0.010	0.000	-0.015	0.020	-0.010	0.034	1.738	1.074	1.074	1.074	1.089	1.094	1.089
0.015	-0.005	0.000	-0.010	0.015	0.000	0.029	1.807	1.084	1.079	1.074	1.094	1.089	1.084
0.010	0.000	-0.005	-0.005	0.005	-0.010	0.034	1.802	1.084	1.079	1.074	1.094	1.089	1.079
-0.005	0.005	0.000	0.000	0.000	-0.015	0.029	1.768	1.079	1.079	1.079	1.094	1.089	1.079
-0.010	0.005	0.000	0.005	0.005	-0.005	0.034	1.743	1.069	1.079	1.079	1.099	1.089	1.089
-0.015	0.010	-0.005	0.015	0.044	-0.005	0.029	1.787	1.079	1.074	1.074	1.099	1.104	1.094
-0.020	0.000	0.000	0.015	0.020	-0.005	0.029	1.797	1.084	1.074	1.074	1.099	1.094	1.089
-0.024	0.000	0.000	0.020	-0.005	-0.005	0.029	1.768	1.079	1.079	1.074	1.094	1.089	1.089
-0.015	0.000	-0.005	0.020	0.000	-0.005	0.034	1.753	1.079	1.079	1.074	1.094	1.094	1.089
-0.015	0.005	0.000	0.015	0.029	-0.010	0.034	1.782	1.084	1.079	1.079	1.094	1.094	1.094
-0.024	0.000	0.000	0.010	0.010	0.000	0.029	1.797	1.084	1.079	1.079	1.094	1.089	1.094
0.000	-0.005	0.000	0.000	0.005	-0.005	0.029	1.821	1.094	1.079	1.074	1.094	1.089	1.089
0.005	-0.010	0.000	0.000	0.005	0.005	0.029	1.753	1.084	1.084	1.079	1.089	1.089	1.089
0.005	-0.005	-0.005	-0.005	0.000	0.005	0.034	1.787	1.089	1.084	1.079	1.089	1.084	1.089
0.000	-0.015	-0.005	-0.015	0.000	0.005	0.034	1.802	1.084	1.074	1.074	1.089	1.084	1.084
0.010	-0.015	0.005	-0.020	-0.005	0.005	0.034	1.768	1.084	1.079	1.079	1.089	1.084	1.084
0.015	-0.020	0.000	-0.015	-0.024	0.000	0.029	1.724	1.079	1.079	1.079	1.089	1.079	1.079
0.010	-0.005	0.005	-0.015	-0.029	-0.005	0.034	1.797	1.074	1.079	1.079	1.094	1.079	1.079
0.010	-0.005	0.000	-0.010	-0.020	0.000	0.029	1.753	1.069	1.079	1.079	1.094	1.084	1.079
0.000	0.015	0.000	-0.005	0.000	0.000	0.029	1.792	1.074	1.079	1.079	1.099	1.094	1.084
0.000	0.010	0.000	0.005	-0.005	0.010	0.034	1.763	1.074	1.079	1.074	1.099	1.094	1.089
0.000	0.015	0.000	0.010	-0.005	-0.020	0.029	1.772	1.069	1.079	1.079	1.099	1.094	1.084
0.000	0.020	-0.005	0.010	-0.015	-0.005	0.034	1.807	1.084	1.079	1.079	1.099	1.094	1.084
-0.010	0.010	-0.010	0.015	-0.010	-0.010	0.029	1.743	1.074	1.074	1.074	1.099	1.094	1.089
0.005	0.000	-0.005	0.020	0.010	0.000	0.029	1.802	1.079	1.074	1.079	1.099	1.099	1.094
-0.005	0.005	-0.005	0.015	0.020	-0.020	0.029	1.768	1.079	1.074	1.074	1.094	1.099	1.089
0.000	-0.010	0.000	0.015	0.010	0.000	0.034	1.772	1.079	1.069	1.074	1.094	1.094	1.094
0.000	-0.015	-0.005	0.005	-0.005	-0.005	0.029	1.792	1.079	1.074	1.074	1.089	1.089	1.089
0.005	-0.015	0.000	-0.005	-0.020	0.005	0.029	1.782	1.084	1.074	1.074	1.089	1.084	1.089
0.000	-0.029	0.005	-0.010	0.000	-0.005	0.029	1.772	1.084	1.069	1.069	1.084	1.089	1.084
0.000	-0.024	0.000	-0.015	0.015	-0.005	0.034	1.753	1.079	1.074	1.074	1.089	1.089	1.089
0.020	-0.029	0.005	-0.020	-0.015	0.000	0.034	1.743	1.079	1.074	1.074	1.084	1.079	1.089
0.024	-0.024	0.000	-0.020	-0.044	0.000	0.029	1.787	1.089	1.079	1.069	1.084	1.074	1.079
0.015	-0.015	0.000	-0.020	-0.039	-0.005	0.029	1.777	1.079	1.079	1.074	1.089	1.074	1.079
0.000	0.005	0.000	-0.015	0.000	0.000	0.034	1.807	1.079	1.084	1.079	1.094	1.089	1.079
-0.015	0.010	-0.005	-0.010	-0.015	-0.010	0.029	1.816	1.074	1.079	1.074	1.094	1.084	1.074
-0.039	0.005	0.000	-0.005	0.024	-0.015	0.029	1.797	1.074	1.074	1.079	1.094	1.099	1.084
-0.029	0.015	-0.005	0.000	0.088	0.005	0.029	1.782	1.079	1.079	1.079	1.099	1.113	1.094
-0.029	0.020	-0.005	0.010	0.059	-0.010	0.029	1.787	1.079	1.079	1.079	1.099	1.099	1.094
-0.015	0.015	-0.005	0.015	0.000	0.005	0.029	1.797	1.094	1.079	1.079	1.099	1.084	1.094
0.010	0.005	0.000	0.020	-0.034	0.020	0.034	1.733	1.089	1.084	1.079	1.099	1.079	1.089
0.015	0.005	-0.005	0.015	-0.068	0.015	0.034	1.782	1.084	1.084	1.079	1.099	1.079	1.084
0.010	0.000	-0.005	0.015	-0.005	-0.005	0.029	1.802	1.089	1.084	1.079	1.099	1.099	1.084
-0.005	0.005	0.000	0.005	0.039	0.015	0.029	1.758	1.084	1.084	1.084	1.099	1.108	1.094
-0.005	-0.005	0.000	0.000	0.005	0.010	0.029	1.792	1.084	1.079	1.079	1.099	1.094	1.094
-0.005	0.000	0.000	-0.005	-0.034	-0.005	0.029	1.792	1.079	1.079	1.079	1.094	1.084	1.084
-0.024	0.005	0.000	-0.015	0.000	0.005	0.029	1.807	1.079	1.079	1.079	1.094	1.094	1.089
-0.015	0.005	-0.005	-0.020	0.020	0.015	0.029	1.738	1.079	1.079	1.074	1.089	1.094	1.089
0.000	-0.005	0.000	-0.020	-0.020	-0.005	0.029	1.777	1.084	1.074	1.079	1.089	1.079	1.084
0.005	-0.005	0.000	-0.020	-0.024	0.000	0.029	1.772	1.084	1.079	1.074	1.094	1.084	1.084
0.010	-0.005	-0.005	-0.015	0.039	-0.005	0.029	1.787	1.089	1.079	1.074	1.094	1.104	1.094
0.010	-0.015	-0.005	-0.015	0.088	-0.005	0.029	1.802	1.084	1.074	1.079	1.094	1.108	1.094
0.015	0.005	-0.010	-0.005	0.034	-0.015	0.029	1.802	1.089	1.079	1.079	1.099	1.094	1.089
0.005	0.005	-0.005	0.000	0.034	-0.015	0.029	1.758	1.084	1.089	1.079	1.099	1.094	1.089
0.005	0.015	-0.005	0.010	0.000	-0.005	0.029	1.787	1.084	1.089	1.084	1.099	1.084	1.094
-0.005	0.015	-0.005	0.015	-0.029	-0.010	0.029	1.797	1.084	1.084	1.084	1.099	1.079	1.089
-0.005	-0.010	-0.005	0.020	-0.029	0.010	0.029	1.802	1.084	1.079	1.084	1.104	1.089	1.089
0.000	0.000	-0.005	0.020	-0.029	0.005	0.029	1.777	1.089	1.084	1.079	1.104	1.089	1.089
0.000	0.005	-0.005	0.020	-0.020	0.005	0.034	1.792	1.084	1.084	1.084	1.104	1.094	1.089
0.000	0.020	-0.010	0.015	-0.024	0.005	0.029	1.797	1.089	1.089	1.084	1.099	1.094	1.089
0.005	0.020	0.000	0.005	0.005	0.000	0.029	1.807	1.089	1.089	1.084	1.099	1.104	1.094
0.015	0.005	0.005	0.000	0.024	-0.020	0.029	1.729	1.084	1.084	1.084	1.099	1.104	1.094
0.020	-0.005	0.010	-0.005	0.005	-0.010	0.034	1.743	1.079	1.079	1.084	1.099	1.094	1.094
0.020	-0.010	0.005	-0.015	-0.034	-0.020	0.029	1.807	1.084	1.074	1.079	1.094	1.084	1.089
0.010	-0.015	0.010	-0.020	-0.088	-0.010	0.029	1.802	1.079	1.074	1.079	1.094	1.069	1.079
0.010	-0.020	0.005	-0.020	-0.093	-0.029	0.034	1.743	1.074	1.074	1.074	1.094	1.079	1.074
0.005	-0.010	0.005	-0.020	-0.015	0.000	0.029	1.787	1.074	1.074	1.079	1.094	1.099	1.089
-0.005	-0.005	0.005	-0.020	0.000	-0.005	0.034	1.807	1.079	1.074	1.074	1.094	1.099	1.094
-0.005	-0.005	-0.005	-0.015	0.029	0.000	0.034	1.782	1.079	1.074	1.074	1.094	1.108	1.099
-0.005	0.005	-0.005	-0.005	0.088	0.005	0.029	1.763	1.084	1.079	1.074	1.099	1.123	1.104
-0.015	0.005	0.000	0.000	0.107	0.010	0.029	1.768	1.084	1.079	1.074	1.099	1.118	1.108
-0.010	0.015	0.000	0.005	0.049	0.010	0.029	1.777	1.084	1.084	1.079	1.099	1.094	1.104
-0.010	-0.010	-0.010	0.010	0.029	0.020	0.029	1.777	1.084	1.079	1.074	1.099	1.089	1.104
-0.005	0.000	-0.010	0.015	0.024	0.020	0.029	1.792	1.089	1.084	1.079	1.099	1.094	1.099
-0.010	0.010	-0.010	0.015	0.039	0.020	0.029	1.777	1.089	1.084	1.079	1.099	1.099	1.099
-0.005	0.005	-0.005	0.015	0.029	0.005	0.029	1.758	1.089	1.089	1.084	1.099	1.089	1.094
0.000	-0.005	-0.005	0.015	-0.020	0.000	0.029	1.772	1.084	1.084	1.079	1.094	1.079	1.084
-0.005	-0.010	0.005	0.005	-0.054	-0.005	0.029	1.802	1.084	1.079	1.084	1.094	1.069	1.079
0.000	-0.010	0.000	-0.005	-0.103	0.005	0.029	1.797	1.084	1.079	1.084	1.094	1.060	1.074
0.010	-0.015	0.000	-0.005	-0.078	-0.005	0.029	1.743	1.079	1.079	1.079	1.094	1.079	1.074
0.005	-0.005	0.000	-0.015	0.015	-0.024	0.029	1.797	1.084	1.084	1.084	1.094	1.104	1.079
0.005	-0.024	0.000	-0.020	0.068	-0.005	0.029	1.802	1.079	1.074	1.079	1.094	1.113	1.094
0.005	-0.005	-0.005	-0.020	0.063	0.000	0.029	1.743	1.074	1.079	1.074	1.094	1.104	1.094
0.000	-0.005	-0.005	-0.020	0.034	-0.005	0.029	1.753	1.074	1.074	1.074	1.094	1.094	1.094
0.010	-0.015	-0.005	-0.015	0.034	0.005	0.029	1.807	1.079	1.074	1.074	1.094	1.094	1.094
0.005	-0.010	-0.005	-0.005	0.029	-0.020	0.034	1.743	1.074	1.074	1.074	1.094	1.094	1.089
-0.005	0.000	-0.005	0.000	-0.005	0.005	0.034	1.787	1.074	1.079	1.079	1.099	1.084	1.089
-0.015	0.005	-0.005	0.005	-0.015	0.005	0.029	1.792	1.079	1.079	1.079	1.099	1.084	1.089
-0.015	0.000	-0.010	0.015	-0.029	-0.005	0.029	1.802	1.079	1.074	1.074	1.099	1.084	1.084
-0.005	0.000	-0.005	0.015	-0.039	0.005	0.034	1.772	1.084	1.079	1.079	1.099	1.084	1.089
-0.005	0.005	-0.010	0.020	-0.029	0.005	0.029	1.782	1.084	1.079	1.079	1.099	1.089	1.084
-0.010	0.000	-0.005	0.020	0.000	-0.020	0.029	1.787	1.084	1.079	1.079	1.099	1.099	1.084
-0.010	0.015	0.000	0.015	-0.029	0.010	0.034	1.743	1.079	1.084	1.084	1.099	1.089	1.094
0.000	0.005	0.005	0.010	-0.059	0.005	0.034	1.787	1.084	1.079	1.079	1.094	1.084	1.084
-0.005	0.000	0.005	0.000	-0.049	0.000	0.029	1.787	1.089	1.079	1.079	1.094	1.089	1.084
0.015	-0.010	0.005	0.000	-0.024	-0.005	0.029	1.704	1.074	1.074	1.079	1.094	1.094	1.089
0.005	-0.005	0.000	-0.010	-0.010	0.000	0.034	1.787	1.079	1.074	1.079	1.089	1.094	1.089
-0.005	-0.005	0.005	-0.015	0.005	0.010	0.029	1.802	1.079	1.074	1.074	1.094	1.099	1.094
0.000	-0.015	0.005	-0.020	0.010	0.005	0.034	1.787	1.084	1.074	1.074	1.094	1.099	1.089
0.000	-0.005	0.005	-0.020	0.024	0.000	0.029	1.816	1.089	1.079	1.074	1.094	1.099	1.094
0.000	-0.005	0.000	-0.020	0.044	-0.005	0.034	1.724	1.079	1.079	1.074	1.094	1.104	1.094
-0.005	0.000	0.000	-0.015	0.059	-0.005	0.029	1.807	1.084	1.079	1.079	1.094	1.099	1.094
0.000	0.010	0.000	-0.005	0.059	0.005	0.029	1.777	1.084	1.084	1.079	1.099	1.099	1.094
-0.010	0.020	0.000	0.005	0.044	-0.015	0.029	1.802	1.084	1.084	1.079	1.099	1.094	1.094
-0.015	0.024	0.000	0.010	-0.005	0.005	0.029	1.768	1.079	1.084	1.079	1.099	1.084	1.089
-0.005	0.024	0.000	0.015	-0.020	0.000	0.029	1.733	1.079	1.084	1.084	1.099	1.084	1.089
-0.010	0.024	0.000	0.015	-0.024	-0.005	0.029	1.802	1.084	1.084	1.084	1.104	1.084	1.089
-0.010	0.015	-0.005	0.015	-0.005	0.010	0.029	1.792	1.084	1.079	1.079	1.099	1.094	1.094
-0.015	0.010	-0.005	0.015	0.010	0.010	0.029	1.777	1.079	1.079	1.079	1.099	1.099	1.094
0.000	-0.005	-0.005	0.015	-0.005	-0.015	0.034	1.763	1.079	1.074	1.079	1.094	1.094	1.089
-0.005	-0.005	0.000	0.005	-0.005	0.010	0.029	1.807	1.084	1.074	1.079	1.094	1.094	1.094
-0.005	-0.015	0.000	0.000	0.000	0.005	0.029	1.772	1.084	1.079	1.074	1.094	1.094	1.094
0.010	-0.015	0.000	0.000	-0.020	0.005	0.029	1.797	1.089	1.079	1.074	1.094	1.084	1.089
0.015	-0.015	0.005	-0.010	-0.034	-0.010	0.029	1.738	1.089	1.079	1.074	1.089	1.084	1.079
0.005	-0.010	0.005	-0.015	-0.015	-0.005	0.029	1.738	1.079	1.079	1.079	1.089	1.089	1.084
0.015	0.000	0.005	-0.020	-0.063	-0.010	0.029	1.787	1.079	1.079	1.079	1.089	1.074	1.074
0.015	-0.015	0.000	-0.015	-0.049	-0.024	0.029	1.743	1.074	1.074	1.074	1.094	1.084	1.074
0.000	0.005	0.000	-0.015	-0.049	-0.015	0.029	1.792	1.074	1.079	1.074	1.094	1.084	1.079
0.000	0.005	0.000	-0.010	-0.039	-0.020	0.029	1.812	1.079	1.074	1.074	1.094	1.089	1.079
0.000	-0.005	0.000	0.000	-0.024	-0.044	0.029	1.748	1.079	1.074	1.074	1.099	1.094	1.074
-0.005	0.000	-0.005	0.010	0.010	-0.029	0.029	1.772	1.074	1.079	1.074	1.099	1.104	1.084
-0.010	0.020	0.000	0.015	0.093	-0.024	0.029	1.768	1.074	1.079	1.079	1.104	1.123	1.104
-0.015	0.024	-0.010	0.010	0.054	-0.010	0.034	1.792	1.074	1.079	1.079	1.099	1.104	1.104
-0.010	0.015	0.000	0.005	0.044	-0.005	0.029	1.768	1.084	1.079	1.074	1.099	1.104	1.104
-0.015	0.010	-0.005	0.010	0.054	0.015	0.029	1.758	1.084	1.079	1.074	1.094	1.104	1.108
0.000	0.010	0.000	0.005	0.054	-0.005	0.029	1.802	1.089	1.079	1.079	1.094	1.099	1.099
-0.010	0.015	0.000	0.000	0.068	0.029	0.034	1.792	1.089	1.084	1.079	1.094	1.104	1.104
-0.005	0.010	0.005	0.000	0.073	0.024	0.034	1.709	1.084	1.084	1.079	1.094	1.099	1.104
0.005	-0.005	0.005	-0.005	0.010	0.029	0.034	1.792	1.089	1.079	1.079	1.094	1.079	1.094
0.005	-0.015	0.010	-0.010	-0.034	0.015	0.029	1.792	1.089	1.079	1.079	1.094	1.074	1.079
0.005	-0.015	0.005	-0.010	-0.049	0.024	0.029	1.753	1.084	1.079	1.079	1.089	1.069	1.084
0.015	-0.010	0.005	0.000	-0.059	0.024	0.029	1.772	1.084	1.079	1.079	1.094	1.074	1.079
0.005	-0.015	0.005	0.005	0.015	0.005	0.029	1.807	1.079	1.079	1.079	1.099	1.099	1.079
0.015	0.000	0.005	0.010	0.010	0.005	0.029	1.797	1.084	1.084	1.079	1.099	1.094	1.084
0.000	-0.005	0.000	0.024	-0.034	0.000	0.029	1.802	1.084	1.079	1.079	1.104	1.084	1.079
0.005	0.000	0.000	0.024	-0.093	-0.010	0.029	1.763	1.079	1.079	1.079	1.094	1.069	1.069
0.005	0.005	-0.010	0.024	-0.073	-0.024	0.029	1.782	1.074	1.079	1.079	1.099	1.084	1.074
-0.010	0.005	-0.010	0.020	-0.015	-0.015	0.029	1.802	1.074	1.074	1.079	1.099	1.099	1.084
-0.005	0.000	-0.005	0.015	-0.010	0.000	0.029	1.768	1.074	1.074	1.074	1.094	1.099	1.089
-0.005	0.010	-0.005	0.015	-0.020	-0.015	0.029	1.777	1.074	1.079	1.074	1.094	1.094	1.089
-0.005	0.010	-0.010	0.005	0.020	-0.005	0.029	1.802	1.084	1.074	1.074	1.094	1.104	1.094
-0.010	0.000	-0.005	0.000	0.073	0.015	0.029	1.792	1.084	1.079	1.079	1.094	1.118	1.104
0.000	0.010	-0.005	0.000	0.088	-0.005	0.029	1.763	1.084	1.079	1.079	1.094	1.113	1.104
0.000	-0.015	0.000	-0.015	0.029	0.010	0.029	1.772	1.084	1.074	1.079	1.089	1.089	1.099
0.000	-0.024	0.005	-0.015	-0.034	0.005	0.029	1.797	1.089	1.074	1.074	1.089	1.069	1.089
0.010	-0.024	0.005	-0.015	-0.059	-0.010	0.034	1.777	1.089	1.079	1.074	1.089	1.069	1.074
0.010	-0.020	0.000	-0.005	-0.020	-0.029	0.034	1.787	1.079	1.079	1.074	1.094	1.079	1.074
0.005	-0.024	0.005	-0.015	0.010	-0.039	0.029	1.772	1.079	1.074	1.074	1.094	1.089	1.074
0.005	-0.024	0.005	-0.010	0.010	-0.034	0.034	1.782	1.074	1.074	1.074	1.094	1.094	1.084
0.005	-0.029	0.000	-0.005	0.000	-0.005	0.029	1.777	1.074	1.074	1.074	1.094	1.089	1.089
0.005	-0.020	0.000	0.005	-0.015	0.000	0.029	1.787	1.079	1.074	1.079	1.099	1.089	1.089
-0.005	-0.010	0.000	0.015	-0.020	-0.010	0.034	1.802	1.079	1.079	1.074	1.094	1.084	1.084
-0.010	0.000	0.000	0.005	-0.034	0.015	0.034	1.748	1.074	1.079	1.079	1.094	1.084	1.089
-0.015	-0.005	-0.005	0.000	-0.039	-0.010	0.034	1.772	1.079	1.079	1.074	1.094	1.084	1.084
-0.020	0.029	-0.005	-0.005	-0.024	0.000	0.029	1.768	1.079	1.089	1.079	1.094	1.089	1.084
-0.005	0.029	-0.005	-0.005	-0.024	0.005	0.034	1.777	1.084	1.089	1.079	1.094	1.094	1.089
-0.005	0.024	-0.005	-0.005	-0.010	0.020	0.034	1.787	1.084	1.084	1.084	1.094	1.094	1.094
-0.010	0.015	-0.005	-0.010	-0.024	0.010	0.029	1.802	1.084	1.079	1.079	1.094	1.089	1.089
-0.005	0.010	-0.005	-0.010	-0.024	0.024	0.029	1.812	1.089	1.079	1.079	1.099	1.094	1.094
-0.005	0.005	0.000	-0.005	0.049	-0.005	0.029	1.772	1.084	1.079	1.079	1.099	1.113	1.089
0.000	-0.005	0.000	-0.010	0.093	0.029	0.029	1.797	1.089	1.079	1.084	1.099	1.118	1.108
0.005	-0.015	0.005	-0.015	0.049	0.010	0.029	1.802	1.089	1.074	1.079	1.099	1.099	1.094
0.005	-0.010	0.005	-0.010	0.010	-0.005	0.029	1.802	1.094	1.084	1.079	1.099	1.084	1.084
0.010	0.000	0.000	0.000	-0.039	-0.029	0.029	1.763	1.084	1.084	1.079	1.099	1.074	1.079
0.000	-0.005	0.005	-0.010	0.000	-0.024	0.029	1.797	1.089	1.084	1.084	1.094	1.089	1.084
0.005	-0.005	0.005	-0.015	-0.015	-0.039	0.029	1.792	1.084	1.079	1.079	1.094	1.084	1.079
0.005	0.000	0.005	-0.015	-0.005	-0.029	0.029	1.714	1.074	1.084	1.079	1.094	1.094	1.084
-0.005	0.010	-0.005	-0.010	0.034	-0.034	0.029	1.797	1.074	1.079	1.079	1.099	1.104	1.089
-0.005	0.005	-0.005	-0.005	-0.010	-0.034	0.029	1.807	1.079	1.079	1.079	1.099	1.084	1.089
-0.015	0.010	-0.005	-0.005	-0.068	0.005	0.029	1.729	1.074	1.079	1.079	1.094	1.079	1.094
-0.005	0.015	-0.005	0.000	0.029	0.005	0.029	1.816	1.084	1.084	1.079	1.099	1.108	1.094
-0.020	0.010	-0.005	0.000	0.068	0.020	0.029	1.792	1.084	1.079	1.079	1.099	1.113	1.104
-0.015	0.015	-0.005	0.000	0.073	0.024	0.029	1.772	1.079	1.084	1.079	1.099	1.108	1.108
-0.020	0.015	-0.010	0.005	0.029	0.020	0.034	1.763	1.079	1.079	1.079	1.099	1.094	1.104
-0.020	0.010	-0.010	0.000	0.000	0.000	0.029	1.807	1.084	1.079	1.079	1.094	1.084	1.089
-0.005	0.015	-0.005	0.000	-0.010	0.024	0.034	1.777	1.089	1.084	1.079	1.094	1.084	1.094
-0.005	0.000	0.000	0.005	0.029	0.015	0.029	1.724	1.074	1.074	1.079	1.099	1.099	1.094
0.000	-0.005	-0.005	0.000	0.034	-0.005	0.034	1.782	1.084	1.074	1.074	1.099	1.099	1.089
0.005	-0.010	0.000	-0.005	0.015	-0.005	0.034	1.816	1.094	1.079	1.074	1.094	1.089	1.089
0.015	-0.010	0.000	0.000	-0.010	-0.010	0.034	1.733	1.084	1.074	1.074	1.094	1.084	1.079
0.020	-0.005	0.000	0.005	-0.024	0.010	0.029	1.743	1.079	1.074	1.079	1.094	1.084	1.089
0.015	-0.010	0.000	0.015	-0.015	0.015	0.029	1.812	1.084	1.079	1.074	1.099	1.089	1.084
0.015	-0.015	-0.005	0.020	-0.024	0.005	0.034	1.748	1.079	1.079	1.074	1.094	1.089	1.084
0.005	-0.010	-0.005	0.015	-0.034	0.010	0.029	1.792	1.079	1.074	1.074	1.094	1.084	1.084
0.000	-0.005	0.000	0.010	-0.049	0.010	0.029	1.802	1.079	1.079	1.074	1.094	1.084	1.084
0.000	0.000	-0.005	0.020	-0.049	0.000	0.029	1.787	1.084	1.079	1.079	1.094	1.084	1.079
0.000	-0.010	-0.005	0.024	-0.034	0.005	0.034	1.812	1.084	1.079	1.079	1.099	1.089	1.084
0.000	-0.010	0.000	0.024	-0.044	0.000	0.029	1.807	1.089	1.079	1.079	1.094	1.089	1.079
-0.005	0.000	-0.005	0.020	-0.034	0.000	0.029	1.787	1.089	1.084	1.079	1.094	1.094	1.084
0.005	0.005	-0.005	0.020	-0.024	-0.005	0.029	1.792	1.089	1.084	1.084	1.099	1.094	1.089
0.000	0.005	-0.005	0.015	0.000	0.000	0.029	1.782	1.089	1.089	1.084	1.099	1.099	1.089
-0.005	0.005	0.000	0.015	-0.005	-0.020	0.029	1.743	1.079	1.084	1.084	1.099	1.099	1.089
-0.010	-0.005	0.000	0.015	0.044	0.010	0.029	1.797	1.079	1.079	1.084	1.099	1.113	1.104
0.000	0.000	0.000	0.015	0.117	0.015	0.029	1.768	1.089	1.084	1.084	1.104	1.128	1.108
0.000	-0.010	0.005	0.020	0.054	0.005	0.029	1.812	1.094	1.079	1.084	1.104	1.099	1.104
0.005	0.000	0.000	0.010	0.000	0.000	0.029	1.792	1.089	1.084	1.084	1.099	1.084	1.094
0.005	-0.005	0.005	0.005	0.029	0.000	0.034	1.807	1.089	1.084	1.084	1.099	1.099	1.094
0.005	-0.005	0.005	0.005	0.024	-0.005	0.029	1.743	1.089	1.084	1.079	1.099	1.094	1.094
0.005	-0.010	0.010	0.005	-0.010	0.000	0.034	1.772	1.079	1.084	1.084	1.094	1.084	1.089
0.000	-0.005	0.000	0.000	0.015	-0.005	0.029	1.792	1.079	1.079	1.079	1.094	1.089	1.084
0.000	-0.020	-0.005	0.000	0.054	0.000	0.029	1.714	1.074	1.074	1.079	1.099	1.104	1.089
-0.005	0.005	-0.005	-0.005	0.020	-0.005	0.029	1.782	1.074	1.079	1.079	1.094	1.094	1.089
0.000	0.010	-0.005	-0.005	-0.015	-0.005	0.034	1.772	1.079	1.079	1.074	1.094	1.079	1.084
0.005	0.005	-0.005	-0.005	-0.039	-0.010	0.029	1.802	1.079	1.074	1.079	1.094	1.079	1.079
-0.005	0.005	-0.005	-0.005	-0.020	-0.020	0.029	1.753	1.074	1.079	1.079	1.094	1.084	1.079
0.015	0.005	-0.005	-0.005	-0.034	-0.024	0.034	1.763	1.079	1.079	1.079	1.094	1.084	1.079
0.015	0.005	-0.005	-0.005	-0.039	-0.020	0.029	1.763	1.074	1.074	1.074	1.094	1.084	1.084
0.005	0.005	-0.005	-0.005	0.000	-0.024	0.029	1.797	1.079	1.074	1.074	1.094	1.099	1.084
0.010	0.000	-0.010	-0.010	0.015	0.000	0.029	1.792	1.084	1.074	1.074	1.094	1.099	1.094
-0.005	-0.010	-0.005	-0.005	-0.010	0.005	0.029	1.782	1.079	1.069	1.074	1.094	1.089	1.094
0.000	-0.015	0.000	-0.005	-0.073	0.005	0.029	1.797	1.089	1.074	1.074	1.089	1.074	1.089
-0.005	-0.020	0.000	-0.010	-0.088	0.015	0.034	1.777	1.079	1.074	1.074	1.089	1.074	1.084
0.000	-0.015	0.000	-0.015	-0.078	-0.015	0.034	1.792	1.084	1.074	1.074	1.089	1.079	1.074
0.000	-0.024	0.015	-0.015	-0.005	0.005	0.034	1.768	1.084	1.074	1.074	1.094	1.104	1.089
-0.005	-0.010	0.000	-0.015	0.137	0.015	0.029	1.777	1.084	1.079	1.074	1.094	1.133	1.104
0.000	-0.015	0.005	-0.015	0.068	0.005	0.029	1.772	1.084	1.074	1.074	1.094	1.099	1.099
0.000	-0.029	0.000	-0.015	-0.020	0.005	0.034	1.802	1.089	1.079	1.074	1.089	1.074	1.089
-0.005	-0.024	0.000	-0.010	-0.068	-0.005	0.029	1.753	1.079	1.079	1.074	1.089	1.064	1.079
-0.005	-0.015	0.000	-0.010	0.010	0.010	0.029	1.719	1.069	1.079	1.074	1.094	1.099	1.089
-0.010	0.000	-0.005	-0.010	0.054	-0.010	0.029	1.797	1.074	1.079	1.079	1.094	1.104	1.089
-0.015	-0.005	-0.010	-0.010	0.059	-0.005	0.029	1.763	1.064	1.079	1.074	1.094	1.099	1.094
-0.020	0.005	-0.005	-0.015	-0.024	-0.005	0.029	1.802	1.074	1.074	1.079	1.094	1.074	1.084
-0.020	0.010	-0.010	-0.015	-0.063	0.000	0.029	1.792	1.079	1.074	1.074	1.094	1.069	1.079
-0.010	0.005	-0.005	-0.010	-0.044	-0.010	0.029	1.797	1.079	1.079	1.079	1.094	1.079	1.074
-0.024	0.000	-0.005	-0.015	0.005	-0.005	0.029	1.777	1.079	1.074	1.079	1.094	1.094	1.084
-0.010	0.000	-0.005	-0.010	0.024	-0.005	0.029	1.797	1.084	1.074	1.079	1.094	1.099	1.084
-0.010	0.000	-0.010	-0.005	0.039	-0.010	0.029	1.807	1.089	1.079	1.074	1.094	1.104	1.089
-0.005	-0.010	-0.005	-0.010	0.039	-0.005	0.029	1.753	1.084	1.074	1.079	1.094	1.099	1.094
-0.005	-0.005	0.000	-0.010	0.015	0.015	0.029	1.782	1.084	1.079	1.079	1.094	1.094	1.099
-0.005	0.000	0.005	-0.010	0.059	0.005	0.029	1.787	1.084	1.079	1.079	1.099	1.104	1.094
0.005	0.005	0.010	-0.010	0.073	0.005	0.029	1.763	1.084	1.084	1.079	1.099	1.104	1.094
0.005	-0.005	0.005	-0.005	0.000	0.005	0.029	1.753	1.084	1.079	1.079	1.099	1.079	1.089
0.015	-0.010	0.010	-0.005	-0.034	-0.010	0.034	1.758	1.079	1.074	1.079	1.094	1.074	1.084
0.005	-0.010	0.000	0.000	-0.020	0.000	0.029	1.768	1.079	1.079	1.074	1.094	1.079	1.084
0.000	0.005	-0.005	0.000	-0.024	0.005	0.029	1.772	1.079	1.079	1.074	1.094	1.084	1.079
0.005	0.005	0.000	0.000	-0.010	-0.005	0.034	1.758	1.074	1.079	1.079	1.094	1.089	1.084
0.000	0.015	-0.005	0.005	-0.010	0.005	0.034	1.772	1.074	1.074	1.074	1.094	1.089	1.089
-0.005	0.020	0.000	-0.005	-0.015	0.010	0.029	1.797	1.079	1.079	1.079	1.094	1.089	1.084
0.005	0.015	0.000	0.000	-0.068	0.000	0.029	1.748	1.084	1.079	1.079	1.094	1.074	1.084
-0.005	-0.005	-0.015	0.000	-0.049	0.005	0.029	1.763	1.069	1.069	1.074	1.094	1.089	1.084
-0.005	-0.015	-0.010	-0.005	0.000	0.005	0.029	1.792	1.079	1.069	1.069	1.094	1.099	1.089
0.000	-0.015	-0.010	-0.005	-0.010	0.005	0.034	1.807	1.084	1.069	1.069	1.094	1.094	1.084
0.000	-0.015	-0.005	0.000	-0.024	0.000	0.034	1.797	1.084	1.074	1.074	1.094	1.089	1.089
0.000	-0.005	0.005	-0.005	-0.010	-0.020	0.034	1.772	1.084	1.079	1.074	1.089	1.094	1.079
0.005	-0.005	0.000	0.000	0.000	-0.005	0.034	1.768	1.084	1.079	1.079	1.094	1.094	1.094
0.005	0.000	0.005	0.000	0.015	0.010	0.034	1.797	1.084	1.079	1.079	1.094	1.099	1.094
0.015	0.000	0.005	0.000	0.015	0.010	0.029	1.753	1.089	1.079	1.079	1.094	1.094	1.089
0.000	0.005	0.005	0.000	0.015	0.000	0.034	1.738	1.074	1.084	1.079	1.094	1.094	1.089
0.005	0.010	0.005	0.005	0.015	0.000	0.034	1.792	1.079	1.079	1.079	1.094	1.094	1.089
0.000	0.015	0.005	-0.005	0.000	0.005	0.034	1.797	1.084	1.079	1.079	1.094	1.089	1.089
0.010	0.010	0.005	0.000	0.005	0.005	0.034	1.729	1.074	1.079	1.079	1.094	1.089	1.089
0.000	0.005	0.000	0.000	0.000	0.000	0.034	1.782	1.074	1.074	1.079	1.094	1.089	1.089
-0.010	0.010	0.005	0.000	-0.005	0.000	0.034	1.797	1.079	1.074	1.074	1.099	1.089	1.089
-0.015	0.015	-0.005	0.000	-0.005	0.000	0.029	1.787	1.079	1.079	1.074	1.094	1.089	1.089
-0.005	0.024	-0.010	0.000	-0.010	-0.020	0.029	1.729	1.079	1.079	1.074	1.094	1.089	1.079
-0.010	0.024	-0.010	0.000	-0.005	-0.010	0.029	1.777	1.074	1.074	1.079	1.094	1.089	1.089
-0.005	0.024	-0.005	0.000	-0.005	0.000	0.029	1.802	1.079	1.079	1.079	1.094	1.089	1.089
-0.005	0.010	0.000	0.005	0.015	-0.020	0.029	1.758	1.079	1.074	1.079	1.094	1.094	1.089
-0.005	0.015	-0.005	0.000	0.005	-0.024	0.029	1.792	1.079	1.079	1.079	1.094	1.089	1.084
0.005	0.015	0.000	0.005	-0.005	0.000	0.029	1.797	1.084	1.074	1.079	1.094	1.089	1.089
-0.005	-0.010	-0.005	-0.005	-0.010	0.005	0.029	1.753	1.079	1.069	1.074	1.094	1.089	1.089
0.005	-0.010	0.000	0.000	0.000	-0.015	0.029	1.797	1.084	1.069	1.074	1.094	1.089	1.084
0.005	-0.005	0.005	-0.005	0.000	-0.010	0.029	1.792	1.089	1.079	1.074	1.094	1.089	1.084
0.005	-0.015	0.010	-0.005	0.005	0.005	0.029	1.743	1.079	1.074	1.074	1.094	1.089	1.089
0.000	-0.010	0.005	-0.005	0.005	0.005	0.029	1.763	1.079	1.074	1.074	1.094	1.089	1.089
0.000	-0.005	0.005	-0.005	0.005	0.015	0.029	1.797	1.079	1.074	1.074	1.089	1.089	1.089
0.000	0.005	0.005	-0.005	-0.005	0.000	0.029	1.782	1.084	1.079	1.074	1.094	1.084	1.084
0.010	0.010	0.000	0.000	-0.005	0.015	0.029	1.802	1.089	1.084	1.079	1.094	1.089	1.089
-0.005	0.010	0.000	0.000	-0.010	0.005	0.029	1.782	1.084	1.084	1.079	1.094	1.089	1.084
-0.010	0.015	-0.005	0.005	-0.005	0.005	0.029	1.802	1.079	1.084	1.079	1.094	1.089	1.084
-0.015	0.020	0.005	0.005	-0.005	0.000	0.029	1.768	1.079	1.079	1.079	1.099	1.089	1.084
-0.020	0.020	0.000	0.000	0.005	-0.010	0.034	1.758	1.079	1.084	1.079	1.094	1.094	1.084
-0.005	0.010	-0.005	0.000	0.000	0.005	0.029	1.782	1.079	1.079	1.079	1.094	1.094	1.089
-0.010	0.015	-0.010	0.000	0.005	-0.010	0.029	1.812	1.084	1.079	1.079	1.099	1.094	1.084
-0.010	-0.005	-0.005	-0.005	-0.005	0.010	0.029	1.777	1.084	1.074	1.074	1.094	1.089	1.089
0.000	-0.005	-0.005	-0.010	0.000	0.010	0.034	1.763	1.079	1.079	1.079	1.094	1.094	1.089
0.000	-0.015	-0.005	-0.010	-0.005	-0.005	0.029	1.807	1.084	1.074	1.079	1.094	1.089	1.084
0.010	-0.015	0.000	-0.010	0.000	0.010	0.029	1.797	1.089	1.074	1.079	1.094	1.094	1.089
0.010	-0.024	0.000	-0.005	-0.010	-0.005	0.034	1.758	1.084	1.079	1.074	1.094	1.089	1.084
0.010	-0.020	-0.005	0.005	-0.010	0.000	0.029	1.768	1.074	1.074	1.074	1.094	1.094	1.089
0.015	-0.020	0.000	0.005	-0.005	0.010	0.029	1.802	1.079	1.074	1.079	1.099	1.089	1.089
0.005	-0.020	0.005	0.000	0.000	0.000	0.029	1.763	1.079	1.074	1.074	1.094	1.094	1.089
0.015	-0.015	0.000	0.005	0.010	0.005	0.029	1.753	1.084	1.079	1.079	1.094	1.099	1.094
0.010	-0.010	0.000	-0.005	0.024	0.005	0.029	1.802	1.084	1.079	1.074	1.094	1.099	1.089
0.000	0.000	-0.005	0.000	0.015	0.000	0.034	1.768	1.084	1.084	1.074	1.094	1.094	1.089
0.000	0.020	0.000	0.000	0.010	-0.015	0.034	1.777	1.079	1.084	1.079	1.094	1.094	1.089
-0.005	0.020	-0.005	0.005	0.010	0.000	0.029	1.782	1.074	1.079	1.079	1.094	1.089	1.089
-0.015	0.020	0.000	0.000	0.010	0.000	0.029	1.802	1.079	1.079	1.079	1.094	1.089	1.089
-0.024	0.020	0.000	0.005	0.029	0.000	0.034	1.758	1.074	1.079	1.079	1.094	1.099	1.089
-0.020	0.015	-0.005	0.000	0.020	-0.010	0.029	1.787	1.074	1.074	1.074	1.094	1.089	1.089
-0.020	0.005	-0.005	0.000	-0.015	0.000	0.034	1.787	1.074	1.074	1.074	1.094	1.084	1.089
-0.020	0.005	0.000	-0.005	-0.010	0.005	0.029	1.768	1.084	1.074	1.074	1.094	1.089	1.089
0.005	-0.005	0.000	0.000	-0.010	0.005	0.029	1.733	1.079	1.074	1.074	1.094	1.089	1.089
0.005	-0.015	-0.005	0.000	-0.015	-0.005	0.029	1.802	1.084	1.074	1.074	1.094	1.084	1.084
0.005	-0.010	0.000	-0.005	-0.005	-0.020	0.029	1.787	1.084	1.074	1.074	1.094	1.089	1.084
0.005	-0.005	0.005	-0.005	0.005	-0.020	0.029	1.802	1.084	1.074	1.074	1.094	1.094	1.089
0.015	-0.020	0.010	-0.005	0.000	-0.020	0.029	1.763	1.079	1.074	1.074	1.094	1.089	1.079
0.010	-0.020	0.000	-0.010	0.010	0.000	0.029	1.797	1.084	1.074	1.074	1.094	1.094	1.089
0.005	-0.015	0.005	0.000	0.010	0.010	0.029	1.782	1.079	1.074	1.079	1.094	1.089	1.094
0.015	-0.010	0.010	-0.005	-0.005	0.010	0.029	1.802	1.084	1.074	1.074	1.094	1.089	1.089
0.020	-0.010	0.000	-0.010	0.000	-0.005	0.029	1.792	1.084	1.079	1.074	1.089	1.089	1.084
0.005	0.005	-0.005	0.000	-0.015	-0.005	0.034	1.787	1.079	1.084	1.079	1.094	1.084	1.084
0.005	0.010	-0.005	0.000	0.015	-0.010	0.029	1.782	1.084	1.084	1.079	1.094	1.094	1.084
-0.005	0.005	-0.005	0.000	0.010	0.005	0.029	1.807	1.084	1.084	1.079	1.094	1.089	1.089
-0.010	0.000	-0.005	-0.005	-0.029	0.000	0.034	1.758	1.079	1.079	1.079	1.094	1.079	1.079
-0.015	-0.005	-0.010	-0.005	-0.029	-0.024	0.034	1.797	1.084	1.079	1.079	1.094	1.084	1.074
-0.020	0.005	-0.005	0.000	-0.005	0.010	0.029	1.763	1.079	1.079	1.079	1.094	1.094	1.094
-0.005	0.020	-0.005	0.000	0.039	0.005	0.034	1.768	1.084	1.084	1.084	1.099	1.104	1.094
-0.010	0.005	-0.005	0.000	0.029	-0.010	0.034	1.777	1.084	1.079	1.079	1.099	1.099	1.089
-0.010	-0.005	-0.005	-0.005	0.005	0.015	0.029	1.802	1.084	1.074	1.079	1.099	1.089	1.094
-0.010	-0.020	0.000	0.000	0.005	0.010	0.029	1.792	1.084	1.074	1.074	1.094	1.094	1.089
0.005	-0.024	0.000	-0.005	0.010	-0.005	0.029	1.797	1.089	1.074	1.074	1.094	1.094	1.089
0.005	-0.029	0.000	-0.010	0.005	0.005	0.029	1.748	1.084	1.074	1.074	1.089	1.089	1.089
0.005	-0.020	0.005	-0.010	-0.015	-0.015	0.029	1.802	1.084	1.079	1.074	1.094	1.084	1.079
0.000	-0.015	0.000	-0.010	-0.015	-0.020	0.029	1.763	1.079	1.079	1.074	1.094	1.084	1.079
-0.005	-0.024	0.000	-0.005	-0.020	-0.005	0.034	1.753	1.074	1.074	1.074	1.094	1.084	1.084
0.005	-0.020	0.010	-0.005	-0.044	-0.029	0.034	1.777	1.074	1.074	1.079	1.094	1.079	1.079
0.005	-0.005	0.005	-0.005	-0.029	-0.005	0.029	1.792	1.074	1.079	1.079	1.094	1.084	1.084
-0.005	0.005	0.000	-0.010	-0.044	-0.024	0.029	1.758	1.079	1.079	1.074	1.094	1.079	1.074
0.000	0.010	0.005	-0.010	-0.088	0.000	0.034	1.768	1.079	1.079	1.074	1.094	1.069	1.079
0.000	0.010	-0.005	-0.005	-0.034	0.000	0.029	1.763	1.079	1.079	1.079	1.094	1.094	1.084
-0.010	0.010	0.000	-0.005	0.112	0.005	0.034	1.792	1.079	1.079	1.079	1.099	1.133	1.099
-0.010	0.015	0.000	-0.005	0.049	0.010	0.034	1.802	1.084	1.079	1.079	1.094	1.104	1.104
-0.010	0.020	-0.005	0.000	0.107	0.000	0.029	1.768	1.084	1.084	1.079	1.099	1.123	1.104
-0.015	0.005	0.000	-0.005	0.073	0.015	0.029	1.772	1.084	1.079	1.079	1.094	1.099	1.104
-0.005	0.000	-0.005	0.000	-0.005	0.010	0.029	1.797	1.089	1.079	1.079	1.094	1.079	1.094
-0.005	0.010	0.005	0.000	-0.029	-0.015	0.034	1.777	1.084	1.084	1.079	1.094	1.074	1.079
0.015	0.015	0.005	-0.005	-0.020	0.005	0.029	1.802	1.089	1.084	1.079	1.094	1.084	1.084
0.000	-0.005	0.005	-0.005	0.044	0.005	0.034	1.782	1.089	1.079	1.079	1.099	1.104	1.089
0.005	-0.015	0.005	-0.010	0.049	-0.005	0.029	1.777	1.084	1.074	1.074	1.094	1.104	1.089
0.010	-0.010	0.005	-0.010	0.024	0.005	0.029	1.758	1.084	1.079	1.079	1.094	1.089	1.089
0.000	-0.005	0.000	-0.010	-0.010	-0.005	0.034	1.802	1.079	1.079	1.079	1.094	1.079	1.084
0.015	-0.005	0.005	-0.010	-0.034	-0.005	0.029	1.797	1.084	1.079	1.079	1.094	1.074	1.079
0.010	-0.005	0.000	-0.005	-0.024	-0.005	0.029	1.704	1.074	1.074	1.074	1.094	1.084	1.079
0.010	-0.015	0.005	-0.005	-0.015	0.000	0.029	1.787	1.074	1.074	1.074	1.094	1.089	1.084
0.005	-0.005	0.000	-0.005	-0.005	-0.005	0.029	1.797	1.079	1.074	1.074	1.094	1.089	1.079
0.000	0.000	-0.005	-0.005	0.000	0.000	0.029	1.787	1.074	1.069	1.074	1.094	1.094	1.084
0.000	0.010	-0.005	0.005	-0.015	0.000	0.029	1.719	1.074	1.074	1.074	1.094	1.089	1.084
-0.015	0.024	-0.005	0.000	-0.015	0.000	0.029	1.777	1.074	1.079	1.079	1.094	1.089	1.084
-0.010	0.020	-0.005	-0.005	-0.015	0.000	0.029	1.792	1.084	1.079	1.074	1.094	1.089	1.084
-0.010	-0.005	-0.005	0.000	-0.005	0.005	0.029	1.807	1.074	1.069	1.074	1.094	1.094	1.089
-0.010	-0.015	-0.005	0.000	0.000	0.000	0.029	1.792	1.084	1.069	1.069	1.094	1.094	1.089
-0.005	-0.010	-0.010	-0.005	-0.005	0.000	0.029	1.758	1.084	1.074	1.069	1.094	1.089	1.089
0.000	-0.005	0.000	0.000	0.000	0.000	0.029	1.787	1.084	1.079	1.079	1.094	1.089	1.089
0.000	-0.020	0.000	-0.005	-0.010	0.005	0.029	1.792	1.084	1.069	1.074	1.094	1.089	1.089
0.015	-0.020	0.000	-0.005	-0.010	0.000	0.029	1.748	1.079	1.074	1.074	1.089	1.089	1.084
0.005	-0.010	0.000	-0.020	-0.015	0.000	0.029	1.797	1.079	1.074	1.074	1.089	1.084	1.084
0.005	0.000	0.005	-0.015	-0.010	0.010	0.029	1.768	1.079	1.079	1.074	1.089	1.089	1.089
0.000	-0.029	0.005	-0.015	-0.010	0.005	0.034	1.782	1.084	1.069	1.074	1.089	1.084	1.084
0.010	-0.015	0.000	-0.010	-0.010	0.000	0.029	1.772	1.084	1.079	1.074	1.094	1.084	1.084
0.010	-0.010	0.005	-0.005	-0.005	0.000	0.029	1.792	1.084	1.079	1.074	1.094	1.089	1.084
0.005	-0.020	-0.005	0.000	-0.005	0.000	0.029	1.802	1.084	1.074	1.074	1.094	1.089	1.084
-0.005	-0.010	0.000	0.000	0.000	0.010	0.034	1.812	1.084	1.079	1.079	1.094	1.094	1.089
-0.010	0.005	-0.005	0.005	-0.005	0.000	0.029	1.797	1.084	1.079	1.074	1.094	1.089	1.084
-0.015	0.005	-0.010	0.005	0.000	0.000	0.034	1.777	1.079	1.084	1.079	1.099	1.094	1.089
-0.010	-0.005	-0.015	0.010	-0.005	-0.005	0.029	1.797	1.084	1.079	1.074	1.094	1.089	1.089
0.000	-0.005	-0.005	0.005	-0.005	0.000	0.029	1.802	1.089	1.079	1.079	1.094	1.089	1.089
0.020	0.000	-0.005	0.005	-0.005	0.005	0.034	1.816	1.094	1.089	1.079	1.094	1.094	1.089
0.005	0.000	-0.005	0.005	0.000	0.000	0.034	1.807	1.094	1.089	1.084	1.094	1.094	1.089
0.005	-0.005	-0.010	0.005	0.000	-0.029	0.034	1.802	1.094	1.084	1.084	1.099	1.089	1.084
0.010	-0.005	0.000	0.000	0.005	-0.010	0.034	1.772	1.084	1.089	1.084	1.099	1.094	1.089
0.005	-0.015	0.000	0.005	0.005	0.000	0.029	1.763	1.079	1.079	1.084	1.099	1.094	1.089
-0.005	0.000	0.000	0.005	0.005	0.000	0.029	1.792	1.079	1.079	1.084	1.099	1.094	1.094
-0.005	-0.005	0.005	0.005	0.000	-0.005	0.029	1.768	1.079	1.079	1.079	1.099	1.094	1.089
-0.020	-0.010	0.005	0.005	0.005	-0.015	0.029	1.743	1.074	1.079	1.079	1.099	1.094	1.089
-0.015	0.024	0.000	0.005	0.000	0.000	0.029	1.797	1.079	1.084	1.079	1.099	1.094	1.094
-0.020	0.010	0.005	0.005	-0.005	-0.020	0.029	1.792	1.079	1.074	1.079	1.099	1.094	1.089
-0.020	0.024	0.005	0.005	-0.005	0.000	0.029	1.792	1.084	1.079	1.079	1.099	1.094	1.094
-0.024	0.024	0.010	0.005	-0.005	0.005	0.029	1.748	1.074	1.079	1.079	1.099	1.094	1.094
-0.024	0.029	0.000	0.005	0.005	0.000	0.029	1.782	1.074	1.079	1.079	1.094	1.094	1.094
-0.034	0.029	0.000	0.000	0.005	-0.020	0.029	1.797	1.079	1.079	1.079	1.094	1.094	1.089
-0.024	0.024	-0.005	0.005	0.005	0.010	0.029	1.807	1.084	1.079	1.074	1.094	1.094	1.094
-0.020	0.024	-0.005	0.010	0.005	0.000	0.029	1.685	1.079	1.079	1.074	1.099	1.094	1.094
-0.020	0.015	-0.010	0.005	0.005	0.000	0.029	1.792	1.079	1.074	1.074	1.094	1.094	1.094
-0.010	0.015	-0.005	0.000	-0.005	0.005	0.029	1.792	1.079	1.079	1.074	1.094	1.089	1.089
-0.005	-0.015	-0.005	0.000	-0.005	-0.015	0.029	1.831	1.089	1.069	1.074	1.089	1.089	1.084
0.005	-0.020	-0.005	0.005	0.005	0.010	0.029	1.768	1.084	1.074	1.074	1.094	1.094	1.094
0.010	-0.020	0.000	0.000	0.000	0.010	0.029	1.807	1.089	1.074	1.074	1.094	1.089	1.089
0.015	-0.010	0.000	0.000	-0.005	0.000	0.029	1.748	1.079	1.079	1.079	1.094	1.089	1.089
0.015	-0.024	-0.005	0.005	0.000	-0.020	0.029	1.802	1.079	1.074	1.074	1.094	1.089	1.084
0.015	-0.015	0.005	0.000	0.000	0.005	0.029	1.802	1.084	1.074	1.074	1.094	1.089	1.084
0.015	-0.010	0.010	-0.005	-0.005	0.005	0.029	1.758	1.084	1.079	1.074	1.094	1.089	1.089
0.005	-0.015	0.005	0.005	-0.005	-0.020	0.029	1.777	1.079	1.079	1.074	1.094	1.084	1.079
0.015	-0.005	0.000	0.005	-0.010	-0.005	0.034	1.807	1.084	1.079	1.079	1.094	1.089	1.084
0.010	0.000	0.005	0.000	-0.005	-0.005	0.029	1.753	1.079	1.079	1.079	1.094	1.089	1.084
0.005	-0.005	-0.005	0.005	-0.005	0.010	0.029	1.792	1.079	1.079	1.079	1.094	1.089	1.089
0.005	0.010	0.000	0.005	0.000	0.010	0.029	1.816	1.084	1.084	1.079	1.099	1.094	1.089
0.005	0.015	-0.005	0.010	0.000	-0.010	0.034	1.743	1.079	1.084	1.079	1.094	1.089	1.084
0.000	0.020	-0.010	0.015	0.005	-0.010	0.034	1.748	1.074	1.084	1.079	1.099	1.094	1.084
-0.005	0.024	-0.010	0.000	0.005	0.005	0.034	1.797	1.074	1.079	1.079	1.094	1.094	1.094
0.000	0.010	-0.005	0.000	0.000	0.005	0.029	1.802	1.089	1.079	1.079	1.094	1.094	1.094
0.005	0.015	0.000	0.000	0.000	-0.005	0.034	1.772	1.084	1.079	1.079	1.099	1.094	1.089
0.000	0.005	-0.005	0.005	0.000	-0.020	0.029	1.743	1.079	1.074	1.079	1.094	1.094	1.084
0.005	0.000	-0.005	0.000	0.005	0.005	0.029	1.812	1.084	1.074	1.074	1.094	1.094	1.094
0.005	-0.005	0.000	-0.005	-0.005	-0.005	0.029	1.797	1.089	1.074	1.074	1.094	1.089	1.089
0.005	-0.015	0.000	0.000	-0.005	0.005	0.029	1.748	1.079	1.074	1.074	1.094	1.089	1.089
0.020	-0.015	0.000	0.000	-0.005	-0.015	0.029	1.792	1.084	1.074	1.074	1.094	1.089	1.084
0.010	-0.029	0.010	-0.005	-0.005	0.005	0.029	1.797	1.079	1.069	1.074	1.094	1.089	1.089
0.005	-0.020	0.010	0.000	-0.005	-0.005	0.034	1.836	1.089	1.079	1.074	1.094	1.089	1.089
0.005	-0.034	-0.005	0.000	0.005	-0.005	0.029	1.768	1.079	1.069	1.069	1.094	1.089	1.084
0.005	-0.005	0.000	0.000	0.005	0.015	0.029	1.797	1.084	1.079	1.074	1.094	1.089	1.089
-0.005	0.000	0.005	-0.005	0.005	0.000	0.029	1.753	1.079	1.084	1.079	1.094	1.089	1.084
0.000	0.020	0.000	0.000	0.010	-0.005	0.034	1.748	1.074	1.089	1.079	1.094	1.089	1.089
-0.005	0.020	-0.005	0.000	0.005	-0.029	0.034	1.797	1.074	1.079	1.079	1.094	1.089	1.084
0.000	-0.010	0.000	0.010	-0.005	0.005	0.034	1.787	1.079	1.074	1.074	1.099	1.089	1.089
-0.010	0.005	0.000	0.000	-0.005	-0.010	0.034	1.797	1.079	1.079	1.079	1.094	1.089	1.089
-0.010	0.000	-0.010	0.000	0.000	0.005	0.029	1.772	1.079	1.074	1.074	1.094	1.089	1.089
0.000	0.005	0.000	0.000	-0.005	0.000	0.029	1.787	1.079	1.079	1.079	1.094	1.089	1.089
0.000	0.020	-0.005	0.000	0.000	0.005	0.029	1.787	1.084	1.084	1.079	1.094	1.094	1.089
-0.010	0.020	0.000	0.005	0.000	0.010	0.029	1.782	1.084	1.079	1.079	1.094	1.094	1.089
0.000	0.010	-0.005	0.000	0.005	-0.015	0.029	1.772	1.084	1.079	1.079	1.094	1.094	1.084
0.000	0.005	-0.005	0.000	0.005	0.005	0.034	1.787	1.084	1.079	1.079	1.094	1.089	1.089
0.005	-0.005	0.000	0.000	0.005	0.000	0.029	1.797	1.089	1.074	1.079	1.094	1.089	1.084
0.005	-0.015	0.005	-0.005	0.000	0.005	0.029	1.797	1.084	1.079	1.074	1.094	1.089	1.089
0.010	-0.015	0.000	-0.005	-0.005	-0.010	0.034	1.738	1.074	1.074	1.074	1.094	1.089	1.084
0.010	-0.020	0.000	0.000	-0.005	-0.005	0.029	1.797	1.074	1.069	1.074	1.094	1.089	1.084
0.000	-0.020	0.000	-0.005	0.000	-0.020	0.029	1.792	1.074	1.069	1.069	1.089	1.089	1.079
0.005	-0.015	-0.005	-0.005	0.000	0.000	0.034	1.719	1.069	1.074	1.069	1.094	1.089	1.089
0.005	-0.020	0.000	0.000	0.000	0.010	0.029	1.768	1.069	1.069	1.069	1.094	1.084	1.089
-0.005	-0.005	0.000	-0.005	-0.005	0.000	0.029	1.816	1.079	1.074	1.069	1.094	1.084	1.084
-0.005	-0.010	-0.005	0.010	-0.005	0.010	0.029	1.748	1.074	1.079	1.074	1.094	1.089	1.089
-0.010	0.010	-0.005	0.015	-0.005	-0.005	0.029	1.807	1.079	1.079	1.074	1.094	1.089	1.084
-0.010	0.024	-0.005	0.015	0.005	0.010	0.029	1.792	1.084	1.084	1.074	1.094	1.094	1.089
-0.010	0.020	-0.005	0.015	0.000	-0.015	0.029	1.797	1.084	1.079	1.079	1.094	1.089	1.084
-0.010	0.029	-0.005	0.015	-0.010	0.010	0.029	1.748	1.074	1.084	1.079	1.094	1.089	1.089
-0.005	0.024	-0.005	0.015	0.000	0.000	0.029	1.797	1.079	1.079	1.079	1.094	1.089	1.089
-0.005	0.020	0.000	0.005	0.000	0.005	0.029	1.792	1.084	1.074	1.079	1.094	1.094	1.089
-0.005	0.000	0.000	0.010	0.005	0.005	0.029	1.709	1.079	1.074	1.074	1.094	1.094	1.089
0.005	-0.005	0.005	0.005	0.005	0.005	0.029	1.743	1.074	1.074	1.074	1.094	1.094	1.089
0.005	-0.005	0.000	0.005	0.005	0.000	0.029	1.802	1.079	1.069	1.074	1.094	1.089	1.089
-0.005	-0.015	0.005	-0.005	0.005	0.005	0.029	1.787	1.079	1.069	1.069	1.089	1.089	1.089
-0.005	-0.015	0.000	-0.005	0.000	-0.005	0.029	1.802	1.079	1.069	1.069	1.089	1.084	1.084
-0.010	-0.010	0.010	-0.005	0.000	0.000	0.029	1.743	1.074	1.069	1.069	1.089	1.084	1.084
-0.005	-0.020	0.010	-0.005	-0.005	-0.015	0.034	1.758	1.069	1.069	1.069	1.089	1.084	1.084
0.000	-0.005	-0.005	-0.005	0.000	0.005	0.029	1.787	1.074	1.074	1.069	1.089	1.084	1.084
-0.020	-0.005	-0.005	-0.005	-0.005	0.000	0.029	1.792	1.079	1.074	1.069	1.089	1.084	1.084
-0.010	0.005	0.000	-0.005	0.000	0.000	0.029	1.748	1.074	1.074	1.069	1.089	1.089	1.079
-0.020	0.015	-0.005	-0.005	0.000	-0.005	0.034	1.753	1.069	1.074	1.074	1.089	1.084	1.084
-0.020	0.010	-0.010	0.000	-0.005	-0.005	0.034	1.782	1.074	1.074	1.074	1.089	1.084	1.079
-0.015	0.015	-0.010	-0.005	0.005	-0.010	0.034	1.802	1.079	1.074	1.074	1.089	1.089	1.079
-0.005	0.005	-0.005	-0.005	0.010	0.000	0.029	1.768	1.079	1.074	1.074	1.089	1.089	1.084
0.010	0.005	-0.005	-0.015	-0.005	-0.005	0.034	1.787	1.084	1.074	1.074	1.089	1.084	1.084
0.005	0.000	0.000	-0.010	-0.005	-0.005	0.034	1.782	1.079	1.079	1.074	1.089	1.084	1.079
0.000	-0.010	0.000	-0.015	-0.015	-0.005	0.034	1.753	1.074	1.074	1.074	1.089	1.079	1.079
0.000	-0.005	0.000	-0.015	-0.005	-0.015	0.034	1.797	1.074	1.074	1.074	1.089	1.084	1.079
0.000	-0.015	0.005	-0.015	0.005	0.015	0.029	1.797	1.084	1.069	1.074	1.094	1.089	1.089
0.010	-0.015	0.005	-0.010	0.005	0.005	0.034	1.807	1.084	1.074	1.074	1.094	1.089	1.084
0.010	-0.020	0.010	-0.005	0.005	0.000	0.029	1.768	1.079	1.074	1.074	1.089	1.089	1.084
0.010	-0.020	0.010	-0.005	0.000	-0.005	0.029	1.797	1.084	1.074	1.074	1.094	1.084	1.084
0.000	-0.024	0.005	0.005	0.005	-0.010	0.029	1.772	1.079	1.074	1.069	1.094	1.089	1.079
0.000	-0.015	0.005	0.005	0.000	-0.005	0.029	1.768	1.074	1.074	1.069	1.094	1.089	1.084
-0.005	-0.010	0.005	0.005	0.005	0.005	0.034	1.792	1.074	1.074	1.074	1.094	1.089	1.089
-0.010	-0.005	-0.005	0.000	-0.005	-0.020	0.029	1.812	1.079	1.074	1.074	1.089	1.084	1.079
-0.005	0.005	0.000	0.005	-0.005	-0.005	0.029	1.758	1.079	1.079	1.074	1.094	1.089	1.084
0.000	0.000	-0.005	0.005	0.000	-0.005	0.029	1.763	1.074	1.079	1.074	1.094	1.089	1.089
-0.010	0.005	-0.005	0.005	0.000	-0.010	0.034	1.748	1.069	1.079	1.074	1.094	1.089	1.084
-0.020	0.010	-0.005	0.005	0.000	0.010	0.029	1.792	1.074	1.074	1.074	1.094	1.089	1.089
-0.015	0.010	-0.005	0.005	0.000	0.015	0.029	1.802	1.074	1.074	1.074	1.094	1.089	1.089
-0.005	0.010	-0.005	0.015	0.000	0.000	0.034	1.753	1.074	1.074	1.074	1.094	1.089	1.084
-0.010	0.000	-0.005	0.024	0.000	0.010	0.029	1.772	1.079	1.074	1.074	1.094	1.094	1.089
0.000	-0.005	-0.005	0.020	-0.005	0.000	0.034	1.787	1.074	1.069	1.074	1.094	1.089	1.089
0.010	-0.010	0.000	0.010	-0.005	-0.010	0.034	1.792	1.084	1.074	1.074	1.089	1.089	1.084
0.010	-0.020	0.000	0.010	0.000	0.005	0.029	1.792	1.079	1.069	1.074	1.094	1.089	1.089
0.010	-0.024	0.005	0.015	0.005	0.000	0.034	1.792	1.079	1.069	1.074	1.089	1.089	1.089
0.010	-0.020	0.000	0.005	0.005	-0.005	0.029	1.812	1.084	1.074	1.069	1.089	1.089	1.084
0.015	-0.015	0.000	0.005	0.000	0.000	0.029	1.675	1.074	1.079	1.074	1.089	1.084	1.084
0.020	-0.015	0.005	0.005	0.000	-0.005	0.029	1.733	1.069	1.074	1.074	1.089	1.084	1.084
0.015	0.015	0.005	0.000	0.000	0.005	0.029	1.792	1.074	1.079	1.074	1.089	1.084	1.084
0.005	0.000	0.000	0.000	-0.005	0.005	0.029	1.807	1.079	1.074	1.074	1.089	1.084	1.084
-0.005	0.000	0.000	0.005	0.005	-0.005	0.029	1.680	1.069	1.074	1.074	1.089	1.089	1.079
-0.005	0.020	-0.005	0.000	0.000	0.005	0.029	1.782	1.074	1.074	1.074	1.089	1.084	1.084
-0.005	0.010	0.000	0.000	0.000	-0.015	0.029	1.797	1.074	1.069	1.074	1.089	1.084	1.079
-0.015	0.005	-0.005	0.000	0.000	-0.005	0.029	1.802	1.079	1.069	1.069	1.094	1.084	1.079
-0.005	0.000	-0.010	0.000	0.005	-0.020	0.029	1.763	1.074	1.069	1.069	1.089	1.089	1.079
-0.005	0.010	-0.005	0.000	0.000	0.010	0.029	1.792	1.079	1.074	1.074	1.089	1.089	1.089
-0.005	0.015	-0.005	-0.005	0.000	0.010	0.029	1.758	1.079	1.079	1.074	1.089	1.084	1.089
0.005	0.000	0.000	0.000	0.000	0.005	0.029	1.782	1.079	1.074	1.074	1.089	1.089	1.084
0.010	0.000	0.000	-0.005	0.000	0.000	0.029	1.772	1.079	1.074	1.069	1.089	1.084	1.079
0.010	-0.005	-0.005	-0.005	0.005	0.000	0.029	1.777	1.079	1.069	1.074	1.089	1.084	1.079
0.010	-0.039	0.000	-0.010	0.000	0.005	0.034	1.772	1.074	1.060	1.069	1.089	1.084	1.084
0.015	-0.039	0.000	-0.005	0.005	-0.010	0.029	1.768	1.079	1.064	1.069	1.089	1.084	1.074
0.010	-0.039	0.005	-0.005	0.000	0.000	0.029	1.748	1.074	1.064	1.069	1.089	1.084	1.084
0.015	-0.024	0.000	-0.010	0.000	0.000	0.029	1.802	1.079	1.069	1.069	1.089	1.079	1.079
0.005	-0.010	0.000	-0.005	0.000	-0.010	0.034	1.777	1.079	1.074	1.069	1.089	1.084	1.079
0.005	-0.010	0.000	-0.005	-0.005	0.000	0.029	1.753	1.074	1.074	1.069	1.089	1.084	1.084
-0.010	0.005	-0.005	-0.005	-0.005	0.005	0.029	1.763	1.074	1.074	1.074	1.089	1.084	1.079
-0.005	0.015	-0.005	-0.005	-0.005	-0.020	0.029	1.729	1.074	1.079	1.074	1.089	1.084	1.074
-0.010	0.010	0.000	0.000	0.005	0.005	0.029	1.787	1.074	1.074	1.074	1.094	1.084	1.084
-0.010	0.010	-0.005	0.000	0.005	0.000	0.034	1.753	1.074	1.074	1.074	1.094	1.089	1.079
-0.020	0.020	-0.005	0.000	0.000	0.000	0.034	1.738	1.069	1.079	1.074	1.089	1.089	1.084
-0.010	0.015	-0.005	0.000	0.000	-0.010	0.029	1.792	1.074	1.074	1.074	1.089	1.084	1.079
-0.015	0.029	-0.005	-0.005	0.005	-0.010	0.029	1.802	1.079	1.074	1.074	1.094	1.089	1.084
-0.015	0.029	0.000	0.000	0.000	0.000	0.034	1.768	1.079	1.079	1.074	1.094	1.089	1.084
-0.005	0.024	0.000	-0.005	-0.005	-0.015	0.034	1.797	1.079	1.074	1.079	1.089	1.084	1.084
-0.005	0.005	0.000	-0.010	-0.010	0.000	0.029	1.787	1.084	1.074	1.074	1.094	1.084	1.084
0.010	0.000	0.000	-0.010	-0.010	0.000	0.029	1.802	1.089	1.074	1.079	1.089	1.084	1.084
-0.005	-0.010	0.005	-0.005	-0.005	-0.010	0.029	1.763	1.079	1.074	1.074	1.094	1.089	1.079
0.005	-0.010	0.000	-0.005	0.000	-0.010	0.029	1.792	1.079	1.074	1.074	1.089	1.089	1.084
-0.005	0.000	0.000	-0.010	0.000	0.005	0.029	1.807	1.079	1.074	1.074	1.089	1.089	1.084
0.005	0.005	0.005	-0.010	-0.005	0.015	0.029	1.802	1.084	1.079	1.074	1.094	1.089	1.089
0.000	-0.005	0.000	-0.005	0.005	-0.024	0.029	1.758	1.074	1.074	1.074	1.094	1.089	1.079
0.005	-0.005	-0.005	-0.005	0.010	0.005	0.029	1.802	1.074	1.074	1.074	1.094	1.089	1.089
-0.010	0.010	0.000	-0.005	0.000	0.010	0.029	1.797	1.079	1.074	1.074	1.094	1.084	1.089
-0.015	0.020	0.005	0.005	0.000	0.005	0.029	1.748	1.074	1.079	1.074	1.094	1.089	1.084
-0.005	0.015	0.000	0.000	0.005	-0.015	0.029	1.777	1.069	1.074	1.074	1.094	1.089	1.079
-0.005	0.010	0.000	0.000	0.000	0.005	0.029	1.802	1.079	1.074	1.074	1.094	1.089	1.089
-0.010	0.000	0.000	0.000	0.000	0.005	0.029	1.777	1.084	1.074	1.074	1.094	1.089	1.089
0.000	0.000	-0.005	0.005	0.000	-0.005	0.029	1.685	1.074	1.074	1.074	1.094	1.089	1.089
0.000	0.000	-0.010	0.000	0.005	0.010	0.029	1.792	1.074	1.074	1.074	1.094	1.089	1.089
0.000	-0.005	-0.005	0.005	-0.005	0.000	0.029	1.777	1.079	1.074	1.074	1.094	1.089	1.089
0.005	-0.010	-0.005	0.005	0.000	0.000	0.029	1.802	1.084	1.069	1.074	1.094	1.089	1.084
0.015	-0.005	-0.005	0.000	0.000	-0.010	0.029	1.802	1.089	1.074	1.074	1.089	1.089	1.084
0.010	-0.015	-0.005	0.000	0.005	0.005	0.029	1.787	1.084	1.074	1.074	1.089	1.089	1.089
0.010	-0.024	0.000	0.010	0.000	0.005	0.034	1.797	1.089	1.074	1.074	1.094	1.089	1.084
0.020	-0.024	0.000	0.005	-0.005	0.000	0.029	1.807	1.089	1.079	1.074	1.094	1.089	1.084
0.010	-0.020	0.000	0.005	0.000	-0.010	0.029	1.787	1.084	1.079	1.074	1.089	1.084	1.079
0.005	-0.020	0.000	0.005	-0.005	-0.015	0.029	1.792	1.084	1.079	1.079	1.094	1.084	1.079
0.010	-0.020	0.000	0.010	-0.005	-0.005	0.034	1.807	1.084	1.079	1.074	1.094	1.089	1.089
-0.005	0.000	0.000	0.005	-0.015	0.015	0.029	1.812	1.084	1.084	1.079	1.094	1.089	1.089
0.000	0.010	-0.005	0.015	-0.010	0.010	0.029	1.787	1.079	1.084	1.079	1.094	1.089	1.089
0.000	0.015	0.000	0.005	0.000	0.005	0.034	1.802	1.084	1.084	1.084	1.099	1.094	1.089
-0.005	0.020	0.000	0.010	0.010	0.005	0.034	1.807	1.084	1.089	1.084	1.099	1.094	1.089
-0.005	0.015	0.000	0.015	0.010	-0.005	0.034	1.782	1.084	1.084	1.084	1.099	1.094	1.089
-0.010	0.015	-0.010	0.010	0.010	0.010	0.029	1.812	1.089	1.084	1.079	1.099	1.094	1.094
-0.015	0.005	-0.005	0.010	0.005	0.000	0.034	1.772	1.084	1.084	1.084	1.099	1.094	1.089
0.000	-0.005	-0.005	0.010	0.005	-0.020	0.034	1.782	1.084	1.079	1.084	1.099	1.094	1.084
-0.005	0.000	0.000	0.005	0.005	-0.015	0.029	1.797	1.084	1.079	1.079	1.099	1.094	1.089
-0.005	0.005	-0.005	0.005	-0.005	0.000	0.029	1.782	1.089	1.084	1.079	1.099	1.094	1.094
0.000	-0.005	-0.005	0.000	-0.005	0.015	0.029	1.797	1.089	1.079	1.079	1.099	1.094	1.094
0.005	-0.015	0.000	-0.005	0.005	0.005	0.029	1.792	1.089	1.079	1.079	1.094	1.094	1.094
0.000	-0.024	0.000	0.000	-0.005	-0.010	0.029	1.753	1.079	1.074	1.079	1.094	1.089	1.089
0.010	-0.020	0.005	0.000	0.000	0.005	0.029	1.758	1.079	1.079	1.079	1.099	1.094	1.089
0.010	0.000	0.000	0.000	0.000	0.005	0.029	1.772	1.079	1.084	1.084	1.094	1.094	1.094
0.000	-0.005	0.000	0.000	0.000	-0.020	0.029	1.792	1.079	1.079	1.079	1.099	1.089	1.089
0.000	0.005	0.000	-0.005	0.000	0.005	0.029	1.797	1.084	1.079	1.079	1.094	1.094	1.089
-0.005	0.000	0.000	0.000	-0.005	0.005	0.029	1.758	1.079	1.079	1.079	1.094	1.094	1.089
-0.020	-0.005	0.000	0.000	0.000	0.000	0.029	1.772	1.074	1.079	1.079	1.094	1.094	1.089
-0.010	0.020	-0.005	0.000	-0.005	-0.015	0.034	1.797	1.079	1.084	1.084	1.094	1.094	1.089
-0.010	0.034	-0.005	0.000	-0.005	-0.010	0.029	1.763	1.079	1.084	1.084	1.099	1.089	1.089
-0.020	0.024	-0.005	0.005	-0.005	-0.015	0.029	1.787	1.074	1.079	1.079	1.099	1.094	1.084
-0.010	0.029	-0.010	0.005	-0.005	0.000	0.029	1.763	1.074	1.079	1.079	1.099	1.094	1.094
-0.005	0.024	-0.005	0.005	0.000	0.005	0.029	1.792	1.079	1.079	1.079	1.099	1.094	1.094
-0.010	0.020	-0.005	0.000	0.000	-0.005	0.029	1.782	1.084	1.079	1.079	1.094	1.094	1.094
-0.015	0.010	-0.005	-0.005	-0.005	-0.015	0.029	1.807	1.089	1.074	1.074	1.094	1.094	1.089
0.005	-0.005	0.000	-0.010	0.000	0.005	0.029	1.729	1.084	1.069	1.074	1.094	1.094	1.094
0.000	-0.005	0.000	-0.005	0.000	0.005	0.029	1.777	1.079	1.074	1.074	1.094	1.089	1.094
0.000	-0.015	0.005	-0.010	-0.010	-0.010	0.029	1.772	1.084	1.074	1.074	1.094	1.089	1.089
0.010	-0.039	0.005	-0.005	-0.010	-0.010	0.029	1.763	1.079	1.069	1.074	1.089	1.089	1.089
0.010	-0.039	0.000	-0.010	0.005	0.005	0.034	1.797	1.084	1.069	1.074	1.089	1.094	1.094
0.010	-0.010	0.000	-0.010	0.005	0.000	0.034	1.758	1.084	1.079	1.069	1.089	1.089	1.084
0.000	-0.010	0.005	-0.005	0.000	-0.020	0.034	1.719	1.069	1.079	1.074	1.089	1.089	1.084
0.010	-0.010	0.000	-0.005	-0.005	0.000	0.034	1.768	1.069	1.074	1.074	1.089	1.084	1.089
0.000	0.005	-0.005	-0.010	-0.005	-0.010	0.029	1.797	1.074	1.074	1.074	1.089	1.084	1.079
0.000	0.010	-0.005	-0.005	-0.005	0.005	0.034	1.738	1.074	1.074	1.074	1.089	1.089	1.089
-0.005	0.015	-0.005	0.000	-0.005	0.010	0.034	1.709	1.064	1.074	1.074	1.094	1.089	1.089
-0.005	0.024	-0.005	0.000	0.000	0.010	0.034	1.797	1.074	1.074	1.074	1.094	1.089	1.089
-0.010	0.020	-0.005	0.000	0.005	0.010	0.029	1.777	1.074	1.074	1.074	1.094	1.094	1.089
-0.010	0.010	-0.010	0.000	0.000	-0.005	0.029	1.768	1.074	1.069	1.074	1.094	1.089	1.084
-0.015	-0.005	-0.010	0.005	0.005	-0.005	0.034	1.787	1.074	1.064	1.069	1.089	1.089	1.084
-0.010	-0.015	-0.005	0.000	-0.005	0.010	0.029	1.797	1.084	1.064	1.069	1.089	1.084	1.089
0.005	-0.029	0.000	0.005	-0.005	-0.020	0.029	1.714	1.079	1.069	1.069	1.089	1.084	1.074
0.000	-0.020	0.010	0.005	0.000	0.010	0.029	1.782	1.079	1.074	1.074	1.089	1.089	1.089
0.005	0.000	0.010	0.005	0.005	0.010	0.029	1.787	1.084	1.079	1.074	1.089	1.089	1.084
0.010	0.000	0.005	0.000	0.005	0.000	0.029	1.763	1.084	1.079	1.074	1.089	1.089	1.084
0.015	-0.005	0.010	-0.005	0.010	-0.005	0.029	1.792	1.084	1.074	1.074	1.089	1.089	1.084
0.015	-0.015	0.010	-0.005	0.000	-0.005	0.029	1.792	1.094	1.079	1.074	1.089	1.084	1.079
0.010	-0.024	0.010	0.000	0.000	0.005	0.029	1.743	1.084	1.074	1.074	1.094	1.089	1.084
0.020	-0.020	0.005	0.000	0.005	-0.005	0.029	1.797	1.084	1.074	1.074	1.089	1.084	1.084
0.005	-0.010	0.005	0.000	-0.005	-0.010	0.029	1.826	1.084	1.079	1.074	1.094	1.084	1.079
0.000	-0.005	0.000	0.000	0.005	0.000	0.029	1.782	1.074	1.084	1.074	1.094	1.089	1.084
-0.005	0.005	-0.005	0.000	0.005	0.000	0.029	1.797	1.079	1.079	1.074	1.094	1.089	1.084
-0.010	0.024	-0.005	0.000	-0.005	0.000	0.029	1.816	1.084	1.089	1.079	1.094	1.089	1.084
-0.015	0.015	-0.005	0.005	0.000	-0.010	0.029	1.797	1.079	1.079	1.079	1.094	1.089	1.084
-0.015	0.000	-0.005	0.000	-0.005	-0.010	0.029	1.792	1.079	1.079	1.079	1.094	1.089	1.084
-0.010	0.029	-0.010	-0.005	0.005	-0.005	0.029	1.792	1.079	1.084	1.079	1.094	1.089	1.084
-0.020	0.015	0.000	0.005	-0.010	-0.005	0.029	1.777	1.074	1.079	1.079	1.099	1.089	1.084
-0.015	0.005	-0.005	0.000	-0.005	0.000	0.029	1.768	1.079	1.079	1.079	1.094	1.089	1.084
-0.010	-0.005	0.000	-0.005	0.000	0.000	0.029	1.748	1.074	1.074	1.079	1.099	1.094	1.089
-0.010	0.000	0.000	-0.005	0.005	0.000	0.029	1.777	1.074	1.074	1.079	1.094	1.089	1.089
-0.010	-0.005	0.005	0.000	0.000	0.005	0.029	1.802	1.079	1.074	1.074	1.094	1.089	1.089
-0.015	-0.015	0.005	0.005	-0.005	0.005	0.029	1.714	1.069	1.069	1.074	1.094	1.089	1.089
-0.005	0.000	0.000	-0.005	-0.005	0.005	0.029	1.787	1.074	1.074	1.074	1.094	1.089	1.089
0.010	-0.005	0.005	-0.005	0.005	0.000	0.029	1.797	1.089	1.074	1.074	1.094	1.089	1.089
0.005	0.005	0.005	0.005	0.005	-0.010	0.029	1.792	1.089	1.084	1.074	1.094	1.089	1.084
0.005	0.010	0.005	0.000	0.005	0.005	0.029	1.777	1.089	1.084	1.074	1.094	1.089	1.089
0.005	0.005	-0.005	0.005	-0.005	0.000	0.034	1.772	1.079	1.079	1.074	1.094	1.089	1.089
