0.005	0.005	0.000	-0.005	0.010	0.005	0.034	2.681	4.302	2.905	2.578	2.310	2.363	2.310
0.005	0.010	0.005	-0.005	0.000	0.000	0.029	2.637	3.730	3.149	2.734	2.427	2.373	2.324
-0.005	0.005	0.005	0.010	0.005	0.010	0.034	2.690	3.325	3.208	2.866	2.549	2.422	2.349
0.000	0.015	0.005	0.000	0.010	0.005	0.029	2.632	3.018	3.169	2.954	2.661	2.485	2.388
-0.005	0.015	-0.005	0.005	0.000	0.010	0.029	2.671	2.808	3.081	2.988	2.759	2.549	2.432
-0.005	0.020	0.000	-0.005	0.000	0.005	0.034	2.671	2.661	2.974	2.988	2.822	2.627	2.480
-0.005	0.024	-0.005	-0.010	0.000	-0.010	0.029	2.666	2.554	2.861	2.959	2.866	2.690	2.529
0.000	0.015	0.000	-0.010	-0.015	0.010	0.029	2.661	2.480	2.759	2.905	2.886	2.739	2.593
-0.005	0.020	0.000	-0.010	-0.010	0.010	0.034	2.642	2.432	2.676	2.847	2.881	2.783	2.642
0.010	0.005	0.000	-0.005	0.000	0.010	0.034	2.646	2.397	2.603	2.778	2.861	2.808	2.690
0.005	-0.005	0.005	-0.005	0.005	0.005	0.029	2.822	2.402	2.544	2.715	2.827	2.808	2.725
0.010	0.000	0.000	-0.010	0.000	-0.010	0.034	2.646	2.388	2.505	2.656	2.788	2.808	2.744
0.010	-0.010	0.000	-0.005	0.015	0.005	0.034	2.817	2.397	2.476	2.607	2.744	2.793	2.764
0.015	-0.024	0.005	0.000	0.015	0.005	0.034	2.646	2.388	2.451	2.563	2.700	2.769	2.764
0.005	-0.020	0.005	-0.005	-0.005	0.005	0.034	2.646	2.378	2.432	2.524	2.656	2.734	2.759
0.005	0.000	0.005	-0.005	-0.005	0.010	0.034	2.651	2.378	2.427	2.495	2.617	2.700	2.744
0.010	0.005	0.005	-0.005	0.005	-0.005	0.034	2.627	2.373	2.417	2.476	2.583	2.671	2.720
0.005	0.010	0.005	-0.005	0.005	0.005	0.029	2.715	2.393	2.407	2.456	2.554	2.637	2.700
0.000	0.015	0.005	0.000	0.000	0.000	0.029	2.646	2.383	2.407	2.441	2.529	2.603	2.676
0.000	0.024	0.000	0.000	0.000	-0.024	0.029	2.646	2.378	2.402	2.432	2.505	2.573	2.646
0.005	0.010	0.005	0.005	0.000	0.000	0.029	2.686	2.368	2.393	2.422	2.490	2.554	2.627
-0.005	0.010	0.000	0.005	0.005	-0.020	0.029	2.656	2.363	2.388	2.412	2.471	2.529	2.593
-0.005	0.010	0.005	0.005	0.005	-0.020	0.034	2.700	2.363	2.383	2.402	2.461	2.510	2.568
-0.005	0.015	0.000	0.000	0.010	0.005	0.034	2.686	2.358	2.378	2.393	2.446	2.495	2.554
-0.005	0.005	0.000	0.010	0.015	-0.005	0.029	2.676	2.354	2.368	2.388	2.437	2.476	2.534
-0.010	0.000	-0.005	0.010	0.015	0.000	0.034	2.681	2.349	2.363	2.378	2.427	2.461	2.515
0.005	-0.015	0.000	0.010	0.015	0.000	0.034	2.676	2.349	2.358	2.373	2.417	2.451	2.495
0.000	-0.010	-0.005	0.010	0.024	-0.010	0.034	2.681	2.339	2.354	2.368	2.407	2.437	2.480
0.000	-0.005	0.000	0.015	0.029	-0.010	0.034	2.681	2.334	2.349	2.363	2.402	2.427	2.466
0.005	0.000	0.000	0.000	0.024	-0.010	0.034	2.681	2.329	2.344	2.358	2.393	2.417	2.451
0.005	-0.005	0.000	0.010	0.020	0.000	0.034	2.656	2.314	2.339	2.349	2.388	2.402	2.441
0.005	-0.015	0.000	0.010	0.005	-0.005	0.034	2.700	2.314	2.329	2.344	2.378	2.393	2.422
0.000	-0.015	0.005	0.005	0.005	-0.010	0.029	2.651	2.305	2.324	2.339	2.373	2.383	2.417
0.015	-0.010	0.005	0.005	-0.005	0.010	0.029	2.681	2.300	2.319	2.334	2.363	2.378	2.407
0.005	-0.005	0.005	0.005	-0.005	0.000	0.034	2.676	2.295	2.310	2.324	2.358	2.368	2.397
0.000	-0.005	0.005	0.005	-0.010	0.010	0.029	2.686	2.285	2.305	2.324	2.354	2.363	2.388
0.005	-0.010	0.000	0.010	-0.015	0.005	0.029	2.676	2.280	2.300	2.314	2.349	2.354	2.383
-0.005	0.000	-0.005	0.010	-0.020	0.000	0.029	2.690	2.271	2.295	2.310	2.344	2.349	2.373
-0.005	0.034	0.000	0.010	-0.020	0.010	0.034	2.690	2.271	2.300	2.305	2.339	2.344	2.363
0.000	0.015	0.000	0.015	-0.010	0.015	0.034	2.651	2.266	2.285	2.300	2.334	2.344	2.358
-0.015	0.024	0.000	0.005	-0.010	0.015	0.029	2.695	2.256	2.280	2.295	2.329	2.339	2.354
-0.005	0.024	0.000	0.010	-0.020	0.010	0.034	2.695	2.256	2.275	2.285	2.324	2.329	2.344
-0.005	0.000	-0.005	0.005	-0.015	0.005	0.034	2.681	2.251	2.261	2.280	2.314	2.324	2.339
0.005	0.010	0.000	0.005	-0.005	-0.020	0.034	2.671	2.246	2.261	2.275	2.310	2.324	2.334
0.005	-0.005	0.005	0.005	-0.010	-0.005	0.034	2.676	2.241	2.251	2.266	2.300	2.314	2.329
0.005	-0.005	0.000	0.005	-0.029	-0.010	0.034	2.681	2.231	2.241	2.261	2.295	2.300	2.324
0.010	-0.010	0.010	0.000	-0.029	-0.015	0.029	2.676	2.227	2.241	2.256	2.290	2.295	2.310
0.005	-0.005	0.005	0.000	-0.024	-0.005	0.034	2.705	2.222	2.236	2.246	2.280	2.295	2.310
0.015	-0.015	0.005	-0.005	-0.005	-0.015	0.034	2.651	2.217	2.227	2.246	2.275	2.290	2.305
0.015	-0.005	0.000	0.000	0.024	0.015	0.029	2.671	2.207	2.227	2.236	2.275	2.295	2.310
0.015	0.000	-0.005	0.010	0.010	0.020	0.034	2.686	2.207	2.222	2.231	2.271	2.280	2.300
0.000	0.000	0.000	0.000	-0.020	0.024	0.029	2.676	2.202	2.217	2.227	2.261	2.266	2.295
0.000	0.005	0.005	0.000	-0.029	0.024	0.034	2.686	2.197	2.212	2.222	2.256	2.261	2.285
-0.005	0.015	0.000	0.000	0.000	0.010	0.034	2.686	2.192	2.207	2.222	2.251	2.266	2.275
-0.010	0.015	-0.005	0.000	0.020	0.020	0.034	2.686	2.187	2.202	2.217	2.246	2.266	2.275
-0.010	0.005	-0.005	0.005	0.015	0.010	0.034	2.695	2.187	2.197	2.207	2.241	2.256	2.266
0.000	-0.005	0.000	0.005	0.020	0.005	0.034	2.651	2.178	2.192	2.207	2.236	2.246	2.261
-0.005	0.010	-0.005	0.000	0.024	0.000	0.034	2.681	2.178	2.192	2.197	2.231	2.246	2.256
0.000	0.015	-0.005	-0.005	0.029	-0.010	0.034	2.656	2.173	2.187	2.197	2.227	2.241	2.251
-0.005	0.010	-0.005	0.000	0.020	0.000	0.034	2.671	2.168	2.183	2.192	2.222	2.231	2.246
0.005	0.000	0.000	0.000	0.005	0.005	0.034	2.686	2.168	2.178	2.187	2.217	2.222	2.241
0.005	-0.005	0.005	-0.005	-0.005	0.000	0.034	2.686	2.163	2.173	2.183	2.212	2.217	2.231
0.000	-0.005	0.000	-0.005	0.000	-0.020	0.034	2.686	2.153	2.168	2.178	2.207	2.212	2.222
0.000	-0.010	0.005	-0.005	0.000	-0.020	0.034	2.651	2.148	2.163	2.173	2.202	2.207	2.217
0.000	-0.005	0.005	-0.005	0.005	-0.015	0.034	2.666	2.148	2.158	2.168	2.197	2.207	2.217
0.005	-0.005	0.005	-0.005	0.005	0.000	0.034	2.681	2.144	2.153	2.168	2.192	2.202	2.217
0.000	0.000	0.005	-0.005	0.005	0.010	0.034	2.686	2.139	2.148	2.158	2.187	2.197	2.212
0.005	-0.005	0.005	-0.005	0.000	0.000	0.034	2.666	2.134	2.148	2.153	2.183	2.192	2.207
0.000	0.000	0.005	-0.005	0.005	0.010	0.029	2.671	2.129	2.144	2.153	2.183	2.187	2.202
-0.005	0.000	0.005	-0.005	0.005	-0.020	0.029	2.690	2.129	2.139	2.148	2.178	2.183	2.192
-0.010	0.005	0.005	-0.005	0.005	0.000	0.029	2.690	2.129	2.139	2.144	2.173	2.183	2.187
-0.005	0.005	0.000	0.000	0.000	0.010	0.034	2.656	2.124	2.134	2.144	2.168	2.178	2.192
-0.005	0.000	0.000	0.000	0.005	-0.015	0.034	2.656	2.119	2.129	2.139	2.168	2.173	2.183
0.000	0.015	-0.005	0.000	0.000	0.010	0.029	2.686	2.119	2.129	2.134	2.168	2.173	2.183
-0.005	0.000	0.000	0.005	0.000	0.005	0.034	2.671	2.109	2.119	2.129	2.163	2.168	2.178
0.000	0.005	0.000	0.000	-0.005	0.005	0.034	2.690	2.109	2.119	2.129	2.158	2.158	2.173
0.000	0.005	0.000	0.000	0.000	0.000	0.034	2.686	2.109	2.119	2.124	2.153	2.158	2.168
-0.005	0.000	0.000	0.005	0.000	-0.005	0.034	2.671	2.100	2.109	2.119	2.148	2.153	2.163
-0.005	-0.005	0.000	0.000	0.000	0.000	0.034	2.686	2.100	2.104	2.114	2.144	2.148	2.158
0.010	-0.039	0.000	0.005	0.005	0.000	0.029	2.700	2.100	2.095	2.109	2.139	2.148	2.158
0.005	-0.034	0.005	0.005	0.000	-0.010	0.034	2.661	2.095	2.095	2.104	2.139	2.144	2.148
0.005	-0.034	0.000	0.005	0.010	0.000	0.034	2.661	2.090	2.095	2.100	2.129	2.144	2.148
0.010	-0.020	-0.005	0.000	0.000	0.000	0.029	2.676	2.085	2.095	2.100	2.124	2.134	2.144
0.005	-0.015	0.000	0.000	0.000	-0.010	0.029	2.686	2.080	2.095	2.095	2.119	2.129	2.134
0.000	-0.005	0.000	0.000	0.005	0.000	0.034	2.676	2.080	2.090	2.095	2.119	2.129	2.139
0.005	-0.005	-0.005	0.005	-0.005	0.000	0.034	2.681	2.080	2.090	2.090	2.119	2.119	2.129
-0.005	0.000	0.000	0.005	0.000	-0.005	0.034	2.676	2.070	2.085	2.090	2.114	2.119	2.129
0.000	0.010	0.005	0.005	-0.005	0.010	0.029	2.700	2.075	2.085	2.090	2.114	2.119	2.129
0.000	0.000	0.000	0.005	0.000	0.010	0.034	2.681	2.075	2.085	2.085	2.109	2.114	2.124
-0.005	0.015	-0.005	0.005	0.000	0.000	0.034	2.681	2.070	2.080	2.085	2.109	2.114	2.119
0.000	0.010	-0.005	0.010	0.005	0.010	0.029	2.681	2.070	2.075	2.080	2.109	2.109	2.119
0.005	0.010	-0.005	0.010	0.000	0.010	0.034	2.671	2.065	2.075	2.080	2.104	2.109	2.119
-0.005	0.010	0.000	0.005	0.005	0.005	0.034	2.686	2.061	2.070	2.075	2.100	2.104	2.114
0.005	0.005	-0.005	0.000	0.000	-0.005	0.034	2.676	2.061	2.065	2.070	2.095	2.104	2.104
-0.015	0.010	0.000	-0.005	0.005	0.010	0.034	2.681	2.051	2.061	2.070	2.095	2.100	2.109
0.005	0.000	0.000	0.000	0.005	0.010	0.034	2.661	2.051	2.056	2.065	2.095	2.095	2.104
0.005	-0.005	0.005	-0.005	0.000	-0.005	0.034	2.651	2.046	2.051	2.061	2.090	2.090	2.095
0.005	-0.010	0.005	-0.005	0.000	0.015	0.029	2.686	2.046	2.051	2.056	2.085	2.090	2.100
0.015	-0.010	0.005	0.000	0.005	0.000	0.034	2.690	2.046	2.051	2.056	2.085	2.085	2.090
0.005	-0.005	0.005	-0.005	0.000	-0.005	0.034	2.671	2.041	2.046	2.051	2.080	2.080	2.085
0.000	0.005	0.005	0.000	-0.005	0.010	0.034	2.676	2.036	2.046	2.051	2.075	2.080	2.090
0.005	0.015	0.005	0.000	-0.015	-0.015	0.034	2.676	2.036	2.046	2.051	2.070	2.070	2.080
0.015	0.029	0.000	-0.005	-0.015	0.000	0.029	2.686	2.036	2.051	2.046	2.070	2.070	2.080
0.005	0.024	0.000	0.000	-0.005	-0.024	0.034	2.690	2.036	2.046	2.046	2.065	2.070	2.070
0.000	0.029	0.000	0.005	-0.010	-0.005	0.029	2.651	2.026	2.041	2.041	2.070	2.070	2.075
0.000	0.034	-0.005	0.000	-0.010	-0.005	0.034	2.681	2.026	2.036	2.041	2.065	2.065	2.075
-0.005	0.024	0.000	0.005	-0.020	-0.005	0.034	2.666	2.026	2.031	2.036	2.061	2.061	2.065
-0.005	0.015	-0.005	0.000	-0.024	-0.024	0.034	2.676	2.021	2.026	2.031	2.061	2.061	2.065
0.005	0.015	0.000	0.000	-0.010	0.015	0.034	2.686	2.026	2.026	2.031	2.056	2.065	2.075
0.000	0.000	0.005	0.000	0.015	0.000	0.034	2.695	2.021	2.021	2.031	2.056	2.065	2.070
0.010	0.000	0.005	0.005	0.039	0.010	0.029	2.700	2.026	2.021	2.026	2.056	2.070	2.070
-0.005	-0.005	0.010	0.000	0.073	0.005	0.034	2.686	2.021	2.021	2.026	2.051	2.070	2.070
0.010	-0.015	0.005	0.000	0.029	0.024	0.034	2.681	2.021	2.017	2.021	2.046	2.051	2.070
0.010	-0.015	0.010	0.000	0.015	0.020	0.034	2.661	2.017	2.017	2.021	2.046	2.046	2.061
-0.010	-0.005	0.005	-0.005	0.005	-0.005	0.034	2.681	2.012	2.017	2.017	2.041	2.041	2.051
0.005	0.000	0.000	-0.005	0.015	0.005	0.034	2.666	2.012	2.017	2.017	2.036	2.041	2.051
0.000	-0.029	-0.005	0.000	0.005	0.005	0.034	2.676	2.007	2.002	2.012	2.036	2.036	2.046
-0.005	-0.024	0.010	-0.005	0.005	0.000	0.029	2.686	2.007	2.007	2.007	2.031	2.031	2.036
-0.005	-0.015	0.000	0.000	-0.005	-0.020	0.029	2.646	1.997	2.007	2.007	2.031	2.026	2.031
-0.005	-0.010	0.000	0.005	-0.005	0.010	0.034	2.695	1.997	2.007	2.007	2.031	2.026	2.036
0.000	0.000	-0.005	0.005	-0.020	0.005	0.029	2.666	1.997	2.007	2.007	2.026	2.026	2.031
-0.005	0.005	-0.005	0.000	-0.010	0.005	0.029	2.676	1.997	2.007	2.007	2.026	2.026	2.031
-0.010	0.010	-0.005	0.000	-0.005	0.010	0.034	2.686	1.997	2.002	2.007	2.026	2.026	2.031
-0.010	0.039	-0.005	0.005	-0.005	0.005	0.034	2.656	1.997	2.012	2.007	2.026	2.026	2.026
-0.020	0.024	0.000	0.000	-0.010	-0.005	0.029	2.661	1.992	2.002	2.007	2.026	2.021	2.021
-0.005	0.024	0.000	0.010	0.000	0.010	0.034	2.676	1.992	1.997	2.002	2.026	2.026	2.031
0.000	0.000	0.000	0.000	0.000	0.005	0.034	2.690	1.992	1.992	1.997	2.021	2.026	2.026
-0.005	-0.015	0.000	0.005	0.010	-0.010	0.034	2.656	1.992	1.987	1.992	2.021	2.026	2.021
-0.010	-0.015	0.000	0.000	0.005	-0.020	0.034	2.671	1.987	1.987	1.992	2.017	2.021	2.017
-0.005	0.000	0.000	0.005	0.005	0.000	0.034	2.676	1.982	1.987	1.992	2.012	2.017	2.021
0.005	-0.010	0.005	0.000	-0.005	-0.010	0.034	2.676	1.987	1.987	1.987	2.012	2.012	2.017
0.000	-0.010	0.005	0.000	0.005	-0.010	0.034	2.666	1.978	1.982	1.987	2.012	2.012	2.017
0.010	-0.010	0.000	-0.005	-0.015	0.000	0.034	2.686	1.982	1.982	1.982	2.007	2.007	2.012
0.000	-0.010	0.005	0.000	-0.020	0.005	0.034	2.666	1.978	1.978	1.982	2.002	2.002	2.012
0.000	0.000	0.005	0.000	0.015	-0.024	0.034	2.690	1.978	1.982	1.982	2.002	2.012	2.002
0.010	-0.005	0.000	-0.005	0.005	0.010	0.029	2.681	1.978	1.982	1.982	2.002	2.007	2.012
-0.005	0.000	0.005	-0.005	-0.010	0.010	0.029	2.676	1.978	1.978	1.978	2.002	1.997	2.007
0.000	0.005	-0.005	0.000	0.005	0.015	0.029	2.676	1.978	1.978	1.978	2.002	2.002	2.007
-0.005	0.015	-0.005	0.000	0.000	0.010	0.034	2.671	1.973	1.982	1.978	1.997	1.997	2.007
0.000	0.020	0.000	0.000	-0.010	0.020	0.034	2.686	1.978	1.982	1.982	2.002	1.997	2.002
-0.010	0.015	-0.005	0.010	0.005	-0.015	0.034	2.686	1.973	1.978	1.978	1.997	1.997	1.997
0.000	0.015	-0.005	0.010	0.010	0.005	0.034	2.686	1.973	1.973	1.978	1.997	2.002	2.002
0.005	0.005	0.000	0.005	0.015	0.000	0.034	2.646	1.968	1.973	1.973	1.997	1.997	1.997
0.005	0.005	0.005	0.000	0.000	0.000	0.034	2.651	1.968	1.968	1.973	1.997	1.992	1.997
0.000	0.000	0.000	-0.005	-0.005	0.010	0.034	2.690	1.968	1.968	1.968	1.992	1.992	1.997
0.005	-0.010	0.005	0.000	-0.005	0.005	0.034	2.690	1.968	1.968	1.968	1.992	1.987	1.992
0.010	-0.029	0.005	0.000	0.000	0.005	0.034	2.676	1.963	1.958	1.968	1.987	1.992	1.992
0.015	-0.029	0.005	0.000	0.005	-0.015	0.034	2.671	1.963	1.958	1.963	1.987	1.987	1.982
0.015	-0.029	0.005	0.000	0.005	0.000	0.034	2.681	1.958	1.958	1.963	1.982	1.987	1.987
0.015	-0.020	0.005	-0.005	0.000	0.010	0.034	2.681	1.958	1.963	1.958	1.982	1.982	1.987
0.005	-0.005	0.005	0.000	0.005	0.010	0.034	2.705	1.963	1.963	1.958	1.982	1.982	1.987
0.010	-0.005	0.005	0.000	0.005	-0.005	0.034	2.686	1.958	1.963	1.958	1.982	1.982	1.982
0.010	0.005	0.005	0.000	0.000	0.000	0.034	2.681	1.958	1.968	1.958	1.982	1.978	1.982
0.005	-0.005	0.000	0.005	0.005	-0.015	0.034	2.681	1.953	1.958	1.958	1.982	1.978	1.978
-0.005	-0.005	0.000	0.000	0.000	0.010	0.029	2.686	1.948	1.953	1.958	1.982	1.978	1.982
0.000	0.005	-0.005	0.005	0.005	0.000	0.034	2.676	1.953	1.958	1.958	1.978	1.978	1.978
-0.010	0.010	0.000	0.000	0.000	0.005	0.034	2.690	1.948	1.953	1.953	1.978	1.978	1.978
-0.010	0.020	0.000	-0.005	-0.005	0.005	0.034	2.671	1.948	1.963	1.958	1.978	1.973	1.978
-0.010	0.024	0.000	0.005	0.000	-0.015	0.034	2.681	1.948	1.958	1.958	1.978	1.978	1.973
0.005	0.010	0.000	0.000	0.000	0.005	0.034	2.681	1.953	1.953	1.953	1.973	1.973	1.978
0.000	0.000	0.005	0.000	-0.005	0.015	0.034	2.686	1.953	1.948	1.953	1.978	1.973	1.978
-0.005	0.005	0.005	0.000	0.000	0.005	0.034	2.681	1.948	1.948	1.953	1.973	1.973	1.978
0.005	-0.010	0.000	0.005	0.000	0.000	0.034	2.686	1.948	1.943	1.948	1.973	1.968	1.973
0.000	-0.005	0.000	-0.005	0.000	0.005	0.034	2.681	1.948	1.943	1.943	1.968	1.968	1.973
0.010	0.010	0.000	0.000	0.000	0.000	0.029	2.676	1.948	1.948	1.948	1.968	1.968	1.968
0.010	-0.005	0.000	0.000	0.000	-0.010	0.034	2.686	1.948	1.943	1.943	1.968	1.968	1.968
0.015	-0.010	0.005	0.005	0.000	0.005	0.029	2.656	1.948	1.943	1.943	1.968	1.963	1.968
0.010	0.000	0.010	0.000	0.000	-0.015	0.034	2.676	1.938	1.948	1.948	1.963	1.963	1.963
0.015	-0.005	0.000	0.005	0.005	-0.005	0.029	2.686	1.943	1.943	1.943	1.968	1.963	1.963
0.010	0.010	0.000	0.000	0.010	0.005	0.029	2.681	1.938	1.943	1.943	1.963	1.963	1.968
0.000	0.010	0.005	0.010	0.000	0.000	0.029	2.676	1.938	1.943	1.943	1.963	1.963	1.963
0.000	0.010	0.000	0.005	0.005	0.005	0.029	2.686	1.938	1.943	1.943	1.963	1.958	1.963
-0.005	0.010	-0.005	0.010	-0.005	0.010	0.029	2.681	1.938	1.938	1.938	1.963	1.958	1.963
0.000	0.005	-0.005	0.005	-0.005	-0.020	0.029	2.676	1.943	1.943	1.938	1.958	1.958	1.953
0.005	0.005	-0.005	0.005	-0.005	0.010	0.029	2.695	1.943	1.938	1.938	1.958	1.958	1.963
0.000	0.005	0.000	0.005	-0.010	0.000	0.034	2.642	1.934	1.938	1.943	1.958	1.953	1.953
0.010	-0.005	0.000	0.000	-0.020	0.000	0.034	2.695	1.938	1.938	1.938	1.958	1.953	1.953
0.000	0.005	0.005	0.005	-0.010	0.015	0.034	2.676	1.938	1.938	1.938	1.958	1.953	1.958
0.005	-0.010	0.000	0.000	0.000	-0.005	0.034	2.681	1.934	1.934	1.934	1.953	1.953	1.953
0.005	-0.005	0.005	0.000	0.000	0.010	0.034	2.681	1.934	1.934	1.934	1.958	1.953	1.958
-0.005	-0.010	0.005	0.000	0.010	0.005	0.034	2.676	1.929	1.929	1.934	1.953	1.958	1.958
-0.005	-0.010	0.000	0.000	0.034	-0.020	0.029	2.656	1.929	1.929	1.929	1.953	1.958	1.948
0.010	-0.005	0.000	0.000	0.054	0.005	0.029	2.700	1.934	1.929	1.934	1.948	1.963	1.963
0.000	-0.005	0.005	0.000	0.029	0.005	0.029	2.686	1.934	1.929	1.929	1.948	1.953	1.953
0.000	0.000	0.005	-0.005	0.020	0.000	0.034	2.686	1.929	1.934	1.934	1.948	1.948	1.953
0.000	0.000	0.000	0.000	0.015	-0.005	0.029	2.686	1.929	1.929	1.929	1.948	1.943	1.943
-0.010	0.000	0.000	0.000	0.000	-0.005	0.034	2.681	1.929	1.929	1.929	1.948	1.943	1.948
-0.005	0.010	0.000	0.000	-0.015	-0.020	0.029	2.676	1.924	1.929	1.929	1.948	1.938	1.938
-0.005	-0.005	0.000	0.000	-0.029	0.010	0.029	2.686	1.924	1.924	1.929	1.948	1.938	1.948
-0.010	-0.005	0.000	-0.005	-0.024	0.005	0.034	2.676	1.929	1.924	1.924	1.943	1.938	1.938
-0.010	0.000	0.000	0.005	-0.020	0.005	0.034	2.700	1.929	1.924	1.929	1.948	1.943	1.943
-0.015	0.005	0.000	0.000	-0.024	0.015	0.029	2.666	1.924	1.924	1.924	1.943	1.938	1.943
-0.005	0.000	0.005	-0.005	-0.020	0.005	0.034	2.686	1.929	1.929	1.929	1.943	1.943	1.943
-0.010	-0.005	-0.005	0.000	0.010	0.005	0.034	2.681	1.924	1.924	1.924	1.943	1.948	1.943
-0.005	0.010	0.000	0.000	0.029	-0.005	0.034	2.686	1.929	1.929	1.924	1.943	1.953	1.943
0.000	-0.005	0.005	0.000	0.005	0.010	0.034	2.671	1.924	1.924	1.924	1.943	1.943	1.943
0.000	0.000	0.000	0.000	0.015	0.005	0.034	2.676	1.924	1.924	1.924	1.943	1.943	1.943
0.010	-0.010	0.000	0.000	0.005	-0.015	0.034	2.666	1.924	1.919	1.919	1.938	1.938	1.938
0.005	-0.020	0.005	-0.005	0.000	0.005	0.034	2.705	1.924	1.914	1.919	1.938	1.934	1.938
0.005	-0.010	0.000	-0.005	0.000	0.005	0.034	2.656	1.919	1.919	1.919	1.938	1.934	1.943
-0.005	-0.010	0.000	0.000	0.000	0.000	0.034	2.695	1.919	1.919	1.919	1.938	1.934	1.934
0.000	-0.020	0.000	0.000	0.000	0.010	0.034	2.681	1.914	1.914	1.914	1.934	1.938	1.938
-0.005	-0.010	0.005	0.005	0.000	0.005	0.034	2.681	1.919	1.919	1.919	1.938	1.934	1.934
-0.005	0.000	0.000	0.000	-0.005	-0.005	0.029	2.686	1.924	1.919	1.919	1.934	1.934	1.929
0.000	0.005	0.000	0.010	-0.005	-0.005	0.034	2.686	1.919	1.919	1.919	1.938	1.934	1.934
-0.010	0.005	-0.005	0.005	0.000	-0.005	0.029	2.681	1.914	1.919	1.919	1.938	1.934	1.934
-0.005	0.039	-0.005	0.005	0.000	0.005	0.029	2.720	1.929	1.934	1.924	1.943	1.934	1.938
-0.005	0.039	0.000	0.005	0.005	-0.015	0.034	2.676	1.919	1.929	1.924	1.938	1.934	1.929
-0.005	0.029	-0.005	0.005	0.000	-0.020	0.034	2.686	1.919	1.919	1.919	1.943	1.934	1.929
0.000	0.010	0.000	0.000	0.010	-0.010	0.029	2.681	1.919	1.914	1.919	1.938	1.934	1.934
0.005	0.005	0.000	0.005	0.000	0.015	0.034	2.671	1.919	1.914	1.914	1.938	1.934	1.943
0.020	0.005	0.005	0.005	0.000	0.010	0.034	2.666	1.919	1.919	1.914	1.938	1.938	1.938
0.010	0.005	0.000	0.000	0.000	0.015	0.034	2.671	1.914	1.914	1.914	1.934	1.934	1.938
0.005	-0.010	0.000	0.000	-0.005	0.010	0.029	2.676	1.919	1.914	1.914	1.934	1.934	1.934
0.010	-0.010	0.005	0.000	-0.005	0.005	0.034	2.666	1.914	1.909	1.914	1.934	1.929	1.934
0.015	-0.010	0.005	0.000	-0.010	0.015	0.029	2.686	1.914	1.909	1.914	1.934	1.929	1.934
0.010	-0.010	0.000	-0.005	-0.020	0.010	0.029	2.661	1.909	1.909	1.909	1.929	1.924	1.929
0.005	-0.005	0.000	0.000	0.000	0.005	0.029	2.676	1.909	1.909	1.909	1.929	1.929	1.929
0.005	0.005	0.000	-0.005	-0.010	0.010	0.029	2.690	1.914	1.914	1.909	1.929	1.924	1.924
0.005	0.005	0.005	0.000	-0.029	0.000	0.034	2.666	1.909	1.914	1.909	1.929	1.919	1.924
0.010	0.020	0.000	0.005	-0.044	-0.020	0.029	2.681	1.914	1.919	1.909	1.934	1.919	1.914
0.000	0.010	0.000	0.005	-0.024	-0.005	0.034	2.686	1.909	1.914	1.909	1.934	1.929	1.919
-0.005	0.015	-0.005	0.005	0.034	-0.020	0.029	2.686	1.909	1.914	1.909	1.934	1.943	1.924
-0.005	0.020	0.000	0.000	0.039	-0.024	0.034	2.681	1.909	1.909	1.909	1.929	1.938	1.929
-0.010	0.015	0.000	0.005	0.078	-0.010	0.034	2.681	1.904	1.909	1.909	1.934	1.948	1.938
0.000	0.005	-0.005	0.005	0.015	-0.020	0.034	2.671	1.914	1.909	1.909	1.929	1.919	1.929
0.005	0.000	0.000	0.000	-0.034	-0.005	0.034	2.666	1.914	1.909	1.909	1.929	1.909	1.924
0.000	0.005	0.005	0.000	-0.034	-0.015	0.034	2.671	1.909	1.909	1.909	1.929	1.914	1.924
0.010	0.005	0.005	0.005	0.024	-0.015	0.034	2.681	1.909	1.909	1.909	1.929	1.934	1.929
0.010	-0.005	0.000	0.000	0.063	0.000	0.029	2.681	1.914	1.909	1.909	1.924	1.938	1.934
0.000	0.000	0.005	0.000	0.015	-0.005	0.029	2.671	1.904	1.909	1.909	1.924	1.919	1.929
0.005	-0.010	0.005	0.005	-0.010	0.005	0.029	2.681	1.909	1.904	1.904	1.924	1.914	1.929
0.010	-0.015	0.005	0.000	-0.010	0.005	0.034	2.671	1.909	1.899	1.904	1.919	1.919	1.924
0.000	-0.010	0.000	-0.005	0.039	-0.005	0.034	2.671	1.909	1.909	1.904	1.924	1.929	1.919
0.010	-0.020	0.005	0.000	0.024	-0.010	0.029	2.681	1.909	1.899	1.904	1.924	1.919	1.924
-0.005	-0.010	0.000	0.000	-0.005	0.005	0.029	2.676	1.904	1.909	1.904	1.919	1.914	1.919
-0.005	0.005	0.005	0.000	-0.010	0.020	0.029	2.676	1.904	1.909	1.904	1.924	1.914	1.924
-0.010	0.010	0.000	0.010	-0.010	-0.005	0.034	2.666	1.899	1.909	1.904	1.924	1.914	1.919
0.005	0.010	0.000	0.005	-0.010	0.010	0.029	2.681	1.909	1.909	1.909	1.924	1.919	1.924
-0.005	-0.005	-0.005	0.000	-0.005	0.020	0.034	2.681	1.904	1.904	1.904	1.924	1.919	1.924
-0.005	0.005	-0.005	0.005	0.000	0.015	0.029	2.681	1.904	1.904	1.904	1.924	1.919	1.919
-0.010	-0.005	0.000	0.005	0.000	0.015	0.034	2.676	1.899	1.904	1.899	1.924	1.919	1.919
-0.010	0.015	0.000	0.005	-0.015	0.010	0.034	2.690	1.904	1.904	1.904	1.919	1.914	1.914
0.000	0.015	-0.005	0.005	-0.005	0.010	0.034	2.671	1.904	1.909	1.904	1.919	1.919	1.919
0.000	0.000	0.000	0.000	0.000	0.010	0.034	2.671	1.904	1.899	1.904	1.919	1.919	1.919
0.000	0.000	0.000	0.000	0.000	0.005	0.034	2.666	1.904	1.899	1.904	1.919	1.919	1.919
0.000	-0.005	0.005	0.000	0.000	0.010	0.034	2.676	1.904	1.899	1.899	1.919	1.919	1.919
0.010	-0.005	0.005	0.000	-0.005	0.000	0.034	2.671	1.899	1.899	1.899	1.919	1.914	1.914
0.005	-0.015	0.005	0.000	-0.005	-0.005	0.034	2.681	1.899	1.899	1.899	1.919	1.914	1.914
0.005	-0.010	0.010	0.000	-0.015	-0.010	0.029	2.681	1.899	1.899	1.899	1.919	1.909	1.909
0.005	0.000	0.005	0.000	-0.010	0.005	0.029	2.681	1.899	1.899	1.899	1.919	1.914	1.914
0.010	-0.005	0.000	0.000	0.005	0.005	0.034	2.671	1.899	1.899	1.899	1.914	1.914	1.914
0.005	0.005	-0.005	0.000	0.015	-0.005	0.029	2.666	1.899	1.899	1.899	1.919	1.914	1.914
0.000	0.010	0.000	0.005	0.015	0.005	0.029	2.686	1.904	1.904	1.899	1.919	1.919	1.914
0.000	0.015	-0.005	0.000	0.000	-0.005	0.029	2.681	1.899	1.899	1.899	1.919	1.909	1.914
0.000	0.020	-0.005	0.005	0.000	0.015	0.034	2.686	1.904	1.904	1.899	1.919	1.914	1.919
-0.005	-0.005	0.000	0.000	0.010	-0.020	0.034	2.681	1.904	1.895	1.899	1.919	1.914	1.909
-0.005	-0.010	0.000	-0.005	0.000	0.020	0.034	2.686	1.904	1.895	1.899	1.919	1.914	1.919
-0.010	-0.005	-0.005	0.005	0.000	0.005	0.034	2.681	1.904	1.899	1.899	1.919	1.914	1.914
-0.010	-0.020	0.005	0.000	0.000	0.005	0.029	2.676	1.904	1.895	1.895	1.914	1.914	1.914
0.000	-0.020	0.005	0.000	-0.015	0.005	0.029	2.686	1.904	1.899	1.895	1.914	1.909	1.909
0.005	-0.005	0.000	0.005	-0.044	0.005	0.034	2.666	1.899	1.904	1.899	1.914	1.899	1.909
0.005	-0.010	0.005	0.000	-0.029	-0.005	0.034	2.671	1.899	1.899	1.899	1.914	1.904	1.904
0.010	-0.010	0.005	0.000	-0.005	0.005	0.034	2.666	1.899	1.899	1.899	1.914	1.914	1.909
-0.005	-0.015	0.010	0.000	0.020	0.010	0.034	2.676	1.895	1.895	1.899	1.914	1.919	1.919
0.010	-0.010	0.000	0.000	0.029	0.005	0.029	2.671	1.899	1.895	1.895	1.914	1.924	1.914
0.000	-0.015	0.005	0.000	0.029	-0.005	0.029	2.690	1.899	1.895	1.895	1.914	1.919	1.914
0.005	-0.005	0.000	0.000	0.010	-0.015	0.034	2.681	1.899	1.899	1.895	1.914	1.909	1.909
0.005	0.000	0.000	0.000	0.039	0.005	0.029	2.681	1.904	1.899	1.895	1.914	1.919	1.914
0.000	0.029	0.000	0.000	0.010	-0.005	0.029	2.686	1.904	1.909	1.899	1.914	1.904	1.909
0.000	0.020	0.000	0.000	-0.029	0.000	0.029	2.690	1.899	1.904	1.899	1.914	1.899	1.909
0.000	0.029	0.000	0.000	0.010	-0.015	0.029	2.671	1.899	1.909	1.899	1.914	1.914	1.904
-0.010	0.024	-0.005	0.000	0.010	0.015	0.029	2.686	1.899	1.899	1.899	1.919	1.914	1.914
-0.005	0.024	-0.005	0.000	0.020	0.010	0.029	2.681	1.899	1.904	1.899	1.919	1.919	1.919
0.005	0.020	-0.005	0.000	0.000	0.010	0.029	2.686	1.904	1.899	1.899	1.919	1.909	1.914
0.005	0.015	0.000	0.000	0.005	0.005	0.034	2.671	1.899	1.899	1.895	1.919	1.914	1.909
0.005	0.010	0.000	0.000	0.024	0.015	0.029	2.671	1.899	1.899	1.895	1.919	1.919	1.914
0.010	0.000	0.000	0.005	0.024	0.005	0.034	2.666	1.899	1.895	1.895	1.919	1.919	1.914
0.010	0.005	0.000	0.000	0.044	-0.005	0.034	2.676	1.899	1.895	1.895	1.919	1.919	1.914
0.010	-0.010	0.005	-0.005	-0.020	-0.010	0.029	2.681	1.899	1.895	1.895	1.914	1.899	1.904
0.015	-0.015	0.005	-0.005	-0.068	-0.024	0.034	2.676	1.895	1.890	1.895	1.914	1.890	1.899
0.010	-0.005	0.005	-0.005	-0.044	0.005	0.034	2.666	1.899	1.895	1.890	1.909	1.899	1.904
0.005	-0.010	0.005	-0.005	-0.024	0.010	0.029	2.671	1.895	1.890	1.890	1.909	1.909	1.909
0.010	-0.010	0.005	-0.005	-0.024	0.005	0.034	2.676	1.890	1.890	1.890	1.909	1.909	1.904
0.010	-0.010	0.005	0.000	-0.029	0.000	0.034	2.661	1.890	1.890	1.890	1.909	1.904	1.904
0.000	-0.005	0.000	-0.005	-0.020	-0.010	0.029	2.686	1.895	1.890	1.890	1.909	1.909	1.904
-0.005	0.000	0.005	0.000	0.005	0.005	0.034	2.686	1.895	1.895	1.890	1.909	1.914	1.909
-0.005	-0.005	-0.005	0.005	0.005	-0.005	0.034	2.676	1.895	1.890	1.890	1.909	1.909	1.904
0.000	0.015	-0.005	0.005	0.005	0.005	0.029	2.681	1.895	1.899	1.890	1.909	1.909	1.914
-0.005	0.010	0.000	-0.005	0.010	-0.010	0.029	2.686	1.899	1.895	1.895	1.909	1.909	1.909
-0.005	0.010	0.000	0.000	0.020	-0.005	0.029	2.690	1.895	1.895	1.895	1.909	1.909	1.909
-0.005	0.020	-0.005	0.010	0.020	0.015	0.029	2.690	1.899	1.899	1.895	1.914	1.914	1.914
-0.005	0.000	0.000	0.000	0.005	0.015	0.029	2.681	1.899	1.890	1.895	1.909	1.909	1.914
-0.010	-0.005	0.000	0.000	0.000	0.010	0.029	2.686	1.895	1.895	1.895	1.909	1.904	1.909
0.005	-0.005	0.000	0.000	0.005	0.005	0.034	2.681	1.899	1.890	1.895	1.909	1.904	1.904
0.010	-0.010	0.000	0.000	0.015	0.005	0.034	2.681	1.895	1.890	1.890	1.909	1.909	1.909
0.005	-0.015	0.005	0.000	0.005	0.015	0.029	2.681	1.895	1.890	1.890	1.909	1.904	1.909
0.000	-0.005	0.005	-0.005	0.010	0.000	0.029	2.676	1.895	1.890	1.890	1.909	1.904	1.904
0.005	-0.010	0.010	0.000	0.005	0.000	0.034	2.686	1.895	1.890	1.890	1.909	1.904	1.904
0.005	-0.015	0.005	0.005	0.010	0.010	0.034	2.681	1.895	1.890	1.890	1.909	1.909	1.904
0.005	-0.005	0.000	0.000	-0.005	0.005	0.034	2.681	1.890	1.890	1.890	1.909	1.899	1.904
0.015	0.010	0.000	0.000	-0.010	-0.005	0.034	2.681	1.895	1.899	1.890	1.909	1.899	1.899
0.005	-0.020	-0.005	0.005	-0.005	-0.005	0.029	2.686	1.890	1.890	1.890	1.909	1.899	1.904
0.000	-0.010	0.000	0.010	-0.020	0.000	0.034	2.681	1.890	1.890	1.890	1.909	1.899	1.899
0.005	0.000	-0.010	0.010	-0.005	0.000	0.029	2.671	1.890	1.895	1.890	1.909	1.904	1.904
-0.005	0.015	-0.005	0.010	0.005	0.000	0.029	2.666	1.890	1.895	1.890	1.909	1.909	1.904
0.000	0.010	-0.005	0.010	0.015	0.005	0.034	2.681	1.895	1.895	1.890	1.909	1.909	1.909
0.000	-0.005	-0.005	0.000	0.020	-0.015	0.034	2.671	1.890	1.890	1.890	1.909	1.909	1.904
-0.010	0.005	0.000	0.000	0.010	0.005	0.034	2.671	1.890	1.890	1.890	1.909	1.909	1.909
-0.010	0.000	0.000	0.000	0.000	-0.005	0.029	2.676	1.890	1.890	1.890	1.909	1.899	1.904
-0.005	0.005	0.000	0.000	-0.015	0.000	0.029	2.681	1.890	1.890	1.890	1.909	1.899	1.899
-0.005	-0.005	0.005	0.000	-0.010	0.005	0.034	2.686	1.895	1.885	1.890	1.909	1.904	1.904
-0.005	-0.010	0.005	0.000	0.005	0.010	0.034	2.681	1.895	1.890	1.890	1.909	1.909	1.904
0.005	-0.010	0.000	0.000	0.005	0.000	0.034	2.681	1.895	1.885	1.890	1.904	1.904	1.904
0.005	-0.010	0.005	0.000	-0.020	-0.020	0.029	2.681	1.895	1.890	1.885	1.904	1.895	1.895
0.000	-0.010	0.010	-0.005	-0.010	-0.005	0.029	2.681	1.895	1.890	1.890	1.909	1.899	1.899
0.010	-0.010	0.005	0.000	0.015	-0.015	0.029	2.686	1.890	1.890	1.885	1.904	1.909	1.899
0.005	0.000	0.005	0.000	0.020	-0.010	0.029	2.681	1.890	1.895	1.890	1.909	1.909	1.904
-0.005	0.005	0.000	0.005	0.034	0.005	0.029	2.681	1.890	1.895	1.890	1.909	1.909	1.909
-0.005	0.029	-0.005	0.005	0.020	0.020	0.034	2.686	1.890	1.899	1.890	1.909	1.904	1.914
-0.005	0.029	-0.005	0.000	0.015	0.015	0.034	2.690	1.890	1.895	1.890	1.909	1.904	1.904
-0.010	0.024	0.000	0.000	0.005	0.020	0.034	2.681	1.890	1.895	1.890	1.909	1.904	1.909
-0.015	0.024	0.000	0.005	0.020	0.000	0.034	2.681	1.890	1.890	1.890	1.909	1.904	1.904
0.000	0.034	-0.005	0.005	0.010	0.005	0.034	2.676	1.895	1.895	1.890	1.909	1.904	1.899
-0.005	0.010	0.000	0.005	-0.005	-0.005	0.034	2.686	1.895	1.885	1.890	1.909	1.899	1.899
-0.005	0.000	0.000	0.005	-0.010	0.005	0.034	2.681	1.895	1.885	1.890	1.909	1.899	1.904
0.000	0.000	0.000	0.000	-0.010	-0.024	0.034	2.686	1.895	1.885	1.890	1.909	1.899	1.895
0.010	0.000	-0.005	0.005	0.010	-0.020	0.034	2.676	1.895	1.890	1.890	1.904	1.909	1.899
0.010	0.000	0.000	-0.005	0.000	-0.020	0.029	2.671	1.895	1.890	1.890	1.904	1.899	1.899
0.015	-0.010	0.000	0.000	0.005	-0.029	0.034	2.656	1.890	1.885	1.885	1.904	1.904	1.895
0.005	-0.005	0.000	0.000	-0.015	0.005	0.034	2.681	1.885	1.885	1.885	1.904	1.895	1.904
0.005	-0.005	0.005	-0.005	-0.068	0.010	0.034	2.671	1.885	1.885	1.885	1.904	1.880	1.895
0.010	-0.005	0.010	0.000	-0.049	0.000	0.034	2.695	1.890	1.885	1.885	1.904	1.890	1.895
0.010	0.005	0.005	-0.005	0.005	0.005	0.029	2.690	1.885	1.890	1.885	1.904	1.909	1.899
0.000	0.015	0.005	0.000	0.024	0.005	0.034	2.666	1.885	1.890	1.890	1.904	1.914	1.904
0.000	0.005	0.005	0.005	0.039	0.024	0.029	2.671	1.890	1.885	1.885	1.909	1.914	1.914
-0.010	0.010	0.000	0.000	0.005	0.010	0.029	2.671	1.885	1.885	1.885	1.904	1.899	1.909
-0.005	0.015	0.000	0.010	-0.010	0.010	0.029	2.666	1.885	1.890	1.885	1.904	1.895	1.899
0.000	0.015	-0.005	0.005	-0.010	0.010	0.029	2.656	1.885	1.885	1.885	1.904	1.899	1.899
-0.005	0.034	-0.005	0.005	-0.010	0.005	0.029	2.651	1.885	1.890	1.885	1.904	1.895	1.899
-0.005	0.020	-0.010	0.005	0.000	-0.005	0.029	2.651	1.880	1.885	1.885	1.904	1.899	1.895
-0.010	0.020	0.000	0.005	0.015	-0.005	0.029	2.778	1.895	1.885	1.885	1.904	1.909	1.899
-0.005	0.005	0.000	0.005	0.029	-0.020	0.034	2.651	1.895	1.885	1.885	1.904	1.904	1.899
0.005	0.010	0.005	0.000	0.015	0.000	0.034	2.646	1.890	1.885	1.885	1.904	1.899	1.904
-0.005	-0.010	0.005	0.000	0.005	-0.005	0.034	2.695	1.890	1.880	1.885	1.904	1.895	1.899
-0.005	-0.015	0.005	0.000	-0.010	-0.010	0.034	2.690	1.890	1.880	1.880	1.899	1.890	1.895
0.005	-0.015	0.005	0.005	-0.010	-0.005	0.034	2.666	1.890	1.885	1.880	1.899	1.895	1.895
0.005	-0.005	0.005	0.000	-0.005	-0.005	0.029	2.671	1.885	1.885	1.885	1.899	1.895	1.895
0.005	-0.015	0.005	0.000	0.000	0.000	0.034	2.671	1.890	1.885	1.880	1.899	1.899	1.895
0.000	-0.015	0.005	0.000	0.029	-0.005	0.034	2.671	1.885	1.885	1.885	1.899	1.904	1.899
0.000	-0.005	0.005	0.000	0.039	0.010	0.034	2.656	1.880	1.885	1.880	1.899	1.904	1.904
0.000	0.005	0.005	0.000	0.029	-0.005	0.034	2.666	1.890	1.885	1.880	1.899	1.899	1.899
-0.005	-0.005	0.005	0.000	0.000	0.010	0.029	2.666	1.885	1.880	1.880	1.899	1.890	1.899
0.005	0.005	0.000	0.005	-0.024	0.005	0.029	2.656	1.885	1.885	1.880	1.899	1.885	1.895
0.000	0.015	0.000	0.005	-0.034	-0.005	0.034	2.651	1.885	1.890	1.885	1.899	1.885	1.890
0.000	0.020	-0.005	0.005	-0.005	0.010	0.029	2.778	1.895	1.890	1.885	1.904	1.895	1.895
-0.010	0.015	-0.005	0.000	-0.010	0.000	0.029	2.651	1.885	1.885	1.885	1.904	1.895	1.895
-0.005	0.010	0.000	0.005	-0.010	-0.005	0.029	2.642	1.885	1.890	1.885	1.904	1.895	1.895
-0.005	0.005	0.000	0.010	0.020	0.000	0.029	2.671	1.885	1.885	1.885	1.904	1.909	1.899
0.000	0.005	-0.005	0.000	0.024	0.010	0.029	2.671	1.885	1.885	1.885	1.904	1.904	1.904
-0.005	0.010	0.000	0.000	0.000	0.005	0.029	2.676	1.885	1.885	1.885	1.899	1.895	1.899
0.000	0.005	0.000	0.000	-0.015	0.005	0.034	2.676	1.890	1.885	1.880	1.899	1.895	1.895
0.010	0.000	0.000	-0.005	0.005	0.005	0.034	2.671	1.890	1.885	1.880	1.899	1.899	1.899
0.000	-0.005	0.000	0.000	0.005	0.000	0.034	2.676	1.885	1.880	1.880	1.904	1.895	1.899
0.005	0.000	0.005	0.000	0.000	0.005	0.034	2.661	1.885	1.885	1.880	1.899	1.895	1.895
0.000	-0.015	0.000	0.010	-0.005	-0.010	0.034	2.656	1.880	1.875	1.880	1.899	1.895	1.890
0.005	-0.005	0.000	0.005	-0.005	0.005	0.034	2.651	1.880	1.880	1.880	1.899	1.895	1.895
0.005	0.000	0.005	0.000	-0.005	0.010	0.034	2.646	1.875	1.880	1.880	1.895	1.895	1.895
0.005	0.000	0.000	0.005	0.000	-0.005	0.034	2.651	1.875	1.880	1.880	1.899	1.895	1.890
-0.005	0.005	0.000	0.005	0.005	0.005	0.034	2.744	1.885	1.880	1.875	1.899	1.899	1.895
0.000	0.015	0.000	0.000	0.005	0.010	0.034	2.656	1.885	1.885	1.880	1.895	1.895	1.899
0.000	0.010	0.000	0.005	-0.005	0.005	0.029	2.617	1.875	1.880	1.880	1.895	1.895	1.895
0.010	0.020	0.005	0.005	0.000	0.000	0.034	2.671	1.885	1.885	1.880	1.895	1.895	1.890
0.010	0.005	-0.005	0.005	-0.005	0.000	0.029	2.671	1.880	1.880	1.880	1.899	1.895	1.895
0.000	0.005	0.005	0.005	-0.005	0.005	0.029	2.686	1.885	1.880	1.880	1.899	1.895	1.899
0.000	0.000	0.000	0.005	-0.005	0.015	0.029	2.686	1.885	1.880	1.880	1.899	1.895	1.895
0.000	0.005	0.000	0.000	-0.005	0.000	0.029	2.681	1.885	1.880	1.880	1.899	1.895	1.895
0.005	0.000	0.000	-0.005	0.000	0.005	0.034	2.671	1.890	1.880	1.880	1.899	1.895	1.895
0.000	-0.005	0.005	-0.005	-0.005	-0.010	0.034	2.661	1.885	1.880	1.880	1.895	1.890	1.890
0.005	-0.005	0.005	0.000	-0.005	-0.005	0.034	2.666	1.880	1.880	1.880	1.899	1.890	1.890
0.015	-0.005	0.000	0.000	-0.005	0.005	0.034	2.632	1.880	1.880	1.880	1.895	1.895	1.895
0.005	-0.010	0.000	0.000	0.005	-0.010	0.034	2.646	1.875	1.875	1.875	1.895	1.895	1.890
0.005	0.000	0.000	0.000	0.000	0.005	0.029	2.651	1.875	1.875	1.875	1.895	1.895	1.895
-0.005	-0.015	0.000	-0.005	-0.005	0.010	0.029	2.725	1.880	1.870	1.875	1.895	1.890	1.895
0.000	-0.015	-0.005	-0.005	0.000	0.005	0.029	2.637	1.895	1.880	1.875	1.890	1.890	1.890
0.000	0.000	0.000	-0.005	0.005	-0.005	0.034	2.637	1.885	1.885	1.875	1.895	1.890	1.890
0.000	-0.015	0.005	-0.005	0.005	0.005	0.034	2.822	1.899	1.880	1.880	1.895	1.890	1.890
-0.010	-0.010	0.000	-0.005	0.010	0.005	0.029	2.681	1.895	1.885	1.880	1.895	1.895	1.895
-0.010	0.000	-0.005	0.005	0.005	0.005	0.034	2.686	1.890	1.890	1.885	1.899	1.890	1.890
-0.010	0.010	-0.005	0.000	0.005	-0.010	0.029	2.676	1.890	1.895	1.885	1.899	1.890	1.885
-0.005	0.000	-0.005	0.000	0.005	0.005	0.029	2.656	1.890	1.895	1.885	1.899	1.895	1.890
-0.005	-0.005	0.000	0.000	0.000	0.005	0.029	2.676	1.885	1.885	1.890	1.904	1.895	1.890
-0.005	0.010	0.000	0.000	0.000	-0.015	0.029	2.676	1.885	1.890	1.890	1.904	1.899	1.890
0.000	0.020	0.000	0.010	0.005	0.005	0.029	2.661	1.885	1.890	1.890	1.904	1.899	1.899
0.000	-0.020	0.005	0.000	0.010	0.005	0.029	2.656	1.880	1.880	1.885	1.904	1.899	1.899
0.005	-0.020	0.000	-0.005	0.000	0.005	0.029	2.651	1.880	1.875	1.880	1.904	1.895	1.895
0.015	-0.020	0.005	0.000	-0.005	-0.020	0.034	2.642	1.875	1.875	1.880	1.899	1.895	1.890
0.015	-0.024	0.005	-0.005	0.000	0.005	0.034	2.695	1.880	1.875	1.875	1.899	1.895	1.899
-0.005	-0.015	0.005	0.000	0.000	0.005	0.034	2.646	1.875	1.880	1.880	1.899	1.895	1.895
0.000	-0.005	0.010	-0.005	0.000	0.000	0.034	2.642	1.875	1.875	1.880	1.899	1.890	1.895
0.000	-0.010	0.005	0.000	-0.005	0.005	0.029	2.842	1.895	1.880	1.875	1.899	1.895	1.895
0.005	0.005	-0.005	0.000	-0.005	-0.005	0.034	2.681	1.895	1.890	1.880	1.899	1.890	1.890
0.005	-0.010	0.000	0.000	-0.005	-0.015	0.029	2.681	1.890	1.885	1.880	1.895	1.890	1.895
0.010	-0.010	0.000	0.005	-0.010	0.000	0.034	2.681	1.890	1.885	1.880	1.899	1.890	1.895
0.000	0.005	-0.005	0.005	-0.005	-0.005	0.034	2.676	1.890	1.890	1.885	1.899	1.895	1.895
0.000	0.010	0.000	0.000	-0.005	0.000	0.034	2.666	1.885	1.890	1.885	1.899	1.895	1.895
-0.005	0.005	-0.005	0.000	0.010	0.015	0.034	2.661	1.880	1.885	1.885	1.899	1.899	1.899
-0.005	0.010	0.000	0.000	0.015	0.000	0.034	2.676	1.885	1.890	1.885	1.904	1.899	1.895
0.000	-0.005	0.000	0.000	-0.005	0.005	0.029	2.661	1.885	1.880	1.885	1.899	1.895	1.895
0.000	-0.005	-0.005	0.000	0.000	0.005	0.034	2.651	1.880	1.880	1.880	1.899	1.895	1.899
0.005	-0.005	-0.005	-0.005	0.000	0.010	0.034	2.651	1.880	1.880	1.880	1.899	1.899	1.899
0.000	-0.005	0.000	-0.005	0.010	-0.005	0.034	2.705	1.885	1.880	1.880	1.899	1.899	1.890
0.005	-0.005	0.000	0.000	0.005	0.010	0.029	2.808	1.899	1.885	1.880	1.899	1.895	1.899
0.015	0.000	0.005	-0.005	0.000	0.000	0.029	2.637	1.895	1.885	1.880	1.899	1.895	1.890
0.010	0.000	0.000	0.005	0.000	0.000	0.029	2.827	1.909	1.890	1.880	1.899	1.895	1.895
0.010	0.000	0.010	0.000	0.000	-0.005	0.029	2.681	1.899	1.890	1.885	1.904	1.895	1.890
0.005	-0.005	0.005	0.010	0.005	0.000	0.029	2.681	1.895	1.890	1.885	1.904	1.895	1.895
-0.005	0.000	0.005	0.000	0.000	0.000	0.029	2.681	1.890	1.890	1.890	1.899	1.895	1.895
0.005	-0.005	0.000	0.000	0.000	0.015	0.029	2.676	1.890	1.890	1.885	1.904	1.899	1.899
0.000	0.005	0.000	0.000	0.005	-0.005	0.034	2.676	1.890	1.890	1.885	1.904	1.895	1.890
0.000	0.029	0.000	0.000	0.000	0.005	0.034	2.676	1.890	1.899	1.890	1.904	1.899	1.895
-0.005	0.034	0.000	0.000	-0.005	0.005	0.034	2.656	1.880	1.895	1.890	1.904	1.899	1.895
-0.010	0.034	0.000	0.000	0.005	0.000	0.034	2.651	1.880	1.890	1.890	1.904	1.899	1.899
-0.010	0.029	0.000	0.000	0.000	0.000	0.034	2.651	1.880	1.885	1.885	1.904	1.899	1.899
-0.020	0.029	-0.005	0.000	0.000	-0.005	0.034	2.642	1.875	1.880	1.885	1.904	1.899	1.899
0.000	0.015	0.000	0.005	0.005	0.005	0.034	2.671	1.880	1.875	1.880	1.904	1.899	1.899
-0.010	0.010	-0.005	0.010	0.000	-0.005	0.034	2.627	1.875	1.875	1.880	1.904	1.899	1.899
-0.005	0.010	0.000	0.005	0.000	0.000	0.034	2.661	1.880	1.875	1.880	1.899	1.899	1.899
0.000	0.000	0.000	0.000	-0.024	-0.005	0.034	2.666	1.880	1.875	1.875	1.899	1.890	1.895
0.000	0.000	0.000	0.000	0.000	0.005	0.029	2.651	1.875	1.875	1.875	1.899	1.899	1.899
0.005	-0.005	0.005	0.000	0.005	-0.005	0.029	2.661	1.880	1.870	1.875	1.895	1.895	1.895
0.000	-0.010	0.005	0.000	0.010	0.010	0.029	2.651	1.880	1.870	1.875	1.895	1.899	1.899
0.005	-0.015	0.005	0.000	0.005	-0.005	0.034	2.646	1.880	1.875	1.870	1.895	1.895	1.895
0.000	-0.015	0.005	0.000	0.000	0.000	0.034	2.681	1.880	1.875	1.870	1.890	1.890	1.895
0.005	-0.010	0.005	0.000	0.000	0.000	0.029	2.690	1.890	1.875	1.875	1.890	1.890	1.890
0.010	-0.010	0.000	0.000	0.005	0.005	0.034	2.661	1.885	1.880	1.875	1.890	1.890	1.895
0.005	0.005	-0.005	0.005	0.020	-0.005	0.029	2.666	1.880	1.880	1.875	1.895	1.895	1.890
0.010	0.005	0.000	0.005	0.029	-0.005	0.029	2.666	1.890	1.885	1.880	1.895	1.895	1.890
0.005	0.005	0.000	0.010	0.010	-0.005	0.029	2.651	1.880	1.880	1.875	1.895	1.890	1.890
-0.005	0.010	-0.005	0.005	-0.005	-0.015	0.029	2.651	1.875	1.880	1.880	1.895	1.885	1.885
0.005	0.015	0.000	0.005	-0.024	-0.005	0.029	2.676	1.885	1.880	1.880	1.895	1.880	1.890
-0.005	0.015	-0.005	0.010	-0.049	0.010	0.029	2.681	1.880	1.885	1.880	1.895	1.880	1.890
0.000	0.010	0.000	0.005	-0.020	0.005	0.034	2.661	1.880	1.880	1.880	1.895	1.890	1.890
-0.005	0.010	0.000	0.000	0.000	-0.005	0.034	2.656	1.880	1.880	1.880	1.899	1.895	1.890
0.000	0.015	-0.005	0.000	0.000	0.005	0.034	2.671	1.880	1.880	1.880	1.895	1.895	1.895
-0.005	0.005	0.005	0.005	0.010	-0.005	0.034	2.656	1.875	1.875	1.880	1.899	1.895	1.890
-0.005	-0.010	0.005	-0.005	0.010	0.005	0.034	2.646	1.875	1.875	1.875	1.895	1.895	1.890
0.000	-0.005	0.005	-0.005	0.010	0.015	0.034	2.637	1.875	1.875	1.875	1.890	1.895	1.899
0.000	-0.010	0.005	0.005	0.020	0.005	0.034	2.725	1.880	1.875	1.875	1.895	1.895	1.895
0.000	-0.010	0.005	-0.005	0.024	-0.024	0.034	2.651	1.875	1.875	1.875	1.890	1.895	1.885
-0.005	-0.015	0.005	-0.005	0.015	0.005	0.034	2.637	1.875	1.875	1.870	1.890	1.890	1.895
0.000	-0.005	0.000	0.000	0.010	0.005	0.029	2.671	1.880	1.875	1.870	1.890	1.890	1.890
0.000	0.000	0.005	0.000	0.005	0.000	0.029	2.690	1.880	1.880	1.875	1.890	1.885	1.890
0.000	0.005	0.005	0.000	-0.005	-0.005	0.029	2.666	1.885	1.880	1.875	1.890	1.885	1.885
-0.010	0.000	0.000	0.005	-0.005	0.015	0.029	2.651	1.875	1.875	1.875	1.895	1.885	1.890
0.000	0.000	0.000	0.000	-0.010	0.005	0.029	2.671	1.880	1.875	1.875	1.890	1.885	1.885
0.000	0.015	-0.005	0.005	-0.005	-0.005	0.034	2.632	1.875	1.880	1.875	1.895	1.885	1.885
-0.005	0.000	-0.005	0.000	0.000	-0.010	0.029	2.676	1.875	1.875	1.875	1.890	1.890	1.880
0.000	0.000	-0.005	-0.005	0.005	0.010	0.029	2.671	1.880	1.875	1.875	1.890	1.890	1.890
0.000	-0.005	-0.005	0.005	-0.005	0.010	0.029	2.651	1.875	1.875	1.875	1.895	1.885	1.890
0.000	0.000	0.000	0.005	-0.005	0.000	0.034	2.651	1.875	1.875	1.875	1.895	1.885	1.885
0.010	-0.005	0.005	0.000	-0.010	-0.010	0.034	2.651	1.875	1.875	1.875	1.895	1.885	1.885
0.010	-0.020	0.010	0.000	0.015	0.005	0.034	2.651	1.875	1.870	1.875	1.895	1.895	1.890
0.029	-0.020	0.005	0.000	0.010	0.000	0.034	2.715	1.885	1.870	1.875	1.895	1.890	1.890
0.029	-0.020	0.000	0.000	-0.005	-0.015	0.034	2.651	1.880	1.875	1.870	1.890	1.885	1.885
0.034	-0.020	0.005	0.000	-0.010	0.010	0.034	2.627	1.875	1.875	1.875	1.890	1.885	1.890
0.034	-0.010	0.005	0.000	0.000	-0.010	0.029	2.651	1.875	1.875	1.875	1.890	1.890	1.885
0.020	-0.005	0.005	0.000	0.000	0.015	0.034	2.671	1.875	1.875	1.875	1.890	1.890	1.890
0.020	-0.005	0.000	0.000	0.010	0.015	0.034	2.651	1.875	1.875	1.870	1.890	1.890	1.890
0.000	0.000	0.010	0.005	0.005	0.010	0.034	2.651	1.870	1.870	1.875	1.890	1.890	1.890
-0.015	-0.005	-0.005	0.000	0.005	-0.005	0.034	2.720	1.865	1.870	1.870	1.890	1.885	1.885
-0.020	0.005	0.000	0.005	-0.005	0.005	0.029	2.822	1.885	1.875	1.870	1.890	1.885	1.885
-0.020	0.020	-0.005	0.000	-0.010	-0.005	0.029	2.661	1.880	1.880	1.870	1.890	1.885	1.880
-0.034	0.020	-0.005	0.000	-0.005	0.005	0.029	2.695	1.880	1.880	1.875	1.890	1.885	1.885
-0.034	0.015	0.000	0.000	0.000	-0.010	0.029	2.695	1.880	1.880	1.875	1.890	1.890	1.885
-0.034	0.015	-0.005	0.000	0.015	0.010	0.029	2.651	1.880	1.875	1.875	1.895	1.890	1.890
-0.020	0.000	0.005	0.000	0.015	0.015	0.029	2.695	1.885	1.875	1.875	1.890	1.890	1.890
-0.015	0.000	0.000	0.000	0.005	0.000	0.034	2.681	1.885	1.875	1.875	1.890	1.885	1.885
-0.020	-0.005	0.005	0.000	0.000	-0.015	0.034	2.666	1.880	1.880	1.875	1.890	1.890	1.880
-0.010	-0.005	0.005	-0.005	0.005	0.010	0.034	2.676	1.880	1.880	1.875	1.890	1.890	1.890
-0.015	-0.005	0.005	0.005	0.005	-0.010	0.034	2.681	1.880	1.880	1.875	1.895	1.890	1.880
-0.005	-0.010	0.005	-0.005	0.010	0.010	0.034	2.690	1.885	1.875	1.875	1.890	1.890	1.890
0.005	-0.005	0.005	0.000	0.005	0.005	0.034	2.676	1.880	1.880	1.875	1.895	1.890	1.890
0.010	-0.005	0.000	0.000	0.010	-0.005	0.034	2.671	1.885	1.880	1.875	1.895	1.890	1.885
0.005	0.005	0.000	0.000	0.000	0.010	0.029	2.681	1.880	1.880	1.880	1.895	1.885	1.890
0.010	0.010	0.000	-0.005	0.005	-0.010	0.034	2.681	1.885	1.880	1.880	1.895	1.890	1.885
0.000	0.010	-0.005	0.005	0.000	0.005	0.029	2.681	1.880	1.880	1.880	1.895	1.890	1.885
-0.005	0.015	0.000	0.000	0.005	0.000	0.034	2.681	1.880	1.880	1.880	1.895	1.890	1.890
0.005	0.000	0.000	0.005	-0.015	0.005	0.034	2.671	1.880	1.875	1.880	1.895	1.885	1.890
0.000	0.020	0.000	0.005	-0.024	-0.005	0.034	2.700	1.885	1.885	1.880	1.899	1.885	1.885
0.000	0.005	0.000	0.010	-0.015	-0.015	0.034	2.671	1.880	1.880	1.880	1.895	1.890	1.885
0.000	0.010	0.000	0.005	-0.010	0.010	0.034	2.676	1.880	1.880	1.880	1.899	1.895	1.890
0.005	0.000	0.000	0.005	0.000	0.010	0.029	2.661	1.885	1.880	1.875	1.899	1.895	1.890
0.005	0.000	0.000	0.000	-0.005	0.010	0.029	2.671	1.880	1.880	1.875	1.895	1.895	1.895
0.015	0.000	-0.005	0.000	0.000	0.000	0.029	2.671	1.880	1.875	1.880	1.895	1.895	1.890
0.020	0.005	0.005	-0.005	0.005	0.000	0.034	2.686	1.885	1.880	1.880	1.895	1.895	1.890
0.005	-0.005	0.005	-0.005	0.005	0.000	0.034	2.681	1.880	1.875	1.875	1.890	1.890	1.890
0.010	-0.005	0.005	-0.005	0.010	-0.005	0.034	2.686	1.880	1.875	1.875	1.895	1.890	1.890
0.010	0.000	0.005	0.000	0.015	0.005	0.029	2.681	1.880	1.880	1.875	1.895	1.895	1.895
0.010	-0.005	0.005	-0.005	0.010	-0.015	0.029	2.681	1.880	1.875	1.875	1.895	1.890	1.890
0.010	-0.005	0.005	0.000	0.010	0.000	0.034	2.681	1.885	1.880	1.875	1.895	1.890	1.895
0.010	0.005	0.000	0.000	0.005	0.005	0.034	2.681	1.885	1.880	1.875	1.895	1.890	1.890
0.005	0.005	0.000	0.005	-0.005	0.005	0.034	2.676	1.880	1.880	1.875	1.895	1.890	1.890
0.005	0.010	0.000	0.005	0.000	0.010	0.034	2.671	1.885	1.885	1.880	1.895	1.890	1.890
-0.005	0.010	-0.005	0.010	0.000	-0.015	0.034	2.686	1.880	1.880	1.875	1.895	1.890	1.885
0.000	0.005	-0.005	0.005	0.015	-0.005	0.034	2.656	1.875	1.880	1.880	1.895	1.895	1.895
0.005	0.005	-0.005	0.005	0.005	0.005	0.034	2.676	1.880	1.880	1.875	1.895	1.890	1.890
-0.005	0.000	-0.010	0.005	0.000	-0.010	0.029	2.671	1.880	1.880	1.875	1.895	1.890	1.885
0.000	0.005	-0.005	0.000	0.000	0.010	0.034	2.661	1.880	1.875	1.875	1.895	1.895	1.895
0.000	0.005	0.005	-0.005	0.000	0.010	0.034	2.686	1.885	1.875	1.880	1.895	1.890	1.895
-0.005	0.000	0.000	0.000	0.000	0.005	0.029	2.690	1.885	1.875	1.880	1.895	1.890	1.895
0.015	-0.005	0.000	0.005	0.005	0.010	0.029	2.676	1.885	1.880	1.875	1.895	1.890	1.895
0.005	-0.010	0.005	-0.005	0.000	0.010	0.034	2.671	1.880	1.875	1.875	1.895	1.890	1.895
0.000	-0.015	0.000	-0.005	0.005	0.015	0.029	2.686	1.880	1.875	1.875	1.890	1.890	1.890
0.010	-0.005	0.005	-0.005	-0.005	-0.010	0.029	2.686	1.880	1.880	1.875	1.890	1.890	1.885
0.005	-0.010	0.005	-0.005	-0.010	0.005	0.034	2.671	1.875	1.875	1.875	1.895	1.885	1.890
0.000	-0.010	0.005	0.000	0.000	0.010	0.034	2.695	1.885	1.880	1.875	1.895	1.890	1.890
0.005	0.000	-0.005	0.000	0.010	-0.015	0.034	2.686	1.885	1.880	1.875	1.895	1.890	1.880
0.010	0.000	0.000	0.005	0.005	-0.010	0.034	2.686	1.880	1.880	1.875	1.895	1.890	1.885
-0.005	-0.005	0.000	-0.005	0.005	0.010	0.034	2.676	1.880	1.875	1.875	1.890	1.890	1.890
0.000	-0.010	-0.005	0.010	0.005	0.010	0.034	2.681	1.875	1.875	1.875	1.895	1.890	1.895
-0.005	-0.010	-0.005	0.005	0.015	0.000	0.034	2.686	1.880	1.875	1.875	1.895	1.895	1.890
0.000	0.000	-0.005	0.000	0.024	-0.005	0.034	2.686	1.885	1.880	1.875	1.895	1.895	1.890
-0.010	0.005	0.000	0.005	0.015	-0.020	0.029	2.690	1.880	1.880	1.880	1.895	1.890	1.890
0.000	0.005	-0.005	0.005	0.000	0.005	0.034	2.681	1.885	1.885	1.880	1.899	1.890	1.890
0.005	0.020	-0.005	0.005	0.000	-0.010	0.029	2.676	1.885	1.890	1.880	1.895	1.890	1.885
0.005	0.020	0.000	0.000	0.000	-0.024	0.034	2.686	1.885	1.885	1.885	1.895	1.890	1.885
0.005	0.015	0.000	0.000	-0.005	0.015	0.029	2.676	1.880	1.880	1.885	1.899	1.890	1.895
0.005	0.010	0.000	0.000	-0.015	0.015	0.034	2.681	1.880	1.880	1.880	1.899	1.890	1.895
0.000	0.000	-0.005	0.005	-0.024	-0.015	0.034	2.695	1.880	1.880	1.880	1.899	1.885	1.880
0.000	-0.005	0.005	0.005	-0.005	0.010	0.029	2.676	1.880	1.875	1.880	1.899	1.895	1.895
0.005	-0.005	0.005	0.005	0.005	-0.010	0.029	2.671	1.885	1.875	1.875	1.899	1.895	1.890
0.000	0.000	0.010	0.000	0.005	0.005	0.029	2.661	1.880	1.875	1.875	1.895	1.895	1.895
-0.005	-0.005	0.005	0.005	0.000	0.010	0.034	2.656	1.880	1.875	1.875	1.895	1.895	1.895
0.000	-0.020	0.010	0.000	-0.005	-0.005	0.034	2.676	1.875	1.870	1.870	1.890	1.890	1.890
-0.010	-0.024	0.005	0.005	-0.010	0.005	0.029	2.686	1.880	1.875	1.870	1.890	1.890	1.890
0.005	-0.005	0.000	0.005	-0.005	0.005	0.029	2.681	1.885	1.880	1.875	1.890	1.890	1.890
0.000	0.000	0.000	0.005	0.000	0.000	0.034	2.686	1.885	1.880	1.875	1.895	1.890	1.890
0.000	0.000	-0.005	0.005	-0.005	0.005	0.034	2.656	1.880	1.885	1.875	1.895	1.890	1.890
0.000	0.005	0.000	0.005	-0.005	0.005	0.034	2.676	1.880	1.885	1.880	1.895	1.890	1.890
-0.005	0.015	-0.005	0.000	-0.005	0.000	0.034	2.671	1.880	1.885	1.880	1.895	1.890	1.890
-0.005	0.010	-0.010	0.000	0.010	-0.005	0.029	2.686	1.880	1.880	1.875	1.895	1.895	1.890
-0.010	0.010	0.000	-0.005	0.024	0.000	0.034	2.695	1.885	1.885	1.880	1.895	1.895	1.895
-0.015	0.000	0.000	0.000	0.010	0.000	0.029	2.686	1.885	1.880	1.880	1.895	1.895	1.890
0.005	-0.015	-0.005	0.000	0.010	0.000	0.034	2.686	1.890	1.880	1.875	1.895	1.890	1.890
0.000	-0.010	0.000	0.000	0.005	-0.020	0.034	2.661	1.880	1.880	1.880	1.895	1.890	1.885
-0.005	-0.010	0.000	-0.005	0.000	-0.020	0.034	2.676	1.880	1.880	1.875	1.895	1.885	1.885
0.010	-0.015	0.000	-0.005	-0.010	0.010	0.034	2.671	1.885	1.880	1.880	1.895	1.890	1.890
0.000	-0.010	0.000	-0.010	-0.010	0.010	0.034	2.690	1.880	1.880	1.880	1.895	1.890	1.890
0.005	-0.020	0.005	-0.005	0.000	0.010	0.029	2.651	1.880	1.875	1.875	1.895	1.890	1.890
0.000	-0.010	0.005	-0.005	-0.005	0.005	0.029	2.676	1.875	1.880	1.875	1.895	1.890	1.890
0.000	0.000	0.000	-0.005	-0.005	0.000	0.034	2.686	1.880	1.880	1.875	1.895	1.890	1.885
0.000	0.005	0.000	-0.005	-0.010	0.010	0.034	2.671	1.880	1.885	1.880	1.895	1.890	1.890
0.000	0.029	0.000	-0.005	-0.010	-0.010	0.034	2.690	1.885	1.890	1.880	1.899	1.890	1.885
-0.005	0.024	0.000	-0.005	-0.005	0.015	0.034	2.666	1.880	1.885	1.880	1.899	1.895	1.890
0.005	0.029	-0.005	0.000	-0.005	0.015	0.034	2.666	1.885	1.890	1.885	1.899	1.895	1.895
-0.005	0.029	-0.005	-0.005	0.000	-0.010	0.034	2.690	1.885	1.885	1.880	1.899	1.890	1.890
-0.005	0.029	-0.005	-0.005	-0.010	0.010	0.029	2.681	1.885	1.880	1.880	1.899	1.890	1.895
0.000	0.000	0.000	-0.005	0.015	0.010	0.034	2.690	1.885	1.875	1.880	1.899	1.899	1.895
0.000	0.015	0.000	-0.005	0.034	-0.010	0.029	2.681	1.885	1.880	1.880	1.899	1.904	1.890
0.010	0.000	0.000	0.000	0.005	-0.005	0.034	2.676	1.885	1.880	1.880	1.899	1.890	1.890
0.000	-0.015	0.005	0.000	-0.020	0.000	0.029	2.676	1.880	1.875	1.875	1.895	1.885	1.890
0.005	-0.010	0.005	-0.005	-0.010	0.010	0.029	2.671	1.885	1.875	1.875	1.899	1.890	1.895
0.005	-0.020	0.005	-0.010	0.005	-0.005	0.034	2.676	1.880	1.875	1.875	1.895	1.895	1.890
0.010	-0.015	0.010	-0.005	-0.005	-0.024	0.034	2.671	1.880	1.875	1.875	1.895	1.890	1.885
0.000	-0.010	0.010	-0.005	0.020	-0.005	0.034	2.681	1.875	1.880	1.875	1.895	1.895	1.895
-0.005	-0.005	0.005	-0.005	0.029	0.005	0.034	2.681	1.880	1.875	1.875	1.895	1.895	1.895
0.000	-0.005	0.010	-0.005	0.054	0.000	0.034	2.686	1.880	1.880	1.875	1.895	1.899	1.899
0.010	-0.010	0.005	0.005	0.015	-0.024	0.034	2.681	1.885	1.875	1.875	1.899	1.890	1.890
0.000	0.000	0.000	0.005	0.010	0.005	0.034	2.686	1.885	1.880	1.875	1.895	1.890	1.895
0.005	0.015	0.000	0.000	0.020	-0.010	0.034	2.681	1.885	1.885	1.880	1.895	1.890	1.890
-0.010	0.024	-0.005	0.005	0.015	0.005	0.029	2.681	1.880	1.885	1.880	1.899	1.895	1.895
-0.005	0.020	-0.010	0.015	0.024	-0.005	0.029	2.642	1.880	1.885	1.880	1.899	1.890	1.890
-0.005	0.010	-0.005	0.015	-0.015	0.000	0.029	2.651	1.875	1.880	1.880	1.899	1.885	1.890
-0.010	-0.005	-0.005	0.015	-0.020	-0.005	0.029	2.676	1.875	1.875	1.880	1.895	1.885	1.890
0.000	-0.005	-0.005	0.015	0.020	-0.015	0.034	2.686	1.885	1.875	1.875	1.895	1.899	1.890
-0.010	-0.010	0.000	0.010	0.034	-0.020	0.034	2.686	1.885	1.875	1.875	1.895	1.899	1.890
0.000	-0.010	0.000	0.010	0.024	-0.024	0.034	2.671	1.880	1.880	1.875	1.895	1.895	1.885
0.005	-0.020	0.005	0.005	0.010	-0.010	0.029	2.686	1.880	1.870	1.875	1.895	1.890	1.895
0.005	-0.010	0.000	0.005	0.010	0.000	0.029	2.686	1.885	1.880	1.875	1.895	1.890	1.895
0.005	-0.034	0.005	0.010	0.000	0.010	0.029	2.686	1.880	1.875	1.875	1.890	1.885	1.895
0.010	-0.039	0.000	0.005	-0.010	0.010	0.029	2.681	1.885	1.875	1.870	1.890	1.885	1.890
0.000	-0.024	0.005	0.005	-0.010	0.010	0.034	2.671	1.880	1.880	1.875	1.890	1.885	1.890
0.000	-0.015	0.005	0.010	-0.010	-0.015	0.029	2.676	1.880	1.880	1.875	1.890	1.885	1.885
0.010	-0.010	0.005	0.005	-0.020	0.010	0.034	2.686	1.885	1.880	1.875	1.895	1.885	1.885
-0.005	-0.005	0.000	0.010	-0.015	-0.005	0.029	2.754	1.895	1.885	1.880	1.895	1.890	1.885
-0.005	0.010	0.005	0.010	-0.020	0.020	0.034	2.676	1.890	1.890	1.880	1.895	1.890	1.890
-0.005	0.039	0.000	0.015	-0.020	0.020	0.029	2.681	1.890	1.895	1.885	1.899	1.890	1.890
-0.005	0.010	0.000	0.005	-0.020	0.020	0.034	2.666	1.885	1.885	1.885	1.899	1.890	1.890
-0.005	-0.005	0.000	0.005	-0.015	0.020	0.034	2.700	1.885	1.885	1.885	1.899	1.895	1.890
0.000	0.005	-0.005	0.005	-0.020	0.015	0.034	2.676	1.885	1.885	1.885	1.899	1.895	1.890
-0.010	0.000	0.000	0.000	-0.010	0.010	0.034	2.671	1.880	1.880	1.885	1.899	1.895	1.890
-0.005	0.000	0.000	0.005	-0.010	0.005	0.034	2.671	1.885	1.880	1.880	1.899	1.895	1.890
0.000	0.015	-0.005	0.000	-0.010	0.010	0.029	2.686	1.885	1.885	1.880	1.899	1.895	1.895
0.005	0.015	0.005	0.010	-0.015	-0.010	0.029	2.681	1.880	1.885	1.885	1.899	1.895	1.890
0.000	0.005	0.005	0.005	-0.005	0.005	0.034	2.676	1.885	1.880	1.880	1.899	1.899	1.890
0.005	0.000	0.005	0.005	0.000	0.010	0.029	2.686	1.885	1.880	1.885	1.899	1.899	1.895
0.015	-0.010	0.005	0.000	0.000	0.015	0.029	2.681	1.885	1.875	1.880	1.899	1.895	1.895
0.005	-0.010	0.005	0.005	-0.005	0.005	0.034	2.681	1.880	1.880	1.875	1.895	1.895	1.895
0.010	0.000	0.005	0.000	0.000	0.005	0.034	2.666	1.880	1.880	1.880	1.895	1.899	1.895
0.015	0.000	0.005	-0.005	-0.005	0.005	0.034	2.690	1.885	1.880	1.880	1.895	1.895	1.895
0.005	0.005	0.000	0.000	0.005	0.005	0.034	2.681	1.885	1.880	1.880	1.895	1.895	1.890
-0.005	0.015	0.000	0.005	0.005	-0.015	0.034	2.681	1.880	1.885	1.880	1.895	1.895	1.890
0.000	0.020	-0.005	0.010	0.010	-0.005	0.034	2.671	1.880	1.885	1.880	1.899	1.895	1.890
-0.005	0.020	0.000	0.005	0.000	-0.005	0.034	2.681	1.880	1.880	1.880	1.899	1.895	1.890
0.000	0.020	-0.005	0.010	0.005	0.000	0.034	2.671	1.885	1.885	1.880	1.899	1.895	1.895
-0.010	0.010	-0.005	0.005	0.005	-0.005	0.034	2.686	1.885	1.880	1.880	1.899	1.895	1.895
-0.005	0.010	0.000	0.000	0.010	-0.029	0.034	2.676	1.885	1.880	1.880	1.899	1.895	1.885
-0.005	0.005	-0.005	0.005	0.000	0.005	0.034	2.661	1.880	1.880	1.880	1.899	1.895	1.899
0.000	0.000	-0.005	-0.005	0.000	-0.010	0.029	2.681	1.885	1.880	1.875	1.895	1.890	1.890
0.000	-0.010	-0.005	0.000	0.000	0.005	0.034	2.676	1.885	1.880	1.875	1.895	1.895	1.895
0.010	-0.010	0.000	-0.005	0.000	0.005	0.034	2.656	1.885	1.875	1.880	1.895	1.890	1.890
0.005	-0.034	0.010	-0.010	0.000	0.015	0.034	2.671	1.885	1.870	1.875	1.895	1.890	1.895
-0.005	-0.034	0.005	-0.005	0.010	0.005	0.029	2.686	1.875	1.870	1.875	1.895	1.890	1.895
0.015	-0.029	0.005	-0.005	0.005	0.015	0.029	2.690	1.890	1.875	1.875	1.890	1.890	1.895
0.005	-0.029	0.000	-0.005	0.000	-0.005	0.029	2.676	1.880	1.875	1.875	1.890	1.885	1.885
0.000	-0.020	0.005	-0.005	0.005	0.010	0.034	2.681	1.880	1.880	1.875	1.890	1.890	1.890
0.005	-0.020	0.000	0.000	0.010	0.005	0.034	2.681	1.880	1.880	1.875	1.895	1.890	1.890
0.000	-0.005	0.005	0.000	0.010	0.000	0.034	2.676	1.885	1.885	1.880	1.895	1.890	1.890
-0.010	0.005	0.005	0.000	0.015	-0.015	0.034	2.666	1.880	1.885	1.880	1.895	1.890	1.885
0.000	0.010	0.000	0.010	0.015	0.005	0.034	2.681	1.880	1.885	1.880	1.899	1.895	1.895
-0.010	0.015	-0.005	-0.005	0.015	0.000	0.034	2.690	1.885	1.885	1.880	1.899	1.895	1.890
-0.005	0.024	-0.005	0.000	0.005	0.005	0.034	2.686	1.885	1.885	1.880	1.899	1.890	1.890
0.000	0.039	-0.005	0.000	-0.005	-0.010	0.034	2.690	1.885	1.890	1.885	1.899	1.890	1.890
-0.010	0.034	-0.005	-0.005	0.010	-0.015	0.034	2.637	1.880	1.885	1.885	1.899	1.895	1.890
-0.005	0.020	-0.005	0.000	0.010	0.000	0.034	2.690	1.885	1.880	1.880	1.899	1.895	1.895
0.005	0.010	0.005	0.000	0.000	0.005	0.034	2.690	1.885	1.880	1.885	1.899	1.895	1.890
0.000	0.010	-0.005	0.000	0.000	-0.010	0.034	2.651	1.880	1.880	1.880	1.899	1.895	1.895
-0.005	0.010	0.010	-0.005	-0.010	0.010	0.029	2.690	1.880	1.880	1.880	1.899	1.890	1.895
0.005	0.000	0.005	0.000	-0.010	0.000	0.034	2.666	1.880	1.875	1.880	1.899	1.890	1.890
-0.005	-0.005	0.005	0.000	-0.029	0.005	0.029	2.676	1.880	1.875	1.875	1.895	1.885	1.890
0.000	-0.015	0.010	-0.005	-0.020	-0.005	0.034	2.671	1.880	1.875	1.875	1.895	1.890	1.890
0.000	-0.015	0.005	-0.005	0.000	0.010	0.034	2.681	1.880	1.875	1.875	1.895	1.895	1.890
0.005	-0.015	0.005	0.005	0.010	0.005	0.034	2.676	1.880	1.875	1.875	1.895	1.895	1.890
0.010	-0.010	0.005	0.000	0.005	0.000	0.029	2.676	1.885	1.880	1.875	1.895	1.890	1.890
0.005	-0.015	0.005	0.005	0.000	0.005	0.034	2.695	1.885	1.880	1.875	1.895	1.890	1.895
-0.005	-0.010	0.000	0.005	0.010	0.000	0.029	2.671	1.880	1.880	1.875	1.895	1.895	1.890
-0.005	0.005	-0.005	0.005	0.010	-0.005	0.029	2.681	1.880	1.885	1.875	1.895	1.895	1.890
-0.005	0.000	0.000	0.005	0.005	0.000	0.034	2.681	1.885	1.880	1.880	1.895	1.890	1.890
0.000	0.005	-0.005	0.005	0.010	0.005	0.034	2.671	1.885	1.880	1.880	1.895	1.890	1.895
0.005	-0.015	0.005	0.000	-0.005	-0.010	0.034	2.686	1.885	1.880	1.880	1.895	1.890	1.885
0.000	-0.010	-0.005	0.005	-0.005	-0.005	0.034	2.666	1.885	1.880	1.875	1.895	1.890	1.890
0.000	0.000	-0.005	0.005	0.005	0.005	0.034	2.676	1.885	1.880	1.875	1.895	1.895	1.890
-0.005	-0.005	-0.005	0.000	0.005	0.005	0.034	2.671	1.880	1.880	1.875	1.895	1.890	1.890
-0.010	0.015	0.000	0.000	0.000	-0.005	0.034	2.690	1.885	1.885	1.880	1.895	1.890	1.885
0.010	0.020	0.000	0.000	0.005	-0.005	0.034	2.695	1.890	1.890	1.885	1.895	1.895	1.890
0.005	0.000	0.010	0.005	0.010	0.005	0.034	2.676	1.880	1.880	1.880	1.899	1.895	1.895
0.015	-0.005	0.000	0.000	0.005	-0.005	0.034	2.656	1.880	1.880	1.880	1.895	1.890	1.890
0.005	-0.010	0.005	0.000	-0.005	-0.005	0.034	2.661	1.880	1.875	1.875	1.895	1.890	1.890
0.015	0.000	0.005	0.000	-0.005	0.005	0.034	2.681	1.885	1.880	1.880	1.895	1.890	1.890
0.010	0.000	0.000	0.000	0.000	-0.005	0.034	2.676	1.880	1.880	1.880	1.895	1.890	1.890
0.000	0.005	0.010	-0.005	0.000	-0.015	0.029	2.700	1.885	1.880	1.880	1.899	1.890	1.885
0.010	0.010	0.005	0.000	0.000	0.005	0.029	2.656	1.880	1.880	1.880	1.895	1.890	1.895
0.005	0.020	0.000	0.005	0.000	-0.010	0.029	2.690	1.885	1.885	1.880	1.899	1.895	1.890
-0.010	0.015	-0.005	0.000	0.010	0.005	0.029	2.671	1.880	1.880	1.880	1.895	1.895	1.895
-0.010	0.020	-0.005	0.000	0.015	0.000	0.034	2.681	1.880	1.885	1.880	1.899	1.895	1.895
-0.015	0.015	-0.005	0.005	0.010	0.000	0.029	2.681	1.875	1.880	1.880	1.895	1.895	1.895
-0.010	0.024	-0.005	0.000	0.010	0.000	0.029	2.686	1.885	1.880	1.880	1.895	1.895	1.890
0.005	0.010	0.005	0.005	0.000	0.000	0.029	2.676	1.890	1.885	1.880	1.899	1.890	1.895
0.000	0.000	0.000	0.005	-0.005	0.005	0.034	2.671	1.885	1.875	1.880	1.895	1.890	1.890
0.000	0.000	0.000	0.005	-0.005	0.005	0.034	2.676	1.885	1.880	1.880	1.895	1.890	1.895
-0.005	-0.005	0.005	0.005	-0.005	-0.015	0.034	2.686	1.885	1.880	1.875	1.895	1.890	1.890
0.010	-0.010	0.000	0.005	-0.015	-0.005	0.034	2.676	1.890	1.880	1.875	1.895	1.885	1.885
0.005	-0.010	0.005	0.000	-0.010	0.005	0.034	2.690	1.885	1.880	1.875	1.895	1.890	1.890
0.010	-0.010	0.010	0.000	0.000	0.000	0.034	2.671	1.885	1.880	1.875	1.895	1.890	1.890
0.000	-0.005	0.005	0.000	-0.005	0.005	0.034	2.681	1.885	1.880	1.875	1.895	1.890	1.890
0.010	-0.005	0.000	0.005	-0.005	0.010	0.034	2.681	1.880	1.880	1.875	1.895	1.890	1.895
0.015	-0.015	0.000	0.000	-0.005	0.005	0.029	2.646	1.880	1.880	1.875	1.895	1.890	1.890
0.005	0.005	0.005	0.000	0.005	0.010	0.029	2.661	1.880	1.885	1.880	1.895	1.895	1.895
0.000	0.010	0.000	0.000	0.015	0.010	0.029	2.676	1.880	1.880	1.880	1.895	1.895	1.895
-0.005	0.010	-0.005	0.005	0.015	0.005	0.034	2.686	1.875	1.880	1.880	1.899	1.895	1.890
0.000	0.015	-0.005	0.000	0.020	0.000	0.029	2.686	1.885	1.880	1.880	1.899	1.895	1.890
-0.005	0.015	-0.005	0.005	0.005	-0.010	0.029	2.690	1.885	1.880	1.875	1.899	1.890	1.885
-0.005	0.010	0.000	0.005	0.000	0.000	0.029	2.690	1.885	1.880	1.880	1.895	1.890	1.890
-0.005	0.005	-0.005	0.005	0.010	0.000	0.034	2.671	1.885	1.880	1.875	1.895	1.895	1.895
-0.005	0.005	0.000	0.005	-0.005	0.000	0.029	2.690	1.885	1.880	1.880	1.899	1.890	1.890
0.000	0.000	0.000	0.000	-0.005	0.000	0.029	2.666	1.885	1.880	1.880	1.895	1.890	1.890
0.005	-0.005	0.005	-0.005	-0.005	-0.005	0.034	2.671	1.885	1.880	1.875	1.895	1.895	1.890
-0.005	-0.015	0.005	0.000	0.005	0.000	0.034	2.676	1.880	1.875	1.880	1.895	1.895	1.890
0.005	-0.015	0.005	0.000	0.010	0.005	0.029	2.671	1.880	1.875	1.875	1.895	1.895	1.895
0.000	-0.015	0.005	0.000	0.015	0.010	0.034	2.681	1.885	1.875	1.875	1.895	1.890	1.895
0.005	-0.029	0.000	0.000	-0.015	0.000	0.034	2.681	1.885	1.875	1.875	1.890	1.885	1.890
0.005	-0.029	0.005	-0.005	-0.005	0.010	0.029	2.690	1.885	1.875	1.875	1.890	1.885	1.890
0.010	-0.010	0.000	-0.005	0.010	-0.005	0.034	2.676	1.880	1.880	1.875	1.890	1.890	1.885
0.000	-0.005	0.005	-0.005	0.010	0.010	0.034	2.681	1.880	1.885	1.875	1.895	1.890	1.890
0.000	0.005	-0.005	0.000	0.005	0.015	0.034	2.681	1.880	1.880	1.880	1.895	1.890	1.895
0.005	0.000	0.000	0.000	0.000	-0.010	0.034	2.686	1.885	1.880	1.880	1.895	1.890	1.885
0.000	0.005	-0.005	0.000	-0.005	0.010	0.034	2.686	1.885	1.885	1.880	1.895	1.890	1.890
-0.005	0.029	0.000	0.005	0.000	0.005	0.029	2.681	1.880	1.890	1.885	1.899	1.890	1.890
-0.005	0.044	0.000	0.005	-0.010	0.005	0.034	2.686	1.880	1.890	1.885	1.899	1.890	1.890
0.000	0.029	0.005	0.005	-0.020	0.010	0.029	2.690	1.890	1.885	1.885	1.899	1.890	1.890
0.000	0.020	0.005	0.005	-0.024	0.000	0.029	2.686	1.890	1.885	1.885	1.899	1.890	1.890
0.005	0.020	0.000	0.000	-0.015	-0.010	0.029	2.661	1.885	1.880	1.885	1.899	1.895	1.890
-0.005	0.000	0.005	0.005	0.000	0.005	0.029	2.686	1.880	1.875	1.880	1.904	1.899	1.895
-0.005	0.000	0.005	0.005	0.015	0.000	0.034	2.651	1.880	1.880	1.875	1.899	1.904	1.895
0.010	0.000	-0.005	0.000	0.005	-0.010	0.029	2.671	1.885	1.875	1.875	1.895	1.895	1.890
0.005	0.005	0.005	-0.005	-0.005	0.000	0.029	2.686	1.880	1.875	1.875	1.895	1.890	1.895
0.005	0.010	0.005	0.000	-0.010	0.010	0.029	2.671	1.880	1.880	1.880	1.895	1.890	1.895
0.005	0.010	0.000	-0.005	-0.005	0.005	0.034	2.681	1.885	1.880	1.880	1.895	1.890	1.890
0.010	0.005	0.005	0.000	-0.005	-0.020	0.034	2.681	1.885	1.880	1.880	1.895	1.890	1.885
0.005	0.000	0.000	-0.005	-0.005	0.000	0.034	2.671	1.880	1.875	1.875	1.895	1.890	1.895
0.005	-0.010	0.000	0.005	0.000	0.000	0.029	2.666	1.880	1.875	1.875	1.895	1.895	1.890
-0.005	0.000	-0.005	0.005	0.000	-0.010	0.029	2.681	1.880	1.880	1.875	1.895	1.895	1.885
0.000	0.005	-0.005	0.005	0.005	0.010	0.029	2.676	1.880	1.880	1.875	1.895	1.895	1.895
-0.005	0.005	0.000	0.000	0.015	0.015	0.034	2.778	1.895	1.880	1.880	1.895	1.895	1.895
-0.010	0.010	-0.005	0.005	0.005	0.010	0.034	2.681	1.890	1.885	1.875	1.895	1.895	1.895
-0.005	0.020	-0.010	0.005	0.010	0.005	0.029	2.681	1.890	1.890	1.880	1.895	1.890	1.890
-0.005	0.015	-0.005	0.005	0.010	0.015	0.029	2.666	1.890	1.890	1.885	1.899	1.895	1.895
-0.005	0.015	0.000	0.000	0.015	-0.005	0.029	2.656	1.880	1.885	1.885	1.899	1.895	1.890
-0.005	0.010	-0.005	0.000	0.010	-0.005	0.034	2.676	1.880	1.885	1.880	1.899	1.895	1.890
0.000	0.000	-0.005	-0.005	-0.005	-0.024	0.029	2.676	1.885	1.880	1.880	1.899	1.890	1.885
0.005	0.000	0.000	0.000	-0.024	-0.024	0.029	2.686	1.885	1.880	1.880	1.899	1.885	1.885
0.000	0.005	0.000	0.000	-0.020	-0.015	0.029	2.681	1.880	1.880	1.880	1.899	1.890	1.885
0.005	-0.010	0.005	0.000	-0.015	-0.015	0.029	2.676	1.880	1.875	1.875	1.899	1.890	1.890
0.005	-0.015	0.005	-0.005	-0.005	-0.015	0.029	2.671	1.880	1.875	1.875	1.895	1.895	1.890
0.010	-0.010	0.005	-0.005	0.000	0.000	0.029	2.710	1.885	1.875	1.875	1.895	1.895	1.890
0.005	-0.010	-0.005	-0.005	0.020	0.015	0.029	2.676	1.880	1.880	1.875	1.895	1.899	1.899
0.010	-0.005	0.005	-0.005	0.029	0.005	0.029	2.681	1.890	1.880	1.875	1.895	1.899	1.899
0.005	0.000	0.000	0.000	0.020	-0.005	0.029	2.676	1.885	1.885	1.880	1.895	1.895	1.895
0.005	0.000	0.000	0.000	0.034	0.005	0.034	2.686	1.885	1.880	1.880	1.899	1.899	1.899
0.000	0.000	0.005	-0.005	0.059	-0.005	0.029	2.690	1.885	1.880	1.880	1.895	1.899	1.895
-0.010	0.000	-0.005	0.000	0.005	0.015	0.029	2.671	1.880	1.880	1.880	1.895	1.885	1.899
-0.005	-0.010	-0.005	0.005	-0.015	0.015	0.029	2.676	1.880	1.880	1.875	1.895	1.885	1.890
0.000	-0.020	-0.005	0.000	-0.005	0.010	0.034	2.686	1.885	1.880	1.875	1.895	1.890	1.890
-0.005	-0.010	0.000	0.000	0.000	0.005	0.034	2.695	1.890	1.880	1.880	1.899	1.890	1.890
-0.005	-0.005	0.000	0.000	-0.005	0.010	0.034	2.671	1.885	1.880	1.880	1.895	1.890	1.890
-0.005	-0.020	-0.005	0.000	0.000	0.005	0.029	2.676	1.880	1.880	1.880	1.895	1.895	1.890
0.000	-0.015	0.000	0.000	0.000	-0.010	0.029	2.681	1.890	1.880	1.880	1.895	1.895	1.890
0.000	-0.015	0.005	0.000	0.020	0.000	0.029	2.690	1.885	1.880	1.880	1.895	1.895	1.890
-0.005	-0.029	0.005	-0.005	0.015	0.010	0.029	2.681	1.885	1.875	1.880	1.899	1.895	1.895
-0.005	-0.029	0.005	0.005	-0.005	0.000	0.034	2.686	1.885	1.880	1.875	1.899	1.890	1.890
0.000	-0.024	0.005	0.000	-0.015	0.000	0.034	2.661	1.885	1.880	1.875	1.895	1.885	1.890
-0.005	-0.020	0.005	0.005	-0.010	0.005	0.034	2.651	1.875	1.885	1.875	1.895	1.890	1.890
0.000	-0.005	0.000	-0.005	0.000	-0.020	0.034	2.676	1.880	1.885	1.880	1.895	1.890	1.885
-0.005	0.000	0.005	0.000	0.015	0.005	0.034	2.666	1.880	1.885	1.880	1.899	1.899	1.895
0.000	0.010	0.000	0.005	0.039	0.015	0.034	2.690	1.880	1.885	1.880	1.899	1.904	1.899
0.000	0.029	-0.005	0.005	0.005	0.010	0.029	2.671	1.885	1.890	1.885	1.895	1.890	1.895
-0.005	0.034	-0.005	0.000	-0.010	-0.015	0.034	2.681	1.885	1.890	1.880	1.899	1.890	1.885
0.005	0.034	0.000	0.005	-0.010	0.015	0.034	2.676	1.885	1.890	1.885	1.899	1.890	1.895
-0.005	0.029	-0.005	0.010	-0.005	-0.005	0.034	2.690	1.885	1.885	1.885	1.904	1.895	1.890
0.000	0.020	-0.005	0.005	-0.010	0.005	0.034	2.671	1.885	1.880	1.885	1.904	1.895	1.895
0.000	0.015	-0.005	0.010	-0.005	0.000	0.029	2.671	1.885	1.880	1.880	1.899	1.895	1.895
0.000	0.005	0.000	0.010	-0.005	0.010	0.034	2.686	1.885	1.880	1.880	1.904	1.899	1.899
0.005	0.005	0.000	0.005	-0.005	0.005	0.034	2.690	1.885	1.880	1.880	1.899	1.895	1.895
0.000	-0.005	0.000	0.000	-0.005	-0.010	0.034	2.651	1.880	1.880	1.880	1.899	1.895	1.895
0.010	-0.005	0.000	0.000	-0.005	0.000	0.034	2.666	1.885	1.880	1.880	1.895	1.895	1.895
0.000	-0.005	0.000	0.000	0.000	0.005	0.034	2.671	1.880	1.880	1.880	1.895	1.895	1.895
0.005	-0.010	0.010	-0.005	0.010	-0.005	0.034	2.661	1.880	1.875	1.875	1.895	1.895	1.890
0.005	-0.005	0.005	-0.005	0.010	0.000	0.034	2.686	1.880	1.875	1.875	1.895	1.895	1.890
0.005	-0.020	0.000	0.005	-0.005	-0.015	0.029	2.681	1.880	1.875	1.875	1.895	1.890	1.890
0.005	-0.020	0.010	0.000	0.005	0.000	0.034	2.686	1.885	1.875	1.875	1.895	1.895	1.895
0.005	-0.010	0.000	0.000	0.010	0.000	0.034	2.661	1.880	1.880	1.875	1.895	1.895	1.890
0.010	0.000	-0.005	0.005	0.005	0.010	0.034	2.671	1.880	1.880	1.875	1.895	1.890	1.895
-0.010	-0.005	0.005	0.005	-0.005	-0.005	0.029	2.686	1.880	1.880	1.875	1.895	1.890	1.890
-0.005	0.005	0.000	0.005	-0.020	0.005	0.034	2.681	1.880	1.880	1.875	1.895	1.885	1.890
-0.005	0.005	0.000	0.005	-0.020	-0.005	0.029	2.715	1.885	1.885	1.880	1.895	1.885	1.885
-0.005	0.010	-0.005	0.000	-0.020	-0.005	0.029	2.632	1.880	1.885	1.880	1.895	1.885	1.885
-0.010	0.010	0.000	0.000	-0.020	-0.010	0.034	2.651	1.880	1.880	1.880	1.895	1.890	1.885
-0.005	0.015	-0.005	-0.005	0.000	-0.020	0.034	2.788	1.895	1.885	1.880	1.895	1.890	1.885
0.000	0.010	-0.005	0.000	0.005	0.000	0.029	2.769	1.904	1.890	1.880	1.899	1.895	1.895
0.000	0.015	0.000	0.000	0.010	0.010	0.029	2.651	1.895	1.890	1.885	1.899	1.895	1.895
0.000	0.005	0.005	0.000	0.015	0.000	0.029	2.671	1.895	1.885	1.885	1.899	1.899	1.890
0.005	0.005	0.000	-0.005	0.010	0.010	0.034	2.734	1.885	1.885	1.885	1.899	1.895	1.899
0.005	0.005	0.010	-0.005	0.005	-0.010	0.034	2.646	1.880	1.885	1.885	1.899	1.895	1.890
0.005	-0.010	0.005	0.000	0.010	-0.020	0.034	2.632	1.875	1.880	1.880	1.904	1.895	1.890
0.005	-0.010	0.010	-0.005	0.005	0.015	0.034	2.651	1.875	1.875	1.880	1.899	1.895	1.899
0.015	0.005	0.010	0.000	0.000	0.015	0.034	2.725	1.885	1.880	1.880	1.904	1.895	1.899
0.010	0.005	0.005	0.000	-0.020	0.010	0.034	2.637	1.880	1.880	1.880	1.899	1.890	1.895
0.015	0.005	0.000	0.000	0.010	-0.015	0.034	2.734	1.890	1.880	1.875	1.899	1.899	1.885
0.000	0.005	0.000	0.000	0.010	-0.010	0.034	2.622	1.880	1.880	1.875	1.899	1.899	1.895
0.005	0.010	0.000	0.000	0.005	-0.005	0.034	2.637	1.875	1.880	1.880	1.895	1.890	1.895
0.010	0.015	0.000	0.005	0.015	0.010	0.034	2.666	1.880	1.880	1.880	1.899	1.899	1.899
0.005	0.005	0.000	0.010	0.000	0.005	0.034	2.646	1.875	1.880	1.875	1.899	1.895	1.895
-0.015	-0.005	-0.005	0.005	0.015	0.005	0.034	2.656	1.875	1.870	1.875	1.895	1.899	1.895
0.000	-0.010	-0.005	0.000	0.039	0.005	0.034	2.778	1.890	1.875	1.875	1.895	1.899	1.899
-0.005	0.000	-0.005	0.000	0.029	0.005	0.034	2.651	1.885	1.880	1.875	1.895	1.895	1.895
0.000	0.000	0.000	0.005	0.029	0.000	0.029	2.734	1.895	1.885	1.875	1.895	1.895	1.890
0.000	0.000	-0.005	0.000	0.024	0.000	0.029	2.788	1.904	1.885	1.880	1.895	1.890	1.895
0.005	-0.005	0.000	0.000	-0.054	0.000	0.029	2.646	1.895	1.885	1.880	1.890	1.870	1.885
0.000	-0.015	0.005	0.000	-0.103	-0.005	0.034	2.627	1.880	1.885	1.880	1.890	1.865	1.875
0.005	-0.010	0.005	0.000	-0.073	-0.010	0.029	2.720	1.885	1.885	1.880	1.895	1.875	1.870
0.000	-0.005	0.005	0.000	-0.034	-0.015	0.029	2.661	1.880	1.880	1.880	1.899	1.895	1.880
-0.005	0.000	0.005	-0.005	-0.020	-0.029	0.029	2.690	1.880	1.880	1.880	1.899	1.895	1.880
0.005	0.000	0.005	0.000	-0.034	0.000	0.034	2.720	1.890	1.880	1.880	1.899	1.895	1.890
-0.005	0.000	0.005	0.000	-0.020	0.015	0.034	2.666	1.880	1.880	1.880	1.899	1.899	1.899
0.005	0.000	0.000	0.000	0.034	0.020	0.034	2.744	1.890	1.885	1.880	1.899	1.914	1.909
0.000	0.005	0.005	0.000	0.098	0.010	0.029	2.676	1.890	1.885	1.885	1.899	1.924	1.909
-0.010	0.000	0.000	0.005	0.117	0.020	0.034	2.734	1.895	1.885	1.880	1.904	1.919	1.914
-0.010	0.000	-0.005	0.005	0.059	0.010	0.034	2.666	1.885	1.890	1.880	1.899	1.899	1.909
-0.005	0.010	0.000	0.005	0.029	0.000	0.034	2.700	1.890	1.890	1.885	1.899	1.890	1.899
-0.010	0.000	-0.005	0.005	0.024	-0.005	0.034	2.705	1.895	1.890	1.885	1.899	1.890	1.895
-0.005	0.005	0.000	0.005	0.010	0.010	0.034	2.686	1.895	1.890	1.885	1.899	1.890	1.899
0.000	-0.005	0.000	0.005	-0.005	0.010	0.034	2.700	1.895	1.890	1.885	1.904	1.890	1.895
0.000	0.005	0.005	0.000	-0.005	0.005	0.034	2.676	1.890	1.890	1.885	1.904	1.890	1.890
0.010	0.005	0.000	0.000	-0.005	0.000	0.034	2.686	1.890	1.890	1.890	1.899	1.890	1.890
0.010	-0.010	0.000	0.000	-0.010	0.000	0.034	2.690	1.890	1.885	1.885	1.899	1.890	1.890
0.005	-0.010	0.005	-0.005	-0.015	0.010	0.034	2.690	1.890	1.885	1.890	1.904	1.895	1.895
0.010	-0.010	0.000	0.000	-0.015	0.000	0.034	2.676	1.885	1.880	1.885	1.899	1.895	1.890
0.010	-0.034	0.005	0.000	-0.015	0.005	0.034	2.676	1.880	1.875	1.880	1.899	1.895	1.895
0.010	-0.024	0.005	0.000	-0.010	0.005	0.029	2.671	1.880	1.880	1.880	1.899	1.895	1.890
-0.005	-0.005	0.005	0.000	-0.010	-0.020	0.029	2.700	1.885	1.880	1.880	1.899	1.895	1.890
0.005	-0.005	0.005	0.000	-0.010	0.005	0.034	2.695	1.880	1.885	1.880	1.899	1.899	1.899
0.020	0.005	0.005	0.000	-0.020	-0.005	0.029	2.700	1.895	1.890	1.885	1.899	1.895	1.890
0.000	0.010	0.000	0.000	-0.015	-0.010	0.034	2.676	1.885	1.890	1.885	1.899	1.895	1.890
0.000	0.024	0.000	0.005	-0.010	0.000	0.029	2.705	1.890	1.890	1.890	1.904	1.899	1.895
-0.010	0.020	0.000	0.005	-0.010	0.000	0.029	2.676	1.885	1.890	1.890	1.904	1.899	1.895
-0.005	0.024	0.000	0.005	-0.005	-0.005	0.034	2.705	1.890	1.890	1.890	1.904	1.904	1.895
-0.010	0.029	-0.005	0.005	0.005	-0.005	0.029	2.690	1.890	1.890	1.885	1.904	1.904	1.899
-0.005	0.020	-0.005	0.005	0.010	0.000	0.034	2.700	1.895	1.890	1.885	1.904	1.904	1.899
-0.005	0.015	0.000	0.000	0.005	-0.010	0.029	2.686	1.895	1.890	1.890	1.904	1.899	1.895
-0.010	0.010	0.000	0.000	0.000	0.005	0.034	2.686	1.890	1.880	1.885	1.904	1.899	1.904
0.000	0.000	0.000	0.000	0.005	0.000	0.034	2.651	1.885	1.880	1.885	1.904	1.899	1.904
0.005	-0.005	0.000	0.000	-0.005	0.005	0.034	2.646	1.885	1.880	1.880	1.904	1.899	1.899
0.000	-0.005	0.005	0.000	-0.005	-0.005	0.034	2.783	1.880	1.880	1.880	1.899	1.895	1.899
0.005	-0.015	0.005	-0.005	0.000	0.005	0.029	2.661	1.895	1.880	1.880	1.899	1.899	1.899
0.005	-0.010	0.005	-0.005	0.005	0.010	0.034	2.651	1.890	1.880	1.880	1.899	1.895	1.899
0.010	-0.020	0.000	0.000	-0.005	0.000	0.034	2.637	1.885	1.880	1.880	1.899	1.895	1.890
0.010	-0.010	0.010	0.005	-0.010	0.015	0.034	2.661	1.885	1.885	1.880	1.899	1.895	1.895
0.005	-0.005	0.005	0.000	-0.010	0.010	0.034	2.661	1.890	1.885	1.880	1.899	1.890	1.890
0.005	0.000	0.000	0.005	-0.005	-0.015	0.034	2.695	1.895	1.890	1.880	1.899	1.895	1.885
-0.005	0.020	0.005	0.005	-0.005	0.010	0.034	2.749	1.885	1.895	1.885	1.899	1.895	1.899
-0.005	0.010	0.000	0.005	-0.015	0.015	0.029	2.671	1.885	1.885	1.885	1.899	1.895	1.895
0.000	0.010	0.000	0.005	0.005	0.005	0.029	2.710	1.890	1.885	1.885	1.904	1.899	1.899
-0.010	0.015	0.000	0.005	0.005	0.000	0.034	2.729	1.895	1.890	1.885	1.899	1.899	1.895
-0.010	0.005	0.005	0.010	0.005	0.010	0.034	2.646	1.890	1.890	1.885	1.904	1.899	1.899
0.000	-0.005	-0.005	0.005	0.000	0.010	0.034	2.715	1.895	1.890	1.885	1.904	1.899	1.899
-0.005	0.005	0.000	0.000	0.005	-0.024	0.034	2.671	1.895	1.890	1.885	1.899	1.899	1.890
0.005	0.000	0.000	0.000	0.005	0.010	0.034	2.720	1.895	1.890	1.885	1.899	1.899	1.899
0.005	-0.010	0.005	0.000	0.000	0.005	0.034	2.666	1.895	1.890	1.885	1.899	1.899	1.899
0.000	-0.024	0.010	0.000	0.000	-0.005	0.034	2.700	1.890	1.885	1.885	1.904	1.895	1.890
-0.005	-0.024	0.010	-0.005	0.000	0.010	0.034	2.671	1.885	1.880	1.885	1.899	1.895	1.899
-0.005	-0.020	0.000	0.000	0.000	-0.005	0.034	2.686	1.890	1.885	1.880	1.904	1.895	1.895
-0.005	-0.015	0.005	-0.005	0.000	0.010	0.034	2.695	1.890	1.885	1.880	1.899	1.895	1.895
-0.005	-0.015	0.000	0.000	0.005	0.005	0.034	2.661	1.885	1.890	1.885	1.899	1.895	1.899
0.000	0.000	0.000	0.000	0.005	-0.010	0.034	2.695	1.885	1.890	1.885	1.899	1.895	1.890
0.005	0.005	0.005	-0.005	-0.005	0.015	0.034	2.700	1.890	1.890	1.885	1.904	1.895	1.899
0.000	0.000	0.000	0.000	0.005	0.010	0.034	2.705	1.895	1.890	1.885	1.904	1.899	1.895
-0.005	0.005	0.005	0.000	0.010	-0.005	0.034	2.686	1.890	1.890	1.890	1.904	1.899	1.895
-0.005	0.005	0.000	0.005	0.005	0.005	0.034	2.695	1.890	1.890	1.885	1.904	1.899	1.895
-0.005	0.015	0.005	0.000	0.000	-0.010	0.034	2.681	1.890	1.890	1.890	1.904	1.895	1.890
0.005	0.010	0.000	0.000	0.000	0.005	0.034	2.681	1.895	1.890	1.890	1.904	1.899	1.899
0.000	0.010	0.000	0.000	0.000	0.010	0.034	2.681	1.890	1.890	1.885	1.904	1.904	1.904
0.005	0.005	0.005	0.000	0.005	-0.010	0.034	2.681	1.895	1.890	1.890	1.904	1.904	1.895
0.000	0.000	0.000	0.000	0.005	-0.015	0.029	2.681	1.890	1.885	1.890	1.904	1.899	1.899
0.000	0.000	0.005	0.000	0.000	0.015	0.029	2.686	1.890	1.885	1.885	1.904	1.899	1.904
0.005	-0.005	0.005	0.005	-0.005	0.015	0.029	2.690	1.890	1.885	1.885	1.904	1.899	1.904
0.010	-0.005	0.000	0.000	0.000	0.000	0.034	2.700	1.895	1.885	1.885	1.904	1.899	1.899
0.010	-0.010	0.005	0.000	0.005	0.010	0.034	2.676	1.890	1.885	1.885	1.904	1.899	1.899
0.005	-0.005	0.005	0.005	0.000	-0.010	0.034	2.695	1.890	1.885	1.885	1.904	1.899	1.895
0.010	-0.015	0.010	0.000	-0.015	0.005	0.034	2.676	1.895	1.885	1.880	1.899	1.895	1.899
0.015	-0.015	0.000	0.000	-0.005	0.015	0.034	2.681	1.890	1.885	1.880	1.899	1.899	1.899
0.010	-0.015	0.005	0.000	0.024	-0.005	0.034	2.656	1.885	1.885	1.885	1.904	1.904	1.895
0.005	-0.005	0.000	0.000	0.034	0.010	0.034	2.651	1.880	1.885	1.880	1.899	1.904	1.904
0.005	0.010	0.000	0.000	0.024	0.015	0.029	2.788	1.899	1.890	1.885	1.899	1.899	1.904
0.005	0.029	0.000	-0.005	0.024	-0.005	0.034	2.656	1.890	1.899	1.890	1.904	1.899	1.895
-0.005	0.020	0.000	0.000	0.015	0.015	0.034	2.656	1.885	1.890	1.890	1.904	1.899	1.899
0.000	0.020	-0.005	-0.005	0.005	0.020	0.034	2.637	1.885	1.890	1.890	1.904	1.895	1.904
0.000	0.010	0.000	0.000	-0.005	0.000	0.029	2.817	1.899	1.890	1.885	1.904	1.895	1.899
-0.005	0.010	-0.005	0.005	-0.015	0.020	0.034	2.749	1.899	1.890	1.890	1.909	1.895	1.899
-0.005	0.005	0.000	0.005	-0.005	0.015	0.029	2.637	1.895	1.890	1.890	1.909	1.899	1.899
0.005	-0.010	0.000	0.000	-0.034	0.010	0.029	2.725	1.899	1.890	1.890	1.904	1.890	1.895
0.005	-0.015	0.000	0.000	-0.024	0.005	0.029	2.642	1.890	1.885	1.885	1.904	1.895	1.895
0.005	-0.005	0.010	0.005	-0.020	-0.010	0.034	2.700	1.890	1.890	1.890	1.909	1.899	1.890
0.005	-0.005	0.010	0.000	0.005	-0.005	0.034	2.725	1.890	1.885	1.890	1.909	1.904	1.899
0.010	-0.005	0.000	0.005	-0.005	-0.015	0.034	2.681	1.895	1.890	1.885	1.904	1.899	1.890
0.010	-0.015	0.010	-0.005	-0.010	-0.029	0.034	2.646	1.885	1.885	1.885	1.904	1.899	1.890
0.005	-0.005	0.005	0.000	0.010	-0.005	0.034	2.666	1.885	1.890	1.885	1.904	1.909	1.899
0.010	0.010	0.005	0.000	0.015	-0.010	0.029	2.715	1.890	1.890	1.885	1.904	1.904	1.899
0.000	0.005	-0.005	0.000	-0.015	-0.049	0.034	2.676	1.885	1.885	1.885	1.904	1.895	1.890
-0.010	0.010	0.000	0.000	-0.020	-0.005	0.029	2.700	1.890	1.885	1.885	1.904	1.895	1.899
-0.010	0.010	0.000	0.005	0.015	-0.024	0.034	2.686	1.890	1.885	1.885	1.904	1.909	1.899
-0.005	0.020	-0.005	0.005	0.049	0.010	0.034	2.705	1.895	1.890	1.885	1.904	1.919	1.914
-0.005	0.029	0.000	0.000	0.039	0.020	0.034	2.700	1.895	1.895	1.885	1.904	1.909	1.914
0.000	0.020	-0.005	0.000	-0.010	0.024	0.034	2.686	1.895	1.890	1.890	1.904	1.895	1.909
-0.010	0.024	0.000	0.005	-0.015	0.029	0.029	2.690	1.890	1.895	1.890	1.904	1.895	1.909
-0.005	0.020	0.000	0.000	-0.010	0.015	0.034	2.695	1.895	1.890	1.890	1.909	1.899	1.904
-0.010	0.010	0.000	0.005	-0.010	0.020	0.029	2.700	1.895	1.890	1.890	1.909	1.899	1.899
0.000	0.005	0.000	0.005	0.005	0.015	0.029	2.681	1.895	1.890	1.885	1.904	1.909	1.899
0.000	0.000	0.005	0.000	0.024	-0.010	0.034	2.690	1.899	1.895	1.890	1.904	1.904	1.895
0.000	-0.010	0.000	-0.005	0.010	0.015	0.034	2.695	1.895	1.885	1.890	1.904	1.899	1.904
0.005	-0.010	0.005	-0.005	-0.005	0.005	0.034	2.676	1.895	1.890	1.885	1.904	1.895	1.899
0.005	-0.015	0.010	-0.005	-0.015	0.005	0.034	2.676	1.890	1.885	1.885	1.904	1.895	1.895
0.010	-0.005	0.010	0.005	-0.010	0.010	0.029	2.676	1.890	1.890	1.890	1.904	1.899	1.895
0.010	-0.005	0.005	0.005	-0.005	0.010	0.034	2.686	1.890	1.890	1.885	1.904	1.899	1.899
0.005	-0.005	0.000	0.005	0.000	0.000	0.034	2.671	1.885	1.890	1.885	1.904	1.899	1.895
0.005	0.010	0.005	0.005	0.005	0.010	0.034	2.705	1.895	1.890	1.890	1.909	1.904	1.899
0.010	0.010	0.000	0.010	-0.005	-0.024	0.034	2.700	1.895	1.895	1.890	1.909	1.899	1.890
0.000	0.015	0.000	0.000	-0.015	0.005	0.034	2.695	1.890	1.890	1.890	1.904	1.895	1.899
0.000	0.015	0.000	0.005	-0.024	-0.005	0.034	2.676	1.890	1.895	1.890	1.909	1.899	1.895
0.000	0.010	0.000	0.010	-0.005	0.010	0.034	2.671	1.890	1.890	1.890	1.909	1.904	1.904
-0.005	0.005	0.000	-0.005	0.000	-0.020	0.029	2.695	1.890	1.885	1.885	1.904	1.904	1.895
-0.005	0.010	0.000	0.000	0.015	0.010	0.034	2.637	1.885	1.890	1.890	1.904	1.909	1.909
-0.005	0.005	-0.005	0.000	0.000	0.000	0.029	2.661	1.885	1.885	1.885	1.904	1.904	1.904
0.000	-0.005	0.000	0.000	-0.005	0.000	0.034	2.778	1.899	1.880	1.885	1.904	1.899	1.899
0.000	-0.005	0.000	-0.005	0.000	0.000	0.034	2.637	1.885	1.885	1.885	1.904	1.899	1.899
0.000	0.005	0.000	-0.005	-0.020	-0.005	0.029	2.651	1.885	1.885	1.885	1.904	1.895	1.895
0.010	-0.015	0.000	0.000	-0.029	-0.010	0.034	2.637	1.875	1.880	1.880	1.904	1.895	1.895
0.005	-0.010	0.005	-0.005	0.005	-0.005	0.034	2.788	1.895	1.880	1.880	1.899	1.904	1.899
0.000	-0.024	0.005	0.000	0.000	-0.005	0.029	2.744	1.895	1.880	1.880	1.899	1.899	1.899
0.005	-0.005	0.000	0.000	-0.010	-0.015	0.034	2.622	1.890	1.890	1.880	1.904	1.895	1.895
0.010	-0.010	0.000	0.000	0.093	-0.034	0.034	2.739	1.899	1.890	1.880	1.904	1.924	1.899
-0.005	-0.005	0.000	0.000	0.068	-0.015	0.029	2.725	1.899	1.890	1.885	1.904	1.909	1.909
0.005	0.000	0.000	0.005	0.049	-0.005	0.029	2.686	1.899	1.895	1.890	1.904	1.904	1.909
0.010	0.015	0.000	0.005	0.054	-0.015	0.034	2.725	1.904	1.899	1.890	1.904	1.904	1.904
-0.005	0.015	0.000	0.010	0.083	0.024	0.034	2.661	1.890	1.899	1.890	1.909	1.914	1.919
-0.005	0.020	-0.005	0.005	0.049	0.015	0.029	2.725	1.899	1.899	1.895	1.909	1.899	1.914
0.000	0.015	-0.005	0.005	0.020	0.039	0.029	2.671	1.895	1.899	1.895	1.909	1.899	1.909
-0.005	0.015	-0.005	0.000	0.005	0.024	0.029	2.622	1.885	1.895	1.890	1.904	1.890	1.904
-0.005	0.024	0.000	0.000	-0.010	0.015	0.029	2.666	1.890	1.895	1.895	1.909	1.890	1.895
0.005	0.015	0.005	0.005	-0.010	0.024	0.029	2.695	1.895	1.890	1.895	1.909	1.895	1.899
0.000	0.005	0.000	0.000	-0.024	0.015	0.034	2.676	1.890	1.890	1.890	1.909	1.895	1.895
0.005	0.000	0.005	0.005	-0.020	0.005	0.034	2.686	1.890	1.890	1.890	1.914	1.899	1.890
0.000	-0.005	0.005	0.005	-0.020	0.000	0.034	2.690	1.890	1.885	1.885	1.909	1.899	1.895
0.005	-0.005	0.005	0.005	-0.020	0.000	0.034	2.676	1.890	1.885	1.885	1.904	1.899	1.895
0.005	-0.020	0.000	0.000	-0.024	-0.010	0.029	2.700	1.890	1.885	1.880	1.904	1.895	1.895
0.000	-0.015	0.005	0.005	-0.020	-0.005	0.034	2.690	1.890	1.885	1.885	1.904	1.899	1.895
0.000	-0.005	0.005	0.005	-0.020	-0.015	0.034	2.690	1.890	1.890	1.885	1.904	1.899	1.895
-0.005	0.000	0.000	0.005	-0.010	0.000	0.034	2.695	1.890	1.890	1.885	1.904	1.899	1.899
-0.005	-0.005	0.000	0.005	-0.010	-0.010	0.029	2.695	1.890	1.885	1.885	1.904	1.899	1.895
0.000	0.005	0.005	0.000	-0.010	0.015	0.034	2.695	1.895	1.890	1.885	1.904	1.899	1.899
0.000	0.005	0.005	0.005	-0.015	0.015	0.034	2.681	1.890	1.890	1.885	1.904	1.899	1.899
-0.010	0.010	-0.005	0.005	-0.005	0.005	0.029	2.671	1.890	1.895	1.890	1.904	1.899	1.904
-0.005	0.015	-0.005	0.000	-0.015	0.005	0.034	2.700	1.890	1.890	1.890	1.904	1.899	1.895
-0.005	0.005	0.000	0.005	-0.015	0.010	0.029	2.671	1.890	1.890	1.890	1.904	1.899	1.899
-0.010	0.010	0.000	0.005	-0.010	0.005	0.029	2.681	1.885	1.890	1.890	1.904	1.904	1.899
-0.010	0.010	0.000	0.000	-0.005	0.000	0.034	2.686	1.890	1.890	1.890	1.904	1.899	1.899
0.000	0.005	0.000	-0.005	0.005	-0.039	0.034	2.690	1.895	1.890	1.890	1.904	1.904	1.890
0.010	-0.005	0.000	0.005	0.000	0.000	0.029	2.700	1.895	1.885	1.890	1.909	1.904	1.904
0.000	-0.024	0.005	-0.005	0.000	-0.010	0.029	2.671	1.890	1.880	1.885	1.904	1.899	1.899
0.010	-0.020	0.000	-0.005	-0.005	0.010	0.034	2.681	1.890	1.885	1.880	1.904	1.899	1.904
0.005	-0.015	0.010	0.005	0.000	0.000	0.034	2.681	1.885	1.890	1.890	1.904	1.899	1.904
0.015	-0.010	0.000	-0.005	0.000	0.000	0.034	2.661	1.890	1.890	1.885	1.904	1.899	1.899
0.005	-0.010	0.005	-0.005	0.015	0.000	0.034	2.646	1.885	1.885	1.885	1.899	1.904	1.899
0.015	-0.020	0.005	-0.005	0.015	-0.020	0.029	2.783	1.895	1.885	1.885	1.904	1.899	1.895
0.000	-0.015	0.005	-0.005	0.010	-0.005	0.034	2.646	1.890	1.885	1.885	1.904	1.899	1.899
0.000	-0.005	0.005	0.000	-0.020	0.000	0.034	2.656	1.885	1.885	1.885	1.904	1.890	1.899
0.000	0.000	0.000	0.005	-0.044	0.015	0.034	2.622	1.880	1.885	1.885	1.899	1.890	1.899
-0.005	0.024	0.000	0.005	-0.005	0.005	0.034	2.812	1.899	1.895	1.885	1.904	1.904	1.895
-0.010	0.029	-0.005	0.000	0.015	0.024	0.029	2.749	1.895	1.895	1.890	1.904	1.904	1.904
0.000	0.029	-0.005	0.010	0.000	0.010	0.029	2.622	1.890	1.895	1.890	1.909	1.899	1.899
0.010	0.024	-0.005	0.010	0.000	-0.005	0.034	2.739	1.899	1.895	1.890	1.909	1.904	1.895
0.005	0.015	-0.005	0.005	-0.005	-0.005	0.029	2.617	1.890	1.890	1.890	1.904	1.904	1.899
0.000	0.010	0.000	0.015	-0.010	-0.010	0.034	2.686	1.885	1.890	1.890	1.909	1.899	1.899
0.005	0.010	0.005	0.000	-0.010	-0.020	0.034	2.715	1.890	1.885	1.885	1.904	1.899	1.895
-0.005	0.005	0.000	0.005	-0.015	-0.020	0.029	2.676	1.890	1.885	1.885	1.909	1.899	1.895
0.010	0.000	0.005	0.005	-0.029	0.005	0.029	2.651	1.890	1.885	1.885	1.904	1.899	1.899
0.000	-0.010	0.010	-0.005	-0.010	0.005	0.029	2.676	1.885	1.880	1.880	1.904	1.904	1.899
0.005	-0.015	0.005	-0.005	-0.005	0.010	0.029	2.715	1.890	1.880	1.880	1.904	1.904	1.904
0.000	-0.020	0.010	0.000	-0.010	0.015	0.029	2.676	1.890	1.880	1.880	1.899	1.899	1.904
0.010	-0.015	0.000	0.000	-0.005	0.005	0.029	2.681	1.890	1.885	1.880	1.899	1.899	1.899
0.010	-0.020	0.000	0.000	0.015	0.000	0.034	2.676	1.885	1.885	1.880	1.899	1.904	1.899
0.005	-0.005	0.005	0.010	0.059	0.000	0.034	2.690	1.885	1.890	1.880	1.904	1.919	1.904
0.005	-0.005	0.010	0.005	0.103	-0.005	0.034	2.695	1.890	1.885	1.885	1.904	1.924	1.904
0.000	0.005	-0.005	0.005	0.063	-0.015	0.034	2.705	1.890	1.890	1.880	1.904	1.904	1.904
-0.005	0.015	-0.005	0.005	0.010	0.005	0.034	2.705	1.895	1.890	1.885	1.899	1.890	1.904
-0.010	0.010	-0.005	0.005	0.024	0.015	0.029	2.676	1.895	1.890	1.885	1.904	1.895	1.904
-0.010	0.005	0.000	0.000	0.034	0.005	0.034	2.700	1.890	1.890	1.885	1.904	1.899	1.899
-0.015	0.000	-0.005	0.005	0.015	0.005	0.034	2.695	1.895	1.890	1.890	1.904	1.895	1.899
-0.005	0.010	-0.005	0.010	0.000	-0.005	0.034	2.676	1.899	1.895	1.890	1.904	1.895	1.895
0.000	0.000	0.000	0.005	0.005	0.020	0.029	2.700	1.899	1.890	1.890	1.904	1.895	1.899
-0.005	0.005	0.000	0.000	-0.005	-0.005	0.034	2.695	1.895	1.890	1.890	1.904	1.895	1.890
0.005	-0.005	0.000	0.005	-0.005	0.020	0.034	2.671	1.895	1.890	1.890	1.904	1.895	1.899
0.000	-0.010	-0.005	0.000	-0.005	0.015	0.034	2.661	1.890	1.885	1.885	1.904	1.895	1.899
0.000	-0.024	0.000	0.000	-0.010	-0.010	0.034	2.690	1.890	1.885	1.885	1.904	1.895	1.890
0.005	-0.020	0.005	0.000	-0.020	-0.010	0.029	2.676	1.890	1.885	1.885	1.904	1.895	1.890
0.000	-0.020	0.005	0.005	-0.010	0.024	0.029	2.705	1.890	1.885	1.885	1.904	1.899	1.899
0.000	-0.005	0.005	0.000	-0.005	0.020	0.029	2.676	1.890	1.890	1.885	1.904	1.899	1.899
0.010	0.000	0.000	0.000	0.005	0.010	0.034	2.690	1.890	1.890	1.885	1.904	1.904	1.899
0.005	0.010	0.005	0.000	-0.005	0.000	0.034	2.695	1.895	1.899	1.885	1.899	1.899	1.895
0.000	0.010	0.005	0.000	-0.005	-0.005	0.034	2.681	1.890	1.895	1.890	1.904	1.899	1.895
0.000	0.005	0.000	0.000	-0.005	-0.015	0.034	2.686	1.890	1.890	1.890	1.904	1.899	1.895
-0.010	0.020	0.000	0.000	0.000	0.000	0.029	2.646	1.885	1.890	1.890	1.909	1.899	1.899
-0.005	0.024	-0.005	0.015	-0.005	0.000	0.034	2.646	1.880	1.890	1.890	1.909	1.899	1.899
0.000	0.015	-0.005	0.000	0.005	-0.005	0.034	2.783	1.899	1.890	1.885	1.904	1.904	1.899
-0.010	0.020	-0.005	0.000	-0.005	0.000	0.029	2.642	1.890	1.890	1.890	1.909	1.899	1.899
-0.005	0.015	0.000	0.000	-0.015	0.010	0.034	2.656	1.890	1.890	1.885	1.909	1.899	1.904
0.000	-0.005	0.000	0.000	-0.015	0.005	0.034	2.646	1.885	1.880	1.885	1.904	1.899	1.899
0.000	0.000	0.000	0.000	0.000	-0.010	0.034	2.808	1.904	1.885	1.885	1.904	1.899	1.899
0.005	-0.005	0.000	0.005	-0.015	0.000	0.034	2.754	1.904	1.890	1.885	1.904	1.899	1.899
0.005	-0.010	0.000	0.000	-0.015	0.010	0.034	2.627	1.895	1.890	1.885	1.904	1.899	1.899
0.010	-0.005	0.000	-0.005	-0.020	-0.024	0.034	2.734	1.899	1.895	1.885	1.899	1.895	1.890
0.010	-0.020	0.005	-0.005	-0.020	0.005	0.034	2.632	1.885	1.890	1.890	1.899	1.895	1.899
0.020	-0.015	0.005	-0.005	0.000	0.000	0.034	2.695	1.890	1.890	1.890	1.904	1.899	1.899
0.005	-0.015	-0.005	0.000	0.010	0.000	0.034	2.725	1.890	1.885	1.885	1.904	1.904	1.899
0.005	-0.029	0.000	0.000	0.015	-0.029	0.029	2.686	1.890	1.885	1.885	1.904	1.904	1.895
0.005	-0.015	0.005	-0.005	0.005	-0.005	0.029	2.754	1.895	1.890	1.885	1.904	1.899	1.899
-0.005	-0.005	0.000	0.000	-0.015	-0.005	0.034	2.661	1.890	1.890	1.890	1.904	1.895	1.899
0.005	-0.005	0.005	0.000	-0.029	0.015	0.034	2.744	1.895	1.895	1.890	1.904	1.895	1.899
-0.005	0.010	0.000	0.005	0.010	-0.005	0.034	2.681	1.890	1.899	1.890	1.909	1.909	1.899
-0.005	0.010	0.000	0.000	0.005	0.015	0.029	2.681	1.890	1.895	1.890	1.904	1.904	1.904
0.005	0.005	0.000	0.000	0.015	0.015	0.029	2.686	1.895	1.895	1.890	1.909	1.909	1.909
0.000	0.010	0.000	0.000	0.024	-0.005	0.034	2.681	1.890	1.895	1.895	1.909	1.909	1.899
0.010	0.005	0.000	0.000	0.000	0.015	0.034	2.700	1.895	1.890	1.895	1.904	1.899	1.904
-0.005	0.020	0.005	0.005	-0.039	0.005	0.029	2.700	1.895	1.895	1.895	1.909	1.895	1.899
-0.005	0.010	0.005	0.000	-0.020	0.000	0.034	2.700	1.895	1.890	1.890	1.909	1.899	1.899
0.005	0.010	0.005	0.000	-0.039	0.000	0.034	2.705	1.895	1.890	1.890	1.909	1.895	1.895
0.005	0.015	0.005	0.000	-0.005	0.000	0.029	2.700	1.890	1.890	1.890	1.909	1.909	1.899
-0.005	0.005	0.005	0.000	0.005	-0.020	0.034	2.676	1.890	1.890	1.890	1.909	1.909	1.895
0.010	-0.005	0.005	0.000	0.044	-0.034	0.034	2.686	1.890	1.885	1.885	1.909	1.919	1.899
0.000	-0.005	0.010	0.000	0.059	-0.039	0.034	2.705	1.885	1.885	1.885	1.909	1.919	1.904
-0.005	0.010	0.005	0.000	0.068	-0.015	0.034	2.695	1.890	1.890	1.885	1.909	1.914	1.909
0.000	0.010	0.005	0.000	0.015	-0.034	0.029	2.681	1.890	1.890	1.885	1.904	1.899	1.899
0.000	0.000	0.005	0.000	0.034	0.005	0.034	2.695	1.890	1.885	1.885	1.904	1.904	1.914
0.005	-0.005	0.000	0.000	0.044	0.010	0.034	2.676	1.890	1.890	1.885	1.904	1.909	1.914
-0.005	0.005	-0.005	0.000	0.034	0.015	0.034	2.686	1.890	1.890	1.885	1.904	1.899	1.909
0.000	-0.005	0.000	0.005	0.005	-0.010	0.034	2.690	1.895	1.890	1.885	1.904	1.895	1.899
-0.005	0.024	-0.005	0.005	0.015	0.020	0.034	2.676	1.895	1.899	1.890	1.904	1.899	1.904
-0.005	0.024	0.000	0.005	0.010	0.010	0.034	2.695	1.895	1.895	1.890	1.904	1.895	1.899
0.005	0.020	-0.005	0.000	-0.005	0.029	0.034	2.690	1.899	1.895	1.890	1.904	1.895	1.904
0.000	0.000	-0.005	0.005	-0.010	0.010	0.034	2.671	1.895	1.890	1.890	1.909	1.895	1.895
0.005	0.000	0.000	0.010	-0.024	0.029	0.034	2.686	1.895	1.890	1.890	1.909	1.895	1.899
0.000	-0.010	0.000	0.005	-0.049	0.024	0.034	2.656	1.885	1.885	1.885	1.904	1.890	1.895
0.000	-0.005	0.000	0.005	-0.049	0.015	0.034	2.656	1.885	1.885	1.885	1.904	1.895	1.890
0.000	-0.005	0.000	0.000	-0.049	0.015	0.034	2.773	1.895	1.890	1.885	1.899	1.895	1.895
0.000	-0.015	0.000	0.000	0.000	0.015	0.034	2.646	1.890	1.885	1.885	1.904	1.909	1.899
-0.005	-0.010	0.005	0.000	0.034	0.015	0.029	2.651	1.885	1.885	1.885	1.904	1.914	1.904
0.005	-0.005	0.000	0.005	0.039	0.005	0.029	2.715	1.890	1.890	1.885	1.904	1.914	1.904
0.005	-0.005	0.000	0.005	0.020	0.000	0.029	2.783	1.904	1.890	1.890	1.904	1.904	1.904
-0.005	-0.020	0.000	0.010	0.029	0.000	0.029	2.749	1.899	1.890	1.885	1.904	1.904	1.904
0.000	-0.005	-0.005	0.005	0.000	0.000	0.029	2.637	1.895	1.895	1.885	1.904	1.895	1.899
0.000	-0.005	-0.005	0.005	-0.005	-0.005	0.029	2.715	1.899	1.895	1.885	1.904	1.895	1.899
-0.010	0.015	0.000	0.005	0.010	0.005	0.029	2.744	1.899	1.899	1.890	1.909	1.904	1.899
-0.015	0.005	-0.005	0.000	0.000	-0.020	0.034	2.725	1.899	1.895	1.895	1.904	1.899	1.895
-0.015	0.005	-0.005	0.010	0.015	0.005	0.029	2.734	1.904	1.899	1.895	1.909	1.909	1.904
-0.005	0.005	0.000	0.000	0.029	0.010	0.034	2.681	1.904	1.899	1.895	1.909	1.904	1.909
-0.005	0.000	0.000	0.005	-0.005	0.000	0.034	2.622	1.890	1.895	1.895	1.909	1.899	1.899
-0.005	-0.005	0.000	-0.005	-0.005	0.005	0.034	2.676	1.890	1.890	1.895	1.909	1.899	1.899
-0.005	0.000	0.000	-0.005	-0.010	0.000	0.034	2.632	1.885	1.895	1.895	1.909	1.904	1.904
-0.005	-0.010	0.005	0.000	-0.010	0.010	0.034	2.666	1.885	1.885	1.890	1.909	1.904	1.904
0.000	-0.010	0.005	0.000	0.000	0.000	0.034	2.671	1.880	1.885	1.890	1.909	1.904	1.904
0.000	-0.005	0.010	0.000	0.000	0.010	0.034	2.671	1.885	1.880	1.890	1.909	1.904	1.904
0.010	-0.015	0.005	0.000	-0.005	0.010	0.034	2.671	1.890	1.880	1.885	1.904	1.904	1.904
0.010	-0.010	0.005	-0.005	-0.010	0.000	0.034	2.695	1.890	1.885	1.885	1.904	1.899	1.899
0.015	0.000	0.005	0.005	-0.015	0.000	0.034	2.695	1.895	1.890	1.885	1.904	1.899	1.899
0.000	-0.005	-0.005	0.005	-0.005	0.010	0.034	2.695	1.890	1.885	1.885	1.904	1.904	1.904
0.000	-0.005	0.000	0.000	-0.005	-0.020	0.034	2.695	1.890	1.885	1.885	1.899	1.899	1.890
0.000	-0.005	0.005	0.000	-0.010	0.000	0.029	2.700	1.895	1.890	1.885	1.904	1.899	1.899
0.000	0.005	0.000	0.000	-0.034	-0.020	0.034	2.700	1.895	1.895	1.885	1.904	1.895	1.890
0.005	0.015	-0.005	0.010	-0.039	-0.005	0.034	2.671	1.890	1.895	1.890	1.904	1.895	1.899
0.000	0.015	-0.005	0.000	-0.034	-0.005	0.034	2.700	1.890	1.895	1.890	1.904	1.895	1.899
-0.005	0.029	-0.005	0.000	-0.029	-0.010	0.029	2.700	1.895	1.899	1.890	1.909	1.899	1.899
0.000	0.015	0.005	0.000	-0.020	-0.005	0.034	2.695	1.895	1.895	1.890	1.909	1.904	1.899
0.005	0.010	-0.005	0.005	-0.005	0.020	0.029	2.695	1.895	1.890	1.890	1.909	1.909	1.909
0.005	0.005	-0.010	0.000	0.034	0.005	0.034	2.666	1.890	1.890	1.890	1.904	1.919	1.909
0.000	0.000	0.000	0.000	0.059	0.005	0.034	2.695	1.895	1.890	1.890	1.909	1.919	1.909
0.000	-0.005	0.005	0.000	0.010	0.015	0.034	2.700	1.895	1.885	1.890	1.909	1.904	1.909
-0.005	-0.024	0.005	0.000	-0.024	0.005	0.034	2.681	1.890	1.885	1.885	1.904	1.890	1.904
-0.005	-0.010	0.005	0.000	-0.029	0.005	0.034	2.666	1.890	1.890	1.890	1.904	1.895	1.899
0.010	-0.005	0.000	0.000	0.005	0.005	0.034	2.671	1.890	1.890	1.885	1.904	1.904	1.899
0.005	-0.010	0.005	0.000	0.034	-0.015	0.034	2.676	1.890	1.885	1.885	1.904	1.909	1.899
-0.005	-0.010	0.000	-0.005	0.015	0.015	0.034	2.690	1.890	1.885	1.885	1.904	1.904	1.904
0.000	0.005	0.005	-0.005	0.020	0.010	0.029	2.642	1.885	1.890	1.885	1.904	1.904	1.904
0.005	0.015	0.000	-0.005	0.034	0.005	0.034	2.646	1.880	1.890	1.885	1.904	1.904	1.899
0.000	0.020	0.000	0.000	0.020	-0.020	0.034	2.793	1.899	1.890	1.885	1.904	1.899	1.895
0.000	0.029	0.000	0.005	0.010	0.000	0.029	2.793	1.909	1.899	1.890	1.909	1.899	1.899
0.000	0.020	-0.005	0.000	0.015	-0.024	0.034	2.661	1.899	1.895	1.890	1.909	1.899	1.895
-0.005	0.015	0.000	0.000	0.010	0.005	0.029	2.632	1.890	1.890	1.890	1.909	1.899	1.904
0.000	0.005	-0.010	0.005	0.010	-0.005	0.034	2.656	1.890	1.890	1.890	1.904	1.899	1.899
0.000	0.005	-0.005	-0.005	0.000	0.005	0.029	2.632	1.885	1.890	1.890	1.904	1.899	1.899
0.000	-0.005	0.005	0.000	-0.005	0.000	0.029	2.720	1.890	1.885	1.890	1.904	1.899	1.899
0.000	-0.010	0.000	0.005	-0.005	0.010	0.029	2.656	1.885	1.885	1.890	1.909	1.899	1.904
0.010	-0.005	-0.005	0.005	-0.015	0.005	0.029	2.700	1.890	1.890	1.885	1.904	1.899	1.899
0.015	-0.010	0.005	0.000	-0.010	-0.005	0.029	2.729	1.890	1.890	1.890	1.904	1.899	1.899
0.010	-0.015	0.005	0.000	-0.005	0.005	0.034	2.729	1.899	1.890	1.885	1.904	1.899	1.899
0.015	-0.010	0.005	0.000	-0.005	0.010	0.029	2.656	1.895	1.890	1.885	1.904	1.899	1.899
0.010	-0.005	0.005	0.000	-0.005	0.005	0.034	2.734	1.895	1.895	1.885	1.904	1.899	1.895
0.010	-0.005	0.010	0.000	-0.005	0.000	0.029	2.671	1.890	1.890	1.890	1.904	1.899	1.899
0.005	-0.005	0.005	0.005	-0.005	0.000	0.034	2.627	1.880	1.890	1.890	1.904	1.899	1.899
-0.005	0.005	0.005	0.000	-0.010	0.000	0.034	2.690	1.885	1.890	1.885	1.904	1.899	1.899
-0.005	0.005	0.005	0.005	-0.005	-0.005	0.034	2.676	1.885	1.890	1.885	1.904	1.904	1.895
0.005	0.005	0.005	0.005	0.000	-0.005	0.034	2.676	1.890	1.890	1.890	1.904	1.899	1.904
-0.010	0.010	0.000	0.000	0.005	-0.010	0.034	2.686	1.885	1.890	1.885	1.904	1.904	1.895
-0.005	0.010	0.000	0.005	-0.005	-0.020	0.034	2.676	1.885	1.885	1.885	1.904	1.899	1.895
-0.010	0.005	0.000	0.005	-0.005	0.005	0.034	2.695	1.890	1.885	1.885	1.904	1.904	1.904
-0.010	0.005	0.000	0.010	-0.010	0.005	0.029	2.710	1.895	1.885	1.885	1.904	1.899	1.899
0.000	0.005	0.000	0.005	-0.005	0.010	0.034	2.686	1.890	1.885	1.885	1.904	1.899	1.904
0.005	0.000	0.000	0.005	-0.010	0.015	0.034	2.700	1.899	1.890	1.885	1.904	1.899	1.904
-0.005	0.000	0.005	0.005	-0.015	0.010	0.034	2.676	1.890	1.890	1.885	1.904	1.899	1.899
-0.005	0.015	0.005	-0.005	-0.015	-0.010	0.034	2.690	1.890	1.890	1.890	1.899	1.895	1.890
0.005	0.010	0.005	0.000	-0.024	0.000	0.034	2.676	1.890	1.890	1.890	1.904	1.895	1.899
0.000	0.005	0.005	0.005	-0.024	-0.010	0.034	2.695	1.890	1.890	1.890	1.904	1.895	1.895
0.010	-0.005	0.005	-0.005	-0.020	-0.029	0.029	2.666	1.890	1.885	1.885	1.904	1.895	1.890
0.005	-0.015	0.000	-0.005	-0.010	-0.005	0.029	2.695	1.890	1.880	1.885	1.899	1.899	1.899
-0.005	-0.010	0.000	0.000	-0.015	-0.029	0.034	2.695	1.890	1.885	1.880	1.904	1.899	1.890
0.005	-0.005	0.000	0.000	-0.020	-0.029	0.029	2.671	1.885	1.890	1.885	1.899	1.895	1.895
-0.005	0.010	0.000	0.000	-0.010	-0.015	0.034	2.681	1.885	1.890	1.885	1.904	1.899	1.899
-0.005	0.005	-0.005	0.005	0.015	0.005	0.034	2.676	1.885	1.885	1.885	1.904	1.904	1.904
0.005	0.015	0.000	0.000	0.020	0.015	0.034	2.705	1.895	1.890	1.890	1.904	1.904	1.909
-0.005	0.010	0.005	0.005	0.010	0.015	0.034	2.686	1.890	1.890	1.890	1.904	1.904	1.909
-0.005	0.015	-0.005	0.005	0.024	0.015	0.029	2.671	1.890	1.890	1.885	1.909	1.909	1.909
0.010	0.005	-0.005	0.000	0.088	0.034	0.029	2.695	1.899	1.890	1.885	1.909	1.924	1.919
0.010	0.015	-0.005	0.005	0.044	0.034	0.034	2.646	1.890	1.895	1.890	1.904	1.904	1.914
0.010	0.010	0.000	0.000	0.010	0.010	0.029	2.651	1.890	1.890	1.890	1.904	1.895	1.899
0.005	0.000	0.000	0.000	0.010	0.015	0.034	2.773	1.899	1.890	1.885	1.904	1.895	1.899
0.015	0.000	0.005	0.000	0.020	0.015	0.034	2.637	1.890	1.890	1.890	1.904	1.899	1.899
0.020	-0.010	0.005	-0.005	0.020	-0.005	0.029	2.651	1.890	1.885	1.885	1.904	1.899	1.895
0.005	-0.010	0.000	-0.005	0.044	0.015	0.034	2.720	1.890	1.885	1.885	1.904	1.904	1.904
0.005	-0.024	0.005	-0.005	0.039	0.000	0.034	2.666	1.890	1.880	1.885	1.904	1.899	1.899
0.020	-0.024	0.005	-0.005	0.029	0.000	0.034	2.651	1.885	1.880	1.880	1.899	1.895	1.899
0.010	-0.020	0.000	-0.005	0.020	-0.005	0.029	2.734	1.890	1.885	1.885	1.899	1.895	1.895
0.024	-0.005	0.000	-0.010	0.005	-0.015	0.029	2.734	1.899	1.890	1.880	1.899	1.890	1.890
0.020	0.010	-0.005	-0.010	0.000	-0.010	0.029	2.715	1.890	1.895	1.885	1.899	1.890	1.890
0.010	0.010	0.000	-0.005	-0.020	-0.024	0.029	2.739	1.890	1.895	1.885	1.904	1.885	1.885
-0.020	0.015	0.000	-0.005	-0.029	0.000	0.029	2.637	1.875	1.890	1.890	1.904	1.890	1.895
-0.039	0.024	-0.005	0.000	-0.020	0.000	0.034	2.666	1.870	1.885	1.885	1.904	1.895	1.895
-0.063	0.029	-0.005	0.000	-0.010	0.000	0.029	2.754	1.880	1.885	1.885	1.904	1.899	1.895
-0.063	0.020	0.000	-0.005	0.005	-0.005	0.034	2.676	1.880	1.880	1.885	1.904	1.899	1.895
-0.044	0.010	-0.005	0.000	0.005	-0.005	0.034	2.725	1.890	1.880	1.880	1.904	1.904	1.899
-0.034	0.015	0.000	0.000	0.000	-0.015	0.029	2.681	1.890	1.885	1.885	1.904	1.899	1.895
-0.024	0.005	0.000	0.000	0.005	-0.005	0.034	2.700	1.895	1.885	1.885	1.904	1.904	1.899
-0.005	0.010	0.005	0.000	0.010	0.005	0.034	2.676	1.899	1.890	1.885	1.904	1.899	1.904
0.010	-0.005	0.000	0.005	-0.029	-0.010	0.034	2.671	1.895	1.885	1.885	1.904	1.885	1.895
0.015	-0.005	0.005	0.000	-0.059	0.024	0.034	2.700	1.899	1.885	1.885	1.904	1.885	1.899
0.029	-0.010	0.010	0.000	-0.073	0.029	0.034	2.695	1.899	1.890	1.885	1.899	1.885	1.899
0.020	-0.020	0.010	0.000	-0.059	0.015	0.029	2.705	1.895	1.890	1.885	1.904	1.895	1.895
0.015	-0.020	0.010	0.000	-0.034	0.029	0.034	2.686	1.895	1.890	1.885	1.904	1.904	1.899
0.010	-0.005	0.005	0.005	0.059	0.020	0.034	2.661	1.890	1.895	1.890	1.909	1.924	1.904
0.015	-0.005	0.005	0.005	0.063	0.015	0.034	2.695	1.895	1.890	1.890	1.909	1.919	1.909
0.020	0.010	0.000	0.010	0.034	-0.005	0.034	2.695	1.895	1.899	1.890	1.909	1.904	1.904
0.034	0.000	0.005	0.010	0.029	0.000	0.034	2.700	1.904	1.899	1.890	1.909	1.909	1.904
0.015	0.010	0.010	0.010	0.049	-0.015	0.034	2.695	1.890	1.895	1.895	1.909	1.914	1.899
0.020	0.005	0.000	0.015	0.054	-0.010	0.034	2.700	1.890	1.890	1.890	1.909	1.909	1.904
-0.005	0.005	-0.015	0.015	0.059	-0.039	0.034	2.690	1.885	1.890	1.885	1.909	1.909	1.899
-0.010	0.010	-0.005	0.010	0.044	-0.034	0.029	2.705	1.890	1.890	1.890	1.909	1.904	1.899
-0.024	0.005	-0.005	0.015	0.044	-0.020	0.034	2.681	1.885	1.890	1.885	1.909	1.904	1.904
-0.020	-0.005	-0.005	0.020	0.063	-0.020	0.034	2.661	1.885	1.885	1.890	1.909	1.914	1.909
-0.020	-0.005	-0.005	0.015	0.068	-0.049	0.034	2.695	1.890	1.885	1.885	1.904	1.904	1.899
-0.005	-0.005	-0.005	0.024	0.054	-0.015	0.029	2.666	1.890	1.885	1.885	1.904	1.904	1.909
0.000	-0.005	0.005	0.015	0.015	-0.015	0.029	2.695	1.895	1.885	1.885	1.904	1.890	1.899
-0.005	0.000	0.005	0.010	-0.039	-0.029	0.029	2.681	1.895	1.890	1.885	1.904	1.875	1.890
0.005	-0.005	0.005	0.010	-0.093	-0.044	0.029	2.681	1.890	1.890	1.885	1.899	1.870	1.880
0.000	0.000	0.000	0.015	-0.054	-0.044	0.029	2.642	1.880	1.885	1.885	1.904	1.890	1.880
-0.010	-0.005	0.005	0.010	-0.068	-0.010	0.034	2.651	1.875	1.880	1.885	1.899	1.885	1.890
0.005	0.000	0.005	0.010	-0.093	0.020	0.034	2.715	1.895	1.885	1.880	1.899	1.880	1.895
0.010	-0.020	0.005	0.010	-0.078	0.044	0.034	2.661	1.885	1.880	1.880	1.904	1.895	1.904
0.005	-0.015	0.000	0.010	0.024	0.024	0.034	2.651	1.885	1.880	1.880	1.904	1.924	1.904
0.005	-0.010	0.000	0.015	0.073	0.049	0.034	2.642	1.895	1.890	1.880	1.904	1.929	1.919
0.000	0.005	-0.005	0.020	0.059	0.049	0.034	2.783	1.904	1.895	1.885	1.904	1.914	1.919
0.005	0.000	-0.005	0.015	0.054	0.044	0.034	2.734	1.914	1.899	1.885	1.904	1.909	1.909
-0.010	0.010	0.000	0.020	0.029	0.044	0.034	2.632	1.899	1.899	1.890	1.904	1.904	1.909
-0.005	0.010	-0.010	0.015	0.015	0.029	0.029	2.715	1.899	1.899	1.890	1.904	1.899	1.904
-0.005	0.010	-0.010	0.020	-0.010	0.020	0.034	2.622	1.895	1.895	1.890	1.904	1.890	1.895
-0.005	0.010	-0.005	0.015	-0.049	0.010	0.029	2.720	1.899	1.895	1.895	1.909	1.885	1.890
-0.005	0.005	0.000	0.015	-0.034	0.010	0.029	2.720	1.895	1.890	1.895	1.909	1.895	1.890
0.015	-0.010	0.005	0.015	-0.015	-0.005	0.034	2.690	1.899	1.895	1.895	1.909	1.904	1.890
0.000	-0.010	0.010	0.010	-0.020	0.005	0.029	2.710	1.899	1.895	1.895	1.909	1.899	1.895
0.010	-0.005	0.010	0.005	-0.020	0.000	0.029	2.661	1.895	1.895	1.895	1.909	1.899	1.890
0.015	-0.010	0.010	0.005	-0.020	0.005	0.034	2.627	1.885	1.890	1.895	1.909	1.904	1.895
0.015	0.005	0.010	0.005	-0.015	0.005	0.034	2.676	1.890	1.890	1.890	1.909	1.904	1.895
0.010	-0.005	0.010	-0.039	-0.015	0.000	0.034	2.681	1.885	1.885	1.885	1.895	1.899	1.899
0.010	-0.005	0.000	-0.103	-0.010	0.015	0.034	2.686	1.885	1.885	1.880	1.880	1.890	1.899
0.005	0.015	0.000	-0.107	-0.010	0.000	0.034	2.681	1.885	1.890	1.885	1.880	1.885	1.890
0.000	0.005	0.005	-0.107	-0.010	0.000	0.034	2.710	1.890	1.885	1.885	1.890	1.890	1.890
0.005	0.020	0.010	-0.103	-0.010	0.000	0.034	2.681	1.890	1.890	1.885	1.895	1.890	1.890
0.000	0.024	0.000	-0.088	-0.010	-0.005	0.034	2.686	1.885	1.890	1.885	1.899	1.890	1.890
0.000	0.024	0.000	-0.068	-0.010	0.000	0.034	2.661	1.890	1.890	1.890	1.904	1.895	1.890
-0.010	0.020	0.000	-0.059	-0.010	0.000	0.034	2.700	1.885	1.885	1.890	1.909	1.899	1.895
0.000	0.015	0.000	-0.044	-0.005	-0.029	0.029	2.676	1.885	1.885	1.890	1.914	1.904	1.890
-0.005	0.010	0.000	-0.034	-0.005	0.000	0.034	2.695	1.885	1.885	1.885	1.914	1.904	1.899
0.000	0.010	0.000	-0.029	-0.005	-0.015	0.034	2.695	1.895	1.885	1.885	1.914	1.909	1.899
0.005	-0.010	0.005	-0.015	0.000	-0.005	0.034	2.690	1.890	1.880	1.885	1.914	1.909	1.904
0.000	-0.010	0.000	-0.010	0.000	-0.020	0.034	2.695	1.890	1.880	1.880	1.909	1.909	1.899
0.005	-0.010	0.000	0.005	0.005	0.005	0.034	2.676	1.885	1.880	1.880	1.909	1.909	1.909
0.010	-0.010	0.005	0.005	0.005	0.005	0.034	2.651	1.885	1.885	1.880	1.909	1.909	1.904
0.015	-0.010	0.005	0.010	-0.005	0.010	0.029	2.681	1.885	1.885	1.885	1.904	1.904	1.909
0.000	-0.010	0.005	0.010	0.005	0.010	0.029	2.686	1.885	1.885	1.885	1.904	1.904	1.909
0.010	-0.024	0.000	0.010	0.010	0.005	0.029	2.686	1.890	1.880	1.880	1.904	1.904	1.904
0.000	-0.020	0.000	0.015	0.015	-0.010	0.029	2.666	1.885	1.880	1.880	1.904	1.904	1.899
0.015	-0.020	0.000	0.015	0.010	0.015	0.034	2.671	1.885	1.885	1.880	1.899	1.904	1.909
-0.010	-0.015	0.005	0.015	0.005	0.010	0.034	2.671	1.880	1.890	1.880	1.899	1.899	1.904
0.000	0.020	0.000	0.015	0.010	0.010	0.034	2.681	1.890	1.895	1.880	1.904	1.899	1.899
0.005	0.024	0.000	0.015	0.005	-0.005	0.034	2.686	1.890	1.895	1.885	1.904	1.895	1.899
0.000	0.010	0.000	0.020	0.000	-0.020	0.034	2.656	1.885	1.890	1.885	1.904	1.899	1.895
-0.005	0.029	-0.005	0.020	0.010	-0.005	0.034	2.783	1.899	1.895	1.885	1.904	1.899	1.899
-0.010	0.015	-0.005	0.020	0.010	-0.010	0.034	2.642	1.890	1.885	1.890	1.904	1.899	1.899
-0.005	0.015	-0.005	0.020	0.015	0.000	0.034	2.656	1.890	1.890	1.890	1.909	1.904	1.904
-0.010	0.015	-0.005	0.020	0.015	0.010	0.034	2.729	1.895	1.885	1.890	1.904	1.899	1.904
0.000	0.010	-0.005	0.020	0.010	0.010	0.029	2.778	1.904	1.890	1.890	1.904	1.899	1.904
-0.005	-0.005	0.000	0.024	0.015	0.005	0.029	2.734	1.909	1.890	1.885	1.909	1.904	1.899
0.005	0.015	0.000	0.020	0.015	0.005	0.029	2.627	1.895	1.895	1.890	1.904	1.899	1.904
0.005	-0.005	0.005	0.024	0.010	0.000	0.029	2.715	1.895	1.890	1.890	1.909	1.899	1.895
0.010	-0.010	0.000	0.020	0.005	-0.020	0.029	2.729	1.904	1.895	1.890	1.904	1.899	1.895
0.010	-0.005	0.000	0.024	0.010	-0.005	0.034	2.690	1.895	1.895	1.890	1.904	1.899	1.899
0.005	-0.010	0.005	0.024	0.010	0.010	0.029	2.720	1.895	1.890	1.890	1.909	1.904	1.899
-0.005	0.000	-0.005	0.020	0.005	-0.010	0.029	2.666	1.890	1.890	1.890	1.909	1.899	1.899
0.000	0.000	0.000	0.024	-0.005	0.005	0.029	2.725	1.895	1.895	1.890	1.909	1.899	1.899
-0.005	0.005	0.000	0.024	-0.005	-0.010	0.034	2.676	1.895	1.895	1.890	1.909	1.899	1.895
-0.005	0.010	0.000	0.034	0.005	-0.010	0.034	2.622	1.885	1.895	1.890	1.914	1.904	1.899
-0.010	0.015	-0.005	0.044	0.005	-0.024	0.034	2.681	1.885	1.890	1.890	1.914	1.904	1.899
-0.015	0.029	-0.010	0.049	-0.005	0.000	0.034	2.695	1.890	1.890	1.890	1.914	1.904	1.909
0.005	0.015	0.000	-0.068	-0.005	-0.005	0.034	2.671	1.890	1.890	1.890	1.880	1.895	1.904
-0.005	0.015	0.000	-0.078	-0.005	0.000	0.034	2.690	1.890	1.890	1.885	1.885	1.890	1.899
-0.005	0.005	0.000	-0.059	-0.010	-0.005	0.034	2.700	1.890	1.885	1.885	1.895	1.890	1.895
0.005	-0.010	0.000	-0.049	-0.005	-0.024	0.034	2.671	1.890	1.880	1.885	1.899	1.895	1.890
0.005	-0.020	0.005	-0.039	0.005	0.000	0.034	2.700	1.890	1.885	1.885	1.904	1.899	1.895
0.005	-0.015	0.005	-0.029	0.010	0.005	0.034	2.705	1.895	1.885	1.885	1.904	1.899	1.899
0.010	-0.029	0.000	-0.024	-0.010	0.005	0.034	2.695	1.890	1.880	1.885	1.904	1.895	1.895
0.005	-0.010	0.000	-0.020	-0.010	0.010	0.029	2.671	1.890	1.885	1.885	1.904	1.895	1.895
0.005	0.000	0.000	-0.015	-0.015	-0.005	0.029	2.671	1.890	1.890	1.885	1.904	1.895	1.895
0.010	0.000	0.005	-0.015	-0.029	-0.005	0.029	2.666	1.885	1.890	1.885	1.904	1.895	1.890
0.015	0.000	0.005	-0.005	-0.034	0.015	0.029	2.690	1.890	1.890	1.885	1.904	1.895	1.899
0.005	0.005	0.005	0.000	-0.015	0.020	0.029	2.700	1.885	1.885	1.885	1.909	1.904	1.899
0.005	0.010	0.000	0.000	0.020	0.005	0.034	2.686	1.890	1.890	1.885	1.909	1.914	1.899
0.000	0.015	0.000	0.000	0.039	0.029	0.029	2.705	1.890	1.890	1.885	1.909	1.914	1.914
-0.010	0.020	0.000	0.005	0.049	0.015	0.034	2.676	1.885	1.890	1.885	1.909	1.914	1.909
-0.005	0.029	0.000	0.010	0.049	0.000	0.034	2.681	1.890	1.895	1.890	1.909	1.909	1.909
-0.010	-0.015	-0.005	0.015	0.000	0.005	0.034	2.700	1.885	1.880	1.880	1.904	1.895	1.904
-0.015	-0.010	0.000	0.015	-0.020	0.000	0.034	2.700	1.890	1.885	1.885	1.904	1.895	1.895
-0.015	0.000	0.000	0.015	-0.034	0.005	0.034	2.700	1.890	1.890	1.885	1.904	1.890	1.899
0.000	0.005	0.000	0.015	-0.044	-0.010	0.034	2.681	1.890	1.890	1.885	1.904	1.890	1.895
0.000	0.000	0.000	0.020	-0.044	0.005	0.034	2.686	1.890	1.885	1.885	1.904	1.895	1.895
0.005	-0.005	0.000	0.024	0.000	0.000	0.034	2.632	1.885	1.885	1.885	1.904	1.909	1.895
0.010	-0.010	0.010	0.024	0.024	-0.034	0.034	2.661	1.885	1.885	1.885	1.904	1.909	1.890
0.000	-0.015	0.010	0.054	0.010	-0.005	0.034	2.769	1.895	1.880	1.885	1.914	1.909	1.904
0.005	-0.015	0.005	0.044	0.024	-0.015	0.034	2.656	1.895	1.885	1.885	1.904	1.909	1.904
0.000	-0.020	0.005	0.039	0.044	-0.039	0.034	2.651	1.890	1.885	1.880	1.899	1.909	1.899
0.015	-0.015	0.005	0.020	0.049	-0.024	0.034	2.700	1.895	1.890	1.885	1.899	1.909	1.904
0.005	-0.015	0.005	0.020	0.015	-0.010	0.029	2.637	1.885	1.885	1.885	1.895	1.895	1.904
0.000	0.005	0.005	0.015	0.010	0.005	0.029	2.661	1.885	1.895	1.885	1.899	1.895	1.904
0.000	0.015	0.000	0.010	0.020	0.020	0.029	2.725	1.890	1.890	1.885	1.895	1.895	1.909
0.000	0.005	0.005	0.000	-0.005	0.005	0.029	2.725	1.895	1.890	1.890	1.899	1.890	1.895
-0.010	0.010	-0.005	0.010	-0.029	0.015	0.034	2.744	1.890	1.890	1.890	1.899	1.885	1.895
0.000	-0.005	-0.005	-0.010	-0.029	0.020	0.029	2.729	1.895	1.890	1.885	1.899	1.885	1.895
0.000	0.015	0.000	-0.059	-0.010	-0.010	0.029	2.617	1.880	1.890	1.885	1.885	1.890	1.885
-0.005	0.005	0.000	-0.098	0.005	0.010	0.029	2.661	1.880	1.890	1.885	1.880	1.890	1.895
0.000	0.005	-0.005	-0.127	0.024	0.024	0.029	2.627	1.875	1.885	1.885	1.880	1.890	1.895
0.010	0.005	0.005	-0.122	0.029	0.010	0.034	2.666	1.880	1.885	1.880	1.885	1.890	1.890
0.000	0.005	0.005	-0.112	0.068	0.024	0.034	2.715	1.885	1.880	1.885	1.895	1.899	1.899
0.005	0.010	0.005	-0.103	0.049	0.020	0.034	2.656	1.885	1.880	1.885	1.895	1.890	1.895
0.010	-0.010	0.005	-0.117	0.020	-0.005	0.034	2.705	1.890	1.875	1.880	1.895	1.880	1.885
0.005	-0.005	0.000	-0.103	-0.024	0.005	0.034	2.666	1.880	1.880	1.880	1.895	1.875	1.885
0.000	-0.005	0.000	-0.088	0.034	-0.010	0.034	2.686	1.885	1.880	1.875	1.904	1.899	1.885
0.005	0.000	0.005	-0.063	0.068	-0.005	0.034	2.690	1.885	1.880	1.880	1.909	1.909	1.890
0.010	0.000	0.000	-0.039	0.034	-0.020	0.029	2.676	1.885	1.880	1.880	1.909	1.895	1.890
0.005	0.000	0.000	-0.024	0.010	-0.015	0.034	2.700	1.890	1.880	1.880	1.909	1.895	1.890
0.000	-0.005	0.000	-0.010	-0.039	-0.010	0.034	2.710	1.885	1.880	1.880	1.909	1.885	1.885
-0.005	0.005	0.000	0.005	-0.059	0.000	0.034	2.700	1.885	1.885	1.880	1.914	1.890	1.890
-0.005	0.010	-0.005	0.020	-0.044	0.000	0.034	2.695	1.885	1.885	1.880	1.909	1.899	1.895
-0.010	0.015	-0.005	0.024	-0.029	0.005	0.034	2.666	1.885	1.890	1.885	1.909	1.899	1.895
0.000	0.010	-0.005	0.024	-0.044	0.005	0.029	2.686	1.890	1.885	1.885	1.909	1.899	1.899
-0.005	0.010	0.000	0.034	-0.039	0.005	0.029	2.666	1.885	1.890	1.885	1.909	1.904	1.899
-0.015	0.010	0.000	0.034	-0.044	0.010	0.034	2.695	1.885	1.885	1.885	1.909	1.904	1.904
0.000	0.005	0.005	0.039	-0.024	0.005	0.029	2.671	1.885	1.880	1.885	1.909	1.909	1.899
0.005	0.000	0.000	0.039	-0.020	0.000	0.034	2.681	1.890	1.885	1.880	1.909	1.909	1.899
0.000	-0.005	0.005	0.039	-0.015	0.015	0.029	2.686	1.890	1.885	1.880	1.904	1.909	1.909
0.000	-0.015	0.010	0.039	0.029	0.005	0.034	2.671	1.885	1.880	1.885	1.904	1.919	1.909
0.005	-0.010	0.005	0.039	0.044	-0.005	0.034	2.695	1.890	1.880	1.880	1.904	1.914	1.909
-0.005	-0.020	0.010	0.044	0.034	-0.005	0.034	2.695	1.890	1.885	1.880	1.899	1.909	1.904
0.005	-0.010	0.000	0.044	-0.010	0.024	0.034	2.690	1.895	1.885	1.880	1.899	1.895	1.909
0.010	-0.005	0.000	0.049	-0.029	0.020	0.034	2.666	1.890	1.890	1.880	1.899	1.890	1.904
0.005	0.000	0.000	0.054	0.010	-0.005	0.034	2.690	1.890	1.890	1.885	1.904	1.899	1.895
0.000	0.005	0.000	0.049	0.010	0.010	0.034	2.646	1.885	1.890	1.885	1.899	1.899	1.904
-0.005	0.010	-0.005	0.044	-0.024	-0.005	0.034	2.646	1.880	1.885	1.885	1.899	1.885	1.890
0.000	0.000	0.005	0.049	-0.029	-0.010	0.034	2.646	1.895	1.885	1.885	1.904	1.890	1.890
-0.005	0.010	0.000	0.044	-0.034	0.000	0.034	2.695	1.890	1.890	1.885	1.899	1.890	1.890
0.000	0.015	-0.005	0.044	-0.029	0.000	0.034	2.651	1.885	1.890	1.885	1.904	1.895	1.895
-0.005	0.024	-0.010	0.044	0.000	-0.005	0.034	2.637	1.890	1.890	1.885	1.904	1.904	1.890
0.000	0.015	-0.010	0.039	0.029	0.000	0.034	2.788	1.904	1.890	1.890	1.904	1.909	1.899
0.000	0.010	0.000	0.039	0.049	-0.015	0.034	2.744	1.909	1.895	1.890	1.909	1.914	1.899
0.015	0.000	-0.005	0.039	0.049	0.024	0.029	2.627	1.895	1.890	1.890	1.904	1.909	1.914
0.005	-0.015	0.000	0.039	0.034	0.010	0.034	2.710	1.899	1.890	1.890	1.904	1.904	1.904
0.015	-0.029	0.005	0.039	0.024	0.010	0.034	2.622	1.890	1.885	1.885	1.904	1.899	1.904
0.015	-0.029	0.005	0.044	0.005	-0.005	0.029	2.681	1.890	1.885	1.885	1.909	1.895	1.895
0.005	-0.015	0.005	0.054	-0.005	-0.010	0.034	2.710	1.895	1.890	1.890	1.909	1.895	1.895
0.010	-0.015	0.000	0.054	0.000	-0.005	0.034	2.656	1.890	1.890	1.885	1.904	1.899	1.895
0.015	-0.010	0.000	0.049	-0.005	-0.029	0.034	2.700	1.890	1.890	1.885	1.904	1.895	1.890
0.005	-0.005	0.005	0.049	-0.010	-0.020	0.034	2.666	1.885	1.890	1.890	1.904	1.899	1.895
-0.005	-0.005	0.015	0.039	-0.005	-0.029	0.034	2.720	1.885	1.890	1.890	1.904	1.899	1.890
0.000	0.005	0.005	0.039	-0.005	-0.034	0.034	2.671	1.885	1.890	1.885	1.904	1.899	1.895
-0.005	0.020	0.000	0.039	-0.005	0.005	0.034	2.676	1.885	1.895	1.890	1.904	1.899	1.904
-0.005	0.029	0.000	0.034	-0.005	0.005	0.034	2.681	1.890	1.895	1.885	1.904	1.899	1.904
-0.010	0.010	-0.005	0.029	-0.005	-0.015	0.034	2.671	1.890	1.885	1.885	1.899	1.899	1.899
-0.010	0.005	-0.005	0.024	-0.010	0.005	0.034	2.690	1.890	1.885	1.885	1.904	1.899	1.899
0.000	0.015	0.000	0.024	-0.010	0.010	0.034	2.681	1.895	1.890	1.890	1.904	1.899	1.904
-0.010	0.024	0.000	0.029	-0.010	0.015	0.034	2.700	1.895	1.890	1.890	1.904	1.899	1.904
0.000	0.015	0.000	0.024	-0.015	0.029	0.034	2.671	1.895	1.890	1.885	1.904	1.899	1.904
0.010	0.024	0.000	0.020	-0.020	0.024	0.034	2.686	1.895	1.895	1.890	1.899	1.899	1.899
0.005	0.010	0.005	0.020	-0.005	0.015	0.034	2.690	1.895	1.890	1.890	1.904	1.899	1.899
0.000	-0.015	0.005	0.020	0.005	0.024	0.029	2.700	1.890	1.880	1.885	1.904	1.904	1.899
0.010	-0.010	0.005	0.015	0.005	0.010	0.029	2.690	1.890	1.885	1.885	1.904	1.899	1.895
0.005	-0.005	0.005	0.010	0.020	-0.010	0.034	2.671	1.890	1.885	1.885	1.899	1.904	1.895
0.000	-0.010	0.005	0.010	0.034	0.000	0.034	2.695	1.890	1.885	1.885	1.904	1.904	1.899
0.000	-0.010	0.010	0.005	0.029	0.005	0.034	2.676	1.890	1.885	1.885	1.899	1.899	1.899
0.005	-0.010	0.005	0.010	0.029	0.005	0.029	2.695	1.885	1.885	1.880	1.899	1.899	1.899
-0.005	-0.005	0.005	0.005	0.005	0.000	0.029	2.671	1.890	1.885	1.880	1.899	1.895	1.899
0.005	0.000	0.000	0.010	0.010	0.005	0.034	2.686	1.890	1.890	1.880	1.899	1.895	1.895
0.000	0.010	0.000	0.005	0.000	0.000	0.034	2.695	1.890	1.890	1.885	1.899	1.895	1.895
0.000	0.020	0.005	0.000	0.010	-0.005	0.029	2.676	1.890	1.890	1.890	1.899	1.895	1.890
0.005	0.015	-0.005	0.010	0.005	-0.010	0.034	2.690	1.890	1.890	1.890	1.904	1.895	1.890
-0.005	0.010	-0.005	0.005	-0.015	-0.010	0.034	2.676	1.885	1.885	1.885	1.904	1.890	1.890
0.000	0.010	-0.005	0.005	-0.039	0.000	0.034	2.690	1.885	1.885	1.885	1.904	1.885	1.890
-0.005	0.005	0.000	0.000	-0.063	0.015	0.034	2.642	1.880	1.880	1.885	1.904	1.885	1.890
0.010	0.005	-0.005	0.005	-0.054	-0.005	0.034	2.642	1.880	1.880	1.880	1.904	1.890	1.890
0.000	0.020	-0.005	0.005	-0.059	0.015	0.029	2.793	1.895	1.885	1.880	1.899	1.890	1.890
0.015	0.010	-0.005	0.000	-0.015	0.010	0.034	2.783	1.904	1.885	1.885	1.899	1.904	1.895
0.005	0.005	0.005	-0.005	0.034	0.000	0.034	2.651	1.890	1.885	1.885	1.904	1.914	1.899
0.005	0.000	0.000	0.000	0.054	-0.005	0.029	2.627	1.885	1.885	1.885	1.904	1.914	1.904
0.010	-0.010	-0.005	-0.005	0.054	0.020	0.034	2.642	1.885	1.880	1.880	1.904	1.909	1.914
0.005	-0.010	0.005	0.000	0.054	0.010	0.034	2.607	1.870	1.880	1.880	1.899	1.909	1.909
0.000	0.005	0.005	-0.005	0.044	-0.005	0.034	2.729	1.880	1.880	1.880	1.899	1.899	1.904
-0.005	0.015	0.005	0.005	0.044	0.010	0.029	2.705	1.875	1.880	1.880	1.899	1.899	1.904
0.000	0.015	0.005	0.005	0.020	0.010	0.034	2.729	1.890	1.885	1.880	1.899	1.895	1.899
0.000	0.005	0.005	0.005	0.005	-0.005	0.029	2.725	1.890	1.880	1.880	1.899	1.890	1.895
0.000	-0.010	0.000	0.010	0.005	-0.005	0.034	2.720	1.899	1.880	1.880	1.899	1.890	1.890
-0.010	0.000	-0.005	0.005	0.000	0.000	0.029	2.686	1.890	1.885	1.880	1.899	1.890	1.890
-0.005	-0.015	0.005	0.010	-0.005	0.000	0.029	2.749	1.899	1.885	1.880	1.899	1.890	1.890
-0.005	0.000	0.000	0.010	-0.005	-0.020	0.029	2.676	1.895	1.890	1.885	1.899	1.895	1.885
0.000	0.020	0.000	0.005	-0.015	0.000	0.034	2.632	1.890	1.899	1.885	1.899	1.890	1.895
0.015	0.029	0.005	0.005	-0.015	-0.005	0.034	2.700	1.890	1.899	1.890	1.904	1.895	1.890
0.010	0.000	0.000	0.005	-0.010	-0.020	0.034	2.686	1.890	1.890	1.890	1.904	1.895	1.890
0.000	0.010	0.000	0.000	-0.015	0.000	0.034	2.671	1.890	1.885	1.890	1.904	1.895	1.895
0.000	0.000	0.005	-0.010	-0.029	0.005	0.034	2.681	1.885	1.885	1.885	1.899	1.890	1.895
0.000	-0.010	0.005	-0.010	-0.020	-0.020	0.034	2.671	1.880	1.880	1.885	1.899	1.895	1.890
0.005	-0.020	0.005	-0.010	-0.020	0.000	0.034	2.695	1.885	1.875	1.880	1.899	1.895	1.895
-0.005	-0.020	0.005	-0.010	-0.020	-0.010	0.034	2.695	1.885	1.875	1.880	1.899	1.895	1.890
-0.005	-0.015	0.005	0.000	0.000	0.005	0.029	2.681	1.885	1.880	1.875	1.899	1.899	1.899
0.000	-0.020	0.005	-0.005	0.015	0.000	0.029	2.686	1.885	1.880	1.880	1.899	1.904	1.899
-0.005	0.000	0.005	-0.010	0.024	-0.024	0.034	2.666	1.885	1.890	1.880	1.899	1.904	1.895
0.000	0.005	0.005	-0.010	0.015	0.005	0.034	2.690	1.890	1.890	1.885	1.895	1.899	1.904
-0.005	0.005	0.000	-0.010	-0.010	0.010	0.029	2.695	1.890	1.890	1.885	1.899	1.890	1.899
-0.010	0.000	0.000	-0.015	0.015	0.005	0.034	2.681	1.890	1.885	1.880	1.899	1.899	1.899
-0.010	0.015	-0.005	-0.005	0.034	-0.005	0.034	2.700	1.885	1.890	1.885	1.899	1.904	1.890
-0.010	0.020	0.000	-0.005	0.039	0.000	0.034	2.686	1.885	1.890	1.885	1.904	1.904	1.899
0.000	0.005	0.000	-0.005	0.024	-0.005	0.029	2.676	1.895	1.890	1.885	1.904	1.899	1.899
-0.010	0.010	-0.005	-0.005	0.005	0.005	0.034	2.690	1.890	1.885	1.885	1.904	1.895	1.899
-0.005	0.005	0.000	-0.005	-0.010	0.010	0.034	2.676	1.885	1.885	1.885	1.904	1.890	1.895
-0.010	-0.029	0.000	-0.005	-0.010	0.010	0.029	2.700	1.890	1.875	1.880	1.899	1.895	1.895
0.005	-0.015	0.000	-0.005	-0.034	0.010	0.029	2.671	1.895	1.885	1.880	1.899	1.890	1.895
0.005	-0.020	0.000	0.000	-0.029	0.000	0.034	2.681	1.890	1.880	1.880	1.899	1.890	1.890
0.005	-0.015	0.000	-0.005	-0.005	-0.005	0.034	2.671	1.890	1.885	1.885	1.899	1.899	1.890
0.000	-0.015	0.005	0.000	0.029	-0.029	0.034	2.690	1.890	1.885	1.885	1.904	1.909	1.890
0.005	-0.010	0.010	-0.005	0.063	0.010	0.034	2.651	1.885	1.890	1.885	1.904	1.914	1.904
0.010	-0.005	0.000	-0.005	0.063	0.010	0.034	2.651	1.880	1.885	1.885	1.899	1.909	1.909
0.010	-0.010	0.005	0.000	0.073	-0.005	0.034	2.646	1.880	1.880	1.885	1.904	1.909	1.904
0.015	0.005	0.000	-0.005	0.063	0.000	0.034	2.798	1.885	1.885	1.880	1.899	1.904	1.904
0.010	0.005	0.000	0.000	0.029	0.000	0.029	2.656	1.880	1.885	1.880	1.904	1.890	1.899
-0.010	0.000	-0.005	0.000	-0.039	-0.024	0.034	2.627	1.870	1.875	1.880	1.895	1.875	1.885
-0.005	0.000	-0.005	0.005	-0.137	-0.005	0.034	2.798	1.890	1.880	1.880	1.899	1.855	1.880
0.000	0.005	-0.010	0.010	-0.088	-0.010	0.034	2.739	1.899	1.885	1.880	1.899	1.880	1.880
0.000	0.020	-0.005	0.015	-0.044	-0.005	0.029	2.637	1.899	1.890	1.885	1.904	1.895	1.885
-0.005	0.029	0.000	0.015	-0.063	0.000	0.034	2.739	1.899	1.899	1.890	1.904	1.895	1.890
-0.005	0.020	0.000	0.015	-0.054	0.005	0.029	2.739	1.904	1.895	1.890	1.904	1.899	1.890
-0.005	-0.005	0.000	0.020	-0.015	-0.010	0.034	2.690	1.895	1.885	1.890	1.909	1.909	1.890
-0.010	-0.010	0.000	0.015	-0.024	0.010	0.029	2.739	1.895	1.885	1.890	1.904	1.904	1.899
-0.005	-0.005	0.000	0.010	0.034	0.020	0.034	2.661	1.890	1.890	1.890	1.904	1.924	1.909
0.000	-0.005	0.005	0.010	0.166	0.034	0.029	2.720	1.890	1.885	1.890	1.909	1.948	1.929
0.000	0.000	0.000	0.010	0.132	0.044	0.029	2.656	1.890	1.890	1.890	1.909	1.929	1.929
0.000	0.005	0.005	0.010	0.098	0.010	0.034	2.720	1.895	1.890	1.890	1.904	1.909	1.914
0.005	-0.010	0.010	0.010	0.054	0.034	0.034	2.671	1.890	1.885	1.890	1.904	1.895	1.914
0.005	-0.010	0.005	0.010	0.010	0.034	0.034	2.690	1.895	1.890	1.885	1.899	1.885	1.904
0.005	0.015	0.005	0.005	-0.029	0.010	0.029	2.671	1.895	1.895	1.890	1.899	1.875	1.890
0.010	0.010	0.005	0.005	-0.039	0.000	0.029	2.671	1.890	1.890	1.890	1.904	1.880	1.885
-0.005	0.015	0.000	0.010	-0.044	0.000	0.034	2.700	1.890	1.890	1.890	1.904	1.885	1.885
-0.005	0.024	0.000	0.010	-0.044	-0.010	0.029	2.690	1.890	1.890	1.890	1.904	1.890	1.880
0.000	0.029	0.000	0.010	-0.044	-0.010	0.034	2.695	1.890	1.895	1.890	1.909	1.895	1.885
0.010	0.034	-0.005	0.005	-0.044	-0.024	0.034	2.686	1.890	1.895	1.890	1.904	1.895	1.885
0.010	0.029	0.000	0.005	-0.039	-0.024	0.034	2.700	1.895	1.895	1.890	1.904	1.899	1.885
0.010	0.020	0.000	0.010	-0.039	-0.034	0.029	2.686	1.890	1.885	1.890	1.904	1.899	1.890
0.000	0.010	-0.005	0.010	-0.034	-0.044	0.029	2.671	1.885	1.885	1.885	1.904	1.899	1.890
0.005	-0.039	0.000	0.005	-0.034	-0.020	0.029	2.700	1.885	1.875	1.880	1.904	1.904	1.895
0.005	-0.034	0.005	0.005	-0.024	-0.010	0.029	2.686	1.890	1.875	1.880	1.904	1.904	1.904
0.010	-0.029	0.000	0.005	-0.005	-0.020	0.029	2.690	1.890	1.880	1.880	1.904	1.904	1.904
0.010	-0.020	0.010	0.005	0.000	0.000	0.029	2.700	1.890	1.885	1.880	1.904	1.904	1.909
0.010	-0.010	0.005	0.000	0.005	0.005	0.034	2.676	1.890	1.890	1.880	1.899	1.904	1.909
0.015	0.015	0.000	0.005	0.005	0.010	0.034	2.666	1.890	1.895	1.885	1.899	1.904	1.909
0.010	0.005	0.005	0.000	-0.015	0.000	0.034	2.676	1.885	1.890	1.885	1.899	1.895	1.904
-0.005	-0.005	0.005	0.000	-0.010	0.010	0.034	2.705	1.890	1.885	1.885	1.899	1.899	1.904
-0.010	-0.020	0.005	-0.005	0.005	-0.015	0.034	2.705	1.890	1.880	1.880	1.899	1.899	1.895
0.000	0.000	0.000	-0.015	0.005	0.005	0.034	2.700	1.895	1.885	1.885	1.895	1.895	1.899
0.010	0.010	0.000	-0.024	0.005	0.015	0.029	2.671	1.895	1.895	1.885	1.895	1.895	1.904
0.000	0.005	0.000	-0.020	-0.005	0.005	0.029	2.686	1.895	1.890	1.885	1.899	1.890	1.895
0.000	-0.005	-0.005	-0.020	-0.015	0.005	0.034	2.646	1.885	1.885	1.885	1.899	1.890	1.895
0.000	0.000	-0.005	-0.020	-0.015	0.005	0.034	2.651	1.880	1.885	1.885	1.899	1.890	1.895
0.000	0.000	-0.005	-0.020	-0.034	-0.005	0.029	2.642	1.880	1.885	1.885	1.899	1.885	1.890
-0.005	0.029	0.000	-0.015	-0.044	-0.005	0.034	2.788	1.895	1.895	1.890	1.904	1.890	1.890
-0.015	0.020	0.000	-0.020	-0.054	-0.005	0.029	2.651	1.885	1.890	1.890	1.904	1.890	1.890
-0.010	0.010	0.005	-0.020	-0.029	0.015	0.029	2.637	1.880	1.885	1.885	1.904	1.899	1.895
0.005	-0.005	0.005	-0.010	0.034	0.015	0.034	2.798	1.899	1.885	1.885	1.909	1.919	1.904
0.015	-0.020	0.005	-0.015	0.068	-0.015	0.034	2.739	1.899	1.885	1.885	1.904	1.924	1.899
0.000	-0.015	0.000	-0.020	0.073	0.015	0.029	2.627	1.890	1.885	1.880	1.904	1.914	1.909
