0.000	-0.029	0.000	0.000	-0.005	0.000	0.000	2.671	2.661	2.187	2.075	1.987	1.997	1.992
-0.005	-0.020	-0.005	0.000	-0.015	-0.005	0.000	2.681	2.480	2.271	2.124	2.026	2.002	1.992
-0.005	-0.010	-0.005	0.000	-0.010	0.005	0.000	2.695	2.344	2.295	2.173	2.070	2.017	2.002
-0.005	-0.020	-0.005	0.000	-0.015	0.005	0.000	2.651	2.241	2.285	2.202	2.109	2.036	2.012
-0.005	-0.034	-0.005	0.000	-0.024	0.000	0.000	2.686	2.173	2.251	2.217	2.144	2.061	2.021
0.005	-0.024	-0.005	-0.005	-0.024	0.015	0.000	2.646	2.119	2.217	2.217	2.168	2.090	2.041
-0.010	-0.024	-0.005	-0.005	-0.020	0.005	0.000	2.666	2.080	2.183	2.207	2.183	2.114	2.061
-0.010	-0.015	-0.005	-0.005	-0.020	-0.005	0.000	2.671	2.056	2.148	2.192	2.187	2.134	2.080
0.000	-0.010	-0.005	-0.005	-0.020	0.005	0.000	2.666	2.046	2.124	2.178	2.192	2.153	2.100
-0.015	-0.015	0.000	-0.010	-0.015	0.005	0.000	2.686	2.036	2.100	2.158	2.187	2.163	2.119
-0.005	-0.005	0.000	-0.005	-0.015	-0.029	0.000	2.690	2.036	2.080	2.134	2.183	2.168	2.124
0.000	-0.005	0.000	-0.005	-0.010	0.010	0.000	2.666	2.031	2.070	2.119	2.173	2.168	2.148
-0.010	-0.005	-0.005	-0.005	-0.010	-0.010	0.000	2.671	2.026	2.061	2.100	2.158	2.168	2.148
-0.005	0.034	-0.005	0.000	-0.005	0.005	0.000	2.656	2.026	2.065	2.090	2.148	2.163	2.153
-0.005	0.020	-0.005	0.000	-0.010	0.005	0.000	2.690	2.031	2.051	2.080	2.134	2.153	2.153
-0.005	0.020	0.000	0.000	-0.015	-0.005	0.000	2.690	2.036	2.046	2.070	2.124	2.144	2.153
0.000	0.024	-0.005	0.000	-0.010	0.005	0.000	2.661	2.036	2.046	2.061	2.109	2.134	2.148
0.010	0.010	-0.005	0.000	-0.005	-0.010	0.000	2.666	2.036	2.036	2.056	2.100	2.124	2.139
0.005	0.005	-0.010	0.000	0.000	0.000	0.000	2.676	2.036	2.036	2.046	2.090	2.114	2.134
0.005	0.010	-0.005	0.000	0.005	-0.020	0.000	2.676	2.036	2.036	2.046	2.080	2.104	2.124
0.000	0.005	-0.005	0.000	0.000	-0.005	0.000	2.676	2.031	2.036	2.041	2.075	2.095	2.119
-0.010	0.005	-0.005	-0.005	0.000	0.005	0.000	2.676	2.026	2.036	2.041	2.065	2.085	2.114
0.005	0.005	-0.005	0.000	0.000	0.000	0.000	2.671	2.026	2.026	2.036	2.061	2.080	2.100
-0.005	-0.020	-0.005	-0.005	0.000	-0.010	0.000	2.681	2.026	2.026	2.026	2.061	2.070	2.090
-0.010	-0.020	0.000	-0.010	0.000	0.015	0.000	2.681	2.026	2.021	2.026	2.056	2.065	2.090
-0.005	-0.020	0.000	-0.010	0.005	-0.010	0.000	2.671	2.026	2.026	2.026	2.056	2.061	2.075
0.005	0.000	0.000	-0.005	0.000	0.000	0.000	2.681	2.026	2.031	2.026	2.051	2.056	2.070
-0.005	-0.010	-0.005	-0.005	0.000	0.005	0.000	2.651	2.021	2.026	2.026	2.051	2.056	2.070
0.010	-0.005	-0.010	-0.005	-0.005	-0.015	0.000	2.666	2.026	2.026	2.026	2.046	2.051	2.061
0.000	0.000	-0.005	-0.005	-0.005	-0.005	0.000	2.671	2.021	2.026	2.026	2.046	2.051	2.061
-0.005	0.005	-0.005	0.000	0.000	0.000	0.000	2.686	2.021	2.026	2.026	2.046	2.046	2.056
0.005	0.000	-0.005	0.000	-0.005	0.000	0.000	2.681	2.021	2.026	2.026	2.046	2.046	2.056
-0.005	0.000	-0.005	-0.005	0.005	0.005	-0.005	2.676	2.017	2.021	2.026	2.046	2.046	2.056
-0.005	0.000	-0.005	0.000	-0.005	-0.005	0.000	2.661	2.012	2.017	2.026	2.046	2.041	2.046
-0.005	-0.005	0.000	0.000	0.000	-0.015	0.000	2.705	2.012	2.017	2.021	2.041	2.041	2.041
0.005	0.000	0.005	0.000	0.000	-0.005	0.000	2.661	2.017	2.017	2.021	2.041	2.041	2.041
-0.010	0.015	-0.005	0.000	0.005	0.005	0.000	2.656	2.002	2.017	2.017	2.036	2.041	2.046
0.000	0.005	0.000	0.000	0.005	-0.015	0.000	2.661	2.002	2.012	2.017	2.036	2.036	2.036
0.000	0.000	-0.005	0.000	0.000	-0.010	-0.005	2.671	2.002	2.007	2.012	2.031	2.031	2.041
-0.005	-0.010	-0.005	-0.005	0.005	0.000	0.000	2.666	1.997	1.997	2.002	2.026	2.031	2.036
-0.010	-0.010	-0.005	-0.005	0.000	-0.015	0.000	2.676	1.997	1.997	2.002	2.026	2.026	2.031
-0.005	-0.020	-0.005	-0.005	-0.005	-0.005	-0.005	2.681	2.002	1.997	1.997	2.026	2.026	2.031
-0.005	-0.029	-0.005	-0.005	-0.005	-0.010	0.000	2.681	1.997	1.997	1.997	2.021	2.026	2.026
0.000	0.000	-0.005	-0.010	0.000	0.015	0.000	2.676	1.997	2.002	2.002	2.021	2.021	2.031
-0.010	0.010	-0.005	-0.005	-0.005	0.000	0.000	2.671	1.997	2.007	2.002	2.021	2.021	2.026
0.000	0.005	-0.005	-0.005	-0.010	-0.010	0.000	2.686	1.997	2.002	2.002	2.021	2.017	2.021
0.005	0.005	0.000	0.000	-0.005	0.000	0.000	2.686	1.997	2.002	2.002	2.021	2.021	2.026
-0.005	0.010	-0.005	0.000	0.000	0.000	0.000	2.681	1.992	1.997	2.002	2.021	2.021	2.026
-0.005	0.005	-0.005	0.000	-0.010	0.010	0.000	2.681	1.992	1.997	2.002	2.021	2.021	2.026
-0.005	0.005	-0.005	0.000	-0.005	-0.005	0.000	2.671	1.987	1.992	1.997	2.017	2.017	2.021
-0.005	0.000	-0.005	0.005	0.000	-0.020	0.000	2.666	1.982	1.987	1.997	2.017	2.017	2.017
0.000	-0.005	0.000	0.000	0.000	0.005	0.000	2.671	1.987	1.987	1.992	2.017	2.017	2.021
-0.005	-0.005	-0.005	0.000	0.000	0.000	0.000	2.676	1.982	1.987	1.987	2.012	2.017	2.017
-0.005	0.000	-0.005	0.000	-0.005	-0.005	0.000	2.666	1.982	1.982	1.987	2.012	2.007	2.012
0.010	-0.015	-0.005	-0.005	-0.005	-0.010	0.000	2.656	1.978	1.978	1.982	2.007	2.007	2.012
0.000	-0.010	-0.010	-0.005	-0.005	-0.015	0.000	2.671	1.978	1.978	1.982	2.002	2.002	2.007
-0.005	-0.015	-0.005	0.000	-0.005	-0.024	0.000	2.666	1.973	1.978	1.978	2.002	2.002	2.007
0.000	-0.010	0.000	-0.005	-0.005	0.015	0.000	2.671	1.973	1.978	1.978	2.002	2.002	2.012
0.000	-0.005	0.000	-0.005	-0.005	0.000	0.000	2.666	1.973	1.978	1.978	2.002	2.002	2.007
0.000	0.000	-0.005	-0.010	0.000	0.010	0.000	2.681	1.978	1.978	1.978	1.997	1.997	2.007
-0.005	-0.005	0.000	-0.005	-0.005	-0.005	-0.005	2.666	1.973	1.978	1.978	1.997	1.997	2.002
0.000	-0.005	-0.005	-0.005	-0.010	0.005	0.000	2.681	1.978	1.978	1.978	1.997	1.997	2.002
0.005	0.000	-0.005	-0.005	-0.005	0.000	0.000	2.681	1.978	1.978	1.978	1.997	1.997	2.002
0.005	0.005	0.000	0.000	0.000	-0.005	0.000	2.671	1.968	1.978	1.978	1.997	1.997	2.002
-0.010	-0.005	0.000	0.000	0.005	-0.029	0.000	2.676	1.968	1.973	1.973	1.997	1.997	1.992
-0.005	0.000	-0.005	0.000	0.000	0.005	0.000	2.676	1.968	1.973	1.973	1.997	1.992	2.002
-0.005	0.000	-0.005	0.000	0.000	-0.005	0.000	2.661	1.963	1.973	1.973	1.997	1.992	1.997
-0.005	0.005	-0.005	0.000	-0.005	-0.005	0.000	2.676	1.968	1.973	1.973	1.992	1.992	1.997
-0.005	0.000	-0.010	0.000	-0.005	-0.024	0.000	2.666	1.963	1.963	1.968	1.987	1.987	1.992
-0.015	-0.005	-0.005	0.000	-0.010	0.000	0.000	2.681	1.958	1.958	1.963	1.987	1.987	1.992
-0.010	-0.015	-0.005	-0.005	0.000	0.000	0.000	2.686	1.963	1.958	1.963	1.987	1.987	1.992
-0.005	-0.015	0.000	0.000	0.000	0.000	0.000	2.666	1.958	1.958	1.963	1.982	1.982	1.992
-0.005	-0.015	-0.005	-0.005	0.000	-0.005	0.000	2.661	1.958	1.958	1.958	1.982	1.982	1.987
-0.015	-0.015	-0.005	-0.005	0.005	-0.010	0.000	2.661	1.958	1.953	1.958	1.978	1.982	1.982
0.000	-0.005	-0.005	-0.005	0.000	-0.020	0.000	2.671	1.958	1.958	1.958	1.978	1.978	1.982
-0.005	-0.005	0.000	-0.005	-0.005	0.000	0.000	2.666	1.953	1.958	1.958	1.978	1.978	1.987
0.000	-0.005	0.000	-0.005	-0.005	-0.005	0.000	2.676	1.958	1.958	1.958	1.978	1.973	1.982
0.005	0.000	-0.005	0.000	-0.005	-0.010	0.000	2.681	1.958	1.958	1.958	1.978	1.973	1.978
-0.005	0.000	-0.005	-0.005	0.000	0.005	0.000	2.681	1.958	1.958	1.958	1.982	1.978	1.982
-0.005	0.000	0.000	-0.005	-0.005	0.005	0.000	2.686	1.958	1.963	1.958	1.978	1.978	1.982
-0.005	0.005	-0.005	0.000	-0.005	-0.020	0.000	2.671	1.958	1.958	1.958	1.978	1.973	1.973
-0.010	0.000	-0.005	-0.005	0.000	0.000	0.000	2.671	1.953	1.958	1.953	1.978	1.978	1.978
-0.005	0.010	0.000	0.000	-0.005	-0.020	0.000	2.671	1.958	1.958	1.958	1.978	1.973	1.973
0.000	0.005	-0.005	0.000	-0.005	0.005	0.000	2.676	1.953	1.958	1.953	1.978	1.973	1.982
-0.010	0.000	0.000	0.000	-0.010	-0.005	0.000	2.676	1.948	1.953	1.953	1.978	1.973	1.973
0.000	-0.005	-0.005	0.000	-0.005	-0.020	-0.005	2.676	1.953	1.948	1.948	1.973	1.973	1.968
-0.005	0.000	-0.005	0.000	-0.005	0.000	0.000	2.676	1.943	1.948	1.948	1.968	1.973	1.973
-0.005	-0.015	0.000	0.000	-0.005	-0.010	0.000	2.666	1.943	1.943	1.948	1.968	1.968	1.973
0.005	-0.010	-0.005	-0.005	0.000	0.005	0.000	2.666	1.943	1.943	1.948	1.963	1.968	1.973
0.000	-0.010	-0.005	-0.005	0.000	-0.010	0.000	2.671	1.943	1.943	1.943	1.963	1.963	1.968
0.000	-0.020	0.000	-0.005	-0.005	-0.005	-0.005	2.666	1.943	1.938	1.943	1.963	1.963	1.968
0.000	-0.005	0.005	-0.005	0.000	0.005	0.000	2.686	1.943	1.943	1.943	1.963	1.963	1.968
0.005	-0.005	0.000	-0.005	-0.005	0.000	0.000	2.676	1.943	1.943	1.948	1.963	1.958	1.968
-0.005	-0.005	0.000	-0.005	-0.005	-0.005	0.000	2.671	1.943	1.943	1.943	1.963	1.958	1.963
0.005	-0.005	0.005	-0.005	0.000	-0.005	0.000	2.676	1.943	1.943	1.943	1.963	1.963	1.963
0.005	-0.005	0.000	-0.005	-0.005	0.000	0.000	2.676	1.943	1.943	1.943	1.963	1.963	1.963
-0.010	0.000	0.000	-0.005	0.000	-0.015	0.000	2.686	1.943	1.943	1.943	1.963	1.963	1.963
0.000	0.005	-0.005	0.000	0.000	-0.010	0.000	2.666	1.943	1.948	1.943	1.963	1.963	1.963
-0.005	-0.005	-0.005	0.000	-0.005	-0.015	0.000	2.671	1.938	1.943	1.943	1.963	1.963	1.963
-0.005	0.000	-0.005	0.000	-0.010	0.000	-0.005	2.671	1.938	1.938	1.938	1.963	1.958	1.963
-0.015	0.005	0.000	0.000	-0.005	0.000	0.000	2.676	1.934	1.943	1.943	1.958	1.958	1.963
-0.010	0.000	0.000	0.000	-0.005	-0.020	0.000	2.671	1.938	1.938	1.938	1.958	1.958	1.958
-0.010	0.010	-0.005	0.000	0.000	0.010	0.000	2.681	1.938	1.938	1.934	1.958	1.958	1.963
0.000	0.005	-0.005	0.000	0.000	0.010	0.000	2.676	1.934	1.934	1.934	1.958	1.953	1.963
-0.005	-0.005	0.000	-0.005	-0.005	0.005	0.000	2.681	1.938	1.934	1.934	1.953	1.953	1.953
-0.005	-0.010	-0.005	-0.005	-0.005	0.000	0.000	2.676	1.934	1.929	1.934	1.953	1.948	1.953
-0.010	-0.010	-0.005	-0.005	-0.005	-0.010	0.000	2.671	1.929	1.929	1.934	1.948	1.948	1.948
-0.010	-0.015	-0.005	-0.005	-0.005	-0.005	0.000	2.671	1.934	1.929	1.929	1.948	1.948	1.948
-0.015	-0.015	-0.005	-0.005	0.000	0.005	0.000	2.676	1.934	1.929	1.929	1.948	1.948	1.953
0.000	-0.010	0.000	-0.005	0.000	0.000	0.000	2.666	1.934	1.934	1.929	1.948	1.948	1.948
-0.010	-0.010	0.000	-0.005	0.000	0.000	0.000	2.666	1.934	1.934	1.929	1.953	1.948	1.948
-0.010	-0.005	0.000	-0.005	-0.005	-0.005	0.000	2.686	1.934	1.934	1.934	1.948	1.943	1.948
0.005	0.000	0.000	-0.005	-0.005	0.005	0.000	2.686	1.938	1.934	1.934	1.953	1.948	1.948
0.000	0.005	-0.005	0.000	0.005	-0.005	0.000	2.681	1.938	1.938	1.934	1.953	1.948	1.948
0.005	-0.005	0.000	-0.005	-0.005	-0.005	0.000	2.686	1.938	1.934	1.934	1.953	1.943	1.943
0.000	-0.005	-0.005	0.000	-0.010	0.000	0.000	2.686	1.938	1.934	1.934	1.953	1.948	1.948
-0.010	0.000	-0.005	0.000	-0.005	0.000	0.000	2.686	1.934	1.934	1.934	1.953	1.948	1.948
0.000	0.000	-0.005	0.000	-0.005	-0.010	0.000	2.671	1.929	1.934	1.934	1.953	1.948	1.948
0.000	-0.015	-0.005	0.005	-0.005	-0.010	0.000	2.661	1.924	1.929	1.929	1.948	1.948	1.943
-0.005	-0.020	-0.005	-0.005	0.000	-0.005	0.000	2.676	1.924	1.919	1.929	1.948	1.948	1.948
-0.005	-0.020	0.000	-0.005	-0.005	0.000	0.000	2.681	1.924	1.924	1.924	1.948	1.943	1.948
0.005	-0.020	0.000	0.000	0.000	-0.005	0.000	2.651	1.919	1.924	1.924	1.943	1.943	1.943
-0.015	-0.015	-0.005	-0.005	-0.005	-0.010	0.000	2.671	1.919	1.919	1.919	1.943	1.943	1.943
0.000	-0.005	-0.005	-0.005	0.005	-0.010	0.000	2.671	1.919	1.919	1.919	1.938	1.938	1.943
0.005	-0.015	0.000	-0.005	0.000	-0.005	0.000	2.676	1.924	1.919	1.919	1.943	1.938	1.943
-0.010	0.000	0.000	-0.005	0.000	0.005	0.000	2.671	1.924	1.924	1.919	1.943	1.938	1.943
-0.005	-0.010	-0.005	-0.005	0.000	0.000	0.000	2.676	1.919	1.924	1.919	1.943	1.938	1.943
-0.005	0.000	-0.005	-0.005	0.000	-0.005	0.000	2.681	1.924	1.924	1.924	1.943	1.938	1.938
-0.010	-0.005	0.000	-0.005	-0.005	-0.010	0.000	2.686	1.924	1.924	1.924	1.943	1.938	1.938
-0.005	0.015	-0.005	-0.005	0.000	-0.005	0.000	2.681	1.929	1.929	1.924	1.943	1.938	1.938
-0.005	0.005	-0.005	0.000	-0.005	0.005	0.000	2.681	1.929	1.929	1.924	1.943	1.938	1.943
-0.005	0.005	-0.005	0.000	-0.005	0.000	0.000	2.681	1.924	1.924	1.924	1.943	1.938	1.938
0.000	0.010	-0.005	0.000	-0.010	-0.010	0.000	2.681	1.929	1.929	1.924	1.943	1.938	1.938
-0.005	0.010	-0.010	0.000	-0.005	-0.005	0.000	2.681	1.924	1.924	1.924	1.943	1.938	1.938
-0.010	0.005	-0.005	0.000	-0.005	-0.024	0.000	2.676	1.924	1.924	1.924	1.943	1.938	1.934
-0.005	0.010	-0.005	0.000	0.000	0.000	0.000	2.666	1.919	1.924	1.924	1.943	1.938	1.943
-0.005	0.000	0.000	0.000	0.000	0.005	0.000	2.666	1.919	1.919	1.919	1.943	1.938	1.938
-0.005	0.000	0.000	-0.005	-0.005	-0.024	0.000	2.671	1.919	1.919	1.919	1.938	1.934	1.934
-0.005	0.000	-0.005	-0.005	0.000	-0.015	0.000	2.676	1.919	1.914	1.919	1.938	1.934	1.934
-0.005	0.000	0.005	-0.005	-0.005	0.005	0.000	2.676	1.919	1.919	1.919	1.938	1.934	1.938
-0.005	0.000	0.000	-0.005	-0.005	-0.010	0.000	2.676	1.914	1.914	1.914	1.934	1.934	1.934
0.000	0.000	-0.005	-0.005	-0.005	0.010	0.000	2.666	1.919	1.914	1.914	1.934	1.934	1.943
-0.005	0.005	-0.005	-0.005	-0.015	0.000	0.000	2.681	1.919	1.919	1.914	1.934	1.929	1.934
0.000	-0.005	0.000	-0.005	-0.010	0.005	0.000	2.681	1.919	1.919	1.914	1.934	1.929	1.934
-0.005	0.005	0.000	-0.005	0.000	-0.020	0.000	2.671	1.919	1.919	1.919	1.938	1.934	1.929
-0.010	0.005	-0.005	-0.005	0.000	0.010	0.000	2.686	1.919	1.919	1.914	1.934	1.934	1.938
-0.005	0.010	-0.005	0.000	0.000	0.000	0.000	2.666	1.919	1.919	1.919	1.938	1.934	1.934
0.005	0.005	-0.005	-0.005	0.010	0.005	0.000	2.686	1.919	1.919	1.919	1.938	1.934	1.938
0.000	-0.005	-0.005	0.000	0.000	0.000	0.000	2.681	1.919	1.919	1.919	1.938	1.934	1.934
-0.010	-0.005	-0.005	0.000	-0.010	0.010	-0.005	2.671	1.919	1.919	1.914	1.938	1.934	1.934
-0.010	0.015	0.000	0.000	-0.005	0.005	0.000	2.671	1.919	1.924	1.914	1.938	1.934	1.934
0.000	0.015	-0.005	0.000	-0.005	0.000	0.000	2.681	1.919	1.919	1.919	1.934	1.929	1.929
0.010	0.015	0.000	-0.005	-0.005	0.005	-0.005	2.681	1.919	1.919	1.919	1.934	1.929	1.934
0.000	-0.005	0.000	0.000	0.000	0.000	0.000	2.676	1.914	1.909	1.914	1.934	1.929	1.934
-0.005	-0.020	0.000	-0.005	-0.005	0.000	0.000	2.686	1.914	1.909	1.909	1.934	1.929	1.929
-0.005	-0.020	-0.005	-0.005	0.000	-0.005	0.000	2.676	1.909	1.909	1.909	1.929	1.929	1.929
0.010	0.000	-0.005	-0.005	-0.005	-0.015	0.000	2.661	1.914	1.914	1.909	1.929	1.929	1.924
0.000	0.005	-0.005	-0.005	-0.010	-0.015	0.000	2.676	1.909	1.914	1.909	1.929	1.924	1.924
-0.005	0.000	0.005	-0.005	0.000	0.005	0.000	2.686	1.914	1.909	1.909	1.929	1.929	1.929
-0.010	-0.005	0.005	-0.005	-0.005	-0.010	0.000	2.676	1.909	1.909	1.909	1.929	1.924	1.924
0.000	0.005	-0.005	-0.005	-0.005	-0.005	0.000	2.661	1.909	1.909	1.909	1.929	1.924	1.929
0.005	-0.005	-0.005	-0.005	-0.005	-0.010	0.000	2.671	1.914	1.909	1.909	1.929	1.929	1.929
-0.010	0.010	-0.005	-0.005	0.000	-0.015	0.000	2.666	1.909	1.914	1.914	1.929	1.929	1.929
0.000	0.005	-0.010	-0.005	0.000	0.000	0.000	2.676	1.914	1.914	1.909	1.929	1.929	1.934
0.000	0.005	-0.010	0.000	0.010	-0.005	0.000	2.661	1.914	1.914	1.909	1.929	1.929	1.929
-0.010	0.015	-0.005	0.000	0.010	-0.020	0.000	2.661	1.909	1.914	1.909	1.929	1.929	1.929
-0.015	0.010	-0.005	0.000	-0.005	-0.024	0.000	2.646	1.904	1.909	1.914	1.929	1.924	1.924
0.000	0.005	-0.005	0.000	-0.005	0.005	0.000	2.686	1.909	1.909	1.909	1.929	1.924	1.929
0.000	0.000	-0.005	0.000	-0.005	0.010	0.000	2.666	1.909	1.909	1.909	1.929	1.924	1.929
-0.005	0.005	-0.005	0.000	-0.010	-0.010	0.000	2.671	1.909	1.904	1.904	1.924	1.919	1.924
0.000	-0.005	-0.005	0.000	-0.005	0.000	0.000	2.666	1.904	1.899	1.904	1.924	1.924	1.929
-0.005	-0.015	0.000	-0.005	0.000	0.000	0.000	2.666	1.904	1.899	1.904	1.924	1.919	1.924
0.000	-0.010	-0.005	-0.005	0.005	-0.005	0.000	2.661	1.904	1.899	1.899	1.919	1.919	1.924
-0.005	-0.005	0.000	-0.005	-0.005	0.005	-0.005	2.656	1.904	1.904	1.904	1.919	1.914	1.924
-0.010	-0.005	0.000	-0.005	-0.015	0.005	0.000	2.651	1.904	1.904	1.904	1.919	1.914	1.919
0.000	0.005	-0.005	-0.005	0.000	0.000	0.000	2.651	1.904	1.904	1.904	1.919	1.919	1.919
0.000	-0.005	0.000	-0.005	0.005	0.005	0.000	2.637	1.904	1.904	1.904	1.919	1.919	1.924
-0.005	-0.010	0.000	-0.005	0.000	0.005	0.000	2.690	1.909	1.904	1.904	1.919	1.919	1.919
-0.005	-0.005	-0.005	-0.005	0.000	-0.010	0.000	2.778	1.909	1.904	1.899	1.924	1.919	1.914
-0.005	0.005	0.000	-0.005	0.000	0.000	0.000	2.632	1.904	1.909	1.904	1.924	1.919	1.919
-0.010	-0.005	-0.005	-0.005	0.000	-0.005	0.000	2.832	1.924	1.909	1.904	1.924	1.919	1.919
-0.005	-0.005	-0.005	0.000	-0.010	-0.015	0.000	2.656	1.914	1.909	1.904	1.924	1.914	1.914
0.000	-0.010	-0.005	0.000	-0.010	-0.005	0.000	2.661	1.914	1.914	1.904	1.924	1.919	1.919
0.000	-0.005	-0.005	0.000	0.000	-0.005	0.000	2.661	1.909	1.909	1.909	1.924	1.919	1.919
0.000	-0.005	0.000	0.000	0.000	0.000	0.000	2.666	1.904	1.909	1.909	1.924	1.919	1.919
0.000	-0.010	-0.005	0.000	-0.005	0.005	0.000	2.671	1.909	1.904	1.904	1.924	1.919	1.919
0.005	-0.010	0.000	0.000	-0.005	0.000	0.000	2.661	1.909	1.904	1.904	1.924	1.919	1.919
0.005	-0.005	-0.005	0.000	-0.005	0.000	0.000	2.661	1.904	1.904	1.904	1.919	1.919	1.919
-0.005	-0.015	0.005	-0.005	-0.005	0.000	0.000	2.666	1.899	1.899	1.899	1.919	1.914	1.914
0.000	-0.024	0.000	0.000	0.000	-0.005	0.000	2.646	1.895	1.895	1.899	1.919	1.919	1.919
-0.005	-0.015	0.000	-0.005	0.000	0.000	0.000	2.637	1.895	1.895	1.899	1.919	1.919	1.919
0.000	-0.015	-0.005	-0.005	0.000	0.000	0.000	2.676	1.899	1.895	1.895	1.914	1.914	1.914
0.005	-0.010	-0.005	-0.005	-0.005	-0.005	0.000	2.627	1.895	1.899	1.895	1.914	1.914	1.914
-0.005	-0.005	-0.005	-0.005	0.000	0.000	0.000	2.637	1.895	1.899	1.899	1.919	1.914	1.919
0.000	0.010	0.000	-0.005	-0.005	0.005	0.000	2.832	1.924	1.909	1.899	1.919	1.914	1.919
-0.005	0.000	-0.005	-0.005	-0.005	0.000	0.000	2.666	1.909	1.909	1.899	1.919	1.914	1.914
-0.005	0.005	0.000	-0.005	-0.005	-0.005	0.000	2.676	1.909	1.909	1.909	1.919	1.914	1.919
-0.010	-0.005	0.000	0.000	-0.010	-0.015	0.000	2.671	1.909	1.904	1.904	1.919	1.914	1.914
0.000	-0.015	-0.005	0.000	0.000	-0.005	0.000	2.671	1.909	1.904	1.904	1.924	1.919	1.914
0.000	-0.005	-0.005	0.000	-0.005	-0.005	0.000	2.676	1.909	1.909	1.899	1.924	1.919	1.914
-0.015	0.005	-0.010	0.000	-0.005	-0.010	0.000	2.666	1.899	1.909	1.904	1.924	1.914	1.914
-0.005	0.024	-0.010	0.000	-0.005	0.000	0.000	2.656	1.904	1.909	1.904	1.919	1.919	1.914
0.005	0.015	-0.010	0.000	0.000	-0.005	0.000	2.642	1.899	1.904	1.904	1.924	1.919	1.914
-0.005	0.005	-0.005	0.000	0.000	-0.020	0.000	2.622	1.890	1.899	1.899	1.919	1.914	1.909
0.000	0.005	-0.005	-0.005	-0.005	0.005	-0.005	2.642	1.890	1.895	1.899	1.919	1.914	1.919
0.000	0.005	-0.005	-0.005	0.000	-0.010	0.000	2.661	1.890	1.895	1.895	1.914	1.914	1.914
0.000	-0.005	0.000	-0.005	0.000	-0.005	0.000	2.642	1.890	1.890	1.895	1.914	1.914	1.914
-0.010	0.000	-0.005	-0.005	0.005	-0.024	0.000	2.646	1.890	1.890	1.895	1.914	1.914	1.909
-0.010	0.005	-0.005	-0.005	0.000	-0.010	0.000	2.793	1.909	1.899	1.895	1.914	1.909	1.914
-0.010	0.000	0.005	-0.005	0.000	-0.010	0.000	2.681	1.909	1.899	1.899	1.914	1.909	1.914
0.005	0.010	-0.005	-0.005	-0.005	-0.024	0.000	2.681	1.909	1.904	1.895	1.919	1.909	1.914
0.000	0.010	0.000	-0.005	-0.005	0.000	0.000	2.661	1.909	1.904	1.899	1.919	1.914	1.919
-0.005	-0.005	0.000	-0.005	-0.005	-0.015	0.000	2.676	1.909	1.904	1.899	1.919	1.914	1.914
-0.005	0.000	0.000	-0.005	-0.005	0.000	-0.005	2.676	1.909	1.904	1.899	1.919	1.914	1.914
0.005	-0.010	-0.005	0.000	-0.005	0.005	0.000	2.656	1.909	1.904	1.899	1.919	1.914	1.919
0.000	0.000	-0.005	0.000	-0.010	-0.005	0.000	2.661	1.904	1.904	1.899	1.919	1.914	1.914
0.005	0.005	-0.005	0.000	-0.005	0.000	0.000	2.656	1.899	1.909	1.904	1.919	1.914	1.919
0.000	-0.005	-0.005	0.000	0.000	0.015	0.000	2.651	1.904	1.899	1.899	1.919	1.914	1.919
-0.005	-0.005	0.000	0.000	-0.005	0.000	-0.005	2.646	1.895	1.899	1.899	1.919	1.914	1.914
0.000	0.000	-0.005	0.000	0.000	-0.005	0.000	2.661	1.899	1.899	1.899	1.914	1.914	1.909
-0.010	-0.005	-0.005	-0.005	-0.005	0.000	0.000	2.642	1.890	1.895	1.895	1.914	1.909	1.909
-0.005	-0.010	0.000	-0.005	-0.005	0.005	0.000	2.803	1.890	1.890	1.895	1.914	1.909	1.909
0.000	0.000	0.000	-0.005	-0.005	0.000	0.000	2.637	1.890	1.895	1.895	1.914	1.909	1.909
-0.005	-0.010	-0.005	-0.005	-0.005	0.005	0.000	2.656	1.890	1.890	1.890	1.909	1.909	1.914
-0.005	-0.020	0.000	-0.005	-0.005	0.000	0.000	2.671	1.890	1.885	1.890	1.909	1.909	1.909
0.005	-0.005	-0.005	-0.005	0.000	0.000	0.000	2.671	1.899	1.895	1.890	1.909	1.909	1.909
-0.005	-0.010	0.000	-0.005	-0.005	0.000	0.000	2.676	1.899	1.895	1.890	1.909	1.909	1.909
-0.005	-0.015	-0.005	-0.005	0.005	0.000	0.000	2.676	1.899	1.895	1.890	1.909	1.909	1.909
0.000	0.000	-0.005	-0.005	0.000	-0.005	0.000	2.661	1.899	1.899	1.895	1.909	1.909	1.909
-0.005	-0.010	-0.005	0.000	-0.005	-0.024	0.000	2.661	1.895	1.895	1.890	1.909	1.909	1.904
-0.005	-0.010	-0.005	0.000	0.000	0.005	0.000	2.642	1.895	1.899	1.895	1.914	1.909	1.909
-0.005	-0.015	-0.005	0.000	-0.005	-0.029	0.000	2.651	1.895	1.895	1.895	1.909	1.904	1.904
-0.015	-0.020	0.000	-0.005	-0.005	0.000	0.000	2.651	1.890	1.890	1.895	1.914	1.909	1.909
-0.010	-0.015	0.000	0.000	-0.010	-0.010	0.000	2.666	1.895	1.895	1.890	1.914	1.909	1.904
-0.010	-0.010	-0.005	0.000	-0.005	0.005	-0.005	2.632	1.890	1.890	1.890	1.909	1.909	1.914
0.000	-0.010	0.000	0.000	-0.010	-0.005	0.000	2.651	1.890	1.890	1.890	1.909	1.909	1.904
0.005	-0.015	-0.005	0.000	0.000	0.000	0.000	2.808	1.904	1.890	1.890	1.909	1.909	1.909
-0.010	0.000	-0.005	0.000	0.000	0.000	0.000	2.651	1.899	1.899	1.890	1.909	1.904	1.909
0.005	-0.005	-0.010	-0.005	-0.005	0.000	0.000	2.661	1.899	1.895	1.895	1.909	1.904	1.909
-0.005	-0.010	0.000	-0.005	-0.005	0.005	0.000	2.671	1.895	1.895	1.895	1.909	1.904	1.909
-0.015	-0.015	0.000	-0.005	0.000	0.010	0.000	2.666	1.899	1.895	1.890	1.909	1.904	1.909
-0.005	-0.024	0.000	-0.005	0.010	-0.005	0.000	2.666	1.895	1.895	1.890	1.909	1.909	1.904
-0.005	-0.005	0.005	-0.005	0.000	0.000	0.000	2.661	1.895	1.899	1.895	1.909	1.904	1.904
0.000	0.000	0.005	-0.005	-0.005	0.000	0.000	2.666	1.899	1.899	1.895	1.909	1.904	1.904
-0.010	0.005	-0.005	-0.005	0.000	0.000	0.000	2.651	1.890	1.899	1.895	1.914	1.904	1.909
-0.010	0.000	-0.005	-0.005	0.005	-0.010	0.000	2.646	1.890	1.895	1.895	1.914	1.909	1.904
-0.015	0.010	-0.010	0.000	-0.005	-0.010	0.000	2.646	1.885	1.895	1.895	1.914	1.904	1.909
-0.010	0.005	-0.005	0.000	-0.005	-0.015	0.000	2.671	1.895	1.890	1.895	1.914	1.909	1.904
0.000	-0.005	-0.005	0.000	-0.005	-0.005	0.000	2.808	1.914	1.895	1.895	1.914	1.909	1.909
-0.005	0.010	-0.005	0.000	0.000	0.000	0.000	2.612	1.899	1.904	1.895	1.914	1.909	1.909
0.000	0.000	-0.005	0.000	0.005	-0.010	-0.005	2.788	1.914	1.904	1.895	1.914	1.909	1.909
0.005	0.000	-0.005	0.000	-0.005	-0.005	0.000	2.847	1.929	1.909	1.899	1.914	1.909	1.909
0.005	0.020	0.000	0.000	0.005	-0.005	0.000	2.676	1.924	1.914	1.904	1.914	1.909	1.909
-0.010	0.010	0.000	-0.005	-0.005	-0.005	0.000	2.676	1.909	1.909	1.904	1.914	1.909	1.909
0.000	-0.005	-0.005	0.000	-0.005	-0.024	0.000	2.671	1.904	1.904	1.899	1.914	1.904	1.904
-0.005	0.005	-0.005	-0.005	-0.005	0.000	0.000	2.671	1.899	1.904	1.899	1.919	1.909	1.909
-0.005	-0.015	0.000	-0.005	-0.005	0.000	0.000	2.666	1.895	1.895	1.899	1.914	1.909	1.909
0.000	-0.015	0.000	-0.005	0.005	-0.024	-0.005	2.661	1.899	1.899	1.899	1.914	1.914	1.909
-0.005	0.000	0.005	-0.005	-0.005	0.000	0.000	2.651	1.895	1.899	1.899	1.919	1.909	1.909
-0.005	0.000	-0.005	-0.005	0.005	0.000	0.000	2.637	1.890	1.899	1.895	1.914	1.914	1.914
0.005	-0.005	-0.005	-0.005	0.000	-0.005	0.000	2.646	1.895	1.895	1.899	1.919	1.909	1.914
0.000	0.005	-0.010	-0.005	-0.015	-0.005	0.000	2.646	1.890	1.895	1.895	1.919	1.909	1.909
-0.005	0.005	0.000	-0.005	-0.010	0.000	0.000	2.808	1.904	1.899	1.899	1.919	1.909	1.909
-0.010	0.010	-0.005	-0.005	-0.005	-0.005	0.000	2.671	1.904	1.904	1.899	1.919	1.914	1.914
-0.005	-0.005	-0.005	0.000	0.010	0.010	0.000	2.656	1.899	1.899	1.899	1.919	1.919	1.919
-0.005	0.000	-0.005	0.000	0.000	0.010	0.000	2.646	1.899	1.899	1.899	1.919	1.914	1.914
-0.015	0.005	-0.005	0.000	-0.005	-0.010	0.000	2.651	1.895	1.899	1.899	1.919	1.909	1.914
-0.005	0.005	-0.005	0.000	-0.005	0.005	0.000	2.651	1.895	1.895	1.895	1.914	1.914	1.914
0.000	0.000	0.000	0.000	0.000	-0.005	0.000	2.637	1.890	1.895	1.899	1.914	1.914	1.914
0.000	-0.010	-0.005	0.000	0.000	0.005	0.000	2.671	1.895	1.890	1.895	1.914	1.909	1.914
-0.005	-0.015	-0.005	-0.005	0.005	0.005	0.000	2.656	1.890	1.885	1.890	1.914	1.909	1.914
-0.005	-0.020	0.005	-0.005	0.000	0.010	0.000	2.671	1.895	1.885	1.890	1.909	1.909	1.914
0.000	-0.005	0.000	-0.005	-0.005	0.000	0.000	2.651	1.895	1.890	1.885	1.909	1.904	1.904
0.005	-0.015	0.000	-0.005	0.000	0.010	0.000	2.637	1.890	1.890	1.885	1.909	1.909	1.909
0.010	-0.010	-0.005	-0.005	-0.005	-0.015	0.000	2.637	1.890	1.890	1.885	1.904	1.904	1.899
0.000	-0.010	0.000	-0.005	0.005	0.010	-0.005	2.642	1.885	1.890	1.890	1.909	1.904	1.909
-0.005	-0.010	-0.005	-0.005	-0.010	0.010	0.000	2.642	1.885	1.890	1.885	1.904	1.899	1.909
0.000	-0.005	-0.005	-0.005	-0.005	0.005	0.000	2.671	1.890	1.890	1.890	1.909	1.904	1.904
-0.005	0.005	-0.010	-0.005	0.000	-0.029	0.000	2.642	1.890	1.895	1.890	1.909	1.904	1.899
0.000	0.005	-0.005	-0.005	-0.005	0.010	0.000	2.651	1.890	1.890	1.890	1.909	1.904	1.909
-0.005	0.000	-0.005	0.000	-0.005	-0.024	0.000	2.661	1.895	1.890	1.890	1.909	1.904	1.904
-0.005	0.005	-0.005	-0.005	0.000	0.005	0.000	2.661	1.899	1.890	1.890	1.909	1.904	1.909
0.000	0.000	-0.005	0.000	-0.005	-0.010	0.000	2.661	1.895	1.890	1.890	1.909	1.904	1.899
-0.010	0.015	-0.005	0.000	0.000	-0.005	0.000	2.646	1.890	1.895	1.890	1.909	1.904	1.904
-0.005	0.005	-0.010	0.000	0.000	-0.010	0.000	2.676	1.895	1.890	1.890	1.909	1.904	1.904
0.005	0.000	-0.005	0.000	0.005	0.005	0.000	2.803	1.909	1.895	1.890	1.909	1.904	1.909
-0.005	-0.020	0.000	0.000	-0.005	0.005	0.000	2.646	1.899	1.890	1.890	1.909	1.904	1.904
0.015	-0.020	0.000	-0.005	-0.005	-0.005	0.000	2.651	1.899	1.890	1.890	1.904	1.904	1.899
0.005	-0.020	0.000	0.000	-0.015	0.005	0.000	2.681	1.895	1.890	1.890	1.904	1.899	1.904
0.000	-0.029	0.000	-0.005	-0.005	0.000	0.000	2.661	1.895	1.885	1.890	1.904	1.904	1.904
0.000	-0.015	-0.005	-0.005	-0.005	0.000	0.000	2.646	1.890	1.895	1.885	1.904	1.904	1.899
0.005	-0.005	0.000	-0.005	-0.005	-0.005	0.000	2.642	1.890	1.895	1.890	1.904	1.899	1.899
-0.005	-0.005	0.000	-0.005	-0.005	0.005	0.000	2.632	1.885	1.890	1.895	1.904	1.904	1.904
-0.005	0.005	0.005	-0.005	-0.005	0.000	-0.005	2.671	1.885	1.895	1.895	1.909	1.904	1.899
-0.005	0.010	0.005	-0.005	-0.005	0.000	0.000	2.676	1.890	1.895	1.895	1.909	1.904	1.904
-0.020	0.000	0.000	-0.005	0.000	0.005	0.000	2.651	1.890	1.890	1.890	1.909	1.904	1.904
-0.010	0.005	-0.005	0.000	-0.005	0.000	0.000	2.651	1.890	1.890	1.890	1.909	1.904	1.904
0.000	-0.010	-0.005	0.000	0.000	0.000	0.000	2.651	1.890	1.885	1.890	1.909	1.904	1.904
-0.005	0.005	-0.005	0.000	-0.005	0.000	0.000	2.646	1.890	1.890	1.885	1.909	1.904	1.904
-0.010	0.010	0.000	0.000	-0.010	0.000	0.000	2.661	1.895	1.890	1.890	1.909	1.904	1.904
-0.005	0.015	-0.005	-0.005	-0.005	-0.010	0.000	2.627	1.890	1.890	1.890	1.909	1.904	1.904
-0.010	0.010	-0.005	0.000	0.005	-0.024	0.000	2.793	1.899	1.890	1.890	1.904	1.904	1.899
0.000	-0.005	-0.005	0.000	0.010	0.010	0.000	2.642	1.895	1.890	1.890	1.909	1.904	1.909
-0.010	-0.010	0.005	-0.005	-0.005	0.000	0.000	2.661	1.895	1.890	1.885	1.904	1.899	1.899
-0.015	-0.010	-0.005	-0.005	0.000	0.005	0.000	2.651	1.890	1.885	1.880	1.904	1.899	1.904
-0.005	-0.010	-0.010	-0.005	-0.005	0.000	-0.005	2.617	1.885	1.885	1.880	1.904	1.899	1.899
-0.005	-0.024	-0.005	-0.005	0.000	0.005	0.000	2.632	1.885	1.880	1.880	1.899	1.899	1.904
-0.005	-0.024	-0.005	-0.005	-0.005	-0.005	0.000	2.627	1.885	1.880	1.880	1.899	1.899	1.899
0.000	-0.020	0.000	-0.005	-0.015	0.000	0.000	2.637	1.885	1.885	1.880	1.899	1.895	1.899
-0.005	-0.015	-0.005	-0.005	-0.010	-0.005	0.000	2.686	1.890	1.885	1.880	1.899	1.895	1.895
-0.010	-0.020	0.000	-0.005	-0.005	-0.010	0.000	2.695	1.890	1.890	1.885	1.904	1.899	1.895
0.005	0.000	-0.005	-0.005	0.000	-0.005	0.000	2.666	1.895	1.895	1.885	1.904	1.899	1.899
0.000	0.005	0.000	0.000	-0.005	-0.015	0.000	2.695	1.895	1.899	1.890	1.909	1.899	1.895
0.000	0.010	-0.005	0.000	0.005	-0.005	0.000	2.671	1.895	1.899	1.890	1.909	1.904	1.904
0.000	0.000	-0.005	0.000	0.005	-0.010	0.000	2.676	1.895	1.895	1.890	1.909	1.904	1.899
0.005	0.005	-0.005	0.000	0.000	-0.020	0.000	2.681	1.899	1.899	1.890	1.909	1.899	1.899
-0.010	0.000	-0.005	0.000	-0.005	0.005	0.000	2.666	1.895	1.895	1.890	1.909	1.904	1.909
-0.005	0.000	-0.005	-0.005	0.000	0.000	0.000	2.671	1.895	1.890	1.890	1.909	1.904	1.904
0.000	0.000	-0.005	0.000	-0.005	-0.010	0.000	2.666	1.899	1.895	1.890	1.909	1.904	1.904
0.005	0.000	-0.005	0.000	-0.005	0.000	0.000	2.671	1.899	1.895	1.890	1.909	1.904	1.899
0.005	0.000	-0.005	0.000	-0.005	0.000	0.000	2.651	1.890	1.895	1.890	1.904	1.904	1.904
0.005	-0.005	-0.005	-0.005	-0.005	0.000	0.000	2.681	1.895	1.890	1.890	1.909	1.904	1.904
0.005	-0.010	-0.005	0.000	-0.005	0.000	0.000	2.676	1.890	1.890	1.885	1.904	1.904	1.904
-0.005	-0.005	-0.005	-0.005	-0.010	-0.005	0.000	2.671	1.890	1.890	1.890	1.904	1.895	1.899
-0.010	-0.005	0.000	-0.010	-0.005	-0.010	0.000	2.681	1.890	1.890	1.890	1.909	1.899	1.899
-0.005	-0.010	0.000	-0.005	-0.005	-0.010	0.000	2.642	1.890	1.890	1.890	1.904	1.904	1.904
-0.005	-0.005	0.005	-0.005	0.000	-0.010	0.000	2.681	1.890	1.895	1.890	1.909	1.904	1.899
-0.005	-0.005	-0.005	-0.005	0.000	0.000	0.000	2.676	1.895	1.895	1.890	1.909	1.904	1.904
0.000	0.005	-0.005	-0.005	0.000	0.000	0.000	2.690	1.899	1.899	1.890	1.909	1.904	1.909
-0.010	0.010	0.000	-0.005	0.000	0.005	0.000	2.661	1.895	1.899	1.895	1.909	1.904	1.909
-0.005	0.000	0.000	-0.005	0.000	-0.005	0.000	2.676	1.895	1.895	1.890	1.909	1.904	1.899
-0.010	0.000	0.000	-0.005	0.000	0.000	0.000	2.671	1.895	1.895	1.895	1.914	1.904	1.904
-0.005	0.010	-0.005	0.000	-0.005	0.000	0.000	2.671	1.895	1.899	1.895	1.909	1.904	1.909
-0.005	0.005	-0.005	0.000	0.010	0.000	0.000	2.671	1.895	1.895	1.895	1.909	1.909	1.909
0.000	0.005	0.000	0.005	-0.010	-0.015	0.000	2.681	1.895	1.895	1.890	1.909	1.904	1.899
-0.010	-0.005	-0.005	0.000	-0.024	-0.005	0.000	2.671	1.895	1.890	1.890	1.909	1.899	1.904
-0.005	-0.015	0.000	-0.005	-0.020	-0.005	0.000	2.666	1.890	1.885	1.890	1.909	1.904	1.904
-0.005	-0.010	0.000	-0.005	-0.015	0.000	-0.005	2.686	1.890	1.890	1.885	1.909	1.904	1.904
-0.005	-0.010	-0.005	-0.005	-0.005	0.005	0.000	2.681	1.895	1.890	1.885	1.904	1.904	1.904
-0.010	-0.005	-0.005	-0.005	0.000	-0.005	0.000	2.666	1.890	1.890	1.885	1.904	1.904	1.904
-0.005	-0.005	-0.005	-0.005	0.005	-0.005	0.000	2.681	1.890	1.890	1.885	1.904	1.904	1.904
-0.010	-0.005	-0.005	-0.005	0.010	-0.005	0.000	2.690	1.904	1.890	1.890	1.904	1.904	1.904
-0.005	0.000	0.000	-0.005	0.005	-0.020	0.000	2.661	1.899	1.895	1.890	1.904	1.904	1.899
-0.005	0.000	-0.005	-0.005	0.000	-0.015	0.000	2.661	1.895	1.895	1.890	1.904	1.899	1.904
-0.005	0.005	-0.005	-0.005	0.000	-0.015	0.000	2.686	1.899	1.895	1.895	1.909	1.904	1.899
-0.005	0.000	-0.005	-0.005	-0.005	0.010	0.000	2.661	1.895	1.895	1.890	1.909	1.904	1.909
0.000	-0.005	-0.010	0.000	0.000	-0.005	0.000	2.681	1.899	1.899	1.890	1.909	1.909	1.904
-0.005	0.010	-0.005	0.000	0.005	0.000	0.000	2.671	1.899	1.899	1.895	1.914	1.909	1.909
0.000	-0.010	-0.005	0.000	0.000	-0.005	0.000	2.676	1.899	1.890	1.895	1.914	1.904	1.909
0.000	0.000	0.000	0.000	0.000	0.005	0.000	2.681	1.899	1.899	1.895	1.914	1.909	1.909
-0.005	0.010	0.000	0.000	0.000	0.000	0.000	2.676	1.899	1.899	1.895	1.914	1.904	1.909
0.000	0.000	0.000	0.000	-0.015	-0.005	0.000	2.666	1.895	1.899	1.895	1.914	1.904	1.904
0.005	-0.005	0.000	0.000	-0.005	-0.020	0.000	2.700	1.899	1.895	1.890	1.914	1.904	1.904
-0.005	0.005	-0.005	0.000	-0.005	0.005	-0.005	2.671	1.895	1.899	1.890	1.909	1.909	1.909
0.000	0.010	0.000	-0.005	-0.005	0.005	0.000	2.671	1.895	1.895	1.895	1.909	1.909	1.909
0.000	0.015	0.000	-0.005	0.000	0.000	0.000	2.681	1.895	1.895	1.895	1.909	1.904	1.904
-0.010	0.005	0.005	-0.005	-0.005	0.005	0.000	2.686	1.895	1.890	1.890	1.909	1.904	1.909
-0.005	-0.005	0.005	-0.005	0.000	-0.005	0.000	2.681	1.895	1.890	1.890	1.909	1.909	1.904
0.000	0.000	0.000	-0.005	0.000	0.000	0.000	2.671	1.895	1.895	1.890	1.909	1.909	1.909
-0.010	-0.005	0.000	-0.005	-0.010	0.005	-0.005	2.656	1.890	1.890	1.890	1.904	1.904	1.909
0.000	0.000	-0.005	-0.005	-0.010	-0.005	0.000	2.681	1.890	1.895	1.890	1.909	1.904	1.904
0.005	0.000	-0.010	-0.005	-0.010	0.005	0.000	2.661	1.895	1.895	1.890	1.909	1.904	1.909
-0.005	-0.005	-0.005	0.000	0.000	-0.005	0.000	2.676	1.890	1.890	1.895	1.909	1.909	1.904
-0.010	0.000	0.000	-0.005	0.000	-0.029	0.000	2.690	1.895	1.895	1.890	1.909	1.904	1.899
0.000	-0.005	0.000	0.000	-0.005	-0.005	0.000	2.681	1.899	1.895	1.895	1.909	1.904	1.909
0.000	-0.010	-0.005	0.000	-0.005	0.010	0.000	2.686	1.899	1.895	1.895	1.909	1.909	1.909
-0.005	-0.010	0.000	0.000	-0.005	-0.005	0.000	2.676	1.895	1.895	1.890	1.909	1.909	1.899
0.005	-0.015	0.005	-0.005	0.005	0.005	0.000	2.651	1.895	1.895	1.895	1.909	1.909	1.909
0.000	-0.010	-0.005	0.000	0.000	-0.005	0.000	2.700	1.895	1.895	1.890	1.909	1.909	1.909
-0.010	-0.020	-0.005	0.000	0.010	0.005	0.000	2.646	1.885	1.890	1.890	1.909	1.909	1.909
-0.010	-0.010	0.000	-0.005	0.005	-0.005	0.000	2.671	1.895	1.890	1.890	1.909	1.904	1.904
0.000	-0.010	0.000	-0.005	0.000	0.000	0.000	2.656	1.895	1.890	1.890	1.904	1.904	1.909
-0.005	-0.010	-0.010	-0.005	-0.005	0.000	0.000	2.676	1.890	1.890	1.885	1.904	1.899	1.904
-0.005	-0.010	0.000	-0.005	-0.005	-0.005	-0.005	2.666	1.890	1.890	1.890	1.904	1.899	1.904
-0.005	-0.024	0.000	-0.005	0.000	0.000	0.000	2.681	1.890	1.885	1.885	1.904	1.899	1.904
0.005	-0.005	-0.005	-0.005	-0.010	-0.010	0.000	2.666	1.895	1.895	1.890	1.904	1.899	1.899
-0.010	-0.005	-0.005	-0.005	0.000	0.010	0.000	2.666	1.895	1.895	1.890	1.909	1.904	1.904
0.000	0.010	-0.005	-0.005	0.000	0.005	0.000	2.671	1.899	1.899	1.890	1.909	1.904	1.904
0.000	0.000	-0.005	-0.005	-0.010	0.000	0.000	2.686	1.899	1.899	1.895	1.909	1.904	1.904
-0.005	0.005	-0.005	0.000	0.000	0.000	0.000	2.676	1.895	1.899	1.895	1.909	1.909	1.904
-0.005	0.005	-0.010	-0.005	-0.005	-0.010	0.000	2.676	1.899	1.899	1.895	1.909	1.904	1.904
0.000	0.015	-0.005	0.000	-0.005	0.000	0.000	2.646	1.895	1.899	1.899	1.909	1.904	1.909
-0.005	0.005	-0.005	0.000	-0.010	0.000	0.000	2.676	1.899	1.899	1.895	1.914	1.904	1.909
0.000	0.015	-0.010	0.000	-0.005	-0.024	0.000	2.671	1.890	1.899	1.895	1.914	1.909	1.899
0.000	-0.010	-0.005	0.000	0.000	-0.015	0.000	2.651	1.890	1.890	1.895	1.914	1.909	1.909
-0.015	-0.015	-0.005	0.000	0.000	0.005	0.000	2.651	1.890	1.885	1.890	1.909	1.909	1.909
0.000	-0.020	-0.005	0.000	-0.010	0.000	0.000	2.671	1.895	1.885	1.890	1.909	1.904	1.909
0.005	-0.024	0.000	0.000	-0.010	0.005	0.000	2.661	1.895	1.885	1.890	1.904	1.904	1.909
-0.005	-0.020	0.000	-0.005	0.000	0.005	-0.005	2.676	1.895	1.885	1.885	1.904	1.904	1.909
-0.005	-0.015	0.000	-0.005	0.000	0.000	0.000	2.671	1.890	1.890	1.885	1.904	1.904	1.904
-0.005	-0.010	-0.005	-0.005	-0.005	0.000	0.000	2.676	1.895	1.890	1.885	1.904	1.899	1.904
-0.005	-0.005	-0.005	-0.005	-0.005	-0.005	0.000	2.671	1.895	1.895	1.890	1.904	1.904	1.899
0.000	-0.015	0.000	-0.005	-0.005	-0.010	0.000	2.681	1.895	1.890	1.885	1.904	1.899	1.895
-0.005	-0.005	-0.005	-0.005	0.000	0.000	0.000	2.676	1.899	1.895	1.890	1.909	1.904	1.904
0.000	0.000	-0.005	-0.005	-0.005	-0.015	0.000	2.686	1.899	1.899	1.890	1.909	1.904	1.899
-0.005	0.015	-0.005	0.000	0.000	0.005	0.000	2.671	1.895	1.904	1.895	1.909	1.904	1.909
-0.005	0.020	0.000	-0.005	-0.010	-0.020	0.000	2.676	1.899	1.904	1.899	1.909	1.904	1.899
-0.010	0.024	-0.005	0.000	-0.005	-0.010	0.000	2.681	1.899	1.904	1.895	1.909	1.904	1.909
-0.010	0.020	-0.005	0.000	-0.005	0.010	0.000	2.686	1.899	1.899	1.895	1.914	1.909	1.909
-0.010	0.010	-0.005	0.000	-0.005	-0.005	0.000	2.676	1.899	1.899	1.899	1.914	1.909	1.904
-0.005	0.010	-0.005	0.000	-0.005	0.000	0.000	2.681	1.899	1.895	1.895	1.914	1.909	1.909
0.000	0.010	-0.005	0.000	0.000	0.000	0.000	2.671	1.899	1.895	1.895	1.914	1.909	1.909
-0.015	-0.005	-0.005	0.000	0.000	-0.005	-0.005	2.681	1.895	1.890	1.895	1.914	1.909	1.909
-0.005	-0.005	-0.005	0.000	-0.005	0.005	0.000	2.671	1.895	1.890	1.890	1.909	1.909	1.909
-0.005	-0.005	-0.005	-0.005	-0.005	0.000	0.000	2.676	1.890	1.890	1.890	1.909	1.904	1.904
0.000	-0.005	-0.005	-0.005	-0.005	-0.010	0.000	2.666	1.895	1.890	1.890	1.904	1.904	1.904
0.005	-0.015	0.000	-0.005	-0.005	-0.005	0.000	2.681	1.899	1.890	1.890	1.909	1.904	1.899
0.000	-0.010	-0.005	-0.005	-0.005	-0.010	0.000	2.671	1.895	1.890	1.890	1.909	1.899	1.899
0.005	-0.005	0.000	-0.005	-0.005	0.000	0.000	2.676	1.904	1.895	1.890	1.909	1.904	1.909
0.005	-0.020	-0.005	-0.005	-0.005	-0.015	0.000	2.642	1.895	1.890	1.890	1.909	1.904	1.904
-0.005	-0.024	-0.005	-0.005	-0.005	-0.005	0.000	2.666	1.895	1.890	1.890	1.909	1.904	1.904
0.000	-0.024	-0.005	-0.005	0.005	0.000	-0.005	2.681	1.899	1.890	1.890	1.909	1.909	1.909
-0.005	0.010	-0.005	0.000	0.010	0.005	0.000	2.681	1.895	1.904	1.895	1.914	1.909	1.914
-0.005	0.010	-0.010	0.000	0.000	0.005	0.000	2.671	1.895	1.899	1.895	1.909	1.904	1.909
0.000	-0.005	-0.005	0.000	-0.005	-0.005	0.000	2.686	1.899	1.895	1.895	1.914	1.909	1.909
-0.010	0.000	-0.005	-0.005	0.000	0.000	0.000	2.676	1.895	1.895	1.895	1.914	1.909	1.909
0.000	0.010	0.000	0.000	0.000	0.000	0.000	2.686	1.904	1.899	1.895	1.914	1.904	1.904
-0.005	0.010	-0.005	0.005	0.000	-0.005	0.000	2.671	1.899	1.899	1.895	1.914	1.909	1.904
-0.005	0.005	-0.005	0.000	0.005	-0.020	0.000	2.671	1.895	1.895	1.895	1.914	1.909	1.904
-0.005	-0.005	0.000	-0.005	0.000	0.000	0.000	2.676	1.895	1.890	1.890	1.909	1.904	1.904
-0.010	-0.005	-0.005	0.000	-0.005	0.000	0.000	2.676	1.890	1.890	1.890	1.909	1.904	1.904
-0.010	-0.005	0.000	-0.005	-0.010	0.005	0.000	2.725	1.899	1.890	1.890	1.909	1.904	1.909
-0.005	0.000	-0.005	-0.005	-0.005	0.000	0.000	2.656	1.895	1.895	1.890	1.909	1.904	1.904
-0.005	-0.010	0.000	-0.005	-0.010	0.000	0.000	2.661	1.895	1.890	1.890	1.909	1.904	1.904
0.000	-0.024	0.000	-0.005	-0.005	0.005	0.000	2.656	1.890	1.885	1.890	1.909	1.904	1.904
0.000	-0.024	0.000	-0.005	-0.005	0.010	0.000	2.656	1.895	1.890	1.890	1.909	1.904	1.909
-0.005	-0.005	-0.005	-0.005	-0.005	0.000	0.000	2.671	1.890	1.895	1.890	1.909	1.904	1.904
0.000	0.000	-0.005	-0.005	0.000	-0.015	0.000	2.681	1.895	1.895	1.890	1.909	1.904	1.899
0.000	-0.005	0.000	-0.005	0.000	0.000	0.000	2.676	1.899	1.895	1.890	1.909	1.904	1.904
0.000	-0.005	-0.010	0.000	-0.005	-0.010	0.000	2.671	1.895	1.899	1.895	1.909	1.904	1.904
0.000	-0.010	-0.010	0.000	-0.010	-0.010	0.000	2.686	1.899	1.895	1.890	1.909	1.904	1.904
0.000	-0.005	-0.010	0.000	-0.005	0.000	0.000	2.681	1.899	1.899	1.895	1.909	1.909	1.909
-0.005	-0.005	0.000	0.000	-0.005	0.005	0.000	2.695	1.904	1.899	1.895	1.914	1.909	1.909
0.000	-0.020	0.005	0.000	0.000	-0.005	0.000	2.661	1.899	1.895	1.895	1.909	1.909	1.909
-0.005	-0.010	-0.005	0.000	0.000	-0.005	0.000	2.666	1.899	1.895	1.890	1.914	1.909	1.904
-0.010	-0.020	0.000	0.000	0.000	0.000	0.000	2.671	1.895	1.890	1.890	1.909	1.909	1.909
-0.005	0.005	-0.005	0.000	-0.005	-0.005	0.000	2.661	1.895	1.899	1.890	1.909	1.904	1.909
-0.005	0.005	0.000	-0.005	0.000	0.005	0.000	2.686	1.895	1.899	1.895	1.909	1.904	1.909
0.000	-0.005	0.000	-0.005	0.000	0.005	0.000	2.671	1.895	1.890	1.890	1.909	1.904	1.909
-0.005	0.005	0.000	-0.005	-0.010	0.010	0.000	2.681	1.895	1.895	1.895	1.909	1.904	1.904
0.000	0.000	-0.005	-0.005	-0.015	0.005	0.000	2.671	1.895	1.890	1.890	1.909	1.899	1.904
0.000	-0.005	0.000	-0.005	-0.015	0.000	0.000	2.676	1.895	1.890	1.890	1.909	1.899	1.904
-0.005	0.000	0.000	-0.010	-0.005	0.000	0.000	2.681	1.895	1.895	1.890	1.909	1.904	1.904
0.000	0.005	-0.005	-0.005	-0.010	-0.005	0.000	2.671	1.895	1.895	1.890	1.909	1.904	1.904
0.005	-0.005	-0.005	-0.005	-0.005	0.000	0.000	2.671	1.895	1.895	1.895	1.909	1.909	1.909
0.005	0.005	0.000	-0.005	-0.010	0.010	-0.005	2.681	1.899	1.895	1.895	1.909	1.909	1.904
-0.005	0.010	0.005	-0.005	0.000	-0.005	0.000	2.681	1.899	1.899	1.895	1.914	1.909	1.904
-0.005	0.015	0.000	-0.005	-0.010	0.000	-0.005	2.690	1.899	1.895	1.895	1.914	1.904	1.904
-0.010	0.000	-0.010	-0.005	0.000	0.005	0.000	2.651	1.895	1.895	1.895	1.914	1.909	1.909
0.000	0.005	0.000	0.000	0.024	0.005	0.000	2.671	1.899	1.895	1.895	1.914	1.919	1.914
-0.005	-0.005	-0.005	0.000	0.005	0.005	0.000	2.676	1.899	1.895	1.890	1.914	1.909	1.909
-0.010	-0.010	0.000	0.000	-0.005	-0.005	0.000	2.676	1.899	1.895	1.890	1.909	1.904	1.904
-0.005	-0.005	-0.005	0.000	0.000	-0.010	0.000	2.671	1.895	1.895	1.890	1.909	1.904	1.904
-0.010	-0.010	-0.005	0.000	0.000	-0.015	0.000	2.681	1.890	1.890	1.890	1.909	1.904	1.904
-0.005	-0.005	0.000	-0.005	-0.005	-0.015	0.000	2.676	1.895	1.895	1.890	1.909	1.899	1.899
0.000	-0.010	-0.005	-0.005	-0.005	-0.015	0.000	2.681	1.895	1.890	1.890	1.909	1.899	1.899
-0.005	-0.005	-0.005	-0.005	-0.005	-0.020	0.000	2.676	1.895	1.890	1.890	1.909	1.904	1.904
-0.005	-0.010	-0.005	-0.005	0.010	-0.010	0.000	2.671	1.895	1.890	1.890	1.909	1.909	1.904
-0.005	-0.015	-0.005	-0.005	0.010	-0.010	0.000	2.681	1.895	1.890	1.890	1.909	1.904	1.904
-0.010	-0.005	-0.005	0.000	0.015	-0.034	0.000	2.676	1.895	1.895	1.890	1.909	1.904	1.904
-0.005	0.000	0.000	-0.005	0.015	-0.005	0.000	2.734	1.904	1.899	1.895	1.909	1.909	1.909
0.000	-0.020	-0.005	0.000	0.020	-0.034	0.000	2.671	1.899	1.895	1.890	1.909	1.909	1.899
-0.005	-0.005	-0.005	0.000	0.020	-0.005	0.000	2.661	1.899	1.899	1.895	1.914	1.909	1.914
-0.010	-0.010	-0.005	-0.005	0.020	-0.010	0.000	2.700	1.904	1.899	1.895	1.914	1.909	1.909
-0.005	-0.015	-0.005	0.000	0.010	-0.015	0.000	2.671	1.899	1.899	1.895	1.914	1.904	1.904
-0.005	0.010	0.000	0.000	0.015	-0.005	0.000	2.666	1.899	1.904	1.899	1.914	1.909	1.914
0.005	0.005	-0.005	0.000	0.010	-0.010	0.000	2.681	1.899	1.899	1.899	1.914	1.909	1.904
0.000	0.005	0.000	0.000	0.000	0.005	-0.005	2.676	1.899	1.899	1.899	1.914	1.909	1.914
0.010	0.015	-0.005	0.000	-0.005	0.010	0.000	2.676	1.904	1.904	1.899	1.914	1.904	1.909
-0.005	0.005	-0.005	0.000	-0.024	-0.005	0.000	2.681	1.899	1.899	1.899	1.914	1.899	1.904
0.000	-0.005	-0.005	0.000	-0.029	0.015	0.000	2.681	1.895	1.890	1.895	1.914	1.904	1.904
0.000	-0.010	-0.005	0.000	-0.015	-0.010	0.000	2.690	1.899	1.895	1.895	1.909	1.904	1.899
0.000	0.000	-0.005	-0.005	-0.024	-0.005	0.000	2.666	1.895	1.895	1.890	1.909	1.904	1.904
-0.010	-0.015	0.000	-0.005	-0.029	0.010	0.000	2.671	1.890	1.890	1.890	1.909	1.904	1.909
0.000	-0.015	-0.010	-0.005	-0.010	0.000	0.000	2.671	1.895	1.890	1.890	1.909	1.909	1.904
-0.005	-0.010	-0.005	-0.005	-0.020	0.020	0.000	2.676	1.895	1.890	1.890	1.909	1.909	1.909
-0.005	-0.005	-0.005	-0.005	-0.020	0.015	0.000	2.671	1.895	1.895	1.890	1.909	1.904	1.909
-0.005	-0.005	0.000	-0.005	-0.015	0.005	0.000	2.671	1.899	1.899	1.895	1.909	1.909	1.904
-0.005	0.000	0.000	-0.005	-0.015	0.010	0.000	2.686	1.904	1.899	1.895	1.914	1.909	1.909
0.000	-0.005	-0.005	-0.005	-0.020	0.005	0.000	2.676	1.899	1.899	1.895	1.914	1.909	1.909
-0.005	0.005	-0.005	0.000	-0.010	-0.010	0.000	2.676	1.899	1.899	1.895	1.914	1.909	1.904
-0.010	0.000	0.000	0.000	-0.010	0.000	0.000	2.681	1.899	1.899	1.895	1.914	1.909	1.909
-0.010	0.000	-0.005	0.000	-0.015	0.005	0.000	2.686	1.899	1.899	1.895	1.914	1.909	1.909
-0.005	-0.005	0.000	0.000	-0.010	-0.005	0.000	2.676	1.899	1.899	1.895	1.914	1.909	1.909
-0.005	0.005	-0.005	0.000	-0.010	0.010	0.000	2.676	1.899	1.899	1.895	1.914	1.909	1.914
-0.005	0.005	-0.005	0.000	-0.020	0.000	0.000	2.681	1.899	1.899	1.895	1.914	1.909	1.909
-0.005	-0.005	0.000	0.000	-0.010	-0.015	0.000	2.661	1.895	1.895	1.895	1.914	1.909	1.904
-0.005	-0.005	-0.005	-0.005	-0.005	0.000	0.000	2.695	1.895	1.890	1.890	1.909	1.909	1.909
-0.005	-0.015	-0.010	-0.005	-0.005	0.005	0.000	2.632	1.895	1.890	1.890	1.909	1.909	1.909
-0.005	-0.020	0.000	-0.005	0.000	-0.005	0.000	2.681	1.895	1.890	1.890	1.909	1.909	1.909
-0.005	-0.020	0.000	-0.005	0.000	-0.015	0.000	2.681	1.895	1.890	1.890	1.909	1.909	1.904
0.005	0.005	-0.005	-0.005	0.000	-0.005	0.000	2.681	1.899	1.899	1.895	1.909	1.904	1.909
0.000	0.010	-0.005	-0.005	0.000	0.005	-0.005	2.671	1.895	1.899	1.895	1.909	1.904	1.909
0.000	0.005	-0.005	-0.005	0.000	-0.005	0.000	2.676	1.895	1.899	1.895	1.909	1.904	1.909
0.005	0.010	-0.005	-0.005	0.005	-0.015	0.000	2.671	1.899	1.899	1.895	1.914	1.909	1.904
-0.005	0.024	-0.005	-0.005	0.005	0.005	-0.005	2.686	1.899	1.904	1.899	1.914	1.909	1.909
-0.005	0.010	-0.010	0.000	0.005	0.000	0.000	2.671	1.899	1.899	1.899	1.914	1.909	1.909
0.000	0.005	0.000	-0.005	0.005	0.000	0.000	2.676	1.899	1.899	1.899	1.914	1.909	1.909
0.000	0.005	-0.005	0.000	0.005	0.000	0.000	2.676	1.899	1.899	1.899	1.914	1.909	1.909
-0.005	-0.010	0.000	0.000	0.000	0.000	0.000	2.690	1.899	1.890	1.895	1.914	1.909	1.909
-0.005	-0.005	-0.005	0.000	0.005	-0.010	0.000	2.642	1.895	1.895	1.895	1.914	1.914	1.909
0.000	-0.010	-0.005	0.000	0.000	-0.015	0.000	2.671	1.895	1.890	1.895	1.914	1.909	1.909
-0.005	-0.010	-0.005	0.000	0.000	0.005	0.000	2.671	1.895	1.890	1.890	1.909	1.909	1.914
-0.005	-0.015	-0.005	-0.005	-0.005	0.005	0.000	2.656	1.895	1.890	1.890	1.909	1.904	1.914
0.000	-0.010	-0.005	-0.005	0.000	0.000	0.000	2.651	1.895	1.890	1.885	1.909	1.909	1.909
-0.005	-0.015	-0.010	0.000	0.000	-0.005	0.000	2.671	1.890	1.890	1.885	1.909	1.904	1.904
0.000	-0.015	-0.005	-0.005	0.000	0.000	0.000	2.656	1.890	1.890	1.890	1.904	1.904	1.904
0.000	-0.015	-0.005	-0.005	0.000	-0.005	0.000	2.671	1.890	1.885	1.890	1.909	1.904	1.904
-0.015	-0.020	0.000	-0.005	-0.005	0.000	0.000	2.686	1.890	1.890	1.890	1.904	1.904	1.904
-0.005	0.010	0.005	-0.005	-0.010	-0.015	0.000	2.666	1.895	1.899	1.890	1.909	1.904	1.899
-0.005	0.015	0.000	-0.005	0.000	-0.010	0.000	2.681	1.899	1.899	1.895	1.909	1.904	1.904
-0.005	0.005	0.000	-0.005	0.005	-0.010	0.000	2.690	1.899	1.895	1.890	1.909	1.909	1.904
0.000	0.005	0.000	-0.005	0.005	-0.010	0.000	2.686	1.904	1.899	1.895	1.909	1.909	1.904
0.005	0.010	-0.005	-0.005	0.000	-0.005	-0.005	2.666	1.899	1.899	1.895	1.914	1.904	1.909
-0.005	0.000	0.000	0.000	-0.005	0.000	0.000	2.686	1.899	1.899	1.895	1.914	1.909	1.909
-0.010	0.015	-0.010	0.000	0.000	0.000	0.000	2.676	1.899	1.904	1.895	1.914	1.909	1.909
0.000	0.015	-0.010	0.000	-0.005	-0.020	0.000	2.666	1.899	1.899	1.895	1.914	1.904	1.904
-0.010	0.005	0.000	-0.005	-0.010	-0.010	0.000	2.671	1.895	1.895	1.899	1.914	1.904	1.904
-0.010	0.000	-0.005	0.000	-0.015	0.005	0.000	2.676	1.895	1.890	1.895	1.914	1.904	1.909
-0.005	-0.010	-0.010	0.000	-0.010	0.010	0.000	2.676	1.895	1.890	1.890	1.909	1.909	1.909
-0.010	-0.005	0.000	-0.005	0.000	0.000	0.000	2.681	1.895	1.890	1.890	1.909	1.909	1.904
0.000	-0.010	0.000	-0.005	0.000	-0.024	0.000	2.676	1.895	1.890	1.890	1.909	1.909	1.899
-0.005	-0.010	0.005	-0.005	0.000	-0.005	0.000	2.686	1.895	1.890	1.890	1.909	1.909	1.909
0.000	-0.020	0.000	-0.005	0.000	0.005	0.000	2.671	1.899	1.890	1.890	1.909	1.904	1.909
-0.005	-0.024	0.000	-0.005	0.000	0.005	0.000	2.666	1.895	1.890	1.885	1.909	1.909	1.909
0.000	-0.010	0.000	-0.005	0.005	0.000	0.000	2.681	1.899	1.895	1.890	1.909	1.904	1.909
-0.010	-0.005	-0.005	-0.005	-0.005	0.000	0.000	2.681	1.899	1.895	1.890	1.909	1.904	1.904
0.005	0.005	-0.005	-0.005	-0.005	-0.005	0.000	2.690	1.904	1.904	1.895	1.909	1.904	1.904
0.000	0.000	0.000	-0.005	-0.005	-0.005	0.000	2.651	1.895	1.899	1.899	1.909	1.904	1.909
0.005	0.005	-0.005	0.000	-0.005	-0.005	0.000	2.671	1.899	1.899	1.899	1.914	1.904	1.904
0.000	0.000	-0.010	0.000	0.000	-0.005	0.000	2.676	1.895	1.899	1.895	1.914	1.909	1.904
0.005	0.000	-0.005	0.000	0.000	-0.015	0.000	2.671	1.899	1.899	1.899	1.914	1.909	1.904
-0.005	0.010	-0.005	0.000	0.000	0.000	0.000	2.681	1.899	1.899	1.899	1.914	1.909	1.909
0.000	0.000	-0.005	0.000	-0.005	-0.005	0.000	2.671	1.899	1.899	1.895	1.914	1.909	1.909
0.000	0.010	-0.005	0.000	0.000	0.000	-0.005	2.671	1.899	1.899	1.895	1.914	1.909	1.914
-0.010	-0.005	0.000	0.000	-0.005	-0.010	0.000	2.671	1.895	1.890	1.895	1.914	1.909	1.909
-0.010	-0.010	-0.010	0.000	0.005	0.000	0.000	2.666	1.890	1.885	1.890	1.914	1.909	1.909
-0.005	-0.020	-0.005	0.000	0.000	0.005	0.000	2.681	1.890	1.885	1.890	1.909	1.904	1.914
-0.005	-0.015	0.000	-0.005	-0.005	-0.015	0.000	2.671	1.895	1.890	1.890	1.909	1.904	1.904
0.000	-0.010	-0.010	-0.005	-0.005	0.005	0.000	2.671	1.895	1.890	1.885	1.909	1.904	1.909
0.000	-0.015	0.000	-0.005	-0.010	-0.005	0.000	2.769	1.904	1.895	1.890	1.909	1.899	1.904
-0.015	-0.015	0.005	-0.005	-0.005	-0.005	0.000	2.671	1.899	1.895	1.890	1.909	1.904	1.904
0.000	-0.005	0.000	-0.005	-0.010	0.010	0.000	2.661	1.904	1.899	1.895	1.909	1.904	1.909
0.000	-0.005	-0.005	-0.005	0.000	-0.010	0.000	2.661	1.904	1.899	1.895	1.909	1.909	1.909
-0.005	0.000	-0.005	-0.005	0.000	0.000	0.000	2.671	1.899	1.904	1.895	1.909	1.909	1.909
0.000	0.005	0.000	-0.005	-0.005	-0.005	0.000	2.681	1.899	1.899	1.899	1.914	1.909	1.904
-0.005	0.005	-0.005	-0.005	-0.005	0.000	0.000	2.681	1.899	1.899	1.895	1.914	1.909	1.909
-0.005	0.010	-0.005	-0.005	-0.005	-0.005	0.000	2.676	1.899	1.899	1.895	1.914	1.909	1.904
0.005	0.005	-0.005	0.000	-0.005	0.005	0.000	2.676	1.904	1.899	1.899	1.914	1.909	1.914
-0.005	0.000	-0.005	0.000	-0.005	-0.005	0.000	2.666	1.899	1.899	1.899	1.914	1.909	1.909
-0.005	0.010	-0.005	0.000	-0.010	-0.015	0.000	2.676	1.899	1.899	1.899	1.914	1.909	1.909
-0.005	0.005	-0.005	0.000	-0.010	-0.005	0.000	2.690	1.899	1.899	1.895	1.914	1.909	1.909
0.000	0.000	0.005	0.000	0.000	0.005	0.000	2.681	1.899	1.899	1.895	1.914	1.909	1.909
-0.005	0.000	0.000	0.000	-0.005	-0.005	0.000	2.661	1.895	1.895	1.895	1.914	1.909	1.909
0.000	-0.010	0.000	0.000	-0.005	-0.005	0.000	2.671	1.895	1.895	1.895	1.914	1.909	1.909
-0.005	-0.015	0.000	-0.005	-0.005	-0.024	0.000	2.676	1.895	1.890	1.890	1.909	1.909	1.904
-0.005	-0.015	0.000	-0.005	0.000	-0.005	0.000	2.671	1.890	1.890	1.890	1.909	1.909	1.909
-0.010	-0.010	-0.005	-0.005	0.005	-0.010	0.000	2.661	1.890	1.890	1.890	1.909	1.909	1.909
-0.005	-0.015	-0.005	-0.005	0.005	0.010	0.000	2.681	1.899	1.890	1.890	1.909	1.909	1.909
-0.010	-0.005	0.000	-0.005	0.000	0.010	0.000	2.681	1.895	1.895	1.890	1.909	1.909	1.914
-0.005	-0.015	-0.005	-0.010	0.000	0.005	0.000	2.681	1.899	1.895	1.890	1.909	1.904	1.909
0.000	0.000	-0.010	-0.005	-0.010	-0.010	0.000	2.676	1.904	1.904	1.890	1.909	1.904	1.904
0.000	0.000	-0.005	-0.005	-0.005	0.000	0.000	2.676	1.899	1.899	1.895	1.914	1.904	1.909
0.000	0.005	-0.005	-0.005	-0.005	-0.015	0.000	2.676	1.904	1.904	1.899	1.914	1.904	1.904
0.000	0.000	-0.005	0.000	-0.005	0.000	0.000	2.661	1.899	1.899	1.899	1.914	1.909	1.909
-0.010	0.000	0.000	0.000	-0.010	0.000	-0.005	2.676	1.899	1.899	1.899	1.914	1.909	1.909
-0.005	0.005	0.000	0.000	-0.005	-0.010	0.000	2.686	1.899	1.899	1.899	1.919	1.909	1.909
-0.010	0.005	0.000	-0.005	-0.005	0.010	0.000	2.690	1.899	1.895	1.895	1.914	1.909	1.914
-0.005	0.000	-0.005	0.000	0.000	-0.005	0.000	2.656	1.899	1.895	1.895	1.914	1.909	1.909
0.005	-0.020	-0.005	0.000	-0.005	0.000	0.000	2.661	1.899	1.890	1.890	1.914	1.909	1.909
-0.010	-0.010	-0.005	-0.005	0.000	0.005	0.000	2.690	1.895	1.890	1.890	1.914	1.909	1.909
-0.005	-0.015	-0.005	-0.005	-0.005	-0.005	0.000	2.676	1.899	1.895	1.890	1.909	1.909	1.909
-0.005	-0.010	0.000	-0.005	-0.010	0.000	0.000	2.676	1.899	1.895	1.890	1.909	1.904	1.904
-0.005	-0.005	0.005	-0.005	0.005	-0.020	0.000	2.671	1.895	1.895	1.895	1.909	1.909	1.904
0.000	-0.010	0.000	-0.005	-0.005	0.000	0.000	2.666	1.895	1.895	1.890	1.909	1.904	1.909
0.000	-0.005	-0.005	-0.005	0.005	0.000	0.000	2.676	1.895	1.899	1.890	1.909	1.909	1.909
0.000	-0.005	0.000	-0.005	0.000	0.000	0.000	2.681	1.899	1.899	1.895	1.909	1.904	1.909
0.000	0.000	0.000	-0.005	-0.005	-0.005	0.000	2.690	1.899	1.899	1.895	1.914	1.904	1.904
-0.005	0.005	0.000	-0.005	-0.010	-0.005	0.000	2.671	1.899	1.904	1.895	1.914	1.904	1.904
0.005	-0.005	-0.005	-0.005	-0.015	-0.005	0.000	2.676	1.899	1.899	1.899	1.914	1.904	1.904
-0.005	-0.005	-0.005	0.000	-0.010	0.000	0.000	2.681	1.899	1.895	1.899	1.914	1.909	1.909
-0.005	0.005	-0.005	0.000	0.000	0.005	0.000	2.686	1.904	1.899	1.899	1.914	1.914	1.914
-0.010	0.000	-0.005	0.000	0.000	-0.020	0.000	2.686	1.899	1.899	1.899	1.914	1.909	1.909
0.000	-0.010	0.000	0.000	0.000	0.005	0.000	2.695	1.904	1.895	1.899	1.919	1.914	1.914
0.000	-0.020	-0.005	0.000	0.000	-0.015	-0.005	2.651	1.899	1.895	1.895	1.914	1.914	1.909
0.000	-0.020	0.000	0.000	-0.005	0.010	0.000	2.671	1.895	1.895	1.895	1.914	1.909	1.914
0.000	-0.020	-0.005	0.000	-0.005	-0.005	0.000	2.676	1.899	1.895	1.890	1.909	1.909	1.909
-0.010	0.000	0.000	-0.005	0.000	0.000	0.000	2.686	1.895	1.895	1.895	1.909	1.909	1.914
-0.005	-0.020	0.000	-0.005	0.000	0.000	-0.005	2.681	1.895	1.890	1.890	1.909	1.904	1.909
-0.005	-0.010	-0.005	-0.005	-0.005	0.000	0.000	2.681	1.895	1.895	1.890	1.909	1.909	1.909
-0.005	0.005	0.000	-0.005	-0.005	0.000	0.000	2.671	1.899	1.895	1.890	1.909	1.904	1.909
-0.005	0.000	0.000	-0.005	-0.005	0.000	0.000	2.686	1.899	1.899	1.895	1.909	1.904	1.904
-0.005	-0.010	-0.005	-0.005	0.000	0.000	0.000	2.661	1.909	1.899	1.895	1.909	1.909	1.904
0.005	0.010	-0.005	-0.005	0.000	-0.010	0.000	2.651	1.904	1.904	1.895	1.914	1.909	1.904
0.005	0.015	-0.005	-0.005	0.000	-0.010	0.000	2.666	1.899	1.909	1.899	1.914	1.909	1.904
-0.005	0.010	-0.005	-0.005	-0.010	0.005	0.000	2.642	1.895	1.904	1.899	1.919	1.909	1.909
-0.010	0.015	0.000	0.000	0.000	0.000	0.000	2.651	1.895	1.899	1.899	1.919	1.914	1.909
-0.005	0.015	-0.005	0.000	0.000	0.000	0.000	2.734	1.904	1.899	1.899	1.919	1.914	1.909
-0.005	0.010	-0.005	0.000	0.000	-0.015	0.000	2.637	1.904	1.899	1.899	1.919	1.914	1.909
0.005	0.010	-0.005	0.000	-0.005	-0.020	0.000	2.632	1.899	1.899	1.899	1.919	1.909	1.909
0.005	0.005	0.000	0.000	-0.005	0.005	0.000	2.729	1.904	1.899	1.899	1.919	1.909	1.914
-0.005	0.000	-0.005	0.000	-0.010	-0.020	0.000	2.729	1.904	1.899	1.895	1.919	1.909	1.909
-0.010	-0.005	-0.005	-0.005	-0.005	0.010	-0.005	2.632	1.895	1.895	1.895	1.914	1.909	1.914
-0.005	0.005	-0.005	-0.005	-0.005	0.010	0.000	2.646	1.890	1.895	1.895	1.914	1.909	1.914
-0.005	-0.005	-0.005	-0.005	-0.015	0.015	-0.005	2.627	1.890	1.895	1.895	1.914	1.909	1.914
0.000	-0.015	-0.005	-0.005	-0.010	0.000	0.000	2.637	1.885	1.885	1.890	1.909	1.909	1.904
0.000	-0.015	-0.005	-0.005	0.000	-0.005	0.000	2.725	1.895	1.885	1.890	1.909	1.909	1.909
-0.005	-0.015	-0.010	-0.005	-0.005	-0.005	0.000	2.651	1.890	1.890	1.885	1.909	1.909	1.909
-0.005	-0.005	0.000	-0.005	0.005	0.005	0.000	2.646	1.890	1.890	1.890	1.909	1.909	1.909
-0.005	-0.010	0.000	-0.005	0.000	0.005	0.000	2.676	1.890	1.890	1.890	1.909	1.909	1.909
-0.010	-0.005	-0.005	-0.005	-0.005	0.000	0.000	2.642	1.895	1.890	1.890	1.909	1.904	1.909
0.005	-0.005	-0.005	0.000	0.000	-0.010	0.000	2.637	1.890	1.890	1.890	1.909	1.904	1.904
0.005	0.000	-0.005	-0.005	-0.005	0.005	0.000	2.622	1.890	1.895	1.890	1.909	1.909	1.909
-0.005	0.000	-0.005	0.000	0.005	-0.005	0.000	2.720	1.899	1.895	1.890	1.909	1.909	1.904
-0.010	0.000	-0.005	-0.005	0.000	0.005	0.000	2.725	1.899	1.895	1.895	1.909	1.904	1.909
-0.010	0.010	-0.005	0.000	-0.010	-0.005	0.000	2.749	1.904	1.899	1.895	1.909	1.904	1.909
-0.005	-0.005	-0.005	0.000	-0.005	0.005	0.000	2.715	1.899	1.895	1.895	1.914	1.904	1.909
0.005	0.005	0.000	0.000	-0.005	0.000	0.000	2.715	1.904	1.899	1.895	1.909	1.904	1.909
-0.010	0.010	-0.005	0.000	-0.005	-0.005	0.000	2.651	1.895	1.899	1.895	1.914	1.909	1.904
0.000	0.005	-0.005	0.000	0.000	-0.024	0.000	2.734	1.904	1.899	1.895	1.909	1.904	1.899
-0.005	0.000	-0.005	-0.005	0.000	0.005	0.000	2.666	1.899	1.895	1.895	1.909	1.909	1.909
0.000	-0.005	-0.005	-0.005	-0.005	-0.005	0.000	2.632	1.895	1.890	1.890	1.909	1.904	1.904
-0.005	-0.015	-0.005	-0.005	0.000	0.005	0.000	2.671	1.890	1.890	1.890	1.909	1.904	1.909
0.005	-0.005	0.000	-0.005	-0.005	-0.005	0.000	2.725	1.899	1.895	1.890	1.909	1.904	1.904
0.005	-0.024	0.000	-0.005	-0.005	0.005	0.000	2.661	1.895	1.890	1.890	1.909	1.909	1.909
-0.005	-0.029	0.000	-0.005	0.000	0.000	0.000	2.681	1.895	1.890	1.890	1.909	1.904	1.904
0.000	-0.020	-0.005	-0.005	0.000	-0.005	0.000	2.666	1.895	1.895	1.890	1.909	1.904	1.909
-0.005	0.000	-0.010	-0.005	-0.005	-0.005	0.000	2.676	1.899	1.899	1.895	1.909	1.904	1.904
0.000	0.010	-0.005	0.000	-0.005	-0.024	0.000	2.666	1.895	1.904	1.895	1.914	1.904	1.899
0.010	0.010	-0.015	0.000	0.000	-0.015	0.000	2.671	1.899	1.904	1.895	1.914	1.909	1.904
0.005	0.015	-0.005	-0.005	-0.010	0.005	0.000	2.686	1.904	1.904	1.899	1.914	1.909	1.909
-0.005	0.010	0.000	0.000	0.000	-0.005	0.000	2.700	1.899	1.899	1.899	1.919	1.909	1.909
-0.010	0.005	-0.005	0.000	0.000	0.005	0.000	2.690	1.899	1.899	1.899	1.914	1.909	1.914
-0.010	0.005	-0.005	0.000	-0.010	-0.024	0.000	2.690	1.899	1.899	1.895	1.914	1.909	1.904
0.000	0.005	0.000	0.005	-0.005	0.010	0.000	2.671	1.899	1.899	1.899	1.919	1.914	1.914
0.000	0.000	0.000	0.000	-0.005	-0.015	0.000	2.671	1.899	1.895	1.895	1.914	1.909	1.904
-0.005	-0.005	0.000	0.000	-0.010	-0.005	0.000	2.690	1.899	1.895	1.895	1.914	1.909	1.909
-0.005	-0.010	-0.005	-0.005	-0.005	0.000	0.000	2.666	1.895	1.890	1.890	1.909	1.909	1.914
-0.005	-0.010	0.000	0.000	0.005	0.000	0.000	2.690	1.895	1.895	1.895	1.909	1.909	1.909
-0.005	0.005	0.000	-0.005	-0.005	-0.005	0.000	2.690	1.899	1.899	1.895	1.909	1.909	1.909
0.000	-0.005	0.000	-0.005	0.000	0.005	0.000	2.690	1.899	1.890	1.890	1.914	1.909	1.909
-0.005	-0.005	0.005	-0.005	-0.005	-0.005	0.000	2.695	1.899	1.895	1.895	1.909	1.904	1.909
-0.010	0.005	-0.005	-0.005	-0.005	0.000	0.000	2.690	1.904	1.899	1.895	1.909	1.909	1.909
-0.010	-0.010	-0.005	-0.005	0.000	-0.015	0.000	2.666	1.895	1.895	1.895	1.909	1.904	1.904
0.000	-0.010	0.000	-0.005	0.005	-0.029	0.000	2.671	1.899	1.899	1.895	1.909	1.909	1.904
-0.010	-0.010	0.000	-0.005	0.000	0.000	0.000	2.666	1.899	1.899	1.895	1.914	1.909	1.914
-0.005	-0.005	-0.005	-0.005	-0.005	-0.015	-0.005	2.690	1.899	1.899	1.895	1.914	1.909	1.909
0.000	0.005	-0.005	-0.005	-0.010	0.015	0.000	2.661	1.899	1.899	1.895	1.914	1.909	1.914
-0.010	0.005	-0.005	0.000	-0.005	0.015	0.000	2.666	1.899	1.899	1.899	1.914	1.909	1.914
-0.005	0.005	-0.005	0.000	0.000	0.010	0.000	2.671	1.895	1.899	1.895	1.914	1.909	1.909
0.000	0.005	-0.005	0.000	0.000	-0.005	0.000	2.642	1.895	1.899	1.895	1.914	1.909	1.909
-0.010	0.000	0.000	0.000	-0.005	0.005	0.000	2.661	1.895	1.895	1.895	1.914	1.909	1.909
-0.005	0.000	-0.005	0.000	-0.005	0.005	0.000	2.725	1.899	1.895	1.895	1.914	1.909	1.909
-0.010	-0.005	0.000	-0.005	-0.005	-0.015	0.000	2.715	1.904	1.890	1.895	1.909	1.904	1.904
0.000	-0.010	-0.005	-0.005	-0.005	0.000	0.000	2.642	1.899	1.895	1.890	1.909	1.904	1.909
-0.010	-0.015	-0.005	-0.005	-0.005	0.000	0.000	2.627	1.890	1.885	1.890	1.909	1.904	1.909
0.000	-0.010	-0.010	-0.005	0.000	-0.015	0.000	2.715	1.899	1.895	1.885	1.909	1.904	1.904
0.000	-0.020	-0.005	-0.005	0.000	0.005	0.000	2.656	1.895	1.890	1.890	1.909	1.904	1.909
-0.005	-0.010	-0.005	-0.005	-0.005	-0.010	0.000	2.646	1.890	1.895	1.890	1.909	1.904	1.899
0.005	-0.005	-0.005	-0.005	-0.005	-0.005	0.000	2.642	1.890	1.895	1.890	1.909	1.904	1.904
0.000	0.000	0.000	-0.005	-0.005	-0.005	0.000	2.686	1.895	1.895	1.890	1.909	1.904	1.904
0.000	-0.005	-0.005	-0.005	-0.005	-0.005	0.000	2.715	1.885	1.890	1.890	1.909	1.909	1.904
-0.005	-0.005	0.000	0.000	0.000	0.000	0.000	2.671	1.890	1.890	1.890	1.909	1.909	1.909
-0.005	0.015	0.000	-0.005	-0.005	-0.024	0.000	2.744	1.899	1.899	1.890	1.909	1.909	1.904
-0.015	0.005	0.000	0.000	0.000	0.000	0.000	2.671	1.895	1.895	1.895	1.914	1.909	1.909
-0.005	0.000	0.000	0.000	0.000	-0.005	0.000	2.661	1.899	1.895	1.895	1.909	1.909	1.909
-0.005	0.000	-0.005	0.000	0.000	0.005	0.000	2.686	1.899	1.895	1.890	1.909	1.909	1.909
0.000	0.000	-0.005	0.000	-0.005	-0.005	0.000	2.671	1.899	1.895	1.890	1.909	1.909	1.909
-0.005	-0.010	0.000	0.000	0.000	0.000	0.000	2.666	1.895	1.895	1.895	1.909	1.909	1.909
0.000	-0.005	0.000	0.000	-0.005	-0.005	0.000	2.671	1.895	1.895	1.890	1.909	1.904	1.904
-0.010	-0.010	0.000	-0.005	0.000	0.005	0.000	2.695	1.895	1.890	1.890	1.909	1.904	1.909
-0.010	-0.010	0.000	0.000	-0.005	0.000	0.000	2.686	1.899	1.895	1.885	1.909	1.904	1.904
0.000	-0.015	0.000	0.000	0.000	0.005	0.000	2.681	1.899	1.890	1.890	1.904	1.904	1.904
-0.005	-0.010	-0.005	-0.005	0.000	0.000	0.000	2.690	1.899	1.895	1.890	1.904	1.904	1.904
-0.010	-0.005	-0.005	-0.005	-0.005	0.005	0.000	2.690	1.904	1.895	1.890	1.909	1.899	1.904
0.000	-0.005	0.000	-0.005	-0.005	-0.005	0.000	2.690	1.904	1.899	1.890	1.909	1.904	1.904
-0.005	0.000	-0.005	-0.005	-0.005	0.000	0.000	2.690	1.904	1.899	1.895	1.909	1.904	1.904
0.000	0.000	0.000	-0.005	-0.005	0.000	0.000	2.681	1.904	1.899	1.895	1.909	1.904	1.899
-0.005	-0.005	0.000	-0.005	-0.005	0.005	0.000	2.686	1.904	1.899	1.895	1.914	1.909	1.904
0.000	0.000	-0.005	0.000	0.000	-0.005	0.000	2.705	1.909	1.904	1.895	1.914	1.909	1.904
0.000	0.000	-0.005	0.000	-0.005	-0.005	0.000	2.661	1.899	1.899	1.899	1.914	1.909	1.909
0.000	0.005	0.000	0.000	0.000	0.000	0.000	2.690	1.904	1.904	1.899	1.914	1.914	1.909
-0.005	0.010	0.000	-0.005	0.005	-0.020	-0.005	2.666	1.899	1.904	1.899	1.919	1.914	1.904
-0.005	0.005	0.000	0.000	-0.005	-0.024	0.000	2.686	1.895	1.899	1.899	1.914	1.909	1.904
-0.005	0.000	0.000	0.000	-0.005	-0.020	0.000	2.661	1.895	1.895	1.895	1.914	1.909	1.909
-0.005	-0.005	-0.005	0.000	-0.005	-0.005	0.000	2.690	1.899	1.895	1.895	1.914	1.909	1.909
-0.005	0.000	0.000	0.000	-0.005	0.000	0.000	2.686	1.899	1.895	1.890	1.914	1.909	1.909
-0.010	0.000	-0.005	0.000	0.000	-0.005	0.000	2.651	1.890	1.890	1.895	1.914	1.909	1.909
-0.010	-0.020	0.000	-0.005	-0.005	0.010	0.000	2.646	1.890	1.885	1.890	1.909	1.909	1.909
0.000	-0.005	0.000	-0.005	0.000	-0.010	0.000	2.666	1.895	1.895	1.890	1.909	1.909	1.904
0.000	0.000	0.005	-0.005	-0.005	-0.015	0.000	2.773	1.895	1.890	1.895	1.909	1.904	1.904
-0.010	0.000	-0.005	-0.005	0.000	-0.005	0.000	2.656	1.895	1.895	1.890	1.909	1.904	1.904
0.005	-0.005	-0.005	-0.005	-0.005	0.005	0.000	2.715	1.909	1.895	1.890	1.909	1.904	1.909
0.005	0.000	-0.005	-0.005	-0.010	0.005	0.000	2.725	1.909	1.899	1.890	1.909	1.904	1.909
-0.010	0.000	-0.005	-0.005	0.000	0.000	0.000	2.725	1.909	1.904	1.895	1.914	1.904	1.909
0.000	0.000	-0.005	-0.005	-0.005	-0.010	0.000	2.695	1.904	1.904	1.895	1.914	1.904	1.904
0.005	0.010	0.000	-0.005	-0.005	0.005	0.000	2.627	1.914	1.909	1.899	1.914	1.904	1.909
-0.005	0.000	-0.005	0.000	0.000	-0.010	0.000	2.729	1.904	1.904	1.899	1.919	1.909	1.904
-0.005	-0.010	-0.005	0.000	-0.005	-0.005	-0.005	2.656	1.899	1.899	1.899	1.919	1.909	1.909
-0.005	-0.015	-0.005	0.000	-0.005	0.005	0.000	2.646	1.895	1.895	1.899	1.914	1.914	1.914
0.005	-0.020	-0.010	0.000	-0.005	-0.015	0.000	2.681	1.899	1.895	1.895	1.919	1.909	1.904
-0.005	-0.020	-0.005	0.000	-0.005	0.000	0.000	2.700	1.895	1.895	1.895	1.914	1.909	1.909
0.005	-0.020	-0.005	0.000	-0.005	0.000	0.000	2.661	1.899	1.895	1.895	1.914	1.909	1.914
0.000	-0.010	-0.010	0.000	-0.005	0.005	0.000	2.739	1.899	1.895	1.895	1.914	1.909	1.909
0.000	-0.020	-0.005	-0.005	-0.005	0.000	0.000	2.671	1.899	1.895	1.895	1.909	1.909	1.914
-0.010	-0.010	0.000	-0.005	0.005	0.010	0.000	2.690	1.899	1.895	1.895	1.909	1.909	1.909
-0.005	-0.010	0.000	-0.005	0.005	0.005	0.000	2.690	1.899	1.895	1.895	1.914	1.909	1.909
0.000	-0.015	-0.005	-0.005	0.000	0.005	0.000	2.666	1.895	1.895	1.890	1.909	1.909	1.909
0.000	-0.005	-0.010	-0.005	-0.005	0.000	0.000	2.676	1.899	1.899	1.895	1.909	1.909	1.909
0.000	-0.005	-0.010	-0.005	0.000	0.005	0.000	2.666	1.899	1.899	1.895	1.909	1.909	1.909
-0.010	-0.010	0.005	-0.005	0.000	-0.005	0.000	2.700	1.895	1.899	1.899	1.914	1.909	1.904
0.000	0.000	0.000	-0.005	-0.005	0.000	0.000	2.676	1.899	1.899	1.895	1.914	1.909	1.909
-0.005	0.005	0.000	0.000	-0.010	-0.024	0.000	2.666	1.899	1.899	1.899	1.914	1.904	1.899
-0.010	0.000	0.000	0.000	-0.005	-0.010	0.000	2.695	1.899	1.899	1.899	1.919	1.909	1.909
-0.005	0.005	-0.005	0.000	0.005	0.000	0.000	2.661	1.899	1.899	1.899	1.914	1.914	1.914
-0.005	0.020	-0.010	0.000	0.005	0.005	0.000	2.700	1.904	1.904	1.899	1.919	1.914	1.914
0.000	0.010	-0.010	0.005	0.000	-0.005	0.000	2.681	1.904	1.899	1.899	1.914	1.914	1.914
-0.010	-0.005	0.000	0.000	0.010	-0.024	0.000	2.671	1.899	1.895	1.895	1.914	1.914	1.904
0.000	-0.005	0.000	0.000	0.005	0.000	0.000	2.686	1.899	1.895	1.899	1.919	1.914	1.914
-0.005	0.000	0.000	0.000	-0.005	0.010	0.000	2.690	1.899	1.895	1.895	1.914	1.909	1.914
-0.010	0.000	-0.005	0.000	-0.010	0.005	0.000	2.700	1.899	1.899	1.895	1.909	1.904	1.909
0.000	0.005	0.000	-0.005	-0.015	0.005	0.000	2.686	1.899	1.899	1.895	1.914	1.904	1.909
-0.005	-0.005	-0.005	0.000	-0.015	0.000	0.000	2.695	1.899	1.895	1.890	1.909	1.904	1.909
0.000	-0.005	0.000	-0.005	-0.010	-0.010	-0.005	2.671	1.899	1.895	1.895	1.909	1.909	1.904
-0.005	-0.005	-0.005	-0.005	-0.010	0.005	0.000	2.695	1.899	1.895	1.895	1.909	1.909	1.909
0.000	-0.010	0.000	-0.005	-0.010	0.005	0.000	2.661	1.899	1.895	1.895	1.909	1.909	1.909
-0.010	0.005	0.000	-0.005	-0.005	0.010	0.000	2.686	1.899	1.899	1.899	1.914	1.909	1.909
0.005	0.000	0.000	-0.005	-0.010	-0.010	0.000	2.637	1.899	1.899	1.899	1.914	1.909	1.904
-0.005	0.000	-0.005	-0.005	0.005	0.010	0.000	2.651	1.899	1.899	1.895	1.914	1.914	1.914
0.005	0.000	-0.005	-0.005	0.010	0.000	0.000	2.676	1.895	1.899	1.899	1.914	1.914	1.914
0.000	0.005	-0.005	0.000	0.000	-0.015	0.000	2.681	1.895	1.895	1.895	1.914	1.909	1.909
-0.005	0.010	-0.005	0.000	-0.005	-0.010	0.000	2.651	1.895	1.899	1.895	1.914	1.909	1.909
0.000	0.010	-0.005	0.005	-0.005	-0.034	0.000	2.632	1.890	1.895	1.895	1.914	1.909	1.904
0.000	0.010	-0.005	0.000	0.000	-0.010	0.000	2.710	1.895	1.895	1.895	1.914	1.914	1.914
0.000	0.005	-0.005	0.005	-0.010	0.005	0.000	2.617	1.890	1.895	1.895	1.914	1.909	1.914
-0.005	0.000	0.000	0.000	0.005	0.005	0.000	2.720	1.895	1.890	1.895	1.914	1.909	1.909
-0.005	-0.005	0.000	0.000	0.005	-0.015	0.000	2.622	1.895	1.890	1.890	1.909	1.909	1.904
-0.005	-0.010	-0.005	0.000	-0.010	0.005	0.000	2.739	1.899	1.890	1.890	1.909	1.904	1.909
0.000	-0.005	-0.010	-0.005	-0.005	0.000	0.000	2.646	1.895	1.890	1.890	1.904	1.904	1.909
-0.010	-0.015	-0.005	-0.005	0.015	0.005	0.000	2.637	1.890	1.890	1.890	1.904	1.909	1.909
-0.010	-0.015	0.000	-0.005	0.000	-0.005	0.000	2.676	1.895	1.890	1.890	1.909	1.899	1.904
-0.005	-0.015	0.000	-0.005	-0.005	-0.005	0.000	2.700	1.899	1.890	1.890	1.904	1.899	1.904
-0.005	-0.005	0.000	-0.005	-0.015	-0.005	0.000	2.666	1.895	1.895	1.890	1.909	1.899	1.904
-0.005	-0.010	0.000	-0.005	-0.005	0.005	0.000	2.725	1.904	1.895	1.890	1.909	1.904	1.904
0.000	-0.005	-0.005	-0.005	-0.005	0.000	0.000	2.666	1.904	1.899	1.890	1.909	1.904	1.904
0.000	-0.005	0.000	0.000	-0.005	0.005	0.000	2.671	1.904	1.899	1.895	1.909	1.904	1.909
-0.010	0.015	-0.005	0.000	-0.010	-0.010	0.000	2.676	1.899	1.904	1.899	1.914	1.904	1.899
0.000	0.005	-0.005	0.000	0.000	0.000	0.000	2.661	1.899	1.904	1.899	1.914	1.909	1.909
0.000	0.005	0.000	0.000	0.005	-0.010	0.000	2.676	1.899	1.899	1.899	1.914	1.909	1.904
0.005	-0.005	0.000	0.000	0.010	0.000	0.000	2.671	1.899	1.899	1.895	1.919	1.914	1.914
-0.005	0.005	-0.005	0.000	0.029	-0.034	-0.005	2.671	1.895	1.899	1.895	1.919	1.914	1.904
-0.005	0.000	0.000	0.000	0.005	-0.005	0.000	2.656	1.895	1.895	1.895	1.914	1.909	1.914
0.000	0.005	-0.005	0.000	-0.005	0.005	0.000	2.690	1.899	1.895	1.895	1.914	1.904	1.914
-0.005	0.020	0.000	0.000	-0.010	-0.015	0.000	2.700	1.899	1.899	1.895	1.914	1.904	1.904
-0.005	0.010	0.000	-0.005	-0.005	0.000	0.000	2.700	1.899	1.895	1.895	1.914	1.909	1.909
0.005	0.000	-0.005	-0.005	0.000	0.000	0.000	2.695	1.904	1.895	1.895	1.909	1.909	1.909
-0.005	0.000	-0.005	-0.005	0.000	0.000	0.000	2.690	1.904	1.895	1.890	1.909	1.904	1.909
-0.010	0.005	-0.005	-0.005	-0.010	0.000	0.000	2.700	1.904	1.895	1.895	1.909	1.904	1.909
-0.005	-0.005	0.000	-0.005	-0.005	0.000	0.000	2.671	1.895	1.895	1.895	1.909	1.909	1.909
0.005	-0.005	0.000	-0.005	-0.005	-0.015	0.000	2.700	1.904	1.899	1.895	1.914	1.904	1.904
0.000	-0.005	0.000	-0.005	-0.010	0.000	0.000	2.695	1.904	1.899	1.895	1.914	1.904	1.909
0.010	0.000	-0.005	-0.005	0.000	-0.005	0.000	2.690	1.909	1.904	1.899	1.914	1.909	1.909
0.000	0.000	-0.005	-0.005	0.000	-0.010	0.000	2.676	1.899	1.904	1.899	1.914	1.909	1.909
0.000	0.000	0.000	0.000	-0.005	0.000	0.000	2.705	1.904	1.904	1.899	1.919	1.914	1.914
0.010	0.000	0.000	0.000	-0.005	0.000	0.000	2.676	1.904	1.904	1.899	1.919	1.914	1.909
0.000	0.000	-0.005	0.000	0.000	-0.010	0.000	2.695	1.904	1.904	1.899	1.919	1.914	1.909
-0.005	0.005	0.000	0.000	0.005	0.010	0.000	2.676	1.904	1.904	1.899	1.919	1.914	1.914
0.000	0.005	-0.005	0.000	-0.005	0.005	0.000	2.651	1.895	1.899	1.899	1.919	1.914	1.914
-0.005	0.005	-0.010	0.000	-0.005	-0.024	0.000	2.651	1.890	1.895	1.895	1.914	1.909	1.909
-0.005	-0.005	-0.005	0.000	-0.010	0.010	0.000	2.671	1.890	1.895	1.890	1.914	1.914	1.914
-0.015	-0.015	-0.005	0.000	-0.005	-0.005	0.000	2.783	1.899	1.890	1.890	1.909	1.909	1.909
-0.010	-0.015	0.000	0.000	-0.010	-0.005	0.000	2.642	1.895	1.890	1.890	1.909	1.909	1.909
-0.015	-0.010	0.000	-0.005	0.000	-0.010	0.000	2.700	1.899	1.895	1.895	1.909	1.909	1.909
-0.005	-0.005	-0.005	-0.005	-0.005	0.000	0.000	2.637	1.895	1.895	1.890	1.909	1.909	1.909
-0.010	-0.005	0.000	-0.005	0.000	-0.024	0.000	2.642	1.890	1.895	1.890	1.909	1.909	1.904
-0.005	0.000	-0.005	-0.005	-0.005	0.015	0.000	2.705	1.899	1.895	1.895	1.909	1.909	1.914
-0.010	-0.005	0.000	-0.005	0.000	0.015	0.000	2.705	1.899	1.899	1.895	1.909	1.909	1.914
-0.010	0.000	0.000	-0.005	-0.005	0.010	0.000	2.715	1.909	1.899	1.895	1.909	1.909	1.909
-0.005	0.000	0.000	-0.005	-0.010	0.000	0.000	2.646	1.904	1.904	1.895	1.914	1.909	1.909
0.000	0.000	-0.005	0.000	0.000	-0.015	0.000	2.734	1.909	1.904	1.899	1.914	1.909	1.904
-0.005	0.005	-0.010	0.000	0.000	0.000	0.000	2.676	1.904	1.909	1.899	1.914	1.909	1.914
0.000	0.000	-0.005	0.000	0.000	0.005	0.000	2.646	1.899	1.904	1.899	1.914	1.914	1.914
0.000	0.005	0.000	0.000	-0.005	-0.020	0.000	2.666	1.899	1.904	1.904	1.919	1.914	1.909
-0.015	0.010	-0.005	0.000	0.000	0.000	0.000	2.739	1.904	1.904	1.904	1.919	1.909	1.914
-0.005	0.005	0.000	0.000	-0.005	-0.010	-0.005	2.676	1.899	1.899	1.904	1.914	1.909	1.909
-0.010	0.000	0.000	0.000	0.000	0.000	0.000	2.686	1.899	1.899	1.899	1.919	1.914	1.914
0.000	-0.010	-0.005	0.000	-0.005	0.000	0.000	2.666	1.899	1.895	1.895	1.914	1.909	1.914
0.005	-0.029	-0.005	-0.005	-0.005	0.000	0.000	2.690	1.899	1.885	1.895	1.914	1.909	1.914
-0.005	-0.034	-0.005	0.000	-0.005	0.000	0.000	2.666	1.895	1.890	1.890	1.914	1.909	1.909
0.000	-0.029	0.000	-0.005	-0.005	0.005	0.000	2.666	1.895	1.890	1.890	1.914	1.909	1.909
-0.010	-0.024	0.000	-0.005	-0.005	-0.015	0.000	2.686	1.895	1.895	1.890	1.909	1.904	1.904
0.005	-0.005	0.000	-0.005	0.000	0.000	0.000	2.661	1.899	1.899	1.895	1.909	1.909	1.909
0.005	-0.020	0.000	-0.005	0.000	0.000	0.000	2.686	1.899	1.899	1.895	1.909	1.909	1.909
0.005	-0.010	-0.005	-0.005	-0.005	0.000	-0.005	2.666	1.895	1.899	1.895	1.914	1.909	1.909
0.010	-0.005	0.000	-0.005	0.000	0.000	0.000	2.690	1.904	1.899	1.895	1.914	1.909	1.904
-0.005	0.000	0.000	-0.005	0.000	-0.005	0.000	2.695	1.899	1.904	1.899	1.914	1.909	1.909
0.000	0.005	-0.005	0.000	0.005	-0.005	0.000	2.681	1.899	1.899	1.899	1.914	1.914	1.909
-0.015	0.000	0.005	0.000	-0.005	-0.005	0.000	2.686	1.899	1.904	1.899	1.919	1.909	1.909
-0.005	0.010	-0.005	0.000	-0.010	0.005	0.000	2.666	1.904	1.904	1.899	1.919	1.909	1.914
-0.015	0.015	0.000	0.000	-0.005	-0.005	0.000	2.681	1.895	1.899	1.899	1.919	1.914	1.909
-0.015	0.005	-0.005	-0.005	0.000	-0.015	0.000	2.666	1.895	1.899	1.899	1.919	1.914	1.909
-0.005	-0.010	-0.005	0.000	0.000	-0.024	0.000	2.676	1.899	1.890	1.895	1.914	1.909	1.909
-0.010	-0.020	0.000	0.000	0.000	0.000	0.000	2.681	1.895	1.890	1.895	1.914	1.909	1.914
-0.005	-0.020	0.000	0.000	0.000	-0.005	0.000	2.686	1.899	1.895	1.890	1.914	1.909	1.914
-0.005	-0.015	-0.005	-0.005	0.000	-0.029	0.000	2.671	1.895	1.895	1.890	1.909	1.909	1.904
0.005	-0.015	-0.005	-0.005	0.000	0.005	0.000	2.676	1.899	1.895	1.890	1.909	1.909	1.914
0.005	-0.010	-0.005	-0.005	0.000	-0.005	0.000	2.681	1.899	1.895	1.890	1.909	1.904	1.909
0.005	-0.015	-0.005	-0.010	0.000	-0.010	0.000	2.642	1.890	1.890	1.890	1.909	1.904	1.904
0.000	-0.010	-0.005	-0.005	-0.005	-0.015	0.000	2.642	1.890	1.890	1.890	1.909	1.904	1.904
-0.005	-0.010	0.000	-0.005	-0.005	-0.005	0.000	2.671	1.890	1.890	1.890	1.909	1.904	1.909
-0.010	-0.005	0.000	-0.005	-0.005	-0.015	0.000	2.783	1.895	1.895	1.890	1.914	1.904	1.904
0.000	-0.005	-0.005	-0.005	-0.005	-0.010	0.000	2.642	1.895	1.895	1.895	1.909	1.904	1.909
-0.010	-0.010	-0.005	-0.005	-0.005	0.000	0.000	2.637	1.895	1.895	1.890	1.914	1.909	1.909
-0.010	-0.005	-0.005	-0.005	0.000	0.010	0.000	2.671	1.890	1.895	1.890	1.909	1.909	1.914
-0.005	0.005	-0.005	0.000	-0.005	-0.015	0.000	2.622	1.885	1.895	1.895	1.909	1.909	1.904
-0.010	0.000	-0.005	0.000	-0.010	-0.005	0.000	2.627	1.885	1.890	1.895	1.914	1.904	1.909
0.005	0.005	-0.005	0.000	-0.010	-0.005	0.000	2.622	1.885	1.890	1.890	1.909	1.904	1.904
0.005	0.020	-0.005	0.000	-0.005	0.015	0.000	2.646	1.890	1.895	1.895	1.909	1.909	1.914
0.005	0.020	-0.005	0.000	-0.010	0.000	0.000	2.661	1.895	1.895	1.890	1.909	1.904	1.904
0.005	0.015	-0.005	0.000	0.005	0.005	0.000	2.739	1.899	1.890	1.890	1.909	1.909	1.909
-0.005	0.010	-0.005	0.000	0.005	-0.005	0.000	2.666	1.890	1.890	1.890	1.909	1.909	1.904
-0.005	0.015	0.000	-0.005	0.000	-0.020	0.000	2.622	1.890	1.890	1.885	1.909	1.904	1.904
0.000	0.005	0.000	0.000	-0.005	0.000	0.000	2.661	1.885	1.890	1.885	1.904	1.904	1.904
-0.005	0.005	-0.005	-0.005	-0.005	-0.015	0.000	2.705	1.895	1.890	1.890	1.904	1.899	1.899
-0.005	-0.005	0.005	-0.005	-0.005	-0.024	0.000	2.671	1.895	1.885	1.890	1.904	1.899	1.899
-0.010	0.000	0.000	-0.005	0.005	0.010	0.000	2.676	1.895	1.890	1.885	1.904	1.904	1.909
0.000	0.000	-0.005	-0.005	-0.005	0.000	0.000	2.695	1.899	1.890	1.885	1.904	1.899	1.899
0.000	0.000	0.005	-0.005	0.000	0.005	0.000	2.671	1.899	1.895	1.890	1.909	1.904	1.904
-0.005	0.000	0.005	-0.005	0.000	0.005	0.000	2.671	1.895	1.895	1.890	1.909	1.904	1.904
0.000	-0.005	-0.005	0.000	0.000	-0.005	0.000	2.671	1.904	1.895	1.890	1.909	1.904	1.904
0.005	-0.005	-0.010	0.000	0.000	-0.015	0.000	2.695	1.904	1.899	1.890	1.909	1.904	1.899
0.005	0.000	-0.005	0.000	0.000	0.010	0.000	2.671	1.904	1.899	1.895	1.909	1.904	1.909
-0.005	0.005	0.000	0.000	-0.005	-0.010	0.000	2.686	1.899	1.899	1.895	1.909	1.904	1.899
-0.005	0.000	-0.005	0.000	-0.005	-0.010	0.000	2.705	1.899	1.899	1.895	1.909	1.904	1.904
-0.005	-0.005	0.000	0.000	-0.010	0.000	0.000	2.700	1.899	1.895	1.895	1.914	1.904	1.904
-0.010	-0.010	0.000	0.000	-0.005	0.000	-0.005	2.695	1.899	1.895	1.895	1.909	1.904	1.904
0.000	0.000	-0.010	0.000	0.000	-0.024	0.000	2.690	1.899	1.895	1.895	1.909	1.904	1.899
-0.005	0.000	0.000	0.000	-0.005	0.005	0.000	2.690	1.899	1.895	1.895	1.909	1.909	1.909
-0.005	-0.005	-0.005	-0.005	0.000	-0.005	0.000	2.661	1.895	1.890	1.890	1.909	1.904	1.909
-0.010	-0.005	-0.005	-0.005	0.000	0.000	0.000	2.671	1.895	1.890	1.890	1.909	1.904	1.909
-0.010	-0.015	-0.005	-0.005	-0.005	0.010	0.000	2.700	1.895	1.890	1.890	1.909	1.904	1.909
-0.010	-0.015	-0.005	-0.005	-0.005	0.005	0.000	2.681	1.895	1.895	1.890	1.909	1.904	1.904
-0.005	-0.010	0.000	-0.005	0.000	-0.010	0.000	2.666	1.895	1.895	1.890	1.909	1.904	1.904
0.005	-0.010	0.000	-0.005	-0.005	-0.005	0.000	2.676	1.899	1.895	1.890	1.909	1.904	1.904
0.000	0.000	-0.005	-0.005	-0.005	0.005	0.000	2.690	1.899	1.899	1.895	1.909	1.909	1.909
0.000	0.000	-0.005	0.000	-0.005	-0.005	0.000	2.681	1.899	1.899	1.895	1.914	1.909	1.909
-0.005	0.000	-0.005	-0.005	-0.005	0.010	0.000	2.686	1.904	1.899	1.895	1.914	1.909	1.909
-0.005	0.000	-0.005	-0.005	-0.005	-0.005	0.000	2.656	1.899	1.899	1.899	1.914	1.909	1.904
-0.005	-0.005	-0.005	0.000	-0.005	0.000	0.000	2.661	1.895	1.895	1.895	1.914	1.909	1.909
0.000	0.000	-0.010	0.000	-0.005	-0.015	0.000	2.666	1.895	1.899	1.895	1.914	1.909	1.909
0.000	0.000	-0.005	0.000	-0.005	0.005	0.000	2.778	1.904	1.899	1.899	1.914	1.909	1.909
0.000	-0.005	0.000	0.000	0.000	-0.024	0.000	2.651	1.904	1.899	1.895	1.914	1.909	1.904
0.000	-0.010	-0.005	0.000	-0.010	0.010	0.000	2.632	1.895	1.895	1.890	1.914	1.909	1.909
-0.005	-0.010	0.000	0.000	-0.005	0.005	-0.005	2.754	1.899	1.890	1.895	1.909	1.909	1.909
0.000	-0.015	-0.005	0.000	0.005	0.000	0.000	2.720	1.904	1.895	1.890	1.909	1.909	1.909
-0.005	-0.005	-0.005	-0.005	0.005	-0.010	0.000	2.725	1.899	1.895	1.890	1.909	1.909	1.904
-0.005	0.000	-0.005	-0.005	0.005	-0.010	0.000	2.627	1.895	1.899	1.890	1.909	1.909	1.909
0.000	-0.005	0.005	-0.005	-0.005	0.005	0.000	2.710	1.899	1.895	1.895	1.909	1.904	1.909
-0.010	-0.010	0.000	-0.010	0.005	0.005	0.000	2.651	1.895	1.895	1.895	1.909	1.909	1.909
-0.010	-0.005	0.000	-0.005	-0.005	-0.005	0.000	2.637	1.890	1.895	1.895	1.909	1.904	1.909
0.000	-0.005	0.000	-0.005	-0.005	-0.005	0.000	2.676	1.890	1.895	1.895	1.909	1.909	1.909
0.000	0.005	0.000	-0.005	-0.024	-0.010	0.000	2.637	1.904	1.899	1.899	1.909	1.899	1.904
-0.005	0.000	0.000	-0.005	-0.015	0.000	0.000	2.676	1.899	1.899	1.895	1.914	1.909	1.909
-0.015	0.005	-0.005	0.000	-0.020	-0.024	0.000	2.744	1.904	1.899	1.895	1.914	1.904	1.899
-0.005	0.010	-0.005	0.000	-0.015	-0.020	0.000	2.666	1.904	1.904	1.899	1.914	1.909	1.904
0.000	0.005	0.000	0.000	-0.005	0.005	0.000	2.690	1.904	1.899	1.899	1.919	1.914	1.914
-0.005	0.005	0.000	0.000	-0.005	-0.015	0.000	2.700	1.909	1.904	1.899	1.914	1.914	1.909
-0.010	0.005	-0.005	0.000	0.010	0.005	-0.005	2.671	1.899	1.899	1.899	1.914	1.914	1.919
-0.005	0.010	-0.005	0.000	0.005	0.000	0.000	2.666	1.895	1.899	1.899	1.914	1.914	1.914
0.000	-0.024	0.000	0.000	0.010	0.000	0.000	2.661	1.895	1.890	1.895	1.914	1.914	1.914
0.000	-0.010	0.000	0.000	0.024	0.010	0.000	2.695	1.895	1.895	1.895	1.914	1.914	1.919
-0.005	-0.010	0.000	-0.005	0.000	0.005	0.000	2.656	1.890	1.890	1.890	1.909	1.904	1.914
-0.010	-0.024	-0.005	-0.005	0.000	0.000	0.000	2.681	1.895	1.890	1.890	1.909	1.904	1.909
0.000	-0.024	-0.010	-0.005	-0.005	0.010	0.000	2.690	1.895	1.890	1.885	1.909	1.899	1.909
-0.005	-0.020	-0.005	-0.005	-0.005	-0.010	0.000	2.681	1.895	1.895	1.890	1.904	1.904	1.904
0.000	-0.015	0.000	-0.005	0.005	0.005	0.000	2.705	1.904	1.899	1.890	1.909	1.909	1.909
0.000	-0.010	-0.005	-0.005	0.005	0.000	0.000	2.681	1.899	1.899	1.890	1.909	1.904	1.909
0.005	0.010	-0.005	-0.005	0.010	0.000	-0.005	2.695	1.904	1.904	1.895	1.909	1.904	1.909
-0.005	0.005	-0.005	-0.005	0.005	-0.010	0.000	2.695	1.909	1.904	1.899	1.914	1.909	1.904
-0.005	0.005	-0.005	0.000	0.000	0.000	0.000	2.676	1.904	1.904	1.899	1.914	1.909	1.909
0.010	0.010	0.000	0.000	-0.005	-0.005	0.000	2.651	1.899	1.909	1.899	1.919	1.909	1.909
-0.005	0.005	0.000	0.000	-0.005	-0.005	0.000	2.690	1.899	1.904	1.904	1.914	1.909	1.909
-0.005	-0.005	-0.005	0.000	-0.005	-0.005	0.000	2.695	1.899	1.895	1.899	1.919	1.909	1.904
-0.005	0.005	0.000	0.000	-0.005	0.000	0.000	2.690	1.904	1.899	1.899	1.919	1.909	1.909
-0.010	0.010	-0.005	0.000	-0.005	0.010	0.000	2.690	1.904	1.899	1.899	1.919	1.914	1.914
-0.015	-0.005	0.000	0.000	-0.010	-0.010	0.000	2.666	1.895	1.895	1.895	1.914	1.909	1.904
-0.010	0.000	-0.005	0.000	-0.005	-0.010	0.000	2.686	1.899	1.895	1.895	1.919	1.909	1.909
-0.010	-0.010	-0.005	-0.005	0.000	-0.020	0.000	2.646	1.895	1.895	1.890	1.914	1.909	1.904
-0.005	-0.010	-0.005	-0.005	0.005	0.005	0.000	2.651	1.890	1.890	1.895	1.914	1.909	1.914
-0.005	-0.005	-0.005	-0.005	0.000	0.005	0.000	2.661	1.890	1.895	1.895	1.909	1.909	1.914
-0.005	-0.005	-0.005	-0.010	0.000	-0.010	0.000	2.671	1.890	1.890	1.890	1.909	1.904	1.909
0.005	-0.010	0.005	-0.005	-0.010	-0.010	0.000	2.656	1.890	1.895	1.890	1.909	1.904	1.909
0.000	0.000	-0.005	-0.005	-0.005	0.000	0.000	2.725	1.895	1.895	1.890	1.909	1.909	1.909
0.000	-0.015	0.000	-0.005	-0.010	-0.005	0.000	2.651	1.895	1.895	1.890	1.909	1.904	1.904
0.005	0.000	0.000	-0.005	-0.010	0.000	0.000	2.651	1.895	1.895	1.895	1.914	1.909	1.909
-0.010	-0.005	-0.005	0.000	-0.005	0.000	0.000	2.715	1.899	1.895	1.895	1.909	1.909	1.909
-0.005	0.005	-0.005	-0.005	-0.005	-0.005	0.000	2.622	1.895	1.899	1.895	1.909	1.904	1.904
-0.005	0.005	-0.005	0.000	-0.010	0.000	0.000	2.642	1.895	1.895	1.895	1.914	1.909	1.909
0.000	0.005	-0.005	0.000	-0.010	0.000	0.000	2.651	1.895	1.895	1.895	1.914	1.909	1.909
0.000	0.005	0.000	0.000	-0.005	0.005	0.000	2.744	1.899	1.899	1.895	1.914	1.909	1.914
0.000	0.005	-0.005	0.000	-0.005	-0.010	0.000	2.686	1.899	1.899	1.895	1.914	1.909	1.909
0.000	-0.005	-0.005	0.000	-0.005	-0.005	0.000	2.622	1.895	1.895	1.890	1.914	1.909	1.909
0.005	-0.005	0.000	0.000	-0.005	0.005	0.000	2.661	1.890	1.890	1.895	1.909	1.909	1.909
-0.005	0.000	-0.005	0.000	-0.005	0.000	0.000	2.720	1.895	1.890	1.890	1.909	1.909	1.909
0.005	-0.005	0.000	-0.005	-0.010	0.005	0.000	2.656	1.895	1.895	1.890	1.909	1.904	1.909
0.000	-0.005	0.005	-0.005	-0.005	0.005	0.000	2.671	1.895	1.895	1.890	1.909	1.904	1.904
-0.005	0.000	0.000	-0.005	0.000	0.005	0.000	2.676	1.895	1.895	1.890	1.909	1.904	1.904
0.000	-0.020	-0.005	-0.005	0.000	-0.005	0.000	2.676	1.895	1.885	1.890	1.909	1.904	1.904
0.000	-0.020	-0.005	-0.005	0.005	0.005	0.000	2.666	1.895	1.890	1.885	1.904	1.904	1.909
-0.005	-0.020	0.000	-0.010	0.000	0.000	0.000	2.681	1.895	1.890	1.890	1.909	1.904	1.904
-0.005	-0.015	-0.005	-0.005	-0.005	0.000	0.000	2.695	1.899	1.895	1.890	1.909	1.904	1.904
0.005	-0.015	0.005	-0.005	-0.005	-0.010	0.000	2.666	1.899	1.899	1.895	1.909	1.904	1.904
0.000	-0.010	0.000	-0.005	0.000	-0.005	0.000	2.681	1.899	1.899	1.895	1.909	1.904	1.904
-0.005	0.005	-0.005	0.000	0.000	-0.024	-0.005	2.695	1.904	1.904	1.895	1.909	1.904	1.904
-0.005	0.010	-0.005	-0.005	-0.005	0.005	0.000	2.671	1.899	1.904	1.899	1.914	1.904	1.909
-0.010	0.015	-0.005	0.000	-0.005	0.010	0.000	2.700	1.904	1.909	1.899	1.914	1.909	1.909
0.000	0.020	-0.005	0.000	-0.010	0.005	0.000	2.690	1.904	1.904	1.899	1.914	1.909	1.909
-0.010	0.010	-0.005	0.000	-0.010	0.000	0.000	2.690	1.899	1.899	1.899	1.914	1.909	1.904
0.000	0.020	-0.005	0.000	-0.005	0.005	0.000	2.666	1.904	1.904	1.899	1.914	1.909	1.909
-0.005	-0.015	-0.005	0.000	-0.005	0.005	0.000	2.666	1.895	1.890	1.895	1.914	1.909	1.909
-0.005	-0.010	0.000	-0.005	-0.005	0.005	0.000	2.671	1.895	1.890	1.890	1.914	1.909	1.904
-0.005	-0.020	-0.005	0.000	-0.005	-0.005	0.000	2.681	1.899	1.890	1.890	1.914	1.909	1.904
0.000	-0.015	-0.005	-0.005	0.005	-0.010	0.000	2.695	1.899	1.890	1.890	1.909	1.909	1.909
-0.005	-0.010	0.005	-0.005	0.000	-0.005	0.000	2.676	1.895	1.895	1.890	1.909	1.909	1.904
0.000	-0.015	-0.005	-0.005	0.010	0.000	0.000	2.690	1.899	1.895	1.890	1.909	1.909	1.909
0.000	0.000	0.000	-0.005	0.010	-0.005	0.000	2.651	1.899	1.895	1.890	1.909	1.909	1.909
0.005	0.000	0.000	-0.005	0.005	0.000	0.000	2.681	1.895	1.899	1.895	1.909	1.904	1.909
-0.010	-0.005	-0.005	-0.005	0.010	0.000	-0.005	2.646	1.895	1.895	1.890	1.909	1.909	1.909
-0.005	-0.010	-0.010	-0.005	0.005	-0.005	0.000	2.651	1.895	1.895	1.890	1.909	1.909	1.909
-0.005	0.005	-0.005	-0.005	0.010	-0.005	0.000	2.671	1.895	1.895	1.895	1.914	1.909	1.909
-0.005	0.010	0.000	-0.005	0.005	-0.005	0.000	2.783	1.904	1.904	1.899	1.914	1.909	1.909
-0.010	0.015	0.000	0.000	0.015	-0.010	0.000	2.651	1.895	1.899	1.899	1.914	1.909	1.909
-0.015	0.005	-0.005	0.000	0.020	-0.015	0.000	2.725	1.899	1.899	1.895	1.914	1.914	1.904
-0.010	0.015	-0.010	0.000	0.020	-0.029	0.000	2.715	1.904	1.899	1.895	1.914	1.909	1.904
-0.005	0.015	0.000	0.000	0.015	-0.039	0.000	2.729	1.904	1.899	1.899	1.914	1.909	1.904
-0.010	0.005	-0.005	0.000	0.005	-0.005	0.000	2.632	1.914	1.899	1.895	1.914	1.909	1.914
-0.010	0.000	0.000	0.000	0.010	-0.010	0.000	2.617	1.899	1.899	1.895	1.914	1.904	1.909
0.005	-0.010	0.000	-0.005	0.000	-0.010	0.000	2.720	1.904	1.895	1.895	1.914	1.904	1.909
-0.005	0.000	-0.005	0.000	-0.010	0.010	0.000	2.671	1.899	1.899	1.895	1.909	1.904	1.909
-0.005	-0.005	0.000	-0.005	-0.005	0.005	0.000	2.642	1.895	1.895	1.895	1.909	1.904	1.909
0.000	-0.020	0.000	-0.005	-0.020	0.005	0.000	2.671	1.895	1.890	1.890	1.914	1.899	1.904
-0.005	-0.015	-0.005	-0.005	-0.010	0.005	0.000	2.661	1.899	1.895	1.895	1.909	1.904	1.904
-0.005	-0.005	-0.005	-0.005	-0.020	0.005	0.000	2.666	1.899	1.899	1.895	1.914	1.904	1.904
-0.005	-0.010	-0.005	-0.005	-0.020	0.010	0.000	2.729	1.904	1.899	1.895	1.914	1.909	1.904
0.005	0.000	0.000	-0.005	-0.015	0.005	0.000	2.666	1.904	1.899	1.899	1.914	1.904	1.909
0.000	0.010	-0.005	-0.005	-0.024	0.005	0.000	2.671	1.904	1.904	1.899	1.914	1.909	1.909
-0.005	0.010	-0.005	0.000	-0.024	0.005	0.000	2.695	1.904	1.904	1.899	1.914	1.904	1.904
-0.005	0.005	0.000	0.000	-0.034	0.005	0.000	2.666	1.904	1.904	1.899	1.919	1.909	1.909
0.000	0.000	-0.005	0.000	-0.020	-0.024	0.000	2.666	1.899	1.899	1.899	1.919	1.914	1.904
-0.005	0.000	0.000	0.000	-0.010	0.020	0.000	2.676	1.899	1.899	1.899	1.919	1.919	1.919
0.005	0.000	-0.005	0.000	-0.005	0.015	0.000	2.700	1.904	1.899	1.899	1.919	1.914	1.914
-0.005	-0.005	0.000	0.000	-0.024	0.005	0.000	2.661	1.895	1.899	1.899	1.914	1.909	1.909
0.000	-0.010	-0.005	0.000	-0.044	0.005	0.000	2.681	1.899	1.895	1.895	1.914	1.904	1.909
0.000	-0.020	-0.005	0.000	-0.005	0.005	0.000	2.695	1.899	1.890	1.895	1.914	1.914	1.914
-0.005	-0.024	-0.005	-0.005	0.010	-0.005	0.000	2.690	1.904	1.890	1.890	1.909	1.914	1.909
0.000	-0.029	0.000	-0.005	0.020	0.010	0.000	2.686	1.899	1.890	1.890	1.909	1.919	1.914
0.000	-0.029	-0.005	0.000	0.010	0.000	0.000	2.681	1.899	1.895	1.890	1.909	1.909	1.909
0.000	-0.020	-0.005	-0.005	0.015	0.000	0.000	2.686	1.899	1.899	1.890	1.909	1.909	1.914
-0.005	-0.010	0.000	-0.005	0.005	0.000	0.000	2.695	1.904	1.899	1.899	1.909	1.909	1.914
-0.005	-0.005	0.005	-0.005	-0.005	0.005	0.000	2.695	1.909	1.904	1.895	1.914	1.904	1.909
-0.005	-0.010	0.000	-0.005	0.000	0.005	0.000	2.686	1.904	1.904	1.899	1.914	1.909	1.909
0.005	0.000	0.000	-0.005	-0.005	-0.005	0.000	2.686	1.909	1.909	1.899	1.914	1.909	1.909
0.000	0.000	0.000	0.000	-0.015	-0.005	0.000	2.676	1.904	1.904	1.904	1.919	1.909	1.909
0.000	-0.005	0.000	0.000	-0.010	-0.010	0.000	2.686	1.904	1.904	1.899	1.919	1.909	1.909
-0.005	-0.005	-0.005	0.000	-0.010	-0.015	0.000	2.690	1.904	1.899	1.899	1.919	1.909	1.909
0.000	0.000	0.000	0.000	-0.005	-0.024	0.000	2.671	1.904	1.904	1.904	1.919	1.914	1.904
0.005	0.000	0.000	0.000	0.015	0.000	0.000	2.681	1.904	1.904	1.904	1.919	1.919	1.919
-0.005	0.000	0.000	0.000	0.005	0.000	0.000	2.646	1.899	1.904	1.899	1.919	1.914	1.914
-0.005	-0.005	-0.005	0.000	-0.010	-0.005	0.000	2.666	1.895	1.895	1.899	1.919	1.909	1.914
-0.005	-0.005	-0.005	0.000	-0.005	-0.005	0.000	2.676	1.890	1.895	1.895	1.919	1.914	1.909
-0.010	-0.005	-0.005	-0.005	0.005	0.005	0.000	2.749	1.890	1.895	1.895	1.914	1.914	1.914
0.005	-0.005	0.000	-0.005	0.000	-0.005	0.000	2.651	1.890	1.890	1.895	1.914	1.909	1.909
0.000	-0.010	-0.005	-0.005	0.005	0.000	0.000	2.725	1.890	1.890	1.895	1.909	1.909	1.909
0.000	-0.005	-0.005	-0.005	0.000	0.005	0.000	2.661	1.895	1.890	1.890	1.909	1.909	1.914
0.000	-0.015	-0.005	-0.005	0.000	0.005	0.000	2.705	1.899	1.885	1.890	1.909	1.909	1.914
-0.005	-0.010	0.005	-0.005	-0.005	-0.005	0.000	2.725	1.899	1.895	1.890	1.909	1.909	1.909
-0.005	0.005	-0.005	-0.005	0.005	-0.005	0.000	2.617	1.899	1.899	1.890	1.909	1.909	1.909
-0.005	-0.005	-0.005	-0.005	-0.005	0.005	0.000	2.725	1.904	1.895	1.895	1.909	1.904	1.909
-0.005	0.000	-0.005	-0.005	0.000	-0.005	0.000	2.661	1.899	1.899	1.895	1.914	1.909	1.909
-0.005	0.029	-0.005	-0.005	0.000	-0.005	0.000	2.656	1.899	1.909	1.899	1.914	1.909	1.909
-0.005	0.029	-0.005	0.000	-0.005	-0.029	0.000	2.681	1.895	1.904	1.899	1.914	1.904	1.904
0.000	0.010	-0.005	0.000	0.005	0.005	0.000	2.642	1.895	1.899	1.899	1.914	1.914	1.914
0.000	0.010	-0.005	0.000	0.000	0.000	0.000	2.695	1.899	1.899	1.899	1.919	1.909	1.909
0.005	0.010	-0.015	0.000	0.000	-0.010	0.000	2.715	1.904	1.899	1.895	1.914	1.909	1.909
0.000	0.015	-0.005	0.000	0.000	0.000	0.000	2.676	1.899	1.899	1.899	1.914	1.909	1.914
-0.005	0.005	-0.005	0.000	0.000	-0.010	0.000	2.656	1.899	1.895	1.895	1.914	1.909	1.914
0.005	0.005	0.000	0.000	0.000	0.000	0.000	2.671	1.899	1.899	1.895	1.914	1.909	1.909
0.005	0.000	0.000	0.000	0.005	-0.005	0.000	2.671	1.899	1.895	1.895	1.914	1.909	1.909
-0.005	-0.010	0.005	-0.005	0.000	-0.010	0.000	2.671	1.895	1.890	1.895	1.909	1.904	1.904
0.000	0.000	0.000	-0.005	0.000	-0.010	0.000	2.671	1.899	1.890	1.890	1.909	1.904	1.904
-0.005	0.000	0.000	-0.005	0.000	-0.005	0.000	2.690	1.895	1.890	1.890	1.909	1.904	1.904
-0.005	-0.010	0.005	-0.005	0.000	0.000	0.000	2.671	1.895	1.890	1.890	1.909	1.904	1.909
0.005	-0.005	0.000	-0.005	-0.005	-0.015	0.000	2.686	1.899	1.895	1.890	1.909	1.904	1.904
0.000	-0.005	-0.005	-0.005	-0.005	-0.005	0.000	2.690	1.899	1.895	1.890	1.909	1.909	1.909
-0.005	-0.015	-0.005	-0.005	-0.005	0.010	0.000	2.705	1.909	1.895	1.890	1.909	1.904	1.909
-0.015	-0.005	-0.005	-0.005	0.000	0.005	0.000	2.695	1.904	1.904	1.895	1.914	1.909	1.909
-0.005	-0.024	-0.005	-0.005	-0.005	-0.005	0.000	2.690	1.909	1.895	1.895	1.914	1.904	1.909
0.005	0.000	0.000	0.000	-0.005	0.000	0.000	2.690	1.909	1.909	1.899	1.914	1.909	1.909
-0.005	0.000	-0.005	0.000	-0.010	-0.015	0.000	2.690	1.909	1.909	1.899	1.914	1.909	1.904
0.000	0.000	-0.005	0.000	-0.010	-0.015	0.000	2.695	1.909	1.909	1.904	1.919	1.909	1.904
-0.010	0.010	0.000	0.000	-0.010	0.005	0.000	2.681	1.904	1.909	1.904	1.919	1.909	1.909
-0.005	0.000	-0.005	0.000	0.000	-0.005	-0.005	2.690	1.904	1.904	1.904	1.919	1.909	1.909
-0.005	0.010	-0.005	0.000	0.005	-0.010	0.000	2.666	1.899	1.904	1.904	1.919	1.914	1.909
-0.005	-0.005	-0.005	0.000	0.000	0.000	0.000	2.671	1.895	1.899	1.899	1.914	1.914	1.914
-0.005	0.005	0.000	-0.005	0.000	0.005	0.000	2.676	1.895	1.895	1.899	1.914	1.914	1.914
0.000	0.000	0.010	0.000	0.000	0.005	-0.005	2.695	1.904	1.899	1.899	1.919	1.914	1.909
0.000	-0.005	0.000	-0.005	-0.005	0.000	0.000	2.676	1.899	1.895	1.895	1.914	1.914	1.909
0.005	-0.010	0.000	-0.005	-0.005	0.000	0.000	2.656	1.899	1.895	1.895	1.914	1.909	1.909
-0.005	-0.010	-0.005	-0.005	-0.005	0.000	0.000	2.651	1.895	1.895	1.895	1.914	1.909	1.914
0.000	0.000	0.000	-0.005	-0.005	-0.005	0.000	2.686	1.899	1.899	1.895	1.914	1.909	1.909
-0.005	-0.005	-0.005	-0.005	-0.005	-0.020	0.000	2.646	1.909	1.899	1.895	1.914	1.909	1.909
-0.005	0.005	0.000	-0.005	0.000	-0.005	0.000	2.651	1.904	1.904	1.899	1.914	1.914	1.914
0.005	-0.005	-0.005	-0.005	0.000	0.000	0.000	2.720	1.909	1.899	1.899	1.919	1.914	1.914
-0.010	0.005	-0.005	-0.005	-0.005	-0.005	0.000	2.646	1.899	1.904	1.899	1.919	1.909	1.914
-0.010	0.005	-0.005	0.000	-0.005	0.000	0.000	2.651	1.899	1.904	1.899	1.919	1.909	1.914
-0.005	0.005	-0.005	0.000	0.000	0.005	-0.005	2.725	1.895	1.899	1.899	1.919	1.914	1.914
-0.005	0.005	0.000	0.000	-0.005	-0.010	0.000	2.622	1.890	1.899	1.899	1.919	1.914	1.909
-0.010	0.005	-0.005	-0.005	0.000	0.005	0.000	2.715	1.895	1.890	1.899	1.914	1.914	1.914
-0.015	-0.005	-0.005	0.000	-0.005	-0.010	0.000	2.661	1.895	1.890	1.895	1.914	1.909	1.909
-0.015	-0.010	-0.005	0.000	-0.005	0.005	0.000	2.725	1.899	1.890	1.890	1.914	1.909	1.914
-0.010	-0.005	-0.010	0.000	-0.005	-0.005	0.000	2.671	1.899	1.895	1.890	1.909	1.909	1.909
-0.015	-0.010	-0.005	-0.005	0.000	0.005	0.000	2.627	1.899	1.895	1.890	1.909	1.909	1.909
-0.020	-0.015	-0.005	-0.005	0.000	0.000	0.000	2.671	1.899	1.890	1.890	1.909	1.909	1.909
-0.020	-0.010	0.000	-0.005	0.005	0.000	0.000	2.646	1.899	1.895	1.890	1.909	1.909	1.909
-0.015	-0.010	-0.005	-0.005	-0.005	-0.005	0.000	2.666	1.899	1.895	1.895	1.909	1.904	1.904
-0.010	-0.015	-0.005	-0.005	0.000	0.000	0.000	2.686	1.904	1.895	1.890	1.909	1.904	1.909
-0.010	-0.005	-0.005	-0.005	0.000	0.000	0.000	2.661	1.899	1.899	1.895	1.909	1.909	1.909
-0.005	-0.005	-0.005	-0.005	0.000	0.000	0.000	2.695	1.904	1.899	1.895	1.914	1.904	1.909
-0.010	0.000	0.000	-0.005	0.000	-0.010	-0.005	2.671	1.904	1.904	1.899	1.914	1.909	1.904
-0.005	-0.005	-0.005	0.000	0.000	0.005	0.000	2.686	1.904	1.904	1.899	1.914	1.909	1.909
0.000	0.005	0.000	0.000	-0.010	-0.015	0.000	2.676	1.904	1.904	1.904	1.914	1.904	1.904
-0.005	0.000	-0.005	0.000	-0.010	-0.010	0.000	2.671	1.904	1.904	1.899	1.919	1.909	1.904
0.000	-0.005	0.000	0.000	-0.005	-0.005	0.000	2.695	1.904	1.904	1.899	1.919	1.914	1.909
0.000	-0.005	-0.010	0.000	-0.005	0.005	-0.005	2.676	1.899	1.904	1.899	1.919	1.914	1.909
0.005	-0.005	-0.005	0.000	-0.005	0.000	0.000	2.666	1.904	1.899	1.899	1.914	1.914	1.914
0.005	-0.005	-0.005	0.000	0.000	-0.015	0.000	2.695	1.899	1.899	1.899	1.919	1.914	1.909
0.005	-0.005	0.000	-0.005	-0.005	-0.010	0.000	2.700	1.904	1.899	1.899	1.914	1.914	1.914
0.005	-0.005	-0.005	-0.005	-0.005	0.005	0.000	2.690	1.904	1.899	1.899	1.914	1.909	1.914
0.015	-0.020	-0.005	-0.005	-0.005	-0.005	0.000	2.681	1.899	1.895	1.895	1.914	1.909	1.909
0.005	-0.029	-0.005	0.000	-0.010	0.005	0.000	2.690	1.899	1.895	1.890	1.914	1.909	1.914
-0.005	-0.039	0.000	-0.005	-0.010	0.005	0.000	2.681	1.899	1.890	1.895	1.914	1.909	1.909
0.015	-0.029	0.005	-0.005	0.005	0.005	0.000	2.695	1.904	1.895	1.895	1.909	1.914	1.914
0.010	-0.020	0.000	-0.005	-0.005	-0.005	0.000	2.661	1.899	1.899	1.895	1.909	1.909	1.909
0.000	-0.015	-0.005	-0.005	-0.005	-0.005	0.000	2.671	1.895	1.899	1.895	1.914	1.909	1.909
0.005	-0.010	-0.005	-0.005	0.005	-0.005	0.000	2.695	1.899	1.899	1.899	1.914	1.914	1.909
0.005	0.000	-0.005	0.000	0.000	0.000	-0.005	2.695	1.904	1.904	1.899	1.914	1.914	1.914
0.000	0.000	-0.010	0.000	-0.005	-0.010	0.000	2.681	1.904	1.904	1.899	1.919	1.909	1.909
0.000	0.000	-0.010	0.000	-0.005	-0.015	0.000	2.642	1.895	1.899	1.899	1.914	1.909	1.909
0.000	0.010	-0.010	0.000	0.000	-0.005	0.000	2.646	1.895	1.904	1.899	1.919	1.914	1.909
-0.005	0.000	-0.005	0.000	-0.005	0.005	0.000	2.686	1.895	1.895	1.899	1.919	1.914	1.914
0.000	0.000	-0.005	0.000	-0.005	0.005	0.000	2.778	1.904	1.899	1.895	1.919	1.914	1.914
-0.005	0.000	0.000	0.000	-0.005	-0.015	0.000	2.646	1.904	1.899	1.899	1.914	1.914	1.909
-0.010	-0.015	0.005	0.000	-0.010	0.005	0.000	2.612	1.890	1.890	1.895	1.914	1.909	1.914
-0.010	-0.005	0.000	-0.005	0.000	-0.010	0.000	2.715	1.895	1.890	1.895	1.914	1.909	1.909
-0.010	-0.020	0.000	-0.005	0.000	0.005	0.000	2.729	1.899	1.890	1.890	1.914	1.909	1.914
-0.005	-0.005	0.000	-0.005	-0.005	0.005	0.000	2.725	1.909	1.895	1.890	1.909	1.909	1.909
0.000	-0.005	0.000	-0.005	0.000	0.005	0.000	2.607	1.895	1.899	1.895	1.909	1.909	1.909
0.005	-0.005	-0.005	-0.005	-0.005	0.010	0.000	2.739	1.909	1.899	1.895	1.909	1.909	1.909
0.005	0.000	0.000	-0.005	0.005	-0.005	0.000	2.666	1.899	1.899	1.899	1.909	1.909	1.909
0.000	-0.005	-0.005	-0.005	0.000	-0.005	0.000	2.729	1.909	1.904	1.895	1.914	1.909	1.909
-0.005	-0.010	0.000	-0.005	-0.005	0.005	0.000	2.686	1.909	1.904	1.899	1.914	1.909	1.909
-0.005	-0.005	-0.005	-0.005	-0.005	0.000	0.000	2.739	1.909	1.904	1.899	1.914	1.909	1.909
-0.010	0.000	0.000	0.000	-0.005	0.000	0.000	2.671	1.904	1.904	1.899	1.919	1.914	1.909
-0.015	0.015	-0.010	-0.005	-0.005	-0.029	0.000	2.725	1.909	1.909	1.904	1.919	1.909	1.904
-0.005	0.005	-0.005	0.000	0.000	-0.015	0.000	2.661	1.904	1.909	1.904	1.919	1.914	1.909
-0.015	0.010	-0.005	0.000	-0.010	-0.005	0.000	2.671	1.899	1.909	1.904	1.919	1.914	1.914
-0.010	0.005	-0.005	0.000	0.000	-0.010	0.000	2.671	1.899	1.899	1.904	1.919	1.914	1.914
-0.015	0.005	0.000	-0.005	-0.005	0.000	0.000	2.681	1.899	1.899	1.899	1.919	1.914	1.914
-0.005	0.005	0.000	0.000	-0.005	0.015	0.000	2.666	1.899	1.904	1.899	1.919	1.914	1.919
-0.010	0.000	-0.005	0.000	-0.005	0.010	0.000	2.656	1.899	1.895	1.899	1.919	1.914	1.919
-0.005	0.015	0.000	0.000	-0.005	0.010	0.000	2.695	1.904	1.899	1.899	1.919	1.914	1.914
-0.005	0.010	0.000	-0.005	-0.005	0.010	0.000	2.676	1.899	1.899	1.895	1.914	1.909	1.914
0.000	0.000	-0.005	0.000	-0.005	0.000	0.000	2.681	1.899	1.895	1.895	1.914	1.914	1.914
-0.005	0.010	0.000	-0.005	0.000	-0.005	0.000	2.686	1.899	1.899	1.899	1.914	1.909	1.909
0.005	0.005	0.000	-0.005	-0.005	0.000	0.000	2.686	1.909	1.899	1.895	1.914	1.909	1.909
0.000	0.000	0.000	-0.010	0.000	0.000	0.000	2.695	1.904	1.899	1.899	1.914	1.909	1.914
0.010	0.000	0.000	-0.005	0.000	0.000	0.000	2.690	1.904	1.899	1.895	1.914	1.909	1.909
0.000	-0.005	-0.005	-0.005	0.000	-0.005	0.000	2.676	1.904	1.899	1.899	1.919	1.914	1.909
0.010	-0.005	-0.005	0.000	0.000	-0.005	0.000	2.686	1.904	1.904	1.899	1.919	1.914	1.909
0.015	0.005	-0.005	0.000	0.000	0.000	0.000	2.690	1.909	1.904	1.904	1.919	1.914	1.914
0.005	0.000	0.000	-0.005	0.000	0.000	0.000	2.695	1.909	1.904	1.899	1.919	1.914	1.914
0.010	0.005	-0.005	-0.005	-0.005	-0.015	0.000	2.705	1.909	1.909	1.899	1.919	1.914	1.909
0.010	0.005	-0.005	0.000	0.000	-0.010	0.000	2.686	1.904	1.904	1.904	1.919	1.914	1.914
0.000	0.005	-0.005	0.000	0.000	-0.015	0.000	2.671	1.904	1.909	1.904	1.919	1.914	1.914
0.010	0.000	-0.005	0.000	0.000	-0.015	0.000	2.666	1.899	1.904	1.904	1.924	1.914	1.909
0.000	0.005	-0.005	0.000	0.000	0.005	-0.005	2.700	1.899	1.899	1.899	1.919	1.914	1.919
-0.005	-0.010	0.000	0.000	-0.005	0.000	0.000	2.676	1.899	1.895	1.899	1.919	1.914	1.914
-0.010	-0.005	-0.005	-0.005	0.000	0.005	0.000	2.646	1.895	1.890	1.895	1.914	1.909	1.914
-0.020	-0.015	0.000	-0.005	-0.005	0.000	0.000	2.651	1.890	1.890	1.890	1.914	1.914	1.914
-0.020	-0.005	-0.005	-0.005	-0.005	0.000	0.000	2.671	1.890	1.890	1.890	1.914	1.909	1.914
-0.015	-0.010	-0.005	-0.005	-0.005	0.005	0.000	2.778	1.904	1.895	1.890	1.909	1.909	1.909
-0.015	-0.005	0.000	-0.005	0.005	0.005	0.000	2.651	1.904	1.899	1.895	1.914	1.909	1.909
-0.015	-0.005	0.000	-0.005	0.000	0.000	0.000	2.725	1.904	1.899	1.895	1.909	1.909	1.909
-0.010	-0.010	-0.005	-0.005	0.000	-0.010	0.000	2.729	1.909	1.899	1.895	1.914	1.909	1.909
-0.020	0.005	0.000	-0.005	-0.005	-0.020	0.000	2.725	1.914	1.909	1.904	1.914	1.909	1.904
-0.024	-0.005	-0.005	-0.005	-0.005	0.000	0.000	2.637	1.909	1.904	1.899	1.919	1.909	1.914
-0.010	0.000	-0.005	0.000	0.000	0.005	0.000	2.622	1.899	1.904	1.904	1.919	1.914	1.914
-0.010	0.000	-0.005	-0.005	-0.005	-0.005	0.000	2.734	1.904	1.904	1.904	1.919	1.914	1.914
-0.010	0.000	-0.005	0.000	-0.005	0.000	0.000	2.666	1.904	1.904	1.904	1.919	1.914	1.914
0.000	-0.010	-0.005	0.000	-0.005	0.000	0.000	2.642	1.904	1.899	1.899	1.919	1.914	1.914
0.005	-0.015	0.000	0.000	-0.005	0.000	0.000	2.681	1.904	1.899	1.899	1.919	1.914	1.914
-0.005	-0.010	0.000	0.000	0.000	0.000	0.000	2.725	1.904	1.899	1.899	1.919	1.914	1.914
0.005	-0.015	0.000	0.000	-0.005	-0.020	0.000	2.666	1.904	1.899	1.895	1.919	1.914	1.909
0.000	-0.005	-0.005	-0.005	-0.005	-0.005	0.000	2.715	1.904	1.899	1.895	1.914	1.909	1.914
0.005	-0.015	0.005	0.000	-0.010	-0.005	0.000	2.656	1.904	1.899	1.895	1.914	1.909	1.909
-0.005	-0.015	0.000	-0.005	-0.010	-0.020	0.000	2.676	1.895	1.895	1.895	1.914	1.909	1.904
0.000	-0.005	0.000	-0.005	0.000	0.005	0.000	2.686	1.899	1.899	1.895	1.914	1.914	1.914
0.005	-0.010	0.000	-0.005	0.010	0.010	0.000	2.666	1.899	1.899	1.895	1.914	1.914	1.914
0.005	-0.005	0.005	-0.005	0.005	0.000	0.000	2.666	1.899	1.899	1.899	1.914	1.914	1.914
-0.005	-0.005	-0.005	-0.005	-0.005	0.000	0.000	2.681	1.899	1.899	1.895	1.914	1.909	1.914
-0.005	-0.010	-0.005	-0.005	0.000	0.005	0.000	2.690	1.904	1.895	1.895	1.914	1.909	1.909
0.005	-0.005	0.000	-0.005	0.000	-0.005	0.000	2.676	1.909	1.904	1.899	1.914	1.914	1.909
-0.005	-0.015	0.000	-0.005	-0.005	0.010	0.000	2.686	1.904	1.899	1.895	1.919	1.914	1.919
-0.005	-0.005	-0.005	0.000	-0.005	-0.005	0.000	2.695	1.909	1.904	1.899	1.919	1.909	1.909
0.000	-0.020	-0.005	0.000	-0.005	0.005	0.000	2.671	1.909	1.899	1.895	1.919	1.914	1.914
-0.010	-0.010	-0.005	0.000	0.000	0.005	0.000	2.695	1.909	1.899	1.899	1.919	1.914	1.914
-0.005	0.000	-0.005	0.000	-0.005	0.005	0.000	2.681	1.904	1.909	1.899	1.919	1.909	1.914
0.000	0.005	0.000	0.000	-0.005	-0.015	0.000	2.671	1.904	1.904	1.899	1.919	1.914	1.909
-0.010	0.010	-0.005	0.000	-0.005	0.005	0.000	2.676	1.899	1.904	1.899	1.919	1.914	1.914
0.005	0.005	0.000	-0.005	-0.005	-0.015	-0.005	2.671	1.899	1.899	1.904	1.919	1.909	1.904
-0.005	-0.005	0.000	-0.005	0.000	0.000	0.000	2.666	1.895	1.895	1.899	1.919	1.914	1.914
0.000	-0.005	0.000	-0.005	-0.005	0.010	0.000	2.681	1.899	1.895	1.895	1.914	1.909	1.914
0.000	-0.005	0.000	-0.005	-0.005	-0.024	0.000	2.686	1.899	1.895	1.895	1.914	1.909	1.904
-0.015	-0.005	0.000	-0.005	-0.005	-0.005	0.000	2.695	1.895	1.895	1.895	1.914	1.909	1.914
-0.005	-0.005	0.000	-0.005	-0.010	0.010	0.000	2.700	1.899	1.895	1.895	1.914	1.909	1.914
-0.010	-0.015	0.000	-0.005	-0.010	0.005	0.000	2.666	1.895	1.895	1.895	1.914	1.909	1.914
-0.005	-0.005	-0.005	-0.005	-0.005	0.000	0.000	2.676	1.899	1.899	1.895	1.914	1.909	1.914
0.000	0.005	0.000	-0.005	0.005	-0.005	0.000	2.651	1.899	1.899	1.899	1.914	1.914	1.909
0.005	0.015	0.000	-0.005	0.000	-0.020	0.000	2.651	1.899	1.904	1.895	1.919	1.914	1.909
-0.005	0.010	-0.005	0.000	0.000	-0.010	0.000	2.681	1.899	1.899	1.899	1.914	1.909	1.909
-0.005	0.005	-0.010	-0.005	0.010	0.005	0.000	2.749	1.895	1.899	1.895	1.914	1.914	1.914
0.000	0.000	-0.005	0.000	0.005	0.000	0.000	2.651	1.895	1.895	1.899	1.919	1.914	1.914
-0.010	0.000	-0.005	0.000	-0.005	-0.010	0.000	2.729	1.885	1.895	1.895	1.914	1.909	1.909
0.000	0.005	-0.005	0.000	-0.005	0.000	0.000	2.734	1.899	1.895	1.895	1.919	1.909	1.914
0.005	-0.005	-0.005	0.000	-0.010	-0.005	0.000	2.642	1.895	1.895	1.895	1.914	1.909	1.909
-0.010	-0.005	0.000	0.000	0.000	-0.010	0.000	2.700	1.899	1.890	1.895	1.914	1.909	1.909
0.000	-0.005	-0.005	0.000	-0.005	-0.020	0.000	2.627	1.904	1.895	1.890	1.909	1.909	1.904
-0.005	-0.015	-0.005	0.000	-0.005	0.000	0.000	2.715	1.890	1.890	1.890	1.909	1.904	1.914
-0.015	-0.010	0.000	0.000	-0.010	-0.010	0.000	2.656	1.890	1.890	1.890	1.909	1.904	1.909
-0.005	0.000	0.000	-0.005	-0.010	0.005	-0.005	2.646	1.885	1.890	1.890	1.909	1.904	1.909
-0.005	-0.010	-0.005	-0.005	-0.005	-0.010	0.000	2.676	1.895	1.885	1.890	1.909	1.904	1.909
0.000	-0.005	-0.005	-0.005	-0.005	0.000	0.000	2.617	1.890	1.890	1.885	1.904	1.904	1.909
-0.005	0.000	0.000	-0.010	0.000	-0.010	0.000	2.690	1.895	1.890	1.890	1.909	1.904	1.904
-0.005	-0.010	-0.005	-0.005	-0.005	0.000	0.000	2.715	1.899	1.890	1.890	1.909	1.904	1.904
0.000	-0.005	0.000	0.000	0.000	-0.010	0.000	2.666	1.899	1.895	1.895	1.909	1.909	1.904
-0.005	0.005	-0.005	0.000	0.000	0.000	0.000	2.666	1.899	1.904	1.895	1.909	1.904	1.909
-0.005	0.015	-0.005	0.000	0.000	0.005	0.000	2.695	1.904	1.904	1.895	1.909	1.904	1.909
-0.010	0.015	-0.005	0.000	-0.005	0.000	0.000	2.676	1.899	1.904	1.895	1.914	1.904	1.904
-0.005	0.010	-0.005	0.000	0.000	-0.005	0.000	2.676	1.899	1.899	1.895	1.914	1.909	1.904
-0.005	0.005	-0.010	0.005	-0.005	-0.015	0.000	2.666	1.899	1.899	1.895	1.914	1.904	1.909
0.005	0.000	-0.005	0.000	0.005	0.000	-0.005	2.671	1.899	1.895	1.895	1.914	1.909	1.909
0.000	0.000	0.000	0.000	0.005	0.010	0.000	2.676	1.895	1.895	1.895	1.914	1.914	1.914
0.000	-0.005	-0.005	0.000	0.005	-0.015	0.000	2.695	1.899	1.895	1.890	1.914	1.909	1.904
0.000	-0.010	0.000	0.000	0.005	0.000	0.000	2.676	1.895	1.895	1.895	1.909	1.909	1.909
0.010	-0.010	-0.005	0.000	0.010	-0.010	0.000	2.666	1.890	1.890	1.890	1.909	1.909	1.909
-0.005	-0.010	-0.005	-0.005	-0.005	0.000	0.000	2.695	1.895	1.890	1.890	1.909	1.904	1.904
0.000	-0.010	0.000	-0.005	-0.005	-0.020	0.000	2.690	1.899	1.890	1.890	1.909	1.899	1.899
0.005	-0.005	-0.005	-0.005	-0.010	-0.024	0.000	2.671	1.895	1.895	1.890	1.909	1.904	1.899
-0.005	-0.015	-0.005	-0.005	-0.005	-0.020	0.000	2.671	1.895	1.890	1.890	1.909	1.899	1.904
0.000	0.005	0.000	-0.005	-0.005	-0.020	0.000	2.686	1.899	1.895	1.895	1.909	1.904	1.904
0.005	0.000	0.000	-0.005	0.000	0.010	0.000	2.690	1.899	1.899	1.895	1.909	1.909	1.914
0.000	0.000	0.000	0.000	-0.010	0.015	0.000	2.690	1.904	1.899	1.895	1.914	1.904	1.909
-0.005	0.000	-0.005	-0.005	0.000	-0.005	0.000	2.656	1.895	1.899	1.895	1.914	1.909	1.909
-0.005	0.010	-0.005	0.000	0.000	0.010	0.000	2.671	1.895	1.899	1.895	1.914	1.909	1.914
-0.015	0.005	-0.010	0.000	0.005	-0.010	0.000	2.676	1.899	1.895	1.895	1.914	1.909	1.909
-0.010	-0.005	0.000	0.000	-0.005	-0.005	0.000	2.681	1.895	1.895	1.895	1.914	1.909	1.909
-0.010	-0.010	0.000	0.000	-0.010	-0.010	0.000	2.671	1.895	1.895	1.895	1.914	1.909	1.904
-0.005	-0.020	-0.005	0.000	-0.005	0.005	0.000	2.651	1.895	1.890	1.895	1.914	1.909	1.914
-0.010	0.000	0.000	0.000	0.000	0.005	0.000	2.646	1.890	1.895	1.890	1.914	1.909	1.914
0.000	0.005	-0.005	0.000	0.000	-0.005	0.000	2.666	1.895	1.895	1.890	1.909	1.909	1.904
-0.010	-0.005	-0.005	0.000	0.000	-0.005	0.000	2.778	1.890	1.890	1.890	1.909	1.904	1.909
0.000	-0.015	0.000	0.000	0.000	-0.015	0.000	2.646	1.890	1.885	1.885	1.909	1.904	1.904
-0.005	0.000	0.000	-0.005	-0.005	0.000	0.000	2.720	1.895	1.890	1.890	1.904	1.904	1.909
-0.010	-0.034	-0.005	-0.005	-0.005	0.005	0.000	2.739	1.904	1.880	1.885	1.904	1.904	1.904
0.000	-0.020	-0.005	-0.005	-0.005	-0.005	0.000	2.627	1.890	1.890	1.885	1.904	1.899	1.904
0.005	-0.015	-0.005	-0.005	-0.005	-0.015	0.000	2.627	1.890	1.890	1.890	1.904	1.899	1.899
-0.005	-0.010	0.000	-0.010	0.000	-0.005	0.000	2.627	1.885	1.895	1.890	1.909	1.904	1.904
0.000	-0.010	0.000	-0.005	-0.005	0.000	0.000	2.739	1.895	1.895	1.890	1.909	1.899	1.909
0.000	-0.010	-0.005	-0.005	0.000	-0.020	0.000	2.661	1.899	1.895	1.890	1.909	1.904	1.904
0.000	0.005	-0.005	0.000	-0.005	0.000	0.000	2.651	1.895	1.899	1.890	1.909	1.904	1.909
-0.005	0.015	-0.005	-0.005	-0.005	0.005	0.000	2.686	1.895	1.899	1.895	1.909	1.904	1.909
0.000	0.015	-0.005	0.000	-0.005	-0.010	0.000	2.666	1.895	1.899	1.895	1.909	1.904	1.904
0.005	0.010	-0.005	0.000	-0.010	0.000	0.000	2.656	1.895	1.899	1.895	1.909	1.904	1.909
0.000	0.015	0.000	0.000	-0.005	-0.020	0.000	2.725	1.899	1.899	1.895	1.914	1.904	1.904
0.005	0.005	0.000	0.005	-0.005	0.000	0.000	2.681	1.904	1.895	1.895	1.914	1.909	1.909
0.000	0.000	0.000	0.000	-0.005	0.005	0.000	2.671	1.899	1.895	1.890	1.909	1.904	1.904
-0.005	0.000	0.000	-0.005	-0.005	-0.005	0.000	2.666	1.895	1.890	1.890	1.909	1.904	1.904
-0.010	-0.010	-0.005	-0.005	-0.005	-0.020	0.000	2.671	1.895	1.890	1.890	1.909	1.904	1.895
-0.005	0.000	0.000	-0.005	0.000	0.000	0.000	2.666	1.890	1.890	1.890	1.904	1.904	1.909
-0.010	-0.010	-0.005	0.000	0.000	-0.020	0.000	2.666	1.890	1.890	1.890	1.909	1.904	1.899
-0.005	-0.010	0.000	-0.005	-0.005	0.005	0.000	2.695	1.895	1.890	1.890	1.904	1.904	1.909
0.005	-0.005	0.000	-0.005	0.000	-0.015	0.000	2.671	1.895	1.895	1.890	1.909	1.904	1.899
0.005	-0.005	0.000	-0.005	-0.005	0.010	0.000	2.695	1.899	1.895	1.890	1.909	1.904	1.909
-0.005	0.000	-0.005	-0.005	0.000	0.005	0.000	2.700	1.899	1.899	1.890	1.909	1.904	1.909
-0.005	-0.005	-0.005	-0.005	0.000	0.005	0.000	2.690	1.904	1.895	1.890	1.909	1.904	1.909
0.000	-0.005	-0.010	0.000	0.005	0.005	0.000	2.686	1.904	1.899	1.895	1.909	1.909	1.909
-0.005	-0.005	-0.010	0.000	0.005	0.000	0.000	2.690	1.904	1.899	1.895	1.909	1.909	1.904
-0.005	0.000	0.000	0.000	0.005	-0.010	0.000	2.676	1.899	1.904	1.899	1.914	1.909	1.909
-0.005	0.000	0.005	0.000	0.005	0.005	0.000	2.690	1.904	1.904	1.899	1.914	1.909	1.909
-0.010	0.000	0.000	0.000	0.000	0.000	0.000	2.695	1.904	1.899	1.899	1.914	1.909	1.909
-0.005	0.005	0.000	0.000	-0.005	-0.005	0.000	2.671	1.899	1.899	1.899	1.914	1.904	1.904
-0.005	0.005	-0.005	0.000	-0.010	0.000	0.000	2.690	1.899	1.899	1.895	1.914	1.904	1.909
-0.005	-0.015	-0.005	0.000	-0.010	0.000	0.000	2.686	1.895	1.895	1.895	1.914	1.909	1.909
0.005	-0.005	-0.005	0.000	-0.010	-0.005	0.000	2.666	1.895	1.895	1.890	1.909	1.909	1.904
-0.005	-0.015	-0.005	-0.005	-0.005	-0.010	0.000	2.661	1.895	1.890	1.890	1.914	1.909	1.909
0.005	-0.005	0.000	-0.005	-0.005	0.005	0.000	2.700	1.895	1.895	1.890	1.914	1.909	1.909
-0.005	-0.005	0.000	-0.005	-0.005	0.005	0.000	2.681	1.890	1.890	1.890	1.909	1.904	1.909
0.000	0.000	0.000	-0.010	0.000	0.000	0.000	2.651	1.895	1.895	1.890	1.909	1.904	1.909
-0.010	-0.015	-0.005	-0.005	-0.005	0.005	0.000	2.651	1.890	1.890	1.890	1.909	1.909	1.909
-0.005	-0.010	-0.005	-0.005	-0.005	0.000	0.000	2.681	1.890	1.890	1.890	1.909	1.904	1.904
-0.005	-0.015	-0.005	-0.005	0.005	-0.005	0.000	2.773	1.904	1.890	1.890	1.909	1.909	1.904
-0.005	-0.005	-0.005	-0.005	0.000	-0.010	0.000	2.651	1.899	1.895	1.895	1.909	1.904	1.904
-0.005	0.005	-0.005	0.000	0.000	0.005	0.000	2.627	1.899	1.899	1.890	1.914	1.909	1.909
0.000	0.005	-0.005	0.000	0.000	0.000	0.000	2.715	1.904	1.899	1.895	1.914	1.909	1.909
0.010	0.000	-0.010	0.000	0.000	-0.020	0.000	2.622	1.909	1.899	1.895	1.914	1.909	1.904
-0.005	0.015	-0.010	0.000	-0.005	0.000	0.000	2.627	1.895	1.904	1.899	1.914	1.909	1.909
0.000	-0.005	0.000	0.000	-0.010	0.010	-0.005	2.632	1.899	1.895	1.895	1.914	1.909	1.909
-0.005	-0.015	-0.005	0.000	-0.005	0.005	0.000	2.734	1.895	1.895	1.890	1.914	1.909	1.909
0.000	-0.005	-0.005	0.000	-0.005	-0.005	0.000	2.666	1.899	1.895	1.895	1.914	1.909	1.909
-0.005	-0.010	-0.005	0.000	-0.005	0.000	0.000	2.646	1.895	1.895	1.890	1.909	1.909	1.909
0.005	-0.005	-0.010	0.000	-0.005	0.000	0.000	2.681	1.895	1.890	1.890	1.909	1.904	1.909
-0.005	0.000	-0.005	0.000	-0.005	-0.015	0.000	2.617	1.885	1.895	1.895	1.909	1.904	1.899
-0.010	-0.005	0.000	-0.005	-0.005	-0.020	0.000	2.690	1.890	1.890	1.890	1.909	1.904	1.899
-0.005	-0.005	0.000	-0.005	0.000	0.010	0.000	2.705	1.890	1.890	1.890	1.909	1.904	1.914
-0.010	-0.005	0.000	-0.005	0.000	-0.010	0.000	2.676	1.895	1.890	1.890	1.909	1.904	1.904
-0.005	-0.005	-0.005	-0.005	0.000	-0.020	0.000	2.695	1.895	1.895	1.890	1.909	1.904	1.899
-0.010	0.000	-0.005	-0.005	0.000	-0.005	0.000	2.690	1.899	1.895	1.890	1.909	1.904	1.909
0.000	0.000	-0.005	-0.005	-0.005	0.010	0.000	2.681	1.904	1.899	1.890	1.909	1.904	1.909
-0.010	0.005	0.000	-0.005	0.000	-0.015	0.000	2.676	1.899	1.899	1.895	1.909	1.904	1.909
0.005	0.005	-0.005	-0.005	-0.010	0.000	-0.005	2.666	1.899	1.899	1.895	1.909	1.904	1.909
-0.005	0.005	-0.005	0.000	-0.005	0.000	0.000	2.690	1.899	1.899	1.895	1.909	1.909	1.909
-0.005	0.000	-0.005	0.000	-0.005	-0.015	0.000	2.671	1.899	1.899	1.895	1.914	1.909	1.904
-0.010	0.000	0.000	0.000	-0.005	0.005	0.000	2.690	1.899	1.899	1.895	1.914	1.909	1.909
-0.005	0.005	-0.005	0.000	-0.005	-0.015	0.000	2.705	1.904	1.895	1.895	1.914	1.909	1.904
-0.005	-0.005	0.000	-0.005	0.005	-0.005	0.000	2.671	1.899	1.895	1.895	1.914	1.909	1.914
0.005	0.000	0.000	0.000	-0.005	0.000	0.000	2.681	1.899	1.899	1.899	1.914	1.909	1.909
-0.010	0.000	-0.005	0.000	-0.005	0.000	0.000	2.686	1.895	1.895	1.895	1.914	1.909	1.909
-0.005	-0.015	-0.005	0.000	-0.005	-0.020	0.000	2.666	1.890	1.885	1.890	1.909	1.904	1.899
-0.010	-0.020	-0.005	0.000	-0.005	0.000	0.000	2.666	1.895	1.885	1.890	1.909	1.909	1.909
0.000	-0.024	0.000	-0.005	-0.005	0.010	0.000	2.700	1.899	1.890	1.885	1.909	1.904	1.909
0.000	-0.020	-0.010	-0.005	0.000	-0.005	0.000	2.671	1.895	1.890	1.890	1.909	1.904	1.904
-0.005	-0.015	-0.005	-0.005	0.000	0.010	0.000	2.690	1.899	1.895	1.890	1.909	1.904	1.909
-0.005	-0.005	-0.005	-0.005	0.000	-0.010	0.000	2.690	1.899	1.899	1.890	1.909	1.904	1.904
0.000	-0.010	-0.005	-0.005	0.000	-0.005	0.000	2.671	1.899	1.899	1.890	1.909	1.904	1.904
0.000	-0.010	-0.005	-0.005	0.000	0.005	0.000	2.671	1.899	1.899	1.895	1.914	1.909	1.904
-0.005	-0.010	-0.005	0.000	-0.005	0.005	0.000	2.695	1.904	1.899	1.895	1.914	1.909	1.909
-0.005	0.005	-0.005	0.000	-0.005	0.000	0.000	2.686	1.899	1.899	1.895	1.914	1.909	1.909
0.005	0.020	-0.010	-0.005	-0.005	-0.005	0.000	2.651	1.899	1.909	1.899	1.914	1.909	1.904
-0.010	0.015	-0.005	0.000	-0.005	-0.015	0.000	2.651	1.895	1.904	1.899	1.914	1.909	1.904
-0.005	0.015	-0.005	0.000	-0.015	-0.010	0.000	2.690	1.899	1.899	1.899	1.919	1.904	1.909
0.000	0.010	-0.005	0.000	-0.010	0.005	0.000	2.637	1.909	1.899	1.899	1.919	1.909	1.914
-0.005	0.015	-0.005	0.000	-0.005	-0.015	-0.005	2.651	1.904	1.899	1.899	1.919	1.909	1.904
-0.005	0.010	-0.005	0.000	0.000	-0.005	0.000	2.617	1.890	1.895	1.895	1.914	1.914	1.914
0.000	0.000	-0.005	0.000	0.010	-0.005	0.000	2.632	1.885	1.890	1.895	1.914	1.914	1.909
-0.005	0.000	-0.005	0.000	-0.005	-0.005	0.000	2.637	1.885	1.885	1.890	1.914	1.909	1.909
-0.005	0.000	-0.005	-0.005	0.000	0.005	0.000	2.632	1.885	1.880	1.890	1.909	1.909	1.914
-0.010	-0.024	-0.005	-0.005	0.000	0.005	0.000	2.612	1.875	1.875	1.885	1.904	1.909	1.914
-0.005	-0.024	0.000	-0.005	0.000	0.000	0.000	2.720	1.890	1.875	1.885	1.904	1.904	1.909
-0.005	-0.020	0.005	-0.005	0.000	0.005	0.000	2.646	1.890	1.885	1.885	1.904	1.904	1.904
0.000	-0.020	0.000	-0.005	0.000	0.005	0.000	2.749	1.904	1.885	1.885	1.904	1.904	1.909
0.000	-0.015	-0.005	-0.005	-0.005	0.005	0.000	2.666	1.899	1.895	1.885	1.904	1.904	1.904
0.010	-0.005	-0.005	-0.005	-0.005	0.000	0.000	2.617	1.899	1.899	1.890	1.904	1.904	1.904
0.005	-0.010	-0.005	0.000	-0.005	0.000	0.000	2.666	1.899	1.899	1.890	1.909	1.904	1.904
0.000	0.000	-0.005	0.000	-0.005	-0.029	0.000	2.651	1.904	1.904	1.895	1.909	1.899	1.895
0.000	-0.005	0.000	0.000	-0.005	0.005	0.000	2.681	1.899	1.899	1.895	1.909	1.904	1.909
0.000	0.005	0.000	0.000	0.000	-0.005	0.000	2.686	1.899	1.899	1.895	1.909	1.904	1.904
0.005	0.005	0.005	0.000	0.000	-0.010	0.000	2.676	1.904	1.904	1.899	1.914	1.909	1.904
-0.010	0.000	0.000	0.000	0.000	0.005	0.000	2.690	1.895	1.899	1.895	1.909	1.909	1.909
-0.005	0.010	-0.005	0.000	-0.005	-0.024	0.000	2.666	1.899	1.899	1.895	1.914	1.904	1.904
0.000	0.015	-0.005	0.000	-0.005	0.000	0.000	2.671	1.895	1.899	1.895	1.914	1.904	1.909
-0.010	0.020	0.000	-0.005	-0.005	-0.024	0.000	2.676	1.890	1.899	1.895	1.914	1.904	1.899
-0.005	0.005	0.000	0.000	-0.005	0.000	0.000	2.676	1.895	1.895	1.895	1.909	1.909	1.909
0.000	0.000	-0.005	-0.005	0.000	-0.005	0.000	2.666	1.895	1.890	1.895	1.909	1.909	1.909
-0.005	0.000	0.000	-0.005	-0.005	-0.005	0.000	2.676	1.895	1.890	1.890	1.909	1.904	1.904
-0.010	0.000	0.000	-0.005	0.000	-0.005	0.000	2.681	1.895	1.890	1.890	1.909	1.909	1.904
0.000	-0.005	0.005	-0.010	0.000	0.000	0.000	2.695	1.899	1.895	1.890	1.909	1.904	1.909
-0.005	-0.010	0.000	-0.005	-0.005	-0.005	0.000	2.681	1.899	1.895	1.890	1.909	1.909	1.909
-0.005	-0.010	0.000	-0.005	-0.005	0.000	0.000	2.695	1.899	1.895	1.890	1.909	1.904	1.909
0.000	-0.010	-0.005	-0.005	-0.005	-0.020	0.000	2.690	1.904	1.895	1.895	1.909	1.909	1.904
-0.005	-0.005	-0.005	-0.005	-0.005	-0.005	0.000	2.690	1.904	1.899	1.895	1.909	1.904	1.909
0.000	-0.005	0.000	-0.005	-0.005	-0.015	-0.005	2.700	1.909	1.904	1.895	1.914	1.909	1.909
0.000	0.000	0.000	0.000	-0.005	0.000	0.000	2.700	1.909	1.904	1.899	1.914	1.909	1.909
-0.005	-0.020	-0.005	0.000	-0.005	0.000	0.000	2.671	1.899	1.899	1.895	1.914	1.909	1.909
-0.005	-0.010	-0.005	0.000	0.000	0.005	0.000	2.666	1.899	1.899	1.899	1.914	1.909	1.914
0.000	0.005	0.000	0.000	-0.005	0.000	0.000	2.695	1.899	1.904	1.899	1.914	1.909	1.909
0.010	-0.015	-0.005	0.000	-0.005	-0.020	0.000	2.690	1.899	1.899	1.899	1.914	1.909	1.904
0.000	-0.005	-0.005	0.000	0.000	-0.005	0.000	2.676	1.895	1.895	1.895	1.914	1.909	1.909
0.010	-0.015	0.000	-0.005	0.000	0.005	0.000	2.646	1.890	1.890	1.895	1.914	1.909	1.909
-0.010	-0.005	0.000	0.000	-0.005	0.005	0.000	2.646	1.885	1.890	1.890	1.914	1.904	1.909
0.000	0.000	-0.005	-0.005	0.000	0.000	0.000	2.671	1.890	1.890	1.890	1.909	1.909	1.909
-0.005	-0.010	0.000	-0.005	-0.005	-0.005	0.000	2.778	1.899	1.890	1.890	1.909	1.904	1.909
0.000	0.000	-0.005	-0.005	-0.005	0.000	0.000	2.651	1.899	1.895	1.890	1.909	1.904	1.909
0.000	-0.005	-0.010	-0.005	-0.005	-0.020	0.000	2.725	1.909	1.899	1.890	1.909	1.904	1.899
0.000	0.015	0.000	-0.005	-0.005	0.000	0.000	2.744	1.914	1.909	1.899	1.909	1.909	1.909
0.000	0.000	0.000	-0.005	-0.005	0.000	0.000	2.720	1.914	1.904	1.899	1.914	1.909	1.909
-0.005	0.010	-0.005	0.000	0.000	-0.005	0.000	2.632	1.904	1.904	1.904	1.919	1.909	1.909
-0.005	0.005	-0.005	0.000	-0.005	-0.015	0.000	2.632	1.895	1.904	1.904	1.919	1.909	1.909
-0.005	0.010	-0.005	0.000	-0.005	0.000	0.000	2.739	1.904	1.904	1.904	1.919	1.914	1.914
-0.005	0.020	-0.005	0.000	0.000	-0.005	0.000	2.651	1.899	1.909	1.904	1.924	1.914	1.914
-0.005	0.020	0.000	-0.005	0.000	-0.010	0.000	2.720	1.904	1.904	1.904	1.924	1.909	1.914
-0.010	0.005	-0.010	0.000	-0.005	0.000	0.000	2.651	1.899	1.899	1.899	1.919	1.914	1.914
0.000	-0.005	-0.010	0.000	-0.005	-0.015	0.000	2.725	1.904	1.895	1.899	1.924	1.914	1.909
0.005	-0.015	-0.010	0.000	0.000	0.010	0.000	2.661	1.899	1.895	1.895	1.919	1.914	1.919
-0.005	-0.010	-0.005	0.000	-0.005	0.005	0.000	2.710	1.904	1.895	1.895	1.914	1.914	1.914
-0.005	-0.020	-0.005	-0.005	0.000	-0.005	0.000	2.676	1.899	1.890	1.895	1.914	1.914	1.909
0.000	-0.020	-0.005	-0.005	0.000	-0.005	0.000	2.695	1.904	1.895	1.890	1.914	1.909	1.909
0.005	0.005	0.000	-0.005	-0.005	-0.005	0.000	2.690	1.909	1.904	1.899	1.909	1.909	1.914
0.000	0.005	-0.005	-0.005	-0.010	0.000	0.000	2.676	1.899	1.904	1.899	1.914	1.909	1.909
-0.005	0.000	-0.010	-0.005	-0.005	0.000	0.000	2.671	1.895	1.899	1.899	1.914	1.904	1.909
-0.015	0.005	0.000	-0.005	-0.005	-0.010	-0.005	2.666	1.890	1.899	1.899	1.914	1.909	1.909
0.000	-0.015	-0.005	-0.005	-0.005	0.005	0.000	2.690	1.899	1.895	1.895	1.914	1.909	1.909
-0.005	-0.015	-0.005	0.000	0.000	-0.015	0.000	2.666	1.899	1.895	1.899	1.914	1.909	1.909
-0.005	-0.010	-0.005	0.000	0.000	0.000	-0.005	2.695	1.899	1.890	1.895	1.919	1.909	1.909
-0.005	-0.015	-0.005	0.000	0.000	0.000	0.000	2.705	1.904	1.899	1.895	1.914	1.914	1.914
-0.005	-0.005	-0.005	0.000	0.000	0.005	0.000	2.686	1.904	1.904	1.899	1.919	1.914	1.914
0.005	0.010	0.000	0.000	0.000	-0.015	0.000	2.705	1.909	1.904	1.904	1.919	1.914	1.909
-0.010	0.010	-0.005	0.000	0.000	-0.005	0.000	2.695	1.904	1.904	1.899	1.919	1.909	1.909
0.000	0.000	-0.005	0.000	-0.005	0.005	0.000	2.671	1.904	1.899	1.899	1.919	1.914	1.914
-0.005	0.000	-0.005	0.000	-0.005	-0.005	0.000	2.686	1.904	1.904	1.899	1.919	1.909	1.909
0.000	-0.010	0.000	0.000	-0.005	0.005	0.000	2.651	1.895	1.899	1.899	1.914	1.909	1.914
-0.010	-0.005	0.000	-0.005	0.000	0.000	0.000	2.671	1.895	1.895	1.899	1.919	1.909	1.909
-0.005	0.000	0.000	-0.005	0.000	0.000	0.000	2.695	1.899	1.899	1.895	1.914	1.909	1.909
-0.005	-0.015	0.000	0.000	-0.005	-0.020	0.000	2.686	1.895	1.895	1.895	1.914	1.909	1.904
-0.005	-0.005	-0.005	-0.005	0.000	-0.005	0.000	2.671	1.899	1.895	1.895	1.914	1.909	1.914
-0.005	-0.005	0.000	-0.010	-0.005	0.010	0.000	2.676	1.899	1.899	1.895	1.914	1.909	1.914
0.000	-0.010	0.000	-0.005	-0.005	0.005	0.000	2.700	1.899	1.899	1.895	1.914	1.909	1.914
0.000	-0.005	0.000	-0.005	0.000	0.005	0.000	2.681	1.899	1.899	1.895	1.914	1.909	1.914
0.000	-0.005	-0.005	-0.005	0.000	0.010	0.000	2.651	1.899	1.899	1.895	1.914	1.909	1.914
0.005	0.000	-0.005	-0.005	-0.005	-0.020	0.000	2.651	1.899	1.899	1.895	1.914	1.909	1.904
-0.005	0.005	-0.005	0.000	-0.005	0.005	0.000	2.681	1.895	1.899	1.899	1.914	1.909	1.909
0.005	0.015	0.000	-0.005	-0.005	-0.010	0.000	2.793	1.914	1.904	1.899	1.914	1.909	1.909
0.000	0.010	-0.005	0.000	-0.005	0.005	-0.005	2.651	1.904	1.904	1.899	1.919	1.909	1.914
-0.010	0.000	-0.010	0.000	0.000	-0.005	0.000	2.627	1.895	1.899	1.895	1.914	1.909	1.909
0.000	0.000	-0.005	0.000	0.000	-0.005	0.000	2.739	1.909	1.899	1.899	1.914	1.909	1.914
-0.010	0.015	-0.005	0.000	0.000	0.000	0.000	2.617	1.899	1.904	1.899	1.919	1.909	1.909
0.000	-0.015	-0.005	0.000	0.000	-0.005	0.000	2.632	1.895	1.890	1.895	1.914	1.909	1.909
0.000	-0.020	0.000	0.000	0.000	0.000	0.000	2.612	1.885	1.890	1.895	1.914	1.909	1.909
-0.010	-0.005	-0.005	-0.005	-0.010	0.005	-0.005	2.744	1.895	1.890	1.890	1.909	1.904	1.909
-0.005	0.005	0.000	-0.005	0.000	-0.020	0.000	2.666	1.895	1.895	1.890	1.909	1.909	1.904
-0.005	-0.015	0.000	-0.005	-0.005	0.005	0.000	2.651	1.890	1.885	1.890	1.909	1.909	1.909
0.005	-0.024	0.000	-0.005	0.000	0.000	0.000	2.651	1.895	1.890	1.890	1.909	1.909	1.909
-0.005	-0.020	0.000	-0.005	0.000	-0.015	0.000	2.725	1.899	1.890	1.890	1.909	1.909	1.909
-0.005	-0.015	0.000	-0.005	-0.005	-0.010	-0.005	2.686	1.899	1.895	1.890	1.909	1.904	1.904
0.000	-0.015	-0.005	-0.005	-0.005	0.005	0.000	2.720	1.904	1.899	1.890	1.909	1.909	1.909
-0.005	-0.005	0.005	-0.005	0.005	0.005	0.000	2.681	1.904	1.899	1.895	1.909	1.909	1.909
-0.010	0.020	-0.005	-0.005	-0.005	0.005	0.000	2.676	1.904	1.914	1.899	1.914	1.909	1.909
-0.015	0.029	-0.005	-0.005	-0.005	-0.010	0.000	2.681	1.899	1.909	1.899	1.914	1.909	1.909
-0.010	0.005	-0.005	0.000	-0.005	0.005	0.000	2.676	1.899	1.899	1.899	1.914	1.909	1.909
-0.015	0.000	-0.005	0.000	-0.005	-0.005	0.000	2.666	1.895	1.899	1.899	1.919	1.909	1.909
-0.015	0.015	-0.005	0.000	0.000	0.005	0.000	2.686	1.904	1.899	1.899	1.919	1.909	1.909
-0.005	0.015	-0.010	-0.005	-0.005	0.000	-0.005	2.676	1.899	1.904	1.899	1.919	1.909	1.909
0.000	0.015	0.000	0.000	0.000	0.005	0.000	2.676	1.904	1.904	1.899	1.919	1.914	1.909
-0.015	-0.015	-0.005	0.000	-0.005	0.000	0.000	2.686	1.899	1.890	1.895	1.914	1.909	1.909
0.000	-0.010	0.000	0.000	0.000	-0.005	0.000	2.695	1.904	1.895	1.895	1.914	1.914	1.909
-0.005	-0.010	0.000	0.000	-0.005	-0.015	0.000	2.681	1.899	1.895	1.895	1.914	1.909	1.909
-0.005	-0.020	0.000	-0.005	-0.005	0.005	0.000	2.690	1.899	1.895	1.890	1.909	1.909	1.909
0.000	-0.015	0.000	-0.005	-0.005	0.000	0.000	2.695	1.899	1.895	1.890	1.909	1.909	1.909
0.000	-0.005	0.000	-0.005	0.005	-0.029	0.000	2.686	1.904	1.899	1.895	1.909	1.909	1.904
