-0.005	0.010	-0.005	0.010	0.000	0.000	0.034	1.772	1.709	1.357	1.255	1.196	1.206	1.196
-0.005	0.000	-0.005	0.010	0.000	-0.020	0.029	1.777	1.558	1.416	1.299	1.230	1.206	1.196
-0.020	0.000	-0.005	0.000	-0.005	0.010	0.034	1.787	1.450	1.426	1.333	1.260	1.221	1.211
-0.005	-0.005	0.000	-0.005	-0.005	0.010	0.029	1.821	1.377	1.411	1.357	1.289	1.240	1.216
0.010	-0.010	0.000	-0.005	-0.005	0.005	0.029	1.719	1.318	1.392	1.367	1.313	1.260	1.226
0.015	-0.015	-0.005	0.000	0.005	0.000	0.034	1.807	1.279	1.357	1.367	1.338	1.279	1.240
0.015	-0.010	0.000	-0.005	0.000	0.000	0.034	1.797	1.250	1.328	1.357	1.348	1.294	1.250
0.010	-0.024	0.000	-0.005	-0.005	0.000	0.029	1.787	1.235	1.299	1.343	1.353	1.309	1.265
0.015	-0.020	0.000	0.000	-0.005	-0.020	0.034	1.758	1.221	1.279	1.323	1.348	1.318	1.270
0.010	-0.010	0.000	-0.005	0.000	-0.010	0.029	1.787	1.211	1.260	1.309	1.343	1.323	1.289
0.010	-0.015	0.000	0.000	0.000	-0.005	0.034	1.782	1.206	1.245	1.289	1.333	1.328	1.299
-0.005	0.000	0.000	0.000	-0.005	0.000	0.034	1.733	1.196	1.235	1.274	1.323	1.323	1.309
-0.015	-0.010	-0.005	0.000	0.005	-0.034	0.034	1.797	1.196	1.216	1.260	1.313	1.318	1.304
-0.005	-0.015	-0.010	-0.005	0.005	-0.005	0.034	1.768	1.196	1.211	1.245	1.299	1.313	1.313
-0.010	0.015	-0.005	-0.005	0.000	0.005	0.029	1.821	1.206	1.221	1.235	1.284	1.309	1.313
-0.005	0.010	-0.010	0.005	0.005	0.005	0.029	1.763	1.201	1.216	1.235	1.274	1.299	1.309
0.000	0.005	-0.010	0.005	0.005	0.010	0.029	1.797	1.211	1.211	1.230	1.270	1.289	1.304
0.005	0.015	-0.005	0.010	0.010	0.000	0.029	1.787	1.206	1.211	1.226	1.265	1.279	1.294
-0.015	0.005	-0.005	0.000	0.000	0.005	0.034	1.753	1.201	1.206	1.221	1.255	1.270	1.289
-0.010	0.000	0.000	0.000	-0.005	0.005	0.029	1.787	1.206	1.206	1.216	1.245	1.265	1.284
0.000	-0.005	-0.005	-0.005	-0.005	-0.010	0.034	1.782	1.206	1.201	1.211	1.245	1.255	1.270
0.000	-0.010	0.000	0.000	0.000	0.005	0.034	1.768	1.201	1.201	1.211	1.240	1.250	1.270
-0.005	-0.015	0.000	-0.005	-0.005	0.000	0.034	1.782	1.201	1.201	1.206	1.235	1.245	1.255
0.005	-0.005	0.000	-0.005	0.000	-0.005	0.029	1.792	1.206	1.201	1.206	1.230	1.240	1.245
0.015	-0.020	0.005	-0.005	-0.005	0.000	0.034	1.807	1.206	1.201	1.201	1.226	1.235	1.245
-0.005	-0.005	0.000	0.005	-0.005	-0.029	0.029	1.753	1.196	1.201	1.201	1.226	1.230	1.235
0.010	-0.005	0.015	0.000	0.000	0.000	0.029	1.772	1.196	1.201	1.201	1.226	1.230	1.240
-0.005	-0.005	0.005	-0.005	0.005	0.005	0.029	1.777	1.191	1.196	1.201	1.226	1.230	1.235
0.000	0.000	0.005	0.000	-0.005	0.000	0.029	1.792	1.191	1.191	1.201	1.221	1.221	1.230
-0.005	-0.005	0.000	0.000	-0.005	-0.005	0.029	1.758	1.187	1.191	1.196	1.221	1.221	1.226
-0.010	0.010	0.000	0.005	0.000	0.000	0.029	1.792	1.187	1.191	1.196	1.216	1.216	1.226
-0.010	0.015	-0.005	0.000	0.005	0.005	0.029	1.772	1.182	1.191	1.191	1.216	1.216	1.221
-0.020	0.015	-0.005	0.005	0.005	0.005	0.029	1.797	1.182	1.187	1.191	1.216	1.216	1.221
-0.010	0.020	-0.005	0.005	0.000	0.000	0.034	1.753	1.182	1.187	1.191	1.211	1.211	1.221
-0.020	0.010	-0.005	0.000	-0.005	-0.005	0.034	1.777	1.177	1.182	1.187	1.211	1.211	1.211
-0.005	0.010	0.000	0.010	0.000	-0.005	0.034	1.792	1.187	1.182	1.187	1.211	1.211	1.211
0.005	0.005	0.000	0.005	0.000	0.005	0.029	1.792	1.187	1.182	1.187	1.211	1.211	1.211
0.000	-0.005	0.005	0.000	0.000	0.005	0.034	1.748	1.177	1.177	1.187	1.206	1.206	1.211
0.005	0.010	-0.005	0.000	0.000	0.005	0.029	1.807	1.182	1.182	1.182	1.206	1.206	1.206
0.010	-0.010	0.000	0.000	0.000	0.010	0.034	1.797	1.177	1.177	1.177	1.201	1.206	1.206
0.020	-0.020	0.000	0.000	-0.010	0.000	0.029	1.729	1.172	1.172	1.177	1.196	1.196	1.201
0.000	-0.010	0.005	-0.005	-0.010	0.015	0.029	1.802	1.167	1.172	1.177	1.196	1.196	1.201
0.015	-0.005	0.010	0.000	-0.005	0.010	0.029	1.777	1.177	1.172	1.177	1.196	1.196	1.196
0.010	-0.005	0.005	0.000	0.000	0.005	0.029	1.768	1.162	1.172	1.177	1.191	1.191	1.196
0.010	-0.005	0.005	-0.010	0.000	0.000	0.034	1.777	1.162	1.167	1.172	1.191	1.191	1.191
0.000	0.005	0.005	-0.005	0.005	0.000	0.029	1.802	1.162	1.167	1.172	1.191	1.191	1.191
0.005	0.015	-0.005	-0.005	0.005	-0.005	0.034	1.763	1.167	1.172	1.172	1.191	1.191	1.191
-0.005	0.005	-0.005	-0.005	-0.005	-0.005	0.029	1.787	1.162	1.167	1.167	1.191	1.187	1.187
-0.010	0.010	-0.005	-0.005	-0.005	-0.005	0.029	1.753	1.157	1.162	1.167	1.187	1.182	1.187
-0.020	0.020	-0.005	0.000	0.000	-0.005	0.029	1.787	1.157	1.162	1.167	1.187	1.187	1.187
-0.015	0.015	0.000	-0.005	0.000	-0.020	0.029	1.797	1.157	1.162	1.167	1.187	1.187	1.182
-0.010	0.015	-0.005	0.000	0.000	0.000	0.034	1.792	1.162	1.162	1.162	1.182	1.187	1.187
-0.005	0.005	-0.010	-0.005	-0.005	-0.020	0.029	1.797	1.162	1.157	1.162	1.182	1.177	1.177
-0.005	0.010	-0.005	-0.005	-0.005	-0.010	0.029	1.797	1.162	1.162	1.157	1.182	1.182	1.182
-0.005	0.010	0.000	-0.010	0.000	-0.010	0.029	1.797	1.157	1.157	1.162	1.182	1.182	1.177
0.005	-0.020	0.000	-0.005	-0.005	0.015	0.034	1.748	1.152	1.152	1.157	1.177	1.177	1.182
0.010	-0.015	0.000	-0.010	0.010	0.020	0.034	1.787	1.152	1.152	1.157	1.177	1.182	1.187
0.005	-0.024	0.000	-0.010	0.015	0.015	0.029	1.807	1.157	1.147	1.152	1.177	1.177	1.182
0.015	-0.015	0.000	-0.010	0.015	0.020	0.034	1.797	1.152	1.152	1.152	1.172	1.177	1.177
0.015	-0.020	0.005	-0.010	0.005	0.015	0.034	1.709	1.143	1.147	1.152	1.172	1.167	1.177
0.010	-0.015	0.010	-0.010	-0.005	0.015	0.029	1.792	1.147	1.147	1.152	1.172	1.167	1.172
0.005	-0.010	0.010	-0.005	-0.005	0.010	0.029	1.748	1.143	1.147	1.152	1.172	1.167	1.167
0.005	-0.005	0.005	-0.005	-0.010	0.000	0.029	1.797	1.143	1.143	1.152	1.172	1.167	1.167
0.005	0.005	0.000	0.000	-0.015	0.005	0.029	1.768	1.143	1.147	1.147	1.172	1.167	1.167
-0.005	0.015	0.000	0.000	-0.005	0.000	0.029	1.758	1.133	1.143	1.147	1.172	1.167	1.162
-0.005	0.015	-0.005	0.000	0.000	-0.010	0.029	1.782	1.138	1.143	1.143	1.167	1.167	1.162
-0.024	0.010	-0.005	0.000	0.000	0.000	0.029	1.797	1.138	1.138	1.143	1.167	1.167	1.167
-0.010	0.010	-0.005	0.005	0.005	-0.010	0.029	1.772	1.143	1.138	1.138	1.167	1.167	1.157
-0.005	0.010	-0.005	0.005	0.000	-0.015	0.029	1.768	1.138	1.138	1.138	1.162	1.162	1.157
-0.020	-0.005	-0.005	0.005	0.005	-0.020	0.029	1.772	1.133	1.133	1.138	1.162	1.162	1.162
-0.010	0.000	-0.005	0.000	0.015	0.000	0.029	1.802	1.138	1.128	1.138	1.162	1.162	1.167
0.005	-0.005	-0.005	0.000	0.015	-0.020	0.029	1.772	1.143	1.138	1.133	1.157	1.162	1.157
0.005	-0.010	0.000	0.000	0.015	-0.005	0.034	1.753	1.138	1.133	1.138	1.157	1.157	1.162
0.000	-0.015	0.000	0.000	0.005	-0.010	0.029	1.802	1.143	1.128	1.133	1.152	1.152	1.152
0.015	-0.010	0.005	0.005	0.010	-0.005	0.029	1.797	1.143	1.133	1.138	1.152	1.152	1.152
0.005	-0.020	0.000	0.005	0.015	-0.010	0.034	1.787	1.138	1.133	1.133	1.152	1.152	1.152
0.000	-0.015	-0.005	0.005	0.015	-0.024	0.029	1.797	1.138	1.133	1.133	1.152	1.147	1.147
0.000	-0.010	0.005	0.005	0.020	-0.024	0.029	1.802	1.138	1.133	1.133	1.152	1.152	1.152
-0.010	-0.005	-0.005	0.010	0.015	-0.005	0.034	1.763	1.133	1.133	1.133	1.152	1.147	1.152
-0.010	0.000	0.005	0.010	0.005	-0.005	0.034	1.719	1.128	1.138	1.133	1.152	1.147	1.152
-0.005	0.005	-0.005	0.010	0.000	0.000	0.034	1.753	1.123	1.133	1.133	1.152	1.147	1.147
-0.005	0.015	-0.005	0.015	-0.005	-0.005	0.034	1.792	1.128	1.133	1.133	1.152	1.143	1.147
-0.010	0.000	-0.005	0.010	-0.005	-0.005	0.034	1.797	1.123	1.128	1.128	1.152	1.143	1.147
-0.010	0.015	-0.005	0.015	-0.015	0.010	0.034	1.753	1.128	1.133	1.128	1.147	1.143	1.147
-0.010	0.015	-0.005	0.010	-0.024	0.010	0.029	1.797	1.123	1.128	1.133	1.147	1.143	1.147
-0.010	0.020	-0.005	0.015	-0.029	0.010	0.029	1.797	1.128	1.133	1.133	1.152	1.143	1.143
-0.010	0.015	0.000	0.010	-0.015	0.015	0.029	1.758	1.128	1.128	1.128	1.152	1.147	1.143
0.010	-0.005	0.000	0.010	-0.015	-0.010	0.029	1.738	1.123	1.118	1.128	1.147	1.147	1.143
0.005	-0.005	0.000	0.000	-0.005	0.005	0.029	1.797	1.123	1.118	1.123	1.147	1.147	1.143
-0.005	-0.010	0.005	0.000	-0.010	-0.005	0.029	1.807	1.118	1.118	1.123	1.147	1.143	1.138
0.010	-0.015	0.010	0.000	-0.020	0.005	0.034	1.802	1.123	1.113	1.123	1.143	1.138	1.143
0.010	-0.005	0.005	0.000	-0.024	0.010	0.029	1.777	1.123	1.118	1.118	1.143	1.138	1.138
0.015	-0.020	0.005	0.000	-0.020	0.010	0.029	1.812	1.128	1.118	1.118	1.138	1.138	1.138
0.005	-0.020	0.005	0.000	-0.015	0.015	0.029	1.763	1.118	1.118	1.118	1.138	1.138	1.138
0.010	-0.010	-0.005	0.005	0.000	0.005	0.034	1.807	1.118	1.118	1.118	1.138	1.143	1.138
0.000	0.000	-0.005	0.005	-0.005	0.005	0.029	1.772	1.118	1.118	1.113	1.138	1.133	1.138
0.000	0.005	-0.005	0.000	-0.010	0.005	0.034	1.782	1.118	1.118	1.113	1.133	1.133	1.133
-0.010	0.000	0.000	0.000	-0.005	-0.005	0.029	1.782	1.118	1.118	1.118	1.138	1.133	1.133
-0.005	0.010	-0.005	-0.005	0.000	0.015	0.029	1.792	1.118	1.118	1.118	1.138	1.138	1.138
0.000	0.015	-0.005	0.005	0.000	0.000	0.029	1.689	1.108	1.118	1.118	1.138	1.138	1.133
-0.015	0.015	-0.005	-0.005	-0.005	-0.005	0.029	1.792	1.108	1.113	1.118	1.133	1.133	1.133
-0.005	0.015	-0.005	-0.005	-0.005	0.005	0.029	1.792	1.118	1.108	1.118	1.138	1.133	1.133
0.005	0.005	0.000	-0.005	-0.005	-0.005	0.034	1.831	1.123	1.113	1.113	1.138	1.133	1.128
0.000	0.000	0.000	-0.005	0.000	0.000	0.034	1.753	1.113	1.113	1.113	1.133	1.133	1.133
0.000	-0.005	-0.005	-0.005	0.000	-0.020	0.034	1.743	1.108	1.108	1.113	1.133	1.133	1.123
0.000	-0.005	-0.005	-0.010	0.000	-0.015	0.034	1.787	1.113	1.104	1.108	1.133	1.128	1.128
-0.005	-0.015	0.000	-0.005	-0.005	-0.005	0.034	1.797	1.108	1.108	1.108	1.128	1.128	1.123
0.005	-0.024	0.000	-0.005	0.010	0.000	0.034	1.719	1.104	1.104	1.108	1.128	1.133	1.128
0.015	-0.005	-0.005	-0.005	0.015	0.000	0.034	1.787	1.108	1.104	1.108	1.128	1.128	1.128
0.010	-0.015	0.005	-0.010	0.015	0.005	0.029	1.802	1.108	1.104	1.108	1.128	1.128	1.128
0.000	-0.005	0.005	-0.005	0.020	0.005	0.029	1.802	1.113	1.108	1.108	1.128	1.128	1.128
0.005	0.000	0.005	-0.005	0.010	-0.029	0.029	1.777	1.108	1.108	1.108	1.123	1.123	1.113
-0.005	0.000	0.005	-0.005	0.005	0.010	0.029	1.772	1.104	1.108	1.108	1.123	1.123	1.128
-0.005	-0.015	0.000	-0.005	0.000	0.000	0.029	1.792	1.108	1.099	1.104	1.123	1.118	1.123
-0.015	-0.005	0.000	0.000	-0.005	-0.005	0.029	1.797	1.104	1.104	1.104	1.128	1.123	1.118
-0.005	0.015	-0.010	-0.005	0.000	0.000	0.029	1.738	1.104	1.113	1.104	1.123	1.123	1.118
-0.029	0.020	-0.005	0.000	0.000	0.000	0.029	1.787	1.099	1.104	1.108	1.123	1.118	1.123
-0.010	0.029	-0.005	0.000	0.000	-0.010	0.029	1.802	1.108	1.108	1.108	1.128	1.123	1.113
-0.015	0.010	0.000	0.000	0.000	0.000	0.034	1.719	1.099	1.104	1.104	1.123	1.123	1.118
-0.010	0.005	-0.005	0.000	0.000	-0.005	0.029	1.792	1.104	1.099	1.104	1.123	1.118	1.118
-0.010	0.015	0.000	0.000	-0.005	0.005	0.029	1.763	1.108	1.104	1.104	1.123	1.118	1.118
-0.005	0.010	0.005	-0.005	-0.005	0.005	0.029	1.802	1.108	1.104	1.104	1.123	1.118	1.118
0.005	-0.005	0.010	-0.005	-0.005	0.005	0.029	1.763	1.108	1.099	1.104	1.123	1.118	1.118
0.005	-0.020	0.005	-0.005	0.000	0.005	0.029	1.787	1.108	1.099	1.099	1.123	1.118	1.113
0.005	-0.015	0.000	0.000	0.000	0.010	0.029	1.792	1.108	1.099	1.099	1.118	1.118	1.118
0.005	-0.010	0.005	-0.005	0.000	0.010	0.034	1.816	1.113	1.104	1.099	1.118	1.118	1.113
0.005	-0.015	0.005	0.000	0.000	0.000	0.034	1.772	1.108	1.104	1.104	1.118	1.118	1.113
0.005	0.000	0.000	-0.005	0.005	-0.010	0.029	1.782	1.108	1.104	1.104	1.118	1.113	1.108
0.010	-0.005	-0.005	0.000	0.005	-0.034	0.034	1.802	1.108	1.104	1.099	1.118	1.113	1.104
0.000	0.005	-0.005	0.000	-0.005	-0.034	0.034	1.821	1.108	1.108	1.099	1.118	1.113	1.104
0.000	0.010	-0.010	0.005	0.000	0.005	0.034	1.797	1.108	1.108	1.104	1.118	1.113	1.118
0.010	0.010	-0.005	0.005	0.005	-0.005	0.029	1.782	1.108	1.108	1.104	1.123	1.113	1.118
0.005	0.000	-0.005	0.000	-0.005	-0.010	0.034	1.802	1.104	1.104	1.104	1.123	1.113	1.113
0.005	0.015	-0.005	0.005	-0.005	0.005	0.034	1.777	1.099	1.108	1.104	1.123	1.118	1.113
-0.005	0.020	-0.010	0.000	0.000	-0.005	0.029	1.777	1.094	1.104	1.104	1.118	1.118	1.113
-0.005	0.015	-0.010	0.000	0.000	0.000	0.029	1.787	1.094	1.099	1.104	1.123	1.118	1.113
0.000	0.005	-0.005	0.000	-0.005	-0.010	0.034	1.807	1.099	1.099	1.104	1.123	1.118	1.108
0.005	0.000	-0.005	0.000	0.000	0.005	0.029	1.787	1.099	1.094	1.099	1.118	1.118	1.118
0.000	-0.010	0.000	0.000	0.000	0.010	0.029	1.802	1.104	1.094	1.099	1.118	1.113	1.118
0.005	-0.020	0.005	0.000	0.000	-0.015	0.029	1.812	1.104	1.094	1.094	1.118	1.118	1.108
0.005	-0.015	0.010	0.000	0.000	0.000	0.029	1.807	1.108	1.099	1.099	1.118	1.113	1.113
0.005	-0.015	0.010	0.000	0.000	-0.015	0.029	1.797	1.104	1.094	1.099	1.118	1.113	1.108
0.005	-0.024	0.005	0.000	0.000	0.005	0.034	1.797	1.099	1.094	1.094	1.113	1.113	1.113
0.005	-0.015	0.005	0.000	0.000	-0.010	0.029	1.792	1.099	1.099	1.094	1.118	1.113	1.108
-0.005	-0.005	0.000	0.000	0.000	0.015	0.029	1.782	1.099	1.099	1.099	1.113	1.113	1.118
-0.005	0.000	0.000	0.000	0.005	0.010	0.029	1.802	1.099	1.099	1.094	1.113	1.113	1.113
-0.005	0.005	0.000	0.005	0.000	-0.005	0.029	1.772	1.099	1.104	1.094	1.118	1.108	1.108
-0.010	0.005	-0.005	0.000	0.000	-0.015	0.034	1.772	1.094	1.099	1.099	1.113	1.113	1.108
-0.005	0.015	-0.005	0.000	0.005	0.015	0.029	1.797	1.099	1.099	1.099	1.113	1.108	1.113
0.000	0.010	-0.005	-0.005	0.000	0.010	0.034	1.777	1.094	1.099	1.094	1.113	1.108	1.108
-0.015	0.015	-0.010	0.000	-0.005	-0.005	0.029	1.802	1.099	1.099	1.099	1.118	1.108	1.104
-0.010	0.010	-0.005	0.000	0.000	0.010	0.029	1.772	1.094	1.099	1.099	1.113	1.113	1.108
-0.005	0.015	-0.005	0.000	-0.010	-0.005	0.029	1.787	1.099	1.099	1.094	1.118	1.108	1.108
0.000	0.000	-0.005	0.000	0.000	0.005	0.034	1.753	1.099	1.094	1.094	1.113	1.113	1.113
0.010	0.000	0.000	0.000	-0.005	0.000	0.034	1.792	1.099	1.094	1.099	1.113	1.108	1.108
0.000	-0.010	0.000	-0.005	0.000	0.010	0.034	1.782	1.094	1.089	1.094	1.113	1.113	1.108
0.005	-0.010	0.000	-0.005	0.005	0.010	0.034	1.748	1.094	1.089	1.094	1.113	1.108	1.108
0.005	-0.015	0.000	-0.005	0.000	0.000	0.029	1.792	1.094	1.089	1.089	1.108	1.108	1.104
0.015	-0.020	0.000	-0.005	-0.005	0.005	0.034	1.768	1.094	1.089	1.089	1.108	1.108	1.104
0.005	-0.015	-0.005	-0.005	-0.005	-0.005	0.029	1.797	1.094	1.089	1.089	1.108	1.108	1.104
0.015	-0.010	0.000	-0.005	0.000	-0.005	0.029	1.772	1.094	1.094	1.094	1.108	1.104	1.104
0.000	0.000	0.000	-0.005	-0.005	-0.010	0.029	1.797	1.094	1.094	1.094	1.108	1.104	1.099
-0.005	0.005	0.000	0.000	0.000	-0.005	0.029	1.782	1.089	1.094	1.094	1.108	1.108	1.104
-0.005	0.015	-0.005	0.000	0.000	-0.005	0.029	1.733	1.084	1.094	1.089	1.108	1.104	1.104
-0.010	0.010	-0.005	0.005	-0.005	-0.005	0.034	1.748	1.079	1.089	1.089	1.108	1.104	1.104
-0.005	0.020	-0.005	0.000	-0.005	-0.005	0.029	1.802	1.089	1.089	1.089	1.108	1.104	1.104
-0.010	0.015	-0.005	0.000	0.000	-0.024	0.034	1.807	1.094	1.089	1.089	1.108	1.104	1.094
-0.020	0.015	-0.005	0.005	0.005	0.000	0.034	1.782	1.089	1.089	1.089	1.104	1.108	1.108
-0.010	0.020	0.000	0.000	0.000	-0.010	0.029	1.812	1.099	1.089	1.089	1.108	1.104	1.099
-0.005	0.024	0.000	0.000	0.010	0.015	0.029	1.807	1.104	1.094	1.094	1.108	1.108	1.108
0.000	-0.010	0.005	0.000	0.015	0.005	0.029	1.753	1.099	1.089	1.094	1.108	1.108	1.104
-0.005	-0.010	0.000	0.000	-0.005	0.000	0.029	1.797	1.094	1.084	1.089	1.104	1.099	1.099
0.005	-0.020	0.005	-0.005	-0.005	0.005	0.029	1.802	1.104	1.084	1.089	1.104	1.099	1.099
0.010	-0.015	0.000	-0.005	-0.005	-0.010	0.034	1.812	1.099	1.094	1.089	1.104	1.099	1.094
0.005	0.000	0.005	-0.005	0.000	-0.010	0.029	1.743	1.094	1.094	1.089	1.108	1.099	1.094
0.015	-0.005	0.000	0.000	-0.010	-0.005	0.029	1.797	1.094	1.094	1.089	1.104	1.099	1.099
0.015	0.000	0.005	-0.005	-0.005	0.005	0.029	1.777	1.094	1.089	1.094	1.108	1.099	1.099
0.005	0.000	0.005	-0.005	-0.005	-0.010	0.034	1.797	1.094	1.094	1.089	1.108	1.104	1.094
-0.005	0.000	0.005	-0.005	0.005	0.015	0.034	1.743	1.084	1.089	1.089	1.108	1.108	1.104
-0.005	0.015	0.000	-0.005	0.005	0.010	0.029	1.792	1.089	1.089	1.089	1.108	1.104	1.104
-0.015	0.015	0.000	-0.005	0.005	0.020	0.034	1.807	1.094	1.089	1.089	1.108	1.104	1.104
-0.020	0.015	-0.010	0.000	0.010	0.005	0.034	1.802	1.094	1.094	1.084	1.104	1.104	1.104
-0.015	0.015	-0.005	0.000	-0.005	-0.024	0.029	1.787	1.094	1.094	1.089	1.104	1.099	1.094
-0.020	0.010	-0.005	-0.005	-0.010	0.005	0.034	1.802	1.099	1.089	1.089	1.108	1.099	1.099
-0.020	0.015	-0.005	0.000	0.000	-0.005	0.029	1.758	1.094	1.094	1.089	1.108	1.104	1.099
-0.005	0.000	0.000	0.000	0.005	0.000	0.029	1.782	1.094	1.089	1.089	1.108	1.108	1.099
-0.005	-0.005	-0.005	-0.005	0.005	0.000	0.034	1.812	1.094	1.089	1.089	1.108	1.108	1.099
0.000	-0.015	0.000	0.000	0.015	0.000	0.034	1.807	1.099	1.084	1.089	1.108	1.108	1.104
0.005	-0.015	-0.010	0.000	0.005	-0.015	0.029	1.792	1.099	1.089	1.089	1.104	1.104	1.099
0.010	-0.020	0.000	0.000	-0.005	-0.015	0.029	1.772	1.094	1.089	1.089	1.108	1.099	1.099
0.010	-0.020	-0.005	-0.010	-0.015	0.000	0.029	1.807	1.099	1.089	1.089	1.104	1.099	1.099
0.010	-0.020	0.010	-0.005	-0.010	-0.005	0.029	1.758	1.094	1.089	1.089	1.104	1.099	1.099
0.015	-0.020	0.005	0.000	-0.010	0.005	0.029	1.802	1.094	1.089	1.089	1.104	1.099	1.099
0.005	-0.010	0.000	-0.005	-0.010	0.010	0.029	1.787	1.084	1.089	1.089	1.104	1.099	1.099
0.005	-0.005	0.005	-0.010	-0.015	-0.005	0.034	1.797	1.089	1.089	1.089	1.104	1.099	1.094
0.010	-0.005	0.000	0.000	-0.010	0.005	0.034	1.748	1.084	1.094	1.094	1.108	1.099	1.099
0.000	-0.005	0.000	0.005	-0.005	0.000	0.034	1.812	1.084	1.084	1.089	1.108	1.104	1.099
-0.005	0.000	-0.005	0.000	0.015	0.015	0.029	1.733	1.079	1.084	1.084	1.108	1.108	1.099
-0.010	0.005	-0.005	0.005	0.039	0.000	0.029	1.777	1.079	1.084	1.089	1.108	1.113	1.104
-0.005	0.015	0.000	0.000	0.024	-0.010	0.029	1.768	1.084	1.089	1.089	1.104	1.104	1.099
-0.005	0.010	0.000	0.000	0.005	0.000	0.029	1.802	1.089	1.084	1.084	1.104	1.099	1.099
-0.010	0.005	0.000	0.005	0.000	0.000	0.029	1.772	1.084	1.084	1.089	1.104	1.099	1.099
0.005	0.000	0.005	0.000	-0.010	-0.010	0.029	1.777	1.089	1.084	1.089	1.104	1.094	1.094
0.000	0.000	0.005	0.000	0.000	0.000	0.029	1.792	1.094	1.084	1.089	1.104	1.099	1.099
0.005	-0.005	0.000	-0.005	0.000	0.000	0.029	1.777	1.094	1.084	1.084	1.104	1.099	1.099
0.005	-0.005	0.000	0.000	0.000	0.005	0.029	1.792	1.094	1.084	1.084	1.104	1.099	1.099
0.010	-0.015	0.005	0.000	-0.010	-0.005	0.034	1.758	1.089	1.084	1.084	1.104	1.094	1.094
0.010	-0.020	0.000	0.000	-0.020	-0.010	0.034	1.841	1.099	1.084	1.084	1.104	1.094	1.094
0.010	0.000	0.005	0.000	-0.005	-0.005	0.029	1.797	1.094	1.094	1.084	1.099	1.099	1.094
0.010	-0.020	0.000	-0.005	0.000	-0.005	0.034	1.787	1.094	1.084	1.084	1.099	1.099	1.094
0.000	-0.015	0.010	-0.005	0.000	-0.010	0.029	1.797	1.099	1.089	1.089	1.104	1.099	1.094
0.000	-0.015	0.010	0.000	0.000	0.005	0.034	1.758	1.094	1.089	1.089	1.104	1.099	1.099
-0.005	-0.010	0.005	0.000	0.000	-0.005	0.029	1.772	1.089	1.089	1.089	1.104	1.099	1.094
-0.005	0.015	0.000	0.000	-0.005	0.005	0.034	1.792	1.084	1.094	1.089	1.104	1.099	1.094
-0.015	0.020	0.000	0.000	-0.010	-0.005	0.029	1.802	1.089	1.094	1.089	1.104	1.099	1.089
-0.015	0.020	-0.010	0.005	0.000	0.005	0.029	1.772	1.084	1.094	1.089	1.104	1.099	1.099
-0.015	0.020	-0.015	0.005	0.000	0.000	0.029	1.777	1.089	1.089	1.089	1.108	1.099	1.099
-0.015	0.020	-0.005	0.010	0.005	0.005	0.034	1.753	1.089	1.089	1.089	1.108	1.104	1.099
-0.005	0.020	0.000	0.005	-0.005	0.000	0.029	1.738	1.089	1.089	1.089	1.108	1.104	1.099
-0.005	0.010	0.000	0.000	0.000	0.005	0.029	1.753	1.079	1.084	1.089	1.104	1.104	1.099
0.005	0.005	0.000	0.000	0.000	0.010	0.034	1.772	1.089	1.079	1.089	1.104	1.104	1.099
0.010	-0.005	0.000	0.000	0.000	0.005	0.034	1.816	1.094	1.084	1.084	1.104	1.104	1.094
0.005	-0.010	0.000	0.000	-0.005	-0.005	0.029	1.709	1.084	1.084	1.084	1.104	1.099	1.094
0.015	-0.010	0.000	0.000	-0.005	-0.005	0.034	1.797	1.084	1.079	1.084	1.099	1.099	1.094
0.005	-0.005	0.000	-0.005	0.000	-0.024	0.034	1.768	1.084	1.084	1.079	1.099	1.099	1.089
0.010	-0.010	-0.005	-0.010	0.000	-0.010	0.029	1.787	1.084	1.084	1.084	1.094	1.094	1.094
0.010	-0.005	0.000	-0.005	-0.005	0.005	0.029	1.753	1.084	1.084	1.084	1.099	1.094	1.099
0.005	-0.010	0.000	-0.005	-0.005	0.010	0.029	1.787	1.089	1.079	1.079	1.099	1.094	1.094
0.000	0.000	-0.005	0.000	0.005	0.005	0.034	1.768	1.084	1.084	1.079	1.099	1.094	1.094
-0.010	0.005	-0.005	-0.005	-0.005	0.010	0.029	1.797	1.084	1.079	1.079	1.099	1.094	1.094
0.005	0.020	-0.005	0.000	-0.005	-0.005	0.034	1.812	1.094	1.089	1.079	1.099	1.094	1.089
-0.005	0.010	-0.005	0.005	-0.005	0.010	0.034	1.753	1.089	1.089	1.084	1.099	1.094	1.094
-0.005	0.000	-0.005	0.005	0.000	0.005	0.034	1.777	1.079	1.084	1.079	1.099	1.099	1.094
-0.015	0.015	-0.005	0.000	-0.005	0.005	0.029	1.797	1.084	1.084	1.084	1.099	1.094	1.094
-0.005	0.010	-0.005	0.005	-0.005	-0.010	0.029	1.748	1.084	1.084	1.084	1.099	1.094	1.089
-0.005	0.005	-0.005	0.005	0.005	0.000	0.029	1.802	1.084	1.079	1.084	1.099	1.099	1.094
-0.010	-0.010	-0.005	-0.005	0.005	0.000	0.029	1.738	1.079	1.074	1.079	1.099	1.094	1.094
0.000	-0.005	-0.005	0.000	0.000	-0.005	0.034	1.782	1.079	1.079	1.079	1.099	1.094	1.094
-0.005	-0.005	0.000	0.000	-0.005	-0.020	0.034	1.797	1.084	1.074	1.084	1.099	1.094	1.084
0.000	-0.020	0.005	0.000	-0.005	-0.005	0.034	1.777	1.084	1.074	1.079	1.099	1.094	1.089
0.005	-0.015	0.000	0.000	-0.005	0.000	0.029	1.768	1.084	1.079	1.079	1.099	1.094	1.094
-0.005	-0.010	0.000	-0.005	0.000	-0.010	0.029	1.772	1.079	1.079	1.079	1.094	1.094	1.094
0.005	-0.015	0.000	-0.005	-0.005	-0.010	0.034	1.802	1.084	1.074	1.074	1.094	1.094	1.094
0.005	-0.010	0.005	-0.005	0.000	0.000	0.034	1.763	1.084	1.079	1.079	1.094	1.094	1.089
0.010	-0.010	0.000	0.000	-0.005	0.005	0.034	1.772	1.084	1.079	1.079	1.094	1.094	1.094
0.000	0.005	0.005	-0.005	0.005	0.010	0.029	1.807	1.089	1.079	1.079	1.094	1.094	1.094
0.000	0.010	0.005	0.000	0.000	0.005	0.029	1.787	1.084	1.089	1.079	1.099	1.094	1.094
0.010	0.005	-0.005	0.000	0.000	0.005	0.034	1.748	1.079	1.084	1.079	1.099	1.089	1.089
0.000	0.010	0.000	0.000	0.005	-0.010	0.029	1.777	1.079	1.084	1.084	1.099	1.094	1.089
-0.015	0.020	-0.005	0.000	0.000	0.005	0.029	1.792	1.084	1.084	1.079	1.099	1.094	1.089
-0.010	0.015	-0.010	0.000	-0.005	0.005	0.029	1.797	1.084	1.084	1.079	1.094	1.089	1.089
-0.010	0.015	-0.010	-0.005	0.000	0.000	0.029	1.792	1.084	1.079	1.079	1.094	1.094	1.089
-0.020	0.005	-0.005	-0.005	0.000	0.005	0.029	1.812	1.084	1.079	1.079	1.099	1.094	1.089
-0.010	-0.005	-0.005	0.000	0.000	0.010	0.029	1.748	1.084	1.079	1.079	1.099	1.094	1.094
0.000	-0.005	0.000	0.000	0.000	-0.020	0.029	1.768	1.084	1.079	1.079	1.099	1.094	1.084
-0.005	-0.015	-0.005	-0.005	0.000	0.015	0.029	1.772	1.079	1.074	1.079	1.099	1.094	1.094
0.005	-0.010	0.000	0.000	0.000	-0.010	0.029	1.753	1.079	1.074	1.079	1.099	1.094	1.089
0.015	-0.015	0.005	0.005	0.000	-0.005	0.029	1.792	1.084	1.074	1.079	1.099	1.094	1.089
0.015	-0.015	0.005	0.000	-0.005	0.005	0.029	1.782	1.089	1.079	1.074	1.094	1.094	1.089
0.000	-0.020	0.005	0.000	0.000	0.000	0.034	1.777	1.079	1.074	1.074	1.094	1.094	1.089
-0.005	-0.005	0.005	-0.005	0.005	0.000	0.034	1.812	1.084	1.079	1.074	1.094	1.094	1.089
0.005	0.010	-0.005	-0.005	0.000	0.000	0.034	1.758	1.084	1.084	1.074	1.094	1.089	1.084
-0.005	0.005	0.000	0.000	0.000	0.000	0.034	1.719	1.074	1.079	1.079	1.094	1.089	1.089
-0.005	0.010	-0.005	0.000	-0.005	-0.005	0.034	1.792	1.074	1.079	1.079	1.094	1.089	1.084
0.000	0.010	-0.005	0.005	-0.005	-0.005	0.029	1.797	1.084	1.079	1.079	1.094	1.089	1.084
-0.010	0.010	-0.010	0.000	-0.005	0.000	0.029	1.763	1.074	1.079	1.074	1.094	1.094	1.089
-0.005	0.005	-0.005	0.000	-0.010	-0.010	0.034	1.758	1.074	1.074	1.079	1.094	1.089	1.089
-0.005	0.010	-0.010	0.005	-0.005	0.005	0.029	1.792	1.079	1.074	1.079	1.094	1.094	1.089
-0.005	0.015	-0.005	0.000	-0.005	0.000	0.034	1.768	1.079	1.079	1.079	1.094	1.094	1.089
-0.010	-0.005	-0.005	0.005	0.000	-0.005	0.029	1.733	1.069	1.069	1.079	1.094	1.094	1.089
0.010	-0.010	0.000	0.005	-0.005	-0.005	0.029	1.777	1.074	1.069	1.074	1.094	1.089	1.089
0.010	-0.020	0.000	0.000	0.005	-0.005	0.029	1.792	1.079	1.069	1.074	1.094	1.094	1.089
0.000	-0.015	0.005	0.000	0.020	0.005	0.029	1.758	1.084	1.074	1.074	1.094	1.094	1.089
0.010	-0.020	0.000	0.000	0.015	-0.010	0.029	1.772	1.079	1.074	1.074	1.089	1.094	1.084
0.005	-0.024	0.000	0.000	0.015	0.000	0.034	1.729	1.069	1.074	1.074	1.089	1.089	1.094
0.000	-0.024	0.000	-0.005	0.005	0.010	0.029	1.748	1.069	1.069	1.069	1.089	1.084	1.089
0.005	-0.010	0.005	0.000	-0.005	0.000	0.034	1.792	1.074	1.074	1.069	1.089	1.079	1.084
0.005	-0.005	0.010	0.000	-0.010	-0.020	0.034	1.797	1.079	1.074	1.074	1.089	1.079	1.074
0.000	-0.005	0.000	0.000	-0.005	0.005	0.034	1.772	1.079	1.074	1.069	1.094	1.084	1.084
-0.005	-0.015	0.005	0.000	0.000	0.000	0.029	1.797	1.079	1.074	1.074	1.089	1.089	1.084
-0.005	0.005	0.005	0.000	-0.005	0.005	0.029	1.758	1.079	1.079	1.074	1.089	1.089	1.084
-0.005	0.015	0.000	0.005	-0.005	-0.015	0.029	1.792	1.079	1.079	1.074	1.089	1.084	1.084
-0.010	0.010	-0.005	0.005	-0.005	0.005	0.029	1.763	1.079	1.079	1.074	1.089	1.089	1.084
-0.010	0.010	-0.010	0.010	-0.005	-0.005	0.029	1.758	1.074	1.074	1.074	1.094	1.084	1.084
-0.010	0.015	-0.010	0.000	0.000	0.000	0.034	1.792	1.074	1.074	1.074	1.094	1.089	1.084
-0.005	0.000	-0.010	0.005	-0.005	-0.010	0.034	1.787	1.084	1.074	1.074	1.094	1.089	1.079
0.000	-0.010	-0.005	0.000	0.000	0.015	0.034	1.802	1.084	1.074	1.074	1.094	1.094	1.089
-0.005	-0.010	-0.005	0.005	0.000	0.010	0.029	1.753	1.079	1.074	1.074	1.094	1.089	1.089
0.000	-0.015	0.000	0.000	0.005	-0.020	0.029	1.787	1.079	1.074	1.074	1.089	1.089	1.079
0.005	-0.015	0.000	0.000	0.000	0.015	0.029	1.777	1.089	1.074	1.074	1.094	1.084	1.089
0.010	-0.020	0.005	0.000	-0.005	-0.005	0.029	1.792	1.089	1.079	1.074	1.094	1.089	1.084
0.015	-0.024	0.000	0.000	-0.005	0.015	0.029	1.792	1.089	1.079	1.074	1.094	1.089	1.089
0.010	-0.029	0.000	0.000	-0.015	0.005	0.029	1.797	1.084	1.074	1.074	1.094	1.084	1.084
0.010	-0.029	0.000	-0.005	-0.015	0.000	0.029	1.787	1.089	1.079	1.074	1.089	1.084	1.079
0.005	-0.005	0.005	-0.010	-0.005	-0.015	0.029	1.807	1.079	1.084	1.079	1.089	1.089	1.079
0.005	-0.005	0.000	-0.005	0.000	-0.015	0.034	1.758	1.074	1.084	1.079	1.094	1.089	1.074
0.000	0.005	-0.005	0.000	0.000	-0.029	0.034	1.768	1.074	1.084	1.079	1.094	1.089	1.079
-0.005	0.015	-0.005	0.000	0.000	0.010	0.029	1.797	1.074	1.079	1.079	1.094	1.094	1.089
-0.010	0.010	-0.005	0.000	0.005	-0.005	0.029	1.812	1.079	1.079	1.079	1.099	1.094	1.089
-0.020	0.015	-0.005	0.005	0.010	0.005	0.034	1.782	1.079	1.079	1.079	1.094	1.094	1.089
-0.005	0.029	0.000	0.005	0.005	-0.015	0.034	1.768	1.079	1.084	1.084	1.094	1.094	1.084
-0.010	0.020	0.000	0.000	0.005	0.005	0.029	1.772	1.074	1.074	1.079	1.099	1.094	1.094
-0.010	0.020	-0.005	0.000	-0.005	0.005	0.034	1.772	1.079	1.074	1.079	1.094	1.094	1.089
0.000	0.010	0.000	-0.005	0.000	-0.010	0.034	1.768	1.074	1.074	1.079	1.094	1.089	1.084
0.000	0.015	0.005	-0.005	0.005	0.015	0.034	1.802	1.084	1.074	1.074	1.094	1.094	1.089
-0.005	0.000	0.005	-0.005	0.000	0.000	0.029	1.782	1.084	1.069	1.074	1.094	1.094	1.084
0.005	0.000	0.000	-0.005	0.000	0.000	0.029	1.777	1.079	1.074	1.074	1.094	1.089	1.089
0.010	-0.010	0.005	-0.005	-0.005	-0.024	0.029	1.797	1.084	1.074	1.074	1.094	1.084	1.079
0.005	-0.005	0.005	-0.005	0.000	0.005	0.029	1.763	1.079	1.074	1.074	1.089	1.089	1.089
0.010	0.005	0.010	-0.010	0.000	0.000	0.029	1.724	1.074	1.079	1.074	1.089	1.089	1.089
0.010	0.005	0.005	-0.005	0.000	0.005	0.029	1.797	1.074	1.074	1.074	1.094	1.089	1.089
0.010	0.005	0.000	-0.005	0.000	-0.005	0.029	1.792	1.074	1.074	1.069	1.094	1.089	1.084
0.000	0.005	0.000	-0.005	0.000	0.005	0.034	1.743	1.074	1.074	1.074	1.094	1.089	1.089
0.000	0.020	-0.005	0.000	0.000	0.005	0.029	1.792	1.074	1.074	1.074	1.094	1.089	1.084
-0.005	0.005	0.000	0.000	-0.005	0.005	0.029	1.812	1.079	1.069	1.074	1.094	1.089	1.089
-0.010	0.015	0.000	0.005	-0.005	0.000	0.029	1.763	1.074	1.074	1.074	1.094	1.089	1.084
-0.010	0.020	-0.010	0.005	0.000	-0.005	0.034	1.763	1.074	1.074	1.069	1.094	1.089	1.084
-0.015	0.015	-0.010	0.005	-0.005	0.000	0.029	1.782	1.074	1.074	1.069	1.094	1.089	1.089
-0.015	0.010	-0.005	0.005	0.000	-0.005	0.029	1.807	1.079	1.074	1.069	1.089	1.089	1.084
-0.015	0.015	-0.005	0.005	0.000	-0.005	0.029	1.753	1.079	1.074	1.074	1.089	1.089	1.079
0.000	0.000	0.000	0.000	-0.005	0.000	0.034	1.758	1.079	1.074	1.074	1.089	1.089	1.089
-0.005	0.000	-0.005	-0.005	-0.005	-0.010	0.029	1.792	1.084	1.074	1.074	1.089	1.084	1.084
0.000	-0.020	0.000	0.000	0.000	-0.005	0.034	1.787	1.084	1.069	1.074	1.089	1.089	1.084
0.005	-0.020	0.005	0.000	0.005	0.000	0.034	1.802	1.084	1.074	1.074	1.089	1.089	1.089
0.010	-0.029	0.010	0.000	-0.005	-0.015	0.029	1.777	1.079	1.074	1.074	1.089	1.089	1.084
0.010	-0.024	0.005	0.000	0.000	0.000	0.029	1.782	1.079	1.074	1.074	1.089	1.089	1.084
0.005	-0.020	0.005	-0.010	0.005	0.015	0.029	1.792	1.079	1.074	1.074	1.089	1.089	1.089
0.000	-0.010	0.010	-0.005	0.000	0.010	0.029	1.841	1.084	1.079	1.074	1.089	1.084	1.084
0.015	-0.010	0.005	0.000	0.005	0.005	0.034	1.729	1.074	1.079	1.074	1.089	1.089	1.084
0.005	0.010	-0.005	-0.005	0.000	0.015	0.029	1.787	1.074	1.084	1.079	1.089	1.084	1.084
-0.010	0.005	0.000	0.000	0.000	-0.005	0.034	1.812	1.079	1.079	1.074	1.094	1.084	1.079
-0.005	0.005	-0.005	0.005	0.000	0.005	0.029	1.768	1.079	1.079	1.079	1.094	1.084	1.084
-0.005	0.015	-0.010	0.000	0.000	0.005	0.029	1.787	1.079	1.084	1.079	1.094	1.084	1.084
-0.005	0.020	-0.010	0.000	0.000	-0.005	0.034	1.821	1.089	1.084	1.079	1.094	1.089	1.079
-0.005	0.010	-0.015	0.005	0.000	-0.005	0.034	1.763	1.079	1.079	1.074	1.094	1.089	1.084
-0.010	0.005	-0.010	0.000	-0.010	-0.039	0.034	1.772	1.079	1.074	1.079	1.094	1.084	1.074
-0.005	0.005	-0.005	-0.005	-0.015	-0.010	0.034	1.782	1.079	1.079	1.079	1.094	1.084	1.084
0.000	0.010	-0.005	-0.005	-0.010	-0.020	0.034	1.782	1.079	1.079	1.079	1.094	1.089	1.084
0.005	-0.010	-0.005	-0.010	0.000	-0.010	0.029	1.802	1.084	1.074	1.074	1.094	1.094	1.084
0.005	-0.015	0.000	-0.005	0.000	0.000	0.029	1.748	1.084	1.074	1.074	1.094	1.094	1.089
0.010	-0.015	-0.005	0.000	0.000	0.005	0.029	1.738	1.079	1.074	1.074	1.094	1.094	1.094
0.000	-0.005	0.000	-0.005	0.000	0.005	0.029	1.797	1.084	1.079	1.079	1.094	1.094	1.089
0.010	-0.015	0.005	-0.005	0.000	0.010	0.029	1.763	1.079	1.074	1.074	1.094	1.089	1.089
-0.005	-0.015	0.000	0.000	0.000	-0.015	0.029	1.777	1.079	1.074	1.074	1.094	1.089	1.084
0.010	-0.020	-0.005	-0.005	-0.005	0.015	0.029	1.782	1.084	1.074	1.074	1.094	1.089	1.094
0.000	-0.005	0.000	-0.005	0.005	0.000	0.029	1.802	1.084	1.079	1.074	1.094	1.089	1.084
-0.005	-0.005	0.000	0.000	0.000	-0.005	0.034	1.772	1.084	1.079	1.079	1.094	1.089	1.084
-0.020	0.005	-0.005	-0.005	0.010	0.005	0.034	1.807	1.079	1.079	1.079	1.094	1.089	1.084
-0.015	0.010	-0.005	0.000	0.005	0.015	0.034	1.797	1.079	1.079	1.079	1.094	1.094	1.089
-0.015	0.005	-0.005	0.000	0.005	0.010	0.034	1.738	1.074	1.079	1.079	1.094	1.089	1.089
-0.020	0.005	-0.005	0.005	0.005	0.000	0.029	1.797	1.079	1.079	1.074	1.094	1.089	1.089
-0.010	0.015	-0.005	0.000	0.005	-0.005	0.029	1.782	1.079	1.079	1.079	1.094	1.089	1.084
-0.005	0.020	0.000	0.000	-0.005	-0.015	0.029	1.738	1.079	1.084	1.079	1.094	1.089	1.084
-0.005	-0.010	0.005	0.000	-0.005	-0.010	0.029	1.709	1.074	1.074	1.079	1.094	1.089	1.084
0.010	-0.010	0.005	0.000	-0.010	-0.010	0.029	1.807	1.074	1.069	1.079	1.094	1.089	1.084
0.005	0.000	0.000	-0.005	-0.005	-0.005	0.029	1.782	1.079	1.074	1.074	1.094	1.089	1.084
0.010	-0.010	0.005	-0.005	0.000	0.005	0.034	1.748	1.079	1.069	1.074	1.094	1.094	1.089
0.010	-0.015	0.005	-0.005	0.000	-0.015	0.034	1.753	1.074	1.069	1.074	1.094	1.094	1.089
0.010	-0.034	0.000	-0.005	0.000	0.005	0.034	1.802	1.079	1.064	1.069	1.089	1.089	1.089
0.005	-0.024	0.010	-0.005	0.000	0.005	0.029	1.802	1.079	1.069	1.069	1.089	1.089	1.089
0.010	-0.029	0.000	0.000	0.000	-0.005	0.029	1.787	1.079	1.069	1.069	1.089	1.089	1.089
0.010	0.000	0.000	0.005	-0.005	0.000	0.034	1.807	1.084	1.079	1.074	1.094	1.084	1.084
0.005	0.005	0.000	0.010	0.000	-0.010	0.034	1.772	1.079	1.084	1.074	1.094	1.089	1.084
-0.005	0.015	-0.005	0.005	0.005	-0.005	0.029	1.782	1.079	1.084	1.074	1.089	1.089	1.084
-0.005	0.020	-0.010	0.000	0.000	0.010	0.034	1.797	1.074	1.079	1.079	1.089	1.089	1.089
-0.010	0.015	-0.005	0.000	-0.005	0.010	0.034	1.821	1.084	1.074	1.079	1.094	1.089	1.084
-0.005	0.015	-0.005	0.005	-0.005	-0.020	0.034	1.758	1.079	1.079	1.079	1.094	1.089	1.079
-0.015	0.010	-0.010	0.000	0.010	0.010	0.034	1.797	1.074	1.074	1.079	1.094	1.089	1.089
-0.005	0.005	-0.005	0.000	0.000	0.000	0.029	1.807	1.089	1.079	1.079	1.094	1.089	1.089
-0.010	0.000	-0.005	0.000	0.000	0.010	0.029	1.772	1.084	1.079	1.079	1.094	1.089	1.089
0.000	0.005	0.000	0.000	-0.005	0.005	0.029	1.768	1.084	1.079	1.079	1.094	1.089	1.089
0.000	-0.005	0.000	0.000	-0.005	0.005	0.029	1.772	1.074	1.074	1.074	1.094	1.089	1.084
0.000	-0.005	0.000	0.000	0.000	0.000	0.034	1.768	1.074	1.074	1.074	1.094	1.089	1.084
0.010	-0.005	0.000	-0.005	0.000	-0.020	0.034	1.802	1.084	1.074	1.079	1.094	1.089	1.079
0.010	-0.024	0.005	-0.005	0.000	0.000	0.034	1.768	1.084	1.069	1.074	1.094	1.089	1.084
0.015	-0.020	0.000	0.000	0.000	-0.005	0.029	1.772	1.074	1.074	1.074	1.089	1.089	1.089
0.005	-0.010	-0.005	0.000	0.000	0.000	0.029	1.787	1.079	1.074	1.069	1.094	1.089	1.084
-0.010	-0.020	0.005	0.000	-0.005	0.005	0.034	1.797	1.079	1.074	1.069	1.089	1.089	1.084
0.005	-0.005	0.000	0.005	0.000	0.005	0.034	1.782	1.079	1.074	1.074	1.094	1.089	1.089
-0.005	0.000	0.000	0.000	-0.005	0.000	0.029	1.787	1.079	1.079	1.074	1.094	1.089	1.084
0.005	0.015	0.000	0.000	0.000	0.005	0.034	1.802	1.089	1.084	1.074	1.094	1.089	1.084
0.010	0.010	-0.005	0.000	0.000	-0.015	0.034	1.797	1.089	1.079	1.079	1.094	1.089	1.084
-0.005	0.024	-0.005	0.005	-0.005	-0.005	0.034	1.782	1.079	1.089	1.079	1.094	1.089	1.084
-0.010	0.015	-0.005	0.005	0.000	-0.015	0.029	1.797	1.079	1.079	1.079	1.094	1.089	1.084
-0.010	0.010	0.000	0.000	0.000	-0.015	0.034	1.782	1.079	1.079	1.079	1.094	1.089	1.079
-0.010	0.010	-0.005	0.000	0.000	0.000	0.034	1.812	1.079	1.079	1.079	1.094	1.094	1.089
-0.005	0.010	-0.005	-0.005	0.000	-0.005	0.029	1.797	1.084	1.079	1.079	1.094	1.089	1.089
0.010	-0.005	0.000	-0.005	0.000	0.000	0.034	1.797	1.089	1.074	1.079	1.094	1.094	1.089
0.005	-0.005	0.005	-0.005	0.000	0.010	0.029	1.792	1.084	1.079	1.079	1.094	1.094	1.089
0.010	-0.015	0.000	-0.005	0.000	0.010	0.029	1.807	1.089	1.074	1.074	1.094	1.089	1.089
0.000	-0.015	0.000	0.005	0.000	0.005	0.029	1.777	1.079	1.079	1.079	1.094	1.089	1.089
-0.005	-0.020	0.000	-0.005	0.000	0.005	0.029	1.797	1.084	1.074	1.074	1.094	1.089	1.089
0.000	-0.010	0.005	0.000	-0.005	-0.005	0.029	1.787	1.079	1.079	1.079	1.094	1.089	1.084
-0.005	-0.015	0.005	-0.005	0.005	-0.005	0.029	1.792	1.079	1.074	1.074	1.094	1.089	1.084
-0.010	-0.005	0.005	-0.005	0.000	-0.010	0.029	1.733	1.074	1.079	1.074	1.094	1.089	1.079
-0.015	0.000	0.005	-0.005	0.000	-0.005	0.029	1.777	1.074	1.074	1.079	1.094	1.089	1.089
-0.024	0.010	0.000	0.000	0.000	-0.010	0.029	1.772	1.069	1.074	1.074	1.094	1.089	1.084
-0.029	0.005	0.000	0.005	0.000	-0.005	0.029	1.753	1.074	1.074	1.074	1.094	1.089	1.089
-0.029	0.010	-0.010	0.005	0.000	0.000	0.034	1.772	1.074	1.074	1.074	1.094	1.089	1.089
-0.020	0.015	-0.010	0.005	-0.005	0.005	0.029	1.782	1.079	1.074	1.069	1.094	1.089	1.089
-0.020	0.024	-0.010	0.005	0.005	-0.010	0.034	1.797	1.079	1.079	1.074	1.094	1.089	1.084
-0.020	0.024	-0.010	-0.005	0.000	-0.015	0.034	1.763	1.084	1.079	1.074	1.094	1.089	1.084
-0.020	0.010	-0.010	0.005	0.000	0.010	0.034	1.787	1.084	1.074	1.074	1.094	1.089	1.094
-0.010	-0.005	-0.010	0.005	0.000	0.010	0.034	1.758	1.084	1.074	1.074	1.094	1.089	1.089
0.000	-0.005	-0.005	0.000	0.000	0.005	0.034	1.787	1.089	1.074	1.074	1.094	1.089	1.089
0.010	-0.005	0.000	0.000	0.000	0.005	0.034	1.777	1.089	1.079	1.074	1.094	1.089	1.084
0.010	-0.010	0.000	0.000	0.000	0.005	0.034	1.763	1.089	1.079	1.074	1.094	1.089	1.089
0.024	-0.015	0.000	-0.005	0.005	-0.024	0.034	1.797	1.089	1.079	1.079	1.094	1.089	1.079
0.020	-0.020	0.000	0.000	0.000	0.005	0.029	1.792	1.084	1.074	1.079	1.094	1.089	1.089
0.020	-0.010	0.000	-0.005	0.000	-0.010	0.029	1.772	1.084	1.079	1.074	1.094	1.089	1.084
0.015	-0.020	0.005	0.000	0.000	0.005	0.029	1.782	1.079	1.079	1.079	1.094	1.089	1.084
0.020	-0.005	0.005	0.000	0.000	0.005	0.029	1.772	1.089	1.084	1.079	1.094	1.089	1.084
0.015	0.000	0.005	0.000	0.000	0.000	0.029	1.802	1.089	1.089	1.079	1.094	1.089	1.084
0.015	-0.005	0.000	0.000	0.000	0.000	0.029	1.763	1.084	1.084	1.079	1.094	1.089	1.084
0.010	0.005	0.000	-0.005	-0.005	0.000	0.029	1.782	1.079	1.084	1.084	1.094	1.094	1.089
0.015	0.005	0.005	-0.005	0.005	0.000	0.029	1.812	1.089	1.084	1.079	1.099	1.094	1.089
0.005	0.015	-0.005	0.005	-0.005	-0.015	0.029	1.733	1.074	1.084	1.079	1.099	1.089	1.084
-0.005	0.020	-0.005	0.000	0.000	-0.010	0.029	1.777	1.074	1.079	1.079	1.099	1.094	1.089
-0.005	0.015	-0.010	0.005	-0.005	0.000	0.029	1.758	1.074	1.079	1.079	1.099	1.094	1.089
-0.005	0.005	-0.005	0.000	-0.005	0.005	0.029	1.797	1.074	1.074	1.079	1.099	1.094	1.089
-0.005	0.005	-0.005	0.005	-0.005	0.005	0.034	1.797	1.079	1.074	1.079	1.099	1.094	1.089
-0.005	0.000	0.000	0.000	0.000	-0.029	0.034	1.772	1.079	1.069	1.074	1.094	1.094	1.084
0.000	0.000	0.000	0.000	0.005	0.000	0.029	1.797	1.079	1.074	1.074	1.094	1.094	1.089
0.005	-0.010	0.005	-0.005	-0.005	0.015	0.034	1.797	1.089	1.074	1.074	1.094	1.089	1.094
-0.010	-0.044	0.005	-0.005	0.000	0.010	0.034	1.748	1.074	1.064	1.074	1.089	1.089	1.089
0.010	-0.039	0.005	-0.005	0.000	0.005	0.034	1.748	1.079	1.069	1.074	1.089	1.089	1.089
0.010	-0.034	0.005	0.005	0.000	-0.005	0.034	1.768	1.079	1.074	1.069	1.094	1.089	1.084
0.000	-0.020	0.005	-0.005	-0.005	-0.005	0.034	1.797	1.079	1.074	1.074	1.089	1.089	1.084
0.005	-0.015	0.010	0.000	0.000	0.000	0.034	1.748	1.079	1.079	1.074	1.089	1.089	1.084
-0.005	0.015	0.000	-0.005	-0.005	-0.010	0.029	1.763	1.069	1.084	1.074	1.089	1.084	1.084
-0.005	0.020	0.000	-0.005	0.000	-0.005	0.029	1.802	1.079	1.079	1.074	1.094	1.089	1.084
-0.005	0.015	-0.005	0.000	0.005	-0.010	0.034	1.777	1.074	1.079	1.074	1.094	1.089	1.084
-0.005	0.024	-0.005	0.000	0.000	0.000	0.029	1.787	1.074	1.079	1.079	1.094	1.089	1.084
-0.020	0.020	-0.005	0.000	0.005	-0.005	0.034	1.802	1.074	1.074	1.074	1.094	1.089	1.084
-0.015	0.015	-0.010	0.000	0.000	-0.020	0.029	1.782	1.079	1.074	1.074	1.094	1.089	1.084
-0.010	0.024	0.000	0.000	0.000	-0.005	0.029	1.758	1.074	1.079	1.079	1.094	1.089	1.089
-0.010	0.015	-0.005	0.000	0.005	-0.020	0.029	1.787	1.074	1.074	1.074	1.094	1.089	1.084
-0.020	0.000	-0.005	-0.005	0.000	-0.010	0.029	1.797	1.079	1.069	1.074	1.094	1.089	1.084
-0.010	0.000	0.005	-0.005	0.000	0.015	0.029	1.787	1.079	1.074	1.074	1.094	1.089	1.089
0.010	-0.010	0.005	-0.005	0.000	0.015	0.029	1.782	1.084	1.074	1.074	1.094	1.089	1.089
0.010	-0.010	0.000	-0.005	0.000	-0.005	0.034	1.787	1.089	1.074	1.074	1.094	1.089	1.084
0.005	-0.015	0.005	-0.005	0.000	0.010	0.029	1.816	1.084	1.074	1.074	1.094	1.089	1.089
0.005	-0.015	0.010	-0.005	0.005	0.005	0.029	1.782	1.084	1.074	1.074	1.089	1.089	1.084
0.015	-0.010	0.005	0.000	0.000	0.000	0.029	1.787	1.084	1.079	1.074	1.094	1.089	1.084
0.015	-0.005	0.005	-0.005	-0.005	0.005	0.029	1.777	1.084	1.079	1.074	1.094	1.089	1.084
0.010	-0.005	0.005	0.000	0.000	0.005	0.029	1.807	1.079	1.079	1.074	1.094	1.089	1.084
0.010	0.005	0.000	-0.005	-0.005	0.000	0.029	1.777	1.084	1.084	1.079	1.094	1.089	1.079
0.000	0.010	-0.005	0.005	-0.005	-0.005	0.029	1.763	1.079	1.084	1.079	1.094	1.089	1.084
0.005	0.024	-0.015	0.000	-0.005	0.000	0.034	1.797	1.084	1.084	1.079	1.094	1.089	1.084
0.000	0.015	-0.005	0.000	-0.010	-0.024	0.029	1.802	1.084	1.084	1.084	1.099	1.089	1.079
-0.005	-0.005	-0.005	0.005	-0.005	-0.015	0.034	1.777	1.079	1.074	1.079	1.094	1.089	1.084
-0.005	0.010	-0.005	0.000	0.005	0.005	0.034	1.787	1.079	1.079	1.079	1.094	1.094	1.094
-0.005	0.005	0.000	0.000	0.000	-0.005	0.034	1.787	1.079	1.074	1.079	1.094	1.094	1.089
0.000	-0.005	0.000	0.000	0.000	0.010	0.034	1.763	1.084	1.074	1.079	1.094	1.094	1.094
-0.005	-0.020	-0.005	0.000	0.000	0.000	0.029	1.792	1.079	1.069	1.074	1.094	1.089	1.089
0.000	-0.015	-0.005	0.000	0.000	0.010	0.029	1.758	1.079	1.074	1.074	1.094	1.089	1.089
0.005	-0.015	0.000	-0.005	0.000	-0.015	0.034	1.782	1.084	1.074	1.074	1.094	1.089	1.084
0.010	-0.029	0.005	0.000	-0.005	-0.010	0.029	1.748	1.079	1.074	1.074	1.089	1.089	1.084
0.020	-0.020	-0.005	0.000	0.010	0.010	0.034	1.792	1.079	1.074	1.074	1.089	1.089	1.094
0.010	-0.005	-0.005	-0.005	0.010	0.010	0.029	1.753	1.069	1.074	1.074	1.089	1.089	1.089
0.005	-0.005	-0.005	0.000	0.010	0.010	0.034	1.797	1.079	1.074	1.074	1.094	1.089	1.089
-0.005	-0.005	0.005	0.000	0.000	0.005	0.034	1.777	1.079	1.074	1.074	1.094	1.084	1.084
0.000	0.005	0.005	0.000	0.005	0.000	0.034	1.777	1.074	1.079	1.079	1.094	1.089	1.084
-0.005	0.015	0.005	0.000	0.000	0.010	0.029	1.758	1.074	1.079	1.079	1.094	1.089	1.089
-0.020	0.010	0.000	0.000	-0.005	0.005	0.029	1.821	1.079	1.074	1.074	1.094	1.089	1.084
0.000	0.005	-0.005	0.005	0.000	0.000	0.029	1.763	1.079	1.074	1.074	1.094	1.089	1.084
-0.015	0.024	-0.010	0.000	0.000	0.005	0.029	1.772	1.079	1.079	1.074	1.094	1.089	1.084
-0.015	0.020	-0.005	0.000	0.000	-0.005	0.029	1.812	1.084	1.079	1.074	1.094	1.089	1.084
-0.015	0.010	-0.005	0.000	0.000	-0.010	0.029	1.753	1.079	1.074	1.074	1.089	1.089	1.084
-0.015	0.015	-0.010	0.000	0.000	0.005	0.029	1.792	1.084	1.074	1.074	1.094	1.089	1.089
-0.010	0.000	0.000	0.000	0.000	-0.005	0.029	1.763	1.079	1.074	1.074	1.094	1.089	1.084
0.000	-0.005	0.000	0.000	-0.010	0.005	0.029	1.777	1.084	1.074	1.079	1.094	1.089	1.084
0.000	-0.010	0.010	0.000	-0.005	0.000	0.034	1.753	1.079	1.074	1.074	1.094	1.089	1.089
0.000	-0.005	0.000	0.000	0.000	0.005	0.029	1.772	1.079	1.074	1.074	1.094	1.089	1.084
0.000	-0.024	0.010	0.000	0.000	0.005	0.034	1.719	1.074	1.069	1.074	1.094	1.089	1.089
0.015	-0.005	0.010	0.000	0.000	0.000	0.034	1.787	1.084	1.074	1.074	1.089	1.089	1.089
0.000	-0.005	0.010	-0.005	0.000	0.005	0.034	1.792	1.079	1.074	1.074	1.089	1.089	1.084
0.005	-0.005	0.005	0.000	0.000	0.005	0.034	1.738	1.074	1.074	1.074	1.089	1.089	1.084
0.010	0.005	0.000	-0.005	-0.005	-0.005	0.029	1.733	1.079	1.079	1.074	1.089	1.089	1.084
0.015	0.000	-0.005	0.000	0.000	-0.020	0.029	1.787	1.079	1.079	1.074	1.089	1.084	1.079
0.000	0.015	0.000	0.000	-0.005	0.005	0.029	1.812	1.079	1.079	1.074	1.094	1.084	1.084
-0.005	0.015	-0.005	-0.005	0.005	0.000	0.034	1.758	1.079	1.079	1.074	1.094	1.089	1.084
-0.015	0.015	0.000	0.000	0.000	0.010	0.034	1.777	1.074	1.079	1.079	1.094	1.089	1.089
-0.010	0.029	-0.005	0.005	-0.005	0.005	0.034	1.787	1.074	1.084	1.079	1.094	1.089	1.084
-0.020	0.039	-0.005	0.000	-0.005	0.000	0.029	1.768	1.074	1.084	1.079	1.094	1.089	1.084
-0.029	0.024	0.000	0.000	-0.005	0.005	0.029	1.772	1.074	1.074	1.079	1.094	1.089	1.089
-0.024	0.015	0.000	0.000	0.000	-0.005	0.029	1.782	1.074	1.069	1.074	1.094	1.089	1.084
-0.015	0.005	-0.005	0.005	0.000	0.000	0.029	1.797	1.079	1.069	1.074	1.094	1.089	1.084
-0.015	-0.005	0.000	-0.005	-0.005	-0.010	0.029	1.753	1.079	1.064	1.069	1.094	1.089	1.079
-0.015	-0.010	0.005	-0.005	-0.005	0.000	0.029	1.792	1.079	1.069	1.069	1.089	1.089	1.084
-0.005	-0.015	0.000	0.000	0.000	0.000	0.034	1.792	1.079	1.069	1.069	1.089	1.089	1.089
0.000	-0.024	0.005	-0.005	-0.005	0.010	0.029	1.812	1.084	1.069	1.069	1.089	1.084	1.089
0.015	-0.015	0.005	-0.005	0.000	-0.015	0.029	1.753	1.084	1.074	1.069	1.089	1.084	1.079
0.024	-0.020	0.005	-0.005	0.000	0.010	0.034	1.792	1.084	1.074	1.074	1.089	1.084	1.084
0.020	-0.005	0.000	-0.005	0.005	0.005	0.034	1.792	1.084	1.079	1.074	1.094	1.084	1.084
0.024	-0.010	0.000	-0.005	0.000	0.005	0.029	1.792	1.084	1.074	1.074	1.089	1.084	1.084
0.020	-0.029	0.000	-0.005	0.000	-0.010	0.029	1.758	1.074	1.074	1.074	1.089	1.089	1.079
0.024	-0.005	-0.010	0.000	-0.005	0.005	0.029	1.807	1.079	1.079	1.074	1.094	1.084	1.084
0.010	-0.005	-0.005	0.000	0.000	0.005	0.029	1.787	1.074	1.079	1.074	1.094	1.089	1.084
0.010	0.020	-0.010	0.000	-0.005	-0.010	0.034	1.782	1.079	1.084	1.079	1.094	1.084	1.084
0.005	0.010	-0.010	0.000	0.005	-0.005	0.034	1.797	1.074	1.079	1.079	1.094	1.089	1.084
-0.005	0.015	-0.005	0.000	0.000	0.005	0.034	1.782	1.074	1.079	1.079	1.094	1.089	1.084
-0.005	0.015	-0.005	0.000	-0.005	-0.010	0.034	1.792	1.074	1.074	1.074	1.094	1.089	1.079
-0.010	0.005	-0.005	0.005	-0.010	0.000	0.034	1.733	1.069	1.069	1.074	1.094	1.089	1.089
-0.024	0.005	-0.005	0.000	0.000	0.010	0.034	1.816	1.069	1.064	1.074	1.094	1.089	1.089
-0.015	-0.010	0.005	0.005	0.000	0.005	0.034	1.772	1.074	1.064	1.069	1.094	1.094	1.089
0.000	-0.010	0.005	0.005	0.000	0.005	0.029	1.772	1.074	1.069	1.074	1.094	1.089	1.089
0.005	-0.015	0.010	0.005	0.000	0.005	0.029	1.802	1.079	1.069	1.074	1.094	1.089	1.084
0.005	-0.015	0.010	0.000	0.000	0.005	0.029	1.807	1.084	1.069	1.069	1.094	1.089	1.084
0.000	-0.015	0.005	0.005	0.000	0.005	0.029	1.729	1.074	1.074	1.069	1.089	1.089	1.084
0.015	-0.015	0.005	0.000	0.000	0.000	0.029	1.758	1.079	1.074	1.069	1.089	1.084	1.079
0.020	-0.010	0.000	0.000	0.000	0.005	0.029	1.807	1.084	1.074	1.074	1.089	1.084	1.084
0.020	-0.010	0.000	0.000	0.000	0.000	0.034	1.777	1.074	1.074	1.074	1.089	1.084	1.084
0.034	0.010	-0.005	0.000	0.005	-0.005	0.034	1.787	1.079	1.079	1.074	1.089	1.084	1.079
0.010	0.000	-0.005	0.000	0.000	0.010	0.034	1.763	1.074	1.074	1.074	1.089	1.084	1.084
-0.015	0.005	-0.005	0.000	0.000	-0.020	0.034	1.787	1.069	1.074	1.074	1.089	1.084	1.079
-0.020	0.010	-0.005	-0.005	0.000	0.000	0.029	1.816	1.074	1.074	1.074	1.094	1.084	1.084
-0.020	0.005	0.000	0.000	0.000	-0.005	0.034	1.753	1.074	1.074	1.074	1.094	1.089	1.084
-0.034	0.005	0.000	0.005	0.000	0.005	0.034	1.782	1.069	1.069	1.074	1.089	1.084	1.084
-0.039	0.010	-0.005	0.000	0.000	0.000	0.034	1.797	1.074	1.069	1.074	1.094	1.089	1.084
-0.044	0.005	0.000	0.000	0.005	0.000	0.029	1.816	1.079	1.069	1.069	1.094	1.089	1.084
-0.029	0.000	0.000	0.000	-0.005	0.005	0.029	1.758	1.074	1.074	1.069	1.089	1.084	1.089
-0.034	-0.015	0.000	0.000	0.000	0.000	0.029	1.763	1.079	1.069	1.069	1.089	1.084	1.084
-0.015	-0.024	0.005	0.000	0.000	-0.020	0.029	1.748	1.079	1.069	1.074	1.089	1.084	1.079
-0.015	-0.010	0.010	0.000	-0.005	0.010	0.029	1.753	1.074	1.074	1.074	1.089	1.084	1.089
-0.010	-0.010	0.000	-0.005	0.000	0.010	0.034	1.797	1.084	1.074	1.069	1.089	1.089	1.084
0.000	-0.024	0.000	0.005	-0.005	-0.005	0.034	1.768	1.084	1.074	1.069	1.089	1.084	1.084
0.010	-0.015	0.005	-0.005	-0.005	0.005	0.034	1.753	1.079	1.074	1.074	1.089	1.084	1.084
0.005	-0.005	0.005	0.005	-0.005	-0.015	0.034	1.787	1.079	1.084	1.074	1.089	1.084	1.079
0.015	0.000	0.000	0.000	0.000	0.000	0.029	1.787	1.084	1.079	1.074	1.089	1.089	1.084
0.024	0.010	-0.005	0.000	-0.005	0.000	0.034	1.743	1.079	1.084	1.079	1.094	1.089	1.084
0.024	-0.005	-0.005	0.005	0.000	0.005	0.029	1.768	1.074	1.074	1.074	1.094	1.089	1.084
0.010	-0.005	-0.005	0.005	0.000	-0.005	0.034	1.802	1.079	1.074	1.074	1.094	1.089	1.084
0.024	-0.010	-0.005	0.010	-0.005	0.000	0.034	1.719	1.074	1.074	1.074	1.094	1.089	1.084
0.015	0.000	-0.005	0.010	-0.005	-0.005	0.029	1.733	1.064	1.074	1.074	1.094	1.089	1.084
0.010	-0.005	-0.005	0.005	0.005	0.000	0.029	1.802	1.069	1.069	1.074	1.094	1.089	1.084
0.000	0.000	-0.005	0.000	-0.005	0.000	0.029	1.758	1.064	1.069	1.074	1.089	1.089	1.084
0.005	-0.010	-0.005	0.000	0.000	0.000	0.029	1.797	1.074	1.064	1.069	1.089	1.089	1.084
-0.010	-0.015	-0.005	0.005	0.005	-0.005	0.029	1.797	1.069	1.060	1.064	1.089	1.089	1.084
-0.005	-0.020	-0.005	0.005	0.000	0.005	0.034	1.748	1.069	1.064	1.064	1.089	1.084	1.084
-0.005	-0.015	0.000	0.000	0.005	-0.005	0.029	1.792	1.069	1.064	1.069	1.089	1.084	1.084
-0.005	-0.005	0.005	-0.005	0.000	0.005	0.029	1.743	1.074	1.069	1.069	1.089	1.084	1.084
-0.005	-0.005	0.000	0.000	-0.010	-0.005	0.029	1.777	1.074	1.069	1.064	1.084	1.079	1.079
-0.005	-0.005	0.005	-0.005	0.000	0.005	0.029	1.787	1.074	1.069	1.069	1.084	1.084	1.084
-0.005	0.005	0.000	-0.005	0.005	0.000	0.034	1.787	1.074	1.069	1.069	1.084	1.079	1.079
0.005	0.005	-0.005	-0.005	-0.005	0.005	0.029	1.782	1.079	1.074	1.064	1.084	1.084	1.079
0.000	0.005	-0.005	0.000	-0.005	-0.010	0.034	1.719	1.074	1.074	1.069	1.084	1.079	1.079
0.000	0.015	-0.005	0.000	0.000	-0.015	0.029	1.792	1.074	1.074	1.069	1.084	1.084	1.074
0.000	0.029	-0.005	-0.005	0.005	0.010	0.029	1.797	1.079	1.074	1.069	1.089	1.084	1.084
-0.005	0.024	0.000	0.000	-0.005	0.005	0.034	1.743	1.069	1.074	1.069	1.089	1.084	1.079
0.000	0.029	-0.005	0.000	-0.005	-0.010	0.034	1.738	1.064	1.074	1.074	1.089	1.084	1.079
0.005	0.015	0.000	-0.005	0.000	-0.015	0.029	1.792	1.074	1.064	1.074	1.089	1.084	1.074
0.000	0.015	0.000	-0.005	-0.005	-0.010	0.034	1.758	1.074	1.069	1.069	1.089	1.084	1.074
0.010	0.005	-0.005	-0.005	0.000	0.005	0.034	1.777	1.074	1.064	1.069	1.089	1.084	1.084
0.015	0.000	0.005	-0.015	-0.005	0.005	0.029	1.777	1.079	1.064	1.069	1.089	1.084	1.079
0.015	-0.005	0.000	-0.010	0.000	0.000	0.029	1.792	1.084	1.069	1.064	1.089	1.084	1.084
0.015	-0.010	0.000	-0.010	0.000	0.010	0.029	1.758	1.074	1.069	1.069	1.084	1.084	1.084
0.005	-0.010	0.000	-0.010	-0.005	0.005	0.029	1.792	1.074	1.064	1.069	1.084	1.079	1.079
0.015	-0.010	0.000	-0.010	0.000	0.010	0.034	1.772	1.079	1.069	1.064	1.084	1.084	1.079
0.010	0.000	0.005	-0.010	-0.005	0.010	0.029	1.777	1.079	1.074	1.069	1.084	1.079	1.079
0.000	0.000	0.000	-0.005	0.000	0.000	0.034	1.758	1.069	1.069	1.069	1.084	1.084	1.074
0.010	0.005	0.000	-0.010	-0.005	-0.015	0.029	1.797	1.074	1.074	1.069	1.089	1.084	1.074
0.000	0.000	0.010	-0.010	0.005	0.000	0.034	1.733	1.074	1.069	1.069	1.089	1.084	1.079
-0.005	0.015	-0.005	-0.005	0.000	-0.010	0.029	1.777	1.069	1.074	1.069	1.084	1.084	1.079
-0.005	0.024	-0.010	-0.005	0.000	0.005	0.029	1.802	1.074	1.074	1.069	1.089	1.084	1.079
-0.010	0.010	-0.005	0.000	0.000	0.000	0.029	1.772	1.074	1.069	1.069	1.089	1.084	1.079
-0.010	0.015	-0.010	0.000	0.000	-0.010	0.029	1.768	1.074	1.074	1.069	1.089	1.084	1.079
-0.005	0.010	-0.005	0.000	0.005	0.000	0.029	1.768	1.074	1.074	1.069	1.089	1.084	1.079
-0.010	0.010	-0.005	-0.005	0.005	-0.010	0.034	1.748	1.069	1.069	1.069	1.089	1.084	1.074
-0.015	0.010	-0.005	0.000	0.005	0.000	0.029	1.758	1.074	1.069	1.069	1.089	1.084	1.084
-0.010	0.000	0.000	0.000	0.010	-0.015	0.029	1.782	1.074	1.069	1.074	1.089	1.084	1.079
-0.005	-0.005	0.000	0.005	0.010	-0.029	0.034	1.768	1.069	1.069	1.069	1.089	1.084	1.079
0.000	-0.005	0.005	0.005	0.015	-0.010	0.029	1.743	1.074	1.069	1.069	1.089	1.089	1.084
0.000	-0.015	0.005	0.005	0.010	-0.024	0.029	1.787	1.079	1.064	1.069	1.089	1.084	1.079
0.005	-0.005	0.015	0.000	0.010	-0.015	0.029	1.743	1.074	1.069	1.069	1.089	1.089	1.084
0.005	-0.029	0.005	0.005	0.015	-0.020	0.029	1.797	1.074	1.064	1.069	1.089	1.089	1.084
-0.005	-0.024	0.015	0.005	0.024	-0.005	0.029	1.797	1.074	1.064	1.069	1.089	1.089	1.084
0.000	-0.024	0.005	0.010	0.020	-0.010	0.029	1.738	1.074	1.064	1.064	1.089	1.089	1.084
0.000	-0.010	0.000	0.010	0.015	-0.020	0.029	1.689	1.064	1.074	1.064	1.084	1.084	1.079
-0.005	0.015	-0.005	0.010	0.015	-0.010	0.029	1.782	1.069	1.074	1.069	1.084	1.084	1.084
-0.010	0.020	0.000	0.005	0.010	-0.024	0.034	1.777	1.069	1.074	1.069	1.084	1.084	1.079
-0.005	0.015	-0.005	0.015	-0.005	-0.005	0.029	1.777	1.069	1.074	1.069	1.089	1.079	1.084
-0.020	0.024	-0.010	0.015	-0.005	-0.005	0.029	1.772	1.069	1.074	1.069	1.089	1.079	1.079
-0.010	0.010	-0.005	0.010	-0.010	0.005	0.029	1.816	1.079	1.069	1.069	1.089	1.079	1.079
-0.010	0.010	-0.010	0.015	-0.015	0.005	0.034	1.748	1.069	1.069	1.064	1.089	1.079	1.084
-0.005	0.010	-0.010	0.010	-0.020	0.000	0.034	1.797	1.074	1.069	1.074	1.084	1.079	1.079
-0.010	0.005	-0.005	0.010	-0.015	0.010	0.029	1.787	1.079	1.069	1.069	1.089	1.079	1.079
-0.005	0.000	0.000	0.010	-0.020	-0.010	0.034	1.763	1.074	1.069	1.069	1.089	1.079	1.074
0.000	-0.005	0.000	0.010	-0.020	0.015	0.029	1.772	1.074	1.069	1.069	1.084	1.084	1.084
0.005	-0.005	0.000	0.000	-0.020	0.015	0.029	1.777	1.079	1.069	1.069	1.084	1.079	1.079
0.000	-0.015	0.000	0.000	-0.015	0.015	0.029	1.802	1.074	1.069	1.064	1.084	1.079	1.079
0.010	-0.015	0.000	0.000	-0.015	0.005	0.029	1.768	1.074	1.069	1.069	1.084	1.084	1.079
0.005	-0.020	0.005	0.000	-0.015	-0.005	0.029	1.782	1.074	1.064	1.069	1.084	1.079	1.074
0.000	-0.020	0.005	-0.005	-0.010	-0.005	0.029	1.802	1.079	1.069	1.069	1.084	1.079	1.074
0.005	-0.010	0.005	0.000	-0.010	0.010	0.029	1.782	1.079	1.074	1.064	1.089	1.084	1.074
0.005	-0.010	0.010	0.005	-0.010	0.010	0.029	1.743	1.074	1.074	1.069	1.089	1.084	1.079
0.005	-0.005	0.000	-0.005	-0.005	0.000	0.029	1.782	1.084	1.074	1.074	1.084	1.079	1.074
0.000	-0.005	0.000	0.000	-0.005	0.000	0.029	1.782	1.079	1.074	1.069	1.089	1.084	1.079
-0.005	0.010	-0.005	0.000	-0.005	-0.005	0.029	1.812	1.084	1.079	1.074	1.089	1.084	1.079
0.000	0.005	-0.005	0.000	-0.005	0.010	0.029	1.748	1.074	1.079	1.074	1.089	1.089	1.084
0.000	0.010	-0.005	-0.005	0.000	0.005	0.029	1.797	1.079	1.074	1.074	1.089	1.084	1.079
0.000	0.010	0.000	0.000	0.000	0.015	0.029	1.797	1.084	1.079	1.074	1.094	1.089	1.084
-0.010	0.015	-0.005	-0.005	-0.005	0.005	0.029	1.792	1.079	1.079	1.079	1.089	1.089	1.084
0.000	0.010	0.000	-0.005	0.005	-0.005	0.029	1.792	1.079	1.074	1.079	1.094	1.089	1.084
0.000	-0.005	0.005	-0.005	-0.005	-0.020	0.029	1.821	1.084	1.074	1.074	1.094	1.089	1.074
0.010	-0.020	0.005	0.000	0.000	0.005	0.029	1.763	1.079	1.074	1.074	1.094	1.089	1.084
0.010	-0.020	0.000	-0.005	0.005	0.005	0.034	1.787	1.084	1.069	1.074	1.089	1.089	1.084
0.010	-0.029	0.005	-0.005	0.005	0.005	0.034	1.704	1.069	1.069	1.069	1.089	1.089	1.084
0.015	-0.029	0.000	-0.005	0.005	0.000	0.029	1.797	1.069	1.069	1.069	1.089	1.089	1.084
0.015	-0.029	0.000	-0.005	0.005	-0.005	0.029	1.777	1.074	1.064	1.069	1.089	1.084	1.084
-0.005	-0.029	0.000	-0.005	0.005	0.000	0.029	1.792	1.069	1.064	1.069	1.089	1.084	1.084
0.005	-0.010	0.000	-0.005	0.000	-0.005	0.034	1.772	1.069	1.074	1.069	1.089	1.084	1.084
-0.005	0.005	0.000	-0.005	-0.005	0.005	0.034	1.782	1.074	1.079	1.074	1.084	1.084	1.084
-0.020	0.029	-0.005	-0.005	0.000	-0.005	0.029	1.768	1.074	1.079	1.074	1.089	1.084	1.079
-0.015	0.020	-0.005	-0.005	0.000	-0.015	0.029	1.792	1.074	1.074	1.069	1.089	1.084	1.079
-0.015	0.024	-0.010	0.000	0.005	0.005	0.029	1.792	1.074	1.074	1.074	1.094	1.084	1.084
-0.024	0.015	-0.005	0.005	0.005	-0.015	0.029	1.802	1.074	1.074	1.069	1.094	1.089	1.079
-0.015	0.015	-0.010	0.000	0.005	-0.005	0.034	1.782	1.074	1.074	1.074	1.089	1.084	1.084
-0.010	0.005	-0.010	0.000	0.005	0.015	0.029	1.792	1.079	1.069	1.074	1.094	1.089	1.089
-0.010	0.010	0.000	-0.005	0.005	-0.005	0.034	1.802	1.084	1.074	1.074	1.089	1.089	1.084
-0.010	0.005	-0.005	-0.005	0.000	0.010	0.029	1.763	1.079	1.074	1.069	1.089	1.089	1.084
-0.005	0.000	0.000	-0.005	0.000	0.005	0.034	1.704	1.069	1.074	1.074	1.089	1.089	1.084
0.010	-0.005	-0.005	-0.005	0.000	0.000	0.034	1.821	1.079	1.069	1.074	1.094	1.089	1.084
0.005	-0.010	0.000	-0.005	0.000	-0.029	0.034	1.797	1.079	1.069	1.069	1.089	1.084	1.074
0.000	-0.020	0.005	-0.005	0.000	0.000	0.029	1.738	1.069	1.069	1.069	1.089	1.089	1.084
0.000	-0.005	0.005	-0.005	0.005	0.000	0.034	1.802	1.074	1.069	1.069	1.089	1.084	1.084
0.000	-0.015	0.000	0.000	-0.005	-0.005	0.034	1.797	1.074	1.069	1.069	1.089	1.084	1.084
0.010	-0.020	0.000	0.000	-0.005	0.005	0.029	1.792	1.079	1.069	1.069	1.089	1.084	1.084
0.005	-0.005	0.000	0.005	0.005	0.005	0.034	1.782	1.074	1.074	1.074	1.089	1.089	1.084
-0.005	0.005	0.000	0.000	0.000	0.000	0.029	1.797	1.074	1.074	1.074	1.089	1.084	1.079
-0.005	0.015	-0.005	0.000	0.000	-0.005	0.034	1.768	1.074	1.079	1.074	1.089	1.084	1.079
-0.015	0.010	-0.005	0.000	-0.005	0.000	0.029	1.777	1.064	1.074	1.074	1.089	1.084	1.079
-0.010	0.015	-0.010	0.000	0.000	0.005	0.029	1.787	1.074	1.074	1.069	1.089	1.089	1.084
-0.005	0.015	-0.005	0.000	0.000	-0.015	0.029	1.792	1.079	1.074	1.074	1.089	1.084	1.079
-0.010	0.005	0.000	0.000	0.000	0.000	0.034	1.768	1.079	1.069	1.074	1.089	1.089	1.084
-0.010	0.005	-0.005	0.000	0.000	-0.020	0.029	1.802	1.079	1.074	1.074	1.089	1.084	1.079
0.000	0.000	-0.005	0.000	0.005	-0.020	0.029	1.777	1.079	1.069	1.069	1.089	1.084	1.079
0.005	0.005	0.000	-0.010	0.000	0.005	0.029	1.772	1.079	1.074	1.074	1.089	1.084	1.084
0.005	-0.005	-0.005	-0.010	0.005	0.005	0.034	1.753	1.074	1.069	1.074	1.089	1.084	1.084
0.005	-0.020	-0.005	-0.010	0.005	0.005	0.029	1.802	1.079	1.064	1.069	1.089	1.084	1.084
0.005	-0.015	0.005	-0.005	0.000	0.000	0.029	1.787	1.079	1.069	1.069	1.089	1.084	1.079
0.024	-0.024	0.005	-0.005	-0.005	-0.005	0.029	1.733	1.074	1.069	1.069	1.089	1.084	1.084
0.015	-0.024	0.010	0.000	0.005	0.000	0.029	1.792	1.074	1.069	1.069	1.089	1.084	1.084
0.020	-0.020	0.005	0.000	0.000	0.000	0.029	1.782	1.079	1.069	1.069	1.089	1.084	1.079
0.015	-0.005	0.005	-0.010	0.000	0.005	0.029	1.802	1.079	1.074	1.069	1.089	1.084	1.084
0.005	-0.005	0.000	0.000	0.000	0.000	0.034	1.792	1.074	1.074	1.069	1.089	1.084	1.084
-0.005	0.000	0.005	-0.005	0.000	0.000	0.029	1.797	1.074	1.074	1.074	1.089	1.084	1.079
-0.005	0.024	0.000	0.000	0.005	0.005	0.029	1.807	1.079	1.079	1.074	1.094	1.089	1.079
-0.015	0.020	-0.005	0.010	-0.005	-0.005	0.034	1.729	1.069	1.079	1.069	1.089	1.084	1.079
-0.015	0.010	-0.010	0.005	0.000	-0.005	0.029	1.753	1.069	1.074	1.074	1.089	1.084	1.084
-0.020	0.015	-0.005	0.005	0.000	-0.005	0.034	1.802	1.074	1.069	1.074	1.094	1.084	1.079
-0.015	0.010	-0.005	0.005	-0.005	0.000	0.029	1.753	1.074	1.069	1.069	1.089	1.089	1.084
-0.010	0.010	-0.010	0.000	-0.005	0.005	0.029	1.763	1.074	1.074	1.069	1.089	1.084	1.084
-0.005	0.000	-0.005	0.000	0.000	0.005	0.034	1.797	1.079	1.069	1.069	1.089	1.084	1.084
-0.005	0.000	0.000	0.000	0.000	-0.015	0.034	1.787	1.079	1.074	1.069	1.089	1.084	1.079
0.005	-0.010	0.005	-0.005	0.000	0.000	0.034	1.753	1.074	1.064	1.069	1.089	1.084	1.084
0.005	-0.010	0.000	0.000	0.000	0.000	0.029	1.733	1.074	1.069	1.074	1.089	1.084	1.084
-0.005	-0.015	0.005	-0.005	0.000	0.000	0.034	1.816	1.074	1.064	1.069	1.089	1.084	1.079
0.000	-0.015	0.000	0.000	0.000	-0.005	0.034	1.753	1.069	1.069	1.064	1.089	1.084	1.079
-0.005	-0.020	0.000	-0.005	0.005	-0.020	0.034	1.812	1.074	1.064	1.064	1.084	1.084	1.074
-0.010	-0.020	-0.005	-0.005	0.000	0.000	0.034	1.792	1.074	1.064	1.064	1.084	1.084	1.079
-0.005	-0.010	0.000	-0.005	0.000	-0.010	0.029	1.812	1.079	1.074	1.069	1.084	1.084	1.079
0.000	-0.029	0.005	0.000	0.000	0.000	0.029	1.787	1.079	1.069	1.064	1.089	1.084	1.079
0.010	-0.024	0.000	-0.005	-0.005	0.005	0.034	1.792	1.074	1.074	1.069	1.084	1.079	1.079
0.000	0.000	0.000	0.005	-0.005	0.000	0.029	1.787	1.079	1.079	1.074	1.089	1.079	1.079
0.000	0.010	-0.005	-0.005	0.000	-0.010	0.029	1.758	1.074	1.079	1.074	1.089	1.084	1.074
-0.015	0.010	-0.005	-0.005	-0.005	0.005	0.029	1.763	1.074	1.074	1.074	1.089	1.084	1.084
-0.010	0.010	-0.005	0.000	0.000	-0.005	0.034	1.763	1.069	1.074	1.074	1.089	1.084	1.079
0.005	0.020	-0.010	0.000	0.000	0.005	0.029	1.802	1.079	1.079	1.074	1.094	1.084	1.084
0.000	0.020	-0.005	-0.005	0.000	0.010	0.029	1.772	1.074	1.074	1.074	1.089	1.089	1.084
0.000	0.000	0.000	0.000	0.000	-0.015	0.029	1.782	1.074	1.074	1.074	1.094	1.084	1.074
0.010	0.000	0.000	-0.005	-0.005	0.005	0.029	1.797	1.079	1.069	1.074	1.094	1.084	1.084
-0.005	-0.010	0.000	-0.005	-0.005	0.015	0.029	1.787	1.074	1.069	1.069	1.089	1.084	1.089
0.005	-0.010	0.005	-0.005	0.000	0.015	0.029	1.807	1.084	1.074	1.074	1.089	1.089	1.084
0.010	-0.005	0.000	0.005	0.000	0.000	0.029	1.797	1.084	1.074	1.074	1.089	1.084	1.079
0.015	-0.015	0.005	-0.005	0.005	-0.010	0.029	1.758	1.079	1.069	1.074	1.089	1.084	1.079
0.010	-0.010	0.000	-0.005	0.000	0.005	0.034	1.748	1.074	1.074	1.069	1.089	1.089	1.084
0.005	-0.010	0.005	0.005	0.000	0.000	0.034	1.763	1.074	1.074	1.069	1.094	1.089	1.084
0.010	-0.010	0.000	0.000	0.000	0.000	0.029	1.807	1.079	1.069	1.069	1.089	1.084	1.079
-0.005	-0.005	-0.005	0.000	0.000	0.000	0.029	1.748	1.074	1.069	1.069	1.089	1.084	1.084
-0.015	0.005	0.000	0.000	-0.005	0.000	0.034	1.792	1.074	1.074	1.069	1.089	1.084	1.079
0.000	0.000	0.000	0.000	-0.005	-0.005	0.029	1.777	1.074	1.074	1.074	1.089	1.084	1.079
-0.015	0.010	-0.005	0.000	0.000	-0.005	0.034	1.802	1.079	1.069	1.074	1.089	1.089	1.084
-0.005	0.005	-0.005	0.005	0.005	-0.010	0.034	1.704	1.074	1.074	1.069	1.094	1.089	1.079
-0.015	0.010	-0.010	0.000	-0.005	-0.029	0.029	1.758	1.069	1.074	1.069	1.089	1.084	1.074
-0.005	0.000	-0.005	0.005	0.000	0.005	0.029	1.772	1.069	1.069	1.069	1.089	1.089	1.089
-0.010	0.010	0.000	0.000	-0.005	0.000	0.029	1.807	1.079	1.074	1.074	1.089	1.084	1.084
-0.005	0.000	0.005	0.000	-0.010	-0.010	0.034	1.777	1.084	1.074	1.069	1.089	1.084	1.074
-0.005	-0.010	0.000	0.000	-0.005	0.010	0.029	1.763	1.074	1.069	1.069	1.089	1.084	1.084
-0.010	-0.024	0.005	-0.005	0.000	0.005	0.029	1.797	1.079	1.064	1.069	1.089	1.084	1.084
0.010	-0.015	0.000	-0.005	0.000	0.005	0.034	1.758	1.079	1.069	1.069	1.089	1.084	1.084
0.005	-0.024	0.005	-0.005	-0.005	-0.015	0.034	1.816	1.084	1.069	1.069	1.089	1.084	1.079
0.024	-0.020	0.005	-0.005	-0.005	0.010	0.034	1.768	1.084	1.074	1.069	1.089	1.084	1.084
0.015	-0.010	0.005	0.000	0.000	0.010	0.029	1.807	1.084	1.079	1.074	1.089	1.084	1.084
0.005	-0.005	0.005	0.000	0.005	0.020	0.029	1.782	1.079	1.084	1.074	1.089	1.084	1.084
0.000	0.000	0.005	0.000	0.005	-0.005	0.034	1.748	1.069	1.079	1.074	1.094	1.084	1.079
0.000	0.000	0.000	0.000	0.005	0.005	0.034	1.792	1.074	1.079	1.074	1.089	1.084	1.079
-0.005	0.020	0.000	-0.005	0.005	0.005	0.029	1.797	1.074	1.079	1.079	1.094	1.084	1.084
-0.005	0.015	0.000	0.000	0.000	-0.005	0.029	1.758	1.074	1.079	1.074	1.094	1.089	1.079
-0.005	0.024	-0.005	0.005	0.005	0.000	0.029	1.733	1.064	1.079	1.074	1.094	1.089	1.084
-0.015	0.029	-0.005	0.005	0.000	-0.005	0.029	1.797	1.069	1.074	1.074	1.094	1.089	1.079
-0.015	0.015	-0.010	0.000	-0.010	-0.010	0.029	1.787	1.069	1.069	1.069	1.089	1.084	1.079
-0.010	0.029	-0.005	0.000	-0.015	-0.005	0.029	1.787	1.074	1.069	1.074	1.094	1.084	1.079
-0.015	0.024	-0.005	0.000	-0.005	0.000	0.029	1.763	1.074	1.069	1.074	1.094	1.089	1.084
-0.010	-0.005	0.000	-0.005	0.000	-0.005	0.034	1.802	1.079	1.064	1.069	1.089	1.089	1.079
0.000	-0.005	-0.005	-0.005	0.005	0.005	0.029	1.787	1.079	1.069	1.064	1.089	1.089	1.084
0.000	-0.010	-0.005	0.000	0.000	0.005	0.029	1.797	1.079	1.069	1.069	1.089	1.084	1.084
0.005	-0.015	0.000	-0.005	0.000	0.000	0.029	1.782	1.084	1.069	1.064	1.084	1.084	1.079
0.010	-0.020	0.005	0.000	0.000	-0.005	0.034	1.753	1.074	1.069	1.069	1.089	1.084	1.079
0.015	-0.020	0.005	0.000	0.000	0.005	0.029	1.787	1.079	1.069	1.069	1.089	1.084	1.084
0.010	-0.010	0.005	0.000	0.000	0.000	0.029	1.792	1.084	1.074	1.069	1.089	1.084	1.084
0.020	-0.010	0.005	0.000	0.000	-0.024	0.029	1.699	1.074	1.074	1.069	1.089	1.084	1.074
0.005	0.000	0.000	0.005	0.000	-0.020	0.034	1.792	1.069	1.074	1.074	1.089	1.084	1.074
0.005	0.005	0.000	0.000	0.000	0.005	0.029	1.797	1.079	1.074	1.074	1.094	1.084	1.084
0.000	0.005	-0.005	0.005	0.000	0.000	0.029	1.792	1.079	1.074	1.074	1.089	1.084	1.079
0.000	-0.005	-0.005	0.005	-0.005	-0.010	0.034	1.743	1.069	1.069	1.069	1.089	1.084	1.084
-0.010	0.015	-0.015	0.000	-0.005	0.010	0.029	1.792	1.069	1.074	1.069	1.089	1.084	1.084
-0.015	0.005	-0.005	0.000	0.000	0.005	0.029	1.792	1.074	1.074	1.069	1.089	1.084	1.079
-0.005	0.005	-0.005	0.005	0.000	0.005	0.029	1.782	1.079	1.074	1.074	1.089	1.084	1.084
-0.010	0.005	-0.005	0.000	-0.005	0.005	0.034	1.797	1.079	1.074	1.074	1.089	1.084	1.084
0.000	0.000	0.000	0.000	0.000	-0.005	0.029	1.802	1.089	1.074	1.074	1.094	1.089	1.079
-0.010	-0.010	0.005	0.000	0.000	-0.015	0.034	1.724	1.074	1.069	1.074	1.089	1.084	1.079
0.000	-0.015	0.005	0.000	-0.005	-0.010	0.034	1.763	1.074	1.069	1.074	1.089	1.084	1.079
0.000	-0.020	0.000	0.000	0.005	0.010	0.034	1.772	1.069	1.064	1.074	1.089	1.089	1.084
0.005	-0.010	0.005	0.000	0.000	0.005	0.029	1.807	1.079	1.069	1.074	1.089	1.089	1.084
0.005	-0.015	0.005	-0.005	0.000	0.005	0.029	1.812	1.079	1.074	1.069	1.089	1.084	1.084
0.010	-0.015	0.005	-0.005	0.000	-0.005	0.034	1.816	1.084	1.074	1.069	1.089	1.084	1.079
0.015	-0.010	0.005	-0.005	-0.005	0.005	0.029	1.782	1.084	1.079	1.074	1.089	1.084	1.079
0.005	-0.005	0.000	-0.005	-0.005	-0.024	0.029	1.797	1.084	1.084	1.069	1.089	1.084	1.074
0.005	-0.005	0.000	0.000	0.005	0.000	0.034	1.768	1.079	1.079	1.074	1.089	1.089	1.084
-0.010	0.010	0.000	0.000	0.005	0.000	0.034	1.807	1.079	1.079	1.079	1.094	1.084	1.084
-0.015	0.020	-0.010	0.000	-0.005	-0.010	0.029	1.787	1.074	1.079	1.074	1.094	1.084	1.079
-0.020	0.029	0.000	0.000	-0.005	-0.005	0.029	1.787	1.074	1.079	1.079	1.094	1.089	1.079
-0.015	0.010	-0.005	0.000	-0.005	0.000	0.034	1.782	1.074	1.074	1.074	1.094	1.089	1.084
-0.020	0.010	-0.010	0.000	-0.005	-0.005	0.034	1.768	1.074	1.074	1.074	1.094	1.089	1.084
-0.015	0.010	-0.010	-0.005	0.000	-0.020	0.029	1.792	1.074	1.074	1.074	1.094	1.089	1.079
-0.010	0.010	0.000	-0.005	0.005	0.005	0.034	1.812	1.084	1.074	1.074	1.094	1.089	1.089
-0.005	0.000	0.000	-0.005	0.005	-0.020	0.034	1.816	1.089	1.074	1.074	1.094	1.089	1.079
0.015	-0.010	0.005	0.005	0.005	0.010	0.029	1.748	1.084	1.074	1.074	1.094	1.094	1.089
0.005	-0.010	-0.005	0.000	0.005	-0.020	0.029	1.777	1.074	1.074	1.074	1.089	1.089	1.084
0.010	-0.015	-0.005	-0.005	0.000	0.015	0.029	1.772	1.084	1.074	1.074	1.089	1.089	1.089
0.010	-0.029	0.005	-0.005	-0.005	0.005	0.029	1.787	1.079	1.069	1.074	1.089	1.089	1.084
0.005	-0.020	0.005	-0.005	-0.005	0.015	0.029	1.792	1.079	1.074	1.074	1.089	1.084	1.089
0.005	-0.020	0.000	-0.005	0.000	0.005	0.029	1.797	1.079	1.074	1.074	1.089	1.084	1.084
0.010	-0.010	0.000	-0.005	0.000	0.000	0.034	1.753	1.084	1.079	1.074	1.089	1.084	1.084
0.000	0.000	0.000	0.000	0.000	0.005	0.029	1.812	1.079	1.079	1.074	1.094	1.084	1.084
0.005	0.015	0.005	-0.005	-0.010	-0.005	0.029	1.787	1.084	1.084	1.079	1.094	1.084	1.079
-0.010	0.024	0.005	-0.005	-0.024	-0.005	0.029	1.797	1.084	1.084	1.079	1.094	1.084	1.074
-0.010	0.015	0.000	0.000	-0.015	-0.005	0.029	1.768	1.079	1.084	1.079	1.094	1.089	1.084
-0.015	0.015	-0.005	0.005	-0.005	-0.005	0.029	1.729	1.074	1.079	1.079	1.094	1.089	1.084
-0.010	0.024	-0.005	0.005	-0.005	-0.010	0.029	1.812	1.079	1.079	1.079	1.099	1.094	1.079
-0.029	0.015	-0.005	0.005	-0.005	-0.005	0.029	1.812	1.079	1.069	1.079	1.094	1.094	1.084
-0.024	-0.024	-0.010	0.010	0.000	-0.034	0.029	1.758	1.074	1.064	1.074	1.094	1.094	1.079
-0.015	-0.020	-0.010	0.005	0.000	-0.020	0.029	1.777	1.074	1.069	1.069	1.094	1.094	1.089
-0.015	-0.020	-0.005	-0.005	0.005	0.005	0.034	1.792	1.079	1.069	1.069	1.089	1.094	1.094
0.005	-0.010	-0.005	-0.005	0.005	-0.005	0.034	1.763	1.084	1.079	1.074	1.089	1.089	1.094
0.005	-0.010	0.000	-0.005	0.005	0.024	0.029	1.787	1.084	1.074	1.079	1.094	1.089	1.094
0.005	-0.015	0.005	-0.005	0.005	0.020	0.029	1.772	1.084	1.074	1.074	1.094	1.089	1.089
0.010	-0.020	0.005	-0.005	0.000	0.010	0.029	1.729	1.074	1.074	1.074	1.094	1.089	1.089
0.005	-0.020	0.000	0.000	0.005	0.015	0.029	1.787	1.079	1.074	1.074	1.089	1.089	1.089
0.005	-0.024	0.000	0.000	-0.005	0.010	0.029	1.782	1.079	1.074	1.074	1.089	1.084	1.084
0.015	-0.020	0.000	0.000	0.000	0.005	0.034	1.763	1.079	1.079	1.074	1.094	1.089	1.079
0.005	-0.020	0.000	0.000	0.000	0.010	0.034	1.753	1.069	1.074	1.074	1.089	1.089	1.084
0.000	-0.005	-0.005	0.000	0.005	0.010	0.034	1.802	1.074	1.074	1.074	1.089	1.089	1.084
-0.005	0.005	0.000	0.000	0.005	0.010	0.029	1.753	1.079	1.079	1.074	1.094	1.089	1.079
-0.005	0.015	-0.010	0.005	0.005	0.015	0.029	1.763	1.074	1.079	1.074	1.094	1.089	1.089
-0.005	0.024	0.000	0.000	0.000	-0.010	0.029	1.797	1.079	1.084	1.079	1.089	1.089	1.079
0.000	0.020	-0.005	0.000	-0.005	0.015	0.034	1.753	1.079	1.079	1.079	1.094	1.089	1.084
0.005	0.010	-0.005	0.005	0.000	-0.010	0.034	1.807	1.079	1.079	1.079	1.094	1.089	1.084
0.005	0.005	-0.005	0.005	-0.005	0.005	0.029	1.743	1.074	1.074	1.074	1.094	1.089	1.084
0.005	0.000	-0.005	0.005	0.005	0.010	0.034	1.802	1.079	1.074	1.074	1.094	1.094	1.089
0.010	0.005	0.000	0.000	0.000	0.000	0.034	1.802	1.084	1.079	1.074	1.094	1.089	1.084
0.015	0.005	0.000	0.000	0.005	-0.024	0.034	1.772	1.079	1.079	1.079	1.094	1.089	1.079
0.005	0.010	0.000	-0.005	0.005	0.000	0.029	1.787	1.079	1.074	1.074	1.094	1.089	1.084
0.000	0.005	0.010	0.000	0.005	-0.015	0.029	1.787	1.084	1.074	1.074	1.094	1.089	1.084
0.005	-0.005	0.005	0.000	0.000	-0.020	0.034	1.782	1.079	1.074	1.074	1.094	1.089	1.084
-0.005	0.000	0.005	-0.005	0.000	-0.005	0.029	1.792	1.079	1.074	1.074	1.094	1.089	1.084
-0.005	-0.005	0.010	0.000	0.005	-0.010	0.029	1.807	1.079	1.074	1.074	1.094	1.089	1.084
0.000	0.000	0.005	0.000	-0.005	-0.005	0.029	1.797	1.084	1.079	1.074	1.094	1.089	1.084
0.005	0.005	0.005	-0.005	-0.010	0.005	0.029	1.748	1.074	1.079	1.074	1.089	1.084	1.084
-0.005	0.010	0.000	-0.005	-0.005	-0.005	0.029	1.787	1.074	1.074	1.074	1.094	1.089	1.079
-0.010	0.010	0.000	0.000	-0.020	-0.005	0.029	1.743	1.079	1.074	1.074	1.094	1.084	1.084
0.005	0.020	-0.005	0.000	-0.015	-0.005	0.029	1.772	1.084	1.079	1.074	1.094	1.089	1.084
0.010	0.015	-0.005	0.000	-0.005	-0.015	0.029	1.816	1.084	1.079	1.074	1.094	1.089	1.079
0.005	0.020	-0.005	-0.005	-0.005	-0.029	0.029	1.772	1.089	1.079	1.079	1.094	1.089	1.084
-0.010	0.010	0.000	0.000	0.000	0.005	0.029	1.753	1.074	1.074	1.079	1.094	1.094	1.094
-0.020	0.010	-0.005	-0.005	0.015	0.010	0.029	1.792	1.074	1.074	1.074	1.094	1.094	1.094
-0.020	-0.005	-0.005	-0.005	0.005	0.020	0.029	1.792	1.084	1.074	1.074	1.094	1.089	1.094
-0.029	-0.015	0.000	-0.005	-0.015	0.020	0.029	1.768	1.079	1.069	1.074	1.094	1.089	1.089
-0.005	-0.010	0.005	0.000	-0.005	0.015	0.029	1.777	1.079	1.074	1.074	1.094	1.089	1.089
-0.005	-0.015	0.005	0.000	0.010	0.020	0.034	1.797	1.084	1.069	1.074	1.094	1.094	1.089
-0.005	-0.020	0.005	-0.010	0.005	0.000	0.029	1.782	1.089	1.074	1.069	1.089	1.089	1.084
0.005	-0.020	0.005	-0.005	0.010	0.020	0.034	1.758	1.084	1.074	1.074	1.089	1.089	1.094
0.015	-0.015	0.005	0.000	-0.005	0.024	0.029	1.797	1.089	1.079	1.074	1.094	1.084	1.089
0.000	0.000	0.005	-0.005	-0.015	0.020	0.029	1.787	1.084	1.084	1.079	1.089	1.084	1.084
0.010	-0.005	0.005	0.000	-0.029	0.005	0.029	1.748	1.079	1.084	1.079	1.094	1.084	1.079
0.005	0.005	-0.005	0.005	-0.015	-0.024	0.034	1.777	1.074	1.079	1.079	1.094	1.084	1.074
0.000	0.000	-0.005	0.005	0.000	0.000	0.034	1.807	1.079	1.079	1.074	1.094	1.094	1.084
0.000	0.000	-0.005	0.000	0.029	-0.024	0.034	1.777	1.084	1.079	1.079	1.094	1.099	1.084
-0.005	0.015	-0.005	0.005	0.054	-0.005	0.029	1.753	1.074	1.084	1.079	1.099	1.104	1.094
0.000	0.010	-0.010	0.005	0.015	-0.015	0.034	1.782	1.079	1.074	1.079	1.099	1.089	1.089
-0.005	0.015	-0.005	0.005	0.024	0.005	0.029	1.777	1.079	1.079	1.079	1.099	1.094	1.094
-0.005	0.010	-0.010	0.005	0.024	-0.005	0.029	1.772	1.079	1.079	1.074	1.094	1.094	1.089
0.000	0.015	-0.010	0.000	0.015	0.000	0.029	1.812	1.084	1.079	1.079	1.094	1.089	1.094
-0.005	0.005	-0.005	0.000	0.000	0.005	0.029	1.768	1.084	1.079	1.074	1.094	1.084	1.089
-0.005	-0.015	-0.005	0.005	-0.029	-0.015	0.034	1.802	1.084	1.074	1.074	1.094	1.079	1.074
0.000	-0.015	0.000	0.000	-0.044	-0.005	0.029	1.797	1.084	1.074	1.074	1.094	1.074	1.084
0.000	-0.020	0.000	0.000	-0.039	-0.005	0.034	1.792	1.084	1.069	1.074	1.094	1.079	1.079
0.015	-0.020	0.005	0.000	-0.039	-0.020	0.034	1.807	1.089	1.074	1.074	1.094	1.084	1.074
0.010	-0.015	0.005	0.000	0.005	-0.034	0.034	1.792	1.079	1.079	1.079	1.094	1.099	1.079
0.005	-0.015	0.005	0.000	0.015	-0.044	0.034	1.797	1.079	1.079	1.074	1.094	1.094	1.079
-0.005	0.000	0.000	0.000	0.005	-0.020	0.029	1.792	1.074	1.079	1.079	1.094	1.094	1.089
-0.005	0.000	-0.005	-0.005	0.034	-0.015	0.034	1.807	1.079	1.079	1.074	1.094	1.104	1.094
-0.005	0.005	-0.010	0.000	0.054	-0.020	0.029	1.763	1.074	1.079	1.079	1.094	1.104	1.094
-0.005	0.015	-0.005	0.000	0.020	0.010	0.029	1.802	1.084	1.079	1.079	1.094	1.089	1.099
-0.020	0.010	-0.005	0.000	-0.005	-0.005	0.034	1.763	1.074	1.074	1.074	1.094	1.084	1.084
-0.020	0.000	-0.005	0.005	-0.020	0.005	0.034	1.763	1.074	1.074	1.074	1.094	1.084	1.089
-0.010	0.010	-0.005	0.005	-0.010	0.020	0.029	1.763	1.074	1.074	1.079	1.094	1.089	1.089
-0.010	-0.005	0.000	0.005	0.005	0.010	0.034	1.821	1.084	1.069	1.074	1.094	1.094	1.089
-0.010	-0.005	0.005	0.005	0.020	0.015	0.034	1.792	1.079	1.074	1.079	1.094	1.094	1.094
0.010	-0.005	0.000	0.000	0.020	0.029	0.029	1.797	1.089	1.079	1.074	1.094	1.094	1.099
0.010	-0.005	0.000	0.000	0.010	0.024	0.029	1.787	1.089	1.079	1.074	1.094	1.094	1.089
0.005	0.000	0.000	0.000	0.000	0.015	0.034	1.748	1.079	1.079	1.079	1.094	1.089	1.089
0.005	-0.005	0.005	0.000	-0.005	-0.010	0.029	1.802	1.084	1.079	1.079	1.094	1.084	1.079
0.005	0.000	0.000	-0.005	-0.010	0.015	0.034	1.792	1.084	1.079	1.079	1.094	1.089	1.089
0.015	0.010	0.000	-0.005	-0.020	0.010	0.034	1.743	1.084	1.084	1.074	1.094	1.089	1.084
0.005	0.005	0.000	-0.005	-0.010	0.005	0.029	1.768	1.074	1.074	1.079	1.094	1.089	1.084
0.010	-0.010	0.000	-0.005	-0.010	0.000	0.034	1.812	1.084	1.074	1.074	1.094	1.089	1.079
0.010	0.000	0.000	0.000	-0.010	-0.015	0.029	1.743	1.064	1.074	1.074	1.094	1.089	1.079
0.005	0.000	-0.005	0.005	-0.020	0.005	0.029	1.772	1.064	1.074	1.074	1.094	1.084	1.084
0.000	0.010	-0.005	-0.005	-0.020	0.005	0.029	1.792	1.074	1.074	1.074	1.094	1.089	1.084
0.010	0.010	0.000	0.000	-0.005	-0.005	0.029	1.807	1.079	1.074	1.074	1.094	1.094	1.084
0.005	0.010	-0.010	0.000	-0.010	0.005	0.029	1.777	1.079	1.074	1.069	1.094	1.094	1.084
-0.005	0.015	-0.010	0.000	-0.005	0.015	0.029	1.792	1.074	1.074	1.074	1.089	1.089	1.089
-0.005	0.015	-0.010	0.000	0.000	0.010	0.034	1.802	1.079	1.074	1.074	1.094	1.094	1.089
-0.020	0.010	-0.005	0.000	0.000	0.005	0.029	1.782	1.079	1.074	1.074	1.089	1.089	1.084
-0.020	0.020	-0.010	-0.005	0.000	-0.005	0.029	1.768	1.079	1.074	1.074	1.094	1.089	1.084
-0.010	0.005	-0.005	-0.005	0.000	0.005	0.029	1.797	1.079	1.069	1.074	1.094	1.089	1.089
-0.010	-0.015	0.000	0.000	-0.005	-0.005	0.029	1.733	1.074	1.069	1.074	1.089	1.089	1.084
0.000	-0.020	0.000	0.000	-0.010	0.000	0.029	1.782	1.074	1.064	1.069	1.089	1.084	1.084
0.005	-0.024	-0.005	0.005	-0.010	-0.005	0.029	1.782	1.074	1.069	1.069	1.089	1.084	1.084
0.000	-0.015	0.000	-0.005	-0.005	0.000	0.034	1.787	1.074	1.069	1.069	1.089	1.084	1.079
0.000	-0.015	0.000	0.000	-0.010	-0.005	0.029	1.787	1.079	1.069	1.069	1.089	1.084	1.084
0.010	-0.015	0.000	-0.005	-0.010	-0.024	0.034	1.802	1.084	1.074	1.069	1.089	1.079	1.074
0.005	-0.010	0.000	-0.005	0.000	-0.005	0.029	1.758	1.079	1.074	1.069	1.089	1.084	1.084
-0.005	-0.005	0.005	-0.005	-0.005	0.005	0.034	1.763	1.074	1.074	1.074	1.089	1.084	1.084
-0.015	0.010	-0.005	-0.005	-0.005	0.005	0.034	1.802	1.074	1.074	1.074	1.089	1.084	1.084
-0.010	0.010	-0.005	0.000	0.000	0.010	0.034	1.777	1.074	1.079	1.074	1.089	1.089	1.084
-0.010	0.015	-0.005	0.000	0.005	0.005	0.029	1.772	1.074	1.079	1.074	1.094	1.089	1.084
-0.015	0.015	-0.005	0.000	0.000	-0.005	0.029	1.782	1.074	1.074	1.074	1.094	1.084	1.084
-0.010	0.010	-0.010	0.005	0.000	0.005	0.029	1.753	1.074	1.074	1.074	1.094	1.089	1.084
-0.010	0.005	-0.005	0.010	0.000	-0.010	0.034	1.758	1.074	1.074	1.074	1.094	1.089	1.084
-0.005	0.010	-0.005	0.005	0.010	0.000	0.034	1.768	1.079	1.074	1.074	1.094	1.089	1.084
-0.005	0.000	0.000	0.005	0.005	0.000	0.034	1.787	1.074	1.069	1.074	1.094	1.089	1.089
-0.005	0.000	0.005	0.005	0.000	0.005	0.034	1.714	1.074	1.074	1.074	1.094	1.089	1.084
0.000	0.000	0.000	0.005	0.005	0.005	0.034	1.802	1.084	1.074	1.074	1.094	1.089	1.089
0.000	0.000	0.000	-0.005	0.005	0.000	0.034	1.768	1.079	1.074	1.069	1.089	1.089	1.084
0.010	-0.010	0.010	-0.005	0.005	-0.005	0.034	1.802	1.079	1.074	1.074	1.089	1.084	1.079
0.010	-0.010	0.005	-0.010	0.000	-0.005	0.029	1.816	1.084	1.074	1.074	1.089	1.084	1.079
0.010	-0.005	0.005	-0.005	0.000	-0.015	0.029	1.787	1.079	1.074	1.074	1.089	1.084	1.079
0.005	-0.005	0.010	-0.005	0.005	0.005	0.034	1.816	1.079	1.074	1.074	1.089	1.084	1.084
0.015	-0.005	0.000	-0.005	0.000	0.010	0.029	1.787	1.084	1.079	1.074	1.089	1.084	1.079
0.010	-0.010	0.000	0.005	0.005	-0.015	0.034	1.758	1.074	1.074	1.074	1.094	1.084	1.079
0.010	-0.010	0.000	-0.005	0.005	-0.010	0.029	1.807	1.074	1.074	1.074	1.089	1.084	1.079
0.000	0.000	0.005	0.000	0.010	-0.015	0.034	1.787	1.074	1.074	1.074	1.094	1.089	1.079
-0.005	0.000	0.000	0.000	0.000	-0.020	0.034	1.699	1.074	1.074	1.074	1.094	1.089	1.079
0.000	0.005	-0.005	0.000	0.005	0.000	0.029	1.792	1.074	1.074	1.074	1.089	1.089	1.084
-0.005	0.000	0.000	0.000	0.000	0.020	0.029	1.787	1.079	1.074	1.074	1.094	1.089	1.094
-0.005	0.010	-0.005	-0.005	-0.005	0.015	0.029	1.821	1.089	1.079	1.074	1.094	1.089	1.089
0.000	0.020	-0.005	-0.005	0.000	-0.005	0.034	1.782	1.084	1.079	1.079	1.094	1.089	1.084
-0.005	0.005	0.000	-0.005	0.005	0.020	0.029	1.807	1.084	1.079	1.074	1.094	1.089	1.089
0.005	-0.005	0.000	0.000	0.000	0.015	0.029	1.743	1.079	1.074	1.074	1.094	1.089	1.089
-0.005	0.000	-0.005	-0.005	0.000	0.005	0.029	1.797	1.084	1.079	1.079	1.094	1.089	1.084
0.005	-0.010	0.000	-0.005	0.000	0.000	0.029	1.777	1.084	1.074	1.079	1.094	1.089	1.084
0.000	-0.020	0.000	-0.010	-0.005	-0.020	0.029	1.758	1.074	1.069	1.074	1.089	1.089	1.079
-0.005	-0.010	0.005	-0.005	0.005	0.000	0.034	1.797	1.079	1.069	1.074	1.094	1.089	1.089
0.005	-0.024	-0.005	-0.005	0.000	-0.005	0.029	1.802	1.084	1.069	1.074	1.094	1.089	1.084
0.000	-0.020	0.000	-0.005	0.000	-0.005	0.029	1.733	1.079	1.074	1.069	1.094	1.089	1.084
0.000	-0.015	0.000	0.000	0.000	-0.005	0.029	1.753	1.074	1.074	1.074	1.094	1.089	1.084
-0.005	-0.005	-0.005	0.005	0.000	-0.010	0.029	1.738	1.069	1.074	1.069	1.094	1.089	1.079
0.010	0.000	-0.005	0.005	0.005	-0.015	0.029	1.772	1.069	1.074	1.069	1.089	1.089	1.079
-0.010	0.005	-0.005	0.000	0.005	-0.024	0.029	1.802	1.074	1.074	1.074	1.094	1.089	1.079
0.000	0.005	-0.005	0.005	0.010	0.000	0.029	1.768	1.079	1.074	1.074	1.089	1.089	1.089
0.000	0.024	-0.010	0.005	0.010	-0.005	0.029	1.792	1.079	1.079	1.074	1.094	1.089	1.084
-0.010	0.010	-0.010	0.000	0.005	0.000	0.034	1.772	1.074	1.074	1.074	1.094	1.089	1.089
-0.005	0.015	-0.010	0.000	0.000	0.015	0.034	1.807	1.084	1.079	1.074	1.094	1.089	1.089
0.005	0.010	-0.005	0.000	0.000	0.010	0.029	1.758	1.079	1.079	1.079	1.089	1.089	1.089
0.010	0.015	-0.005	0.000	0.010	-0.010	0.034	1.763	1.074	1.079	1.079	1.094	1.089	1.079
-0.005	0.005	0.000	-0.005	-0.005	0.005	0.029	1.777	1.074	1.074	1.074	1.094	1.084	1.084
0.010	0.010	0.000	-0.005	-0.005	0.000	0.029	1.738	1.079	1.074	1.074	1.089	1.084	1.084
0.015	-0.015	0.000	-0.005	-0.015	-0.015	0.029	1.782	1.074	1.069	1.069	1.089	1.084	1.079
0.005	-0.015	0.000	-0.010	-0.020	-0.005	0.029	1.812	1.079	1.069	1.069	1.089	1.079	1.084
0.005	-0.024	0.005	-0.005	-0.029	0.005	0.034	1.729	1.074	1.069	1.069	1.089	1.084	1.079
0.010	-0.024	0.005	-0.005	-0.015	-0.005	0.034	1.777	1.069	1.064	1.069	1.089	1.084	1.079
0.005	-0.029	0.000	-0.005	-0.015	0.005	0.034	1.753	1.064	1.064	1.064	1.089	1.084	1.084
0.010	-0.020	0.000	-0.005	-0.020	0.010	0.034	1.748	1.069	1.069	1.064	1.084	1.084	1.084
0.000	-0.010	0.005	-0.005	0.000	-0.010	0.029	1.733	1.064	1.069	1.064	1.089	1.089	1.079
0.000	0.000	0.000	0.005	0.010	-0.010	0.034	1.782	1.069	1.074	1.064	1.089	1.094	1.084
-0.005	0.005	-0.005	0.000	0.039	0.015	0.034	1.787	1.074	1.069	1.069	1.089	1.094	1.089
-0.020	0.005	-0.005	0.000	0.024	-0.015	0.029	1.724	1.069	1.069	1.069	1.089	1.089	1.084
-0.010	0.015	0.000	0.005	0.005	0.005	0.029	1.738	1.069	1.074	1.069	1.089	1.084	1.089
-0.015	0.015	-0.005	0.000	0.005	-0.010	0.029	1.797	1.074	1.074	1.069	1.089	1.079	1.079
-0.020	0.034	0.000	-0.005	0.020	0.005	0.029	1.768	1.074	1.079	1.074	1.089	1.089	1.084
-0.010	0.000	0.000	-0.005	0.005	-0.005	0.034	1.724	1.069	1.064	1.069	1.089	1.084	1.079
-0.005	-0.005	-0.005	0.000	0.010	-0.029	0.029	1.777	1.074	1.064	1.069	1.089	1.084	1.074
-0.005	-0.010	0.000	-0.005	0.005	-0.015	0.029	1.792	1.079	1.064	1.069	1.084	1.079	1.079
-0.010	-0.010	0.010	-0.010	-0.015	-0.020	0.029	1.797	1.079	1.069	1.069	1.084	1.074	1.069
0.000	-0.024	0.005	-0.005	-0.015	-0.005	0.029	1.704	1.069	1.064	1.064	1.084	1.074	1.079
0.005	-0.029	0.010	-0.005	-0.029	0.005	0.029	1.797	1.074	1.064	1.069	1.084	1.074	1.079
0.005	-0.020	0.010	-0.005	0.000	0.015	0.029	1.772	1.079	1.069	1.064	1.089	1.084	1.079
0.010	-0.024	0.010	-0.005	0.000	0.015	0.034	1.748	1.074	1.069	1.064	1.084	1.084	1.084
0.005	-0.020	0.015	0.000	-0.010	0.029	0.034	1.802	1.074	1.074	1.069	1.084	1.079	1.084
0.015	-0.005	0.010	0.000	-0.034	0.034	0.029	1.792	1.084	1.074	1.074	1.089	1.074	1.084
0.000	-0.005	0.000	0.005	-0.039	0.029	0.029	1.729	1.069	1.074	1.069	1.089	1.079	1.079
-0.005	0.015	-0.005	0.005	-0.029	0.020	0.029	1.792	1.069	1.074	1.069	1.084	1.079	1.079
0.000	0.015	-0.005	0.000	0.005	0.029	0.034	1.816	1.079	1.074	1.069	1.089	1.089	1.079
-0.005	0.010	-0.005	0.000	0.015	-0.010	0.034	1.782	1.079	1.074	1.069	1.089	1.089	1.074
-0.005	0.010	-0.005	0.005	-0.020	0.005	0.029	1.777	1.074	1.074	1.074	1.089	1.079	1.079
-0.005	0.005	-0.005	0.000	-0.005	0.010	0.034	1.807	1.079	1.074	1.074	1.089	1.089	1.079
0.000	0.000	0.000	0.000	0.068	-0.010	0.034	1.748	1.079	1.074	1.074	1.094	1.104	1.084
0.000	0.015	-0.005	-0.005	0.083	-0.020	0.034	1.792	1.079	1.079	1.074	1.094	1.104	1.084
0.000	0.000	0.005	-0.005	0.039	-0.015	0.034	1.772	1.079	1.074	1.074	1.089	1.084	1.084
-0.005	0.024	0.000	0.005	0.024	-0.020	0.034	1.748	1.079	1.079	1.074	1.089	1.084	1.084
0.000	0.020	-0.005	0.000	0.024	-0.024	0.034	1.792	1.079	1.074	1.074	1.089	1.084	1.084
0.000	0.005	0.005	-0.005	-0.010	-0.010	0.034	1.807	1.079	1.074	1.074	1.089	1.074	1.079
0.010	-0.010	0.005	0.000	-0.044	-0.005	0.034	1.729	1.074	1.069	1.069	1.089	1.069	1.079
0.010	-0.005	-0.005	0.005	-0.039	-0.029	0.034	1.797	1.074	1.069	1.069	1.089	1.074	1.074
0.005	-0.010	-0.005	0.000	-0.010	-0.005	0.034	1.782	1.074	1.069	1.069	1.089	1.084	1.079
-0.005	-0.005	0.000	-0.005	0.034	0.015	0.034	1.807	1.074	1.069	1.069	1.089	1.099	1.089
-0.005	0.000	0.005	0.000	0.020	0.005	0.029	1.724	1.074	1.074	1.069	1.089	1.089	1.084
-0.005	0.010	-0.005	0.005	0.024	-0.005	0.034	1.787	1.069	1.074	1.069	1.089	1.089	1.089
-0.010	0.015	-0.005	0.005	0.010	0.000	0.029	1.787	1.074	1.074	1.069	1.089	1.084	1.084
-0.020	0.010	-0.005	0.005	-0.005	0.010	0.034	1.768	1.074	1.069	1.069	1.089	1.084	1.084
-0.020	0.015	-0.005	0.005	-0.010	0.000	0.034	1.792	1.084	1.074	1.069	1.089	1.079	1.079
-0.010	0.015	-0.015	0.005	-0.010	-0.015	0.029	1.787	1.084	1.074	1.069	1.089	1.079	1.074
-0.015	0.015	-0.015	0.000	-0.020	0.010	0.034	1.797	1.084	1.079	1.069	1.089	1.079	1.084
-0.020	0.015	-0.010	0.000	0.015	0.005	0.034	1.797	1.084	1.079	1.074	1.089	1.089	1.084
0.000	0.005	-0.010	0.000	0.029	0.005	0.034	1.807	1.089	1.079	1.074	1.094	1.094	1.089
0.000	-0.010	0.000	0.000	0.034	-0.010	0.034	1.758	1.084	1.079	1.079	1.094	1.094	1.084
0.015	-0.015	0.000	0.000	0.010	0.005	0.034	1.787	1.084	1.074	1.079	1.089	1.084	1.084
0.010	-0.005	0.000	0.000	-0.015	0.005	0.029	1.807	1.084	1.079	1.074	1.089	1.079	1.084
0.015	-0.010	0.000	-0.005	-0.015	-0.005	0.034	1.777	1.079	1.074	1.074	1.089	1.084	1.079
0.005	-0.015	-0.005	0.000	-0.020	-0.005	0.029	1.797	1.079	1.074	1.079	1.094	1.079	1.079
0.000	-0.020	0.010	-0.010	-0.024	-0.029	0.029	1.812	1.079	1.069	1.074	1.094	1.079	1.069
0.000	-0.005	0.000	-0.005	-0.024	0.000	0.029	1.758	1.074	1.079	1.074	1.094	1.084	1.079
-0.005	-0.010	0.000	0.000	-0.020	0.000	0.029	1.772	1.069	1.074	1.074	1.094	1.089	1.084
-0.010	0.005	0.000	0.005	-0.015	0.005	0.029	1.763	1.074	1.074	1.074	1.094	1.089	1.084
-0.005	0.000	0.000	0.005	-0.015	0.005	0.029	1.772	1.069	1.074	1.074	1.094	1.089	1.084
-0.010	0.015	-0.005	0.010	-0.010	0.000	0.029	1.797	1.074	1.074	1.074	1.094	1.089	1.084
-0.020	0.015	0.000	0.005	-0.010	0.000	0.029	1.782	1.079	1.074	1.074	1.094	1.094	1.084
-0.015	-0.010	0.000	0.005	-0.010	-0.015	0.029	1.699	1.064	1.064	1.069	1.089	1.089	1.079
-0.015	-0.005	-0.005	0.000	-0.005	0.000	0.029	1.787	1.069	1.064	1.069	1.089	1.089	1.089
-0.015	0.000	0.000	0.000	-0.015	0.000	0.029	1.812	1.079	1.069	1.069	1.089	1.089	1.084
-0.015	-0.020	0.000	0.000	-0.010	-0.005	0.029	1.816	1.084	1.069	1.069	1.089	1.089	1.084
-0.015	-0.015	0.005	0.000	-0.010	-0.005	0.029	1.733	1.074	1.074	1.069	1.089	1.089	1.084
-0.005	-0.005	0.000	-0.005	-0.005	-0.005	0.029	1.797	1.079	1.074	1.069	1.089	1.084	1.089
-0.010	-0.005	0.005	-0.005	0.000	0.005	0.029	1.807	1.084	1.074	1.074	1.089	1.089	1.084
0.005	-0.010	0.005	-0.005	0.000	-0.005	0.029	1.772	1.084	1.079	1.074	1.089	1.084	1.084
0.015	-0.005	0.000	-0.005	0.000	-0.005	0.034	1.768	1.079	1.084	1.074	1.089	1.084	1.084
-0.005	0.005	0.000	-0.005	0.000	0.005	0.034	1.797	1.079	1.079	1.074	1.089	1.084	1.084
0.005	0.010	0.005	0.000	-0.005	0.000	0.029	1.812	1.084	1.079	1.074	1.094	1.084	1.079
0.010	0.005	0.000	0.000	0.005	0.010	0.034	1.792	1.084	1.079	1.079	1.094	1.089	1.089
0.015	0.005	-0.005	0.000	-0.005	0.005	0.029	1.797	1.084	1.079	1.079	1.094	1.084	1.084
0.000	0.005	0.000	-0.005	0.000	0.005	0.029	1.807	1.084	1.079	1.074	1.094	1.089	1.084
0.000	0.015	-0.005	0.000	0.000	0.010	0.029	1.807	1.084	1.084	1.079	1.094	1.089	1.089
-0.005	0.015	-0.005	0.000	0.000	-0.005	0.029	1.777	1.074	1.084	1.079	1.094	1.089	1.084
-0.005	0.020	-0.005	0.000	-0.005	0.000	0.029	1.797	1.084	1.084	1.079	1.094	1.089	1.084
0.000	0.020	-0.010	0.000	0.005	-0.015	0.029	1.753	1.074	1.079	1.079	1.094	1.094	1.084
-0.005	0.015	-0.005	0.000	0.000	0.000	0.034	1.787	1.074	1.074	1.079	1.094	1.094	1.089
0.005	0.010	-0.005	0.000	0.000	-0.005	0.029	1.787	1.079	1.074	1.079	1.099	1.089	1.089
0.000	0.005	-0.010	0.005	-0.005	0.005	0.029	1.802	1.079	1.074	1.074	1.094	1.089	1.089
0.010	-0.010	-0.005	-0.005	0.000	0.000	0.034	1.694	1.069	1.069	1.074	1.094	1.089	1.089
0.005	-0.015	0.000	0.000	0.000	0.000	0.034	1.782	1.074	1.069	1.074	1.094	1.089	1.089
0.015	-0.010	-0.005	0.000	0.000	-0.005	0.029	1.758	1.079	1.069	1.074	1.094	1.089	1.084
0.005	-0.015	0.000	-0.005	0.000	-0.005	0.034	1.802	1.074	1.069	1.069	1.089	1.089	1.089
0.010	-0.020	0.000	0.000	-0.005	0.005	0.029	1.782	1.079	1.074	1.069	1.089	1.089	1.084
0.015	-0.015	0.000	0.005	-0.010	0.005	0.034	1.753	1.074	1.074	1.069	1.089	1.084	1.084
0.015	-0.005	0.000	-0.005	0.005	-0.005	0.029	1.777	1.079	1.074	1.074	1.089	1.089	1.084
0.000	-0.010	-0.005	-0.005	0.005	-0.005	0.029	1.763	1.069	1.074	1.069	1.089	1.089	1.079
0.000	0.005	-0.005	0.000	-0.005	-0.010	0.034	1.753	1.069	1.074	1.069	1.089	1.084	1.084
0.005	-0.015	0.000	0.005	0.000	0.000	0.029	1.777	1.069	1.069	1.074	1.089	1.084	1.084
-0.005	0.005	-0.005	0.000	-0.005	0.010	0.034	1.792	1.069	1.074	1.069	1.089	1.084	1.089
-0.020	-0.005	-0.005	0.000	-0.005	0.015	0.034	1.787	1.069	1.069	1.069	1.089	1.084	1.084
-0.005	0.005	-0.005	0.005	0.000	-0.005	0.034	1.777	1.074	1.074	1.069	1.089	1.084	1.079
-0.015	-0.005	-0.010	0.000	0.005	-0.005	0.029	1.792	1.074	1.069	1.069	1.089	1.084	1.084
-0.024	0.005	-0.010	0.005	0.010	0.005	0.029	1.787	1.074	1.074	1.069	1.089	1.089	1.084
-0.015	0.024	-0.005	0.000	0.010	0.010	0.034	1.729	1.074	1.079	1.074	1.089	1.089	1.089
0.000	0.005	0.005	0.000	0.010	0.005	0.034	1.787	1.079	1.074	1.074	1.089	1.089	1.084
-0.010	0.005	0.000	-0.005	0.005	-0.010	0.029	1.782	1.079	1.074	1.074	1.094	1.084	1.074
0.005	-0.005	0.000	-0.005	-0.005	-0.010	0.034	1.738	1.079	1.074	1.069	1.089	1.084	1.079
0.010	-0.005	0.000	-0.005	0.000	0.010	0.029	1.763	1.079	1.074	1.069	1.089	1.084	1.084
0.005	-0.010	0.005	-0.005	0.005	0.015	0.029	1.792	1.074	1.069	1.074	1.089	1.084	1.084
0.010	-0.010	0.005	-0.005	-0.010	-0.010	0.029	1.753	1.079	1.074	1.074	1.089	1.084	1.079
0.000	-0.010	0.005	0.000	-0.005	0.000	0.029	1.763	1.074	1.074	1.074	1.089	1.084	1.079
0.005	-0.010	0.000	0.000	0.010	-0.015	0.029	1.797	1.079	1.074	1.069	1.089	1.089	1.074
-0.005	-0.005	0.005	-0.005	0.015	0.005	0.029	1.812	1.079	1.074	1.069	1.089	1.089	1.084
-0.005	-0.005	0.000	0.000	0.015	0.000	0.034	1.714	1.069	1.074	1.069	1.089	1.089	1.084
-0.010	0.015	0.000	0.000	0.010	-0.010	0.029	1.753	1.060	1.074	1.074	1.089	1.084	1.079
-0.010	0.029	0.000	0.000	-0.010	-0.020	0.029	1.792	1.064	1.074	1.069	1.089	1.079	1.074
-0.005	0.015	-0.005	-0.005	-0.010	-0.034	0.029	1.802	1.074	1.069	1.069	1.089	1.079	1.069
-0.005	0.010	-0.010	0.000	-0.015	-0.015	0.029	1.768	1.069	1.069	1.064	1.089	1.084	1.079
-0.010	0.015	-0.010	0.005	-0.005	-0.005	0.034	1.699	1.060	1.069	1.069	1.089	1.084	1.084
-0.005	0.015	-0.005	0.000	-0.024	-0.005	0.029	1.797	1.069	1.064	1.069	1.089	1.079	1.079
-0.005	0.015	0.000	0.000	-0.024	-0.020	0.029	1.812	1.079	1.069	1.069	1.089	1.079	1.079
0.000	0.000	-0.005	0.000	-0.020	0.010	0.034	1.802	1.079	1.069	1.069	1.084	1.084	1.089
0.000	-0.010	0.005	-0.020	0.000	0.015	0.029	1.787	1.084	1.064	1.064	1.084	1.089	1.084
0.005	-0.010	0.005	-0.029	-0.024	0.020	0.034	1.748	1.074	1.069	1.069	1.079	1.074	1.084
0.015	-0.020	0.005	-0.034	-0.020	0.029	0.029	1.812	1.079	1.064	1.069	1.079	1.079	1.084
0.005	-0.010	0.005	-0.029	0.020	0.010	0.029	1.763	1.074	1.069	1.069	1.084	1.089	1.074
0.005	-0.005	0.005	-0.020	0.029	0.015	0.029	1.777	1.074	1.069	1.069	1.084	1.089	1.084
0.005	-0.005	0.010	-0.020	0.059	0.015	0.034	1.812	1.074	1.069	1.069	1.089	1.094	1.089
-0.005	0.000	0.000	-0.020	0.029	0.005	0.029	1.812	1.079	1.069	1.069	1.089	1.084	1.079
-0.005	-0.020	0.000	0.000	0.015	-0.005	0.034	1.802	1.074	1.069	1.069	1.094	1.084	1.079
-0.005	0.010	0.000	0.005	0.020	-0.010	0.029	1.797	1.079	1.074	1.069	1.094	1.084	1.079
-0.015	-0.010	0.000	0.005	0.015	-0.005	0.029	1.807	1.074	1.069	1.069	1.094	1.084	1.079
-0.015	-0.010	0.000	0.005	0.010	0.010	0.034	1.758	1.074	1.069	1.069	1.094	1.084	1.084
-0.010	-0.005	-0.005	0.010	0.015	-0.005	0.034	1.729	1.069	1.074	1.069	1.089	1.084	1.079
-0.010	0.005	-0.005	0.000	-0.005	0.010	0.034	1.768	1.069	1.074	1.069	1.089	1.079	1.079
-0.005	0.000	0.000	-0.005	-0.020	0.010	0.029	1.802	1.074	1.069	1.069	1.089	1.074	1.079
0.005	-0.005	-0.005	-0.005	-0.024	-0.015	0.034	1.758	1.074	1.069	1.069	1.084	1.074	1.069
0.000	-0.005	-0.005	-0.005	-0.039	-0.005	0.034	1.777	1.074	1.069	1.069	1.089	1.074	1.074
0.005	-0.005	0.000	0.000	-0.068	0.015	0.034	1.797	1.079	1.069	1.069	1.089	1.069	1.074
0.005	-0.010	0.000	0.000	-0.083	0.000	0.034	1.792	1.079	1.069	1.069	1.089	1.069	1.069
0.005	0.005	0.010	0.000	-0.049	0.000	0.034	1.763	1.074	1.074	1.074	1.089	1.084	1.074
0.015	0.000	0.000	0.000	-0.020	-0.005	0.034	1.797	1.074	1.074	1.074	1.089	1.094	1.079
0.015	-0.005	0.005	0.005	0.020	0.000	0.029	1.807	1.074	1.069	1.069	1.094	1.099	1.084
0.005	-0.015	0.005	0.000	0.063	-0.005	0.034	1.777	1.074	1.069	1.074	1.089	1.108	1.089
0.005	0.005	0.005	0.005	0.078	-0.010	0.029	1.812	1.079	1.074	1.069	1.089	1.104	1.089
0.000	0.000	0.000	0.005	0.059	-0.029	0.029	1.772	1.074	1.074	1.069	1.089	1.094	1.084
0.005	0.020	0.005	0.010	0.054	-0.024	0.034	1.748	1.074	1.079	1.074	1.089	1.094	1.089
0.000	0.010	0.000	0.010	0.034	-0.015	0.034	1.797	1.079	1.074	1.074	1.089	1.084	1.089
-0.005	0.000	-0.010	0.015	0.054	-0.010	0.034	1.792	1.074	1.069	1.069	1.094	1.094	1.094
-0.005	0.015	-0.005	0.020	0.024	-0.005	0.034	1.768	1.074	1.074	1.069	1.094	1.084	1.089
-0.010	0.015	-0.005	0.020	-0.020	0.024	0.029	1.733	1.069	1.074	1.074	1.089	1.074	1.089
-0.010	0.010	-0.005	0.020	-0.039	-0.010	0.034	1.802	1.074	1.069	1.069	1.089	1.069	1.074
-0.010	0.015	-0.010	0.020	-0.054	0.010	0.029	1.792	1.074	1.074	1.069	1.089	1.069	1.079
-0.010	0.010	-0.005	0.020	-0.054	0.015	0.029	1.748	1.074	1.074	1.069	1.089	1.074	1.074
-0.010	0.000	0.000	0.010	-0.029	0.005	0.029	1.768	1.074	1.069	1.074	1.089	1.084	1.074
0.000	0.010	-0.005	0.015	0.005	0.010	0.029	1.787	1.074	1.069	1.069	1.094	1.094	1.079
0.000	0.000	0.005	0.005	0.000	0.005	0.029	1.797	1.079	1.069	1.069	1.089	1.089	1.084
0.005	-0.010	0.000	0.005	-0.015	0.005	0.029	1.758	1.079	1.069	1.069	1.084	1.084	1.079
0.010	-0.020	0.005	0.005	0.000	0.015	0.029	1.753	1.074	1.064	1.069	1.084	1.089	1.084
0.000	-0.010	0.005	0.005	0.010	0.005	0.029	1.792	1.069	1.064	1.069	1.084	1.084	1.079
-0.005	-0.010	0.005	0.000	0.024	-0.005	0.029	1.797	1.074	1.069	1.064	1.084	1.089	1.079
-0.005	-0.015	0.010	0.010	0.020	0.010	0.029	1.753	1.069	1.064	1.069	1.084	1.089	1.084
0.005	0.000	-0.005	0.005	0.015	0.005	0.029	1.797	1.074	1.069	1.069	1.084	1.084	1.084
-0.005	-0.005	-0.005	0.005	-0.005	-0.005	0.034	1.777	1.074	1.069	1.069	1.084	1.074	1.074
0.000	-0.005	0.000	0.005	-0.015	-0.010	0.029	1.807	1.079	1.074	1.064	1.084	1.074	1.074
0.000	-0.010	-0.005	0.005	-0.024	-0.015	0.034	1.797	1.074	1.069	1.069	1.084	1.074	1.069
-0.005	0.000	-0.005	0.005	-0.034	-0.015	0.029	1.738	1.074	1.074	1.069	1.084	1.074	1.069
-0.010	0.000	-0.005	0.005	-0.044	-0.005	0.029	1.768	1.069	1.069	1.069	1.084	1.074	1.074
-0.010	0.015	-0.010	0.005	-0.063	-0.015	0.029	1.787	1.074	1.074	1.069	1.089	1.069	1.069
-0.005	0.015	-0.010	-0.005	-0.049	-0.034	0.034	1.802	1.069	1.069	1.074	1.089	1.079	1.069
0.000	0.000	0.000	0.000	-0.044	0.005	0.034	1.768	1.074	1.069	1.069	1.089	1.084	1.079
-0.005	-0.005	-0.010	0.000	-0.020	0.010	0.029	1.802	1.074	1.069	1.069	1.089	1.089	1.084
0.010	-0.005	-0.005	0.000	-0.010	0.024	0.034	1.763	1.074	1.069	1.069	1.089	1.089	1.084
-0.005	-0.010	-0.005	-0.005	0.039	0.000	0.034	1.797	1.074	1.069	1.069	1.084	1.099	1.084
0.015	-0.005	0.000	-0.005	0.117	0.015	0.029	1.782	1.079	1.074	1.074	1.089	1.118	1.099
0.015	-0.015	0.005	-0.010	0.142	0.024	0.029	1.787	1.084	1.069	1.069	1.089	1.108	1.104
0.020	-0.020	0.000	-0.015	0.044	0.015	0.029	1.782	1.084	1.074	1.069	1.084	1.079	1.089
0.015	-0.010	-0.005	-0.015	0.044	0.005	0.029	1.768	1.084	1.079	1.069	1.084	1.079	1.089
0.010	-0.005	0.005	-0.005	0.034	0.015	0.034	1.821	1.079	1.079	1.074	1.089	1.079	1.084
0.000	0.005	0.005	-0.005	-0.010	0.000	0.034	1.753	1.069	1.079	1.074	1.089	1.069	1.074
0.000	0.000	-0.005	0.000	-0.034	-0.005	0.034	1.763	1.074	1.074	1.074	1.089	1.069	1.064
-0.010	0.005	-0.005	0.000	-0.020	0.000	0.034	1.797	1.074	1.074	1.074	1.094	1.074	1.074
-0.010	0.024	-0.005	0.005	-0.015	0.015	0.034	1.763	1.074	1.079	1.074	1.094	1.084	1.074
0.000	0.010	0.000	0.010	-0.005	0.015	0.034	1.758	1.074	1.074	1.074	1.094	1.084	1.079
-0.010	0.010	-0.005	0.010	-0.005	0.005	0.034	1.787	1.074	1.069	1.074	1.094	1.089	1.079
-0.005	0.015	-0.010	0.005	-0.010	-0.010	0.029	1.797	1.074	1.069	1.074	1.094	1.084	1.074
-0.020	0.010	-0.005	0.000	-0.015	-0.015	0.034	1.797	1.069	1.069	1.069	1.089	1.084	1.074
-0.010	0.005	-0.005	0.005	-0.010	-0.015	0.029	1.743	1.074	1.069	1.069	1.089	1.089	1.079
-0.005	-0.010	-0.005	0.000	-0.010	-0.015	0.034	1.797	1.069	1.060	1.069	1.089	1.084	1.079
-0.005	-0.029	0.000	-0.005	-0.010	-0.024	0.034	1.792	1.069	1.060	1.069	1.089	1.084	1.074
0.005	-0.039	0.000	-0.005	-0.005	-0.034	0.034	1.748	1.069	1.060	1.064	1.084	1.084	1.074
-0.005	-0.029	0.000	0.000	-0.005	-0.020	0.029	1.763	1.064	1.060	1.064	1.084	1.084	1.079
0.010	-0.015	0.000	0.000	-0.005	-0.015	0.029	1.777	1.069	1.069	1.064	1.084	1.084	1.084
0.005	-0.010	0.005	-0.005	-0.005	0.000	0.029	1.792	1.074	1.069	1.064	1.084	1.084	1.084
0.010	-0.015	0.005	0.000	0.000	-0.010	0.029	1.753	1.074	1.074	1.064	1.084	1.084	1.084
-0.005	-0.010	0.005	0.005	0.010	-0.020	0.029	1.743	1.064	1.074	1.069	1.084	1.089	1.079
-0.005	0.000	0.000	0.005	0.029	-0.010	0.029	1.787	1.069	1.069	1.069	1.089	1.089	1.084
-0.015	0.005	-0.005	0.015	0.020	-0.020	0.029	1.797	1.069	1.069	1.069	1.089	1.084	1.084
-0.005	-0.005	0.000	0.005	0.015	-0.005	0.029	1.729	1.069	1.069	1.069	1.084	1.084	1.084
-0.015	0.010	-0.005	0.005	0.000	-0.020	0.029	1.777	1.069	1.069	1.069	1.084	1.079	1.084
-0.010	0.015	-0.010	0.005	0.000	-0.010	0.029	1.797	1.074	1.069	1.069	1.084	1.079	1.079
-0.005	0.000	0.000	0.005	-0.005	0.010	0.029	1.807	1.079	1.064	1.069	1.089	1.079	1.084
-0.015	0.010	0.000	0.010	-0.005	0.005	0.029	1.777	1.074	1.074	1.069	1.084	1.079	1.084
0.000	0.015	-0.005	0.005	-0.010	0.010	0.029	1.797	1.079	1.074	1.074	1.084	1.084	1.079
-0.005	0.010	-0.005	0.005	-0.010	0.000	0.029	1.787	1.079	1.074	1.074	1.089	1.079	1.074
0.000	0.005	0.005	0.000	-0.020	0.015	0.029	1.763	1.079	1.074	1.074	1.089	1.079	1.079
0.005	0.015	0.000	0.000	-0.020	-0.005	0.029	1.763	1.079	1.079	1.074	1.089	1.079	1.074
0.005	0.015	0.000	0.000	-0.020	-0.005	0.029	1.792	1.074	1.074	1.074	1.089	1.079	1.074
0.005	0.000	0.010	0.000	-0.020	0.015	0.029	1.763	1.074	1.069	1.074	1.089	1.084	1.079
0.000	0.000	0.005	0.000	-0.015	0.015	0.029	1.797	1.074	1.069	1.074	1.089	1.084	1.084
0.005	-0.005	0.010	0.000	-0.015	0.015	0.034	1.772	1.074	1.069	1.069	1.089	1.084	1.079
0.000	0.000	0.005	0.000	-0.010	0.005	0.029	1.748	1.074	1.069	1.069	1.089	1.084	1.079
0.000	0.000	-0.005	-0.005	-0.005	0.000	0.029	1.753	1.069	1.069	1.069	1.089	1.084	1.079
-0.005	0.005	0.000	0.000	-0.010	0.005	0.034	1.782	1.074	1.069	1.064	1.089	1.084	1.079
-0.005	0.005	-0.005	0.000	0.000	0.015	0.034	1.763	1.069	1.069	1.069	1.089	1.089	1.084
-0.005	0.020	-0.010	0.000	-0.005	-0.005	0.034	1.777	1.069	1.069	1.069	1.089	1.084	1.074
0.000	0.015	-0.010	0.000	-0.005	0.015	0.029	1.797	1.079	1.069	1.069	1.089	1.084	1.084
-0.010	0.015	-0.010	0.005	-0.005	0.005	0.034	1.782	1.074	1.069	1.069	1.089	1.084	1.079
-0.005	0.010	-0.010	0.005	0.005	0.010	0.034	1.763	1.074	1.074	1.069	1.089	1.084	1.084
-0.005	0.010	-0.005	0.000	0.005	0.010	0.029	1.802	1.079	1.069	1.069	1.089	1.084	1.084
-0.005	0.015	-0.005	-0.005	0.005	0.010	0.029	1.768	1.079	1.079	1.074	1.089	1.084	1.084
0.000	-0.005	0.005	0.000	0.000	0.010	0.029	1.753	1.074	1.069	1.074	1.089	1.084	1.084
0.010	0.000	-0.005	-0.005	-0.005	0.000	0.034	1.797	1.084	1.069	1.069	1.089	1.079	1.074
0.020	-0.024	-0.005	-0.005	-0.005	0.000	0.029	1.772	1.079	1.069	1.069	1.089	1.084	1.079
0.015	-0.020	0.010	-0.005	-0.005	0.000	0.029	1.748	1.079	1.069	1.074	1.089	1.084	1.084
0.015	-0.020	0.005	-0.005	-0.005	0.005	0.029	1.802	1.074	1.069	1.074	1.089	1.079	1.079
0.020	-0.010	0.005	-0.005	-0.015	-0.005	0.029	1.787	1.079	1.074	1.069	1.089	1.079	1.074
0.015	-0.015	0.000	-0.005	-0.015	-0.015	0.029	1.758	1.074	1.074	1.069	1.089	1.079	1.074
0.005	-0.005	0.005	-0.005	0.000	-0.020	0.029	1.802	1.069	1.074	1.074	1.089	1.084	1.079
0.010	-0.005	0.000	0.000	0.029	0.000	0.029	1.802	1.079	1.069	1.069	1.089	1.094	1.084
-0.005	0.010	0.000	-0.005	0.034	0.000	0.029	1.768	1.074	1.074	1.074	1.089	1.094	1.079
0.000	0.010	-0.005	-0.005	0.049	-0.005	0.029	1.792	1.074	1.074	1.074	1.089	1.094	1.089
-0.005	0.024	-0.005	0.000	0.063	0.005	0.029	1.797	1.079	1.079	1.074	1.094	1.094	1.094
0.000	0.015	-0.005	0.000	0.059	0.010	0.034	1.743	1.074	1.079	1.074	1.089	1.094	1.094
-0.005	0.015	-0.010	0.000	0.054	0.000	0.029	1.772	1.074	1.074	1.069	1.094	1.089	1.089
-0.015	0.005	-0.005	0.000	0.020	0.010	0.029	1.787	1.079	1.069	1.074	1.094	1.079	1.089
-0.005	0.010	-0.005	-0.005	0.010	0.015	0.034	1.802	1.084	1.074	1.074	1.089	1.079	1.084
-0.005	0.000	-0.005	0.000	0.010	-0.005	0.029	1.787	1.079	1.074	1.074	1.089	1.079	1.079
-0.015	-0.010	0.000	-0.005	-0.005	0.015	0.029	1.782	1.079	1.074	1.074	1.089	1.079	1.079
-0.010	-0.010	0.005	-0.005	-0.005	0.015	0.029	1.777	1.074	1.074	1.074	1.094	1.084	1.084
0.000	-0.020	0.005	-0.005	0.010	0.000	0.029	1.782	1.079	1.069	1.074	1.089	1.084	1.079
0.000	-0.020	0.005	-0.005	0.005	0.000	0.029	1.812	1.079	1.069	1.074	1.094	1.084	1.079
0.000	-0.029	0.005	-0.005	-0.010	-0.010	0.034	1.753	1.074	1.074	1.069	1.089	1.079	1.074
0.000	-0.015	0.010	-0.005	-0.020	0.000	0.034	1.797	1.079	1.074	1.069	1.089	1.079	1.079
0.005	-0.020	0.005	-0.005	-0.039	0.000	0.034	1.782	1.079	1.074	1.069	1.089	1.074	1.074
0.000	-0.010	-0.005	-0.005	-0.034	-0.020	0.034	1.768	1.074	1.074	1.069	1.089	1.079	1.069
0.000	0.005	-0.005	-0.005	-0.034	-0.020	0.034	1.787	1.074	1.074	1.074	1.089	1.079	1.069
-0.010	0.000	-0.005	-0.005	-0.024	-0.024	0.034	1.758	1.069	1.074	1.074	1.089	1.084	1.069
-0.015	0.000	-0.005	-0.005	-0.010	-0.015	0.029	1.797	1.074	1.074	1.074	1.094	1.089	1.079
-0.005	0.010	-0.010	0.000	-0.024	-0.010	0.034	1.777	1.074	1.074	1.074	1.094	1.084	1.079
-0.010	0.005	-0.005	0.005	-0.029	0.005	0.034	1.753	1.069	1.074	1.074	1.089	1.089	1.084
0.000	0.005	-0.005	0.000	-0.039	0.010	0.029	1.797	1.079	1.074	1.074	1.094	1.084	1.084
-0.005	0.015	-0.005	0.000	-0.044	0.015	0.029	1.768	1.074	1.074	1.074	1.094	1.084	1.084
0.010	0.000	0.005	-0.005	-0.005	0.015	0.029	1.768	1.079	1.069	1.074	1.089	1.094	1.084
0.005	0.005	0.005	0.000	-0.005	0.010	0.029	1.782	1.074	1.074	1.074	1.089	1.094	1.089
0.000	-0.015	0.000	-0.005	0.029	0.015	0.029	1.807	1.079	1.069	1.069	1.094	1.099	1.094
0.010	-0.024	0.005	-0.005	0.049	0.015	0.029	1.763	1.079	1.069	1.069	1.094	1.104	1.094
0.010	-0.029	0.005	-0.005	0.044	0.015	0.029	1.792	1.079	1.069	1.069	1.089	1.094	1.089
0.005	-0.005	0.005	-0.005	0.034	-0.005	0.034	1.802	1.084	1.074	1.074	1.089	1.089	1.084
0.010	-0.005	0.010	-0.005	0.034	0.005	0.029	1.719	1.079	1.079	1.074	1.089	1.089	1.089
0.005	-0.005	0.010	-0.005	0.029	0.015	0.029	1.738	1.074	1.074	1.074	1.089	1.089	1.089
0.000	-0.005	0.010	0.005	0.054	0.000	0.029	1.768	1.074	1.074	1.074	1.094	1.094	1.084
0.000	0.000	0.000	-0.010	0.034	-0.015	0.034	1.777	1.079	1.074	1.069	1.089	1.084	1.079
0.005	0.010	-0.005	-0.010	0.000	0.000	0.029	1.797	1.074	1.074	1.074	1.089	1.074	1.079
-0.020	0.015	0.000	-0.010	-0.010	0.000	0.029	1.797	1.079	1.079	1.074	1.089	1.074	1.074
-0.010	0.005	-0.010	-0.015	-0.020	-0.005	0.034	1.743	1.074	1.074	1.069	1.084	1.074	1.074
-0.005	0.015	-0.010	-0.005	-0.020	-0.015	0.034	1.792	1.079	1.074	1.074	1.089	1.079	1.074
-0.020	0.015	-0.005	-0.010	-0.020	-0.015	0.034	1.782	1.079	1.074	1.074	1.089	1.079	1.074
-0.020	-0.005	-0.010	-0.010	-0.034	-0.005	0.034	1.777	1.079	1.069	1.074	1.089	1.074	1.074
-0.005	-0.005	-0.010	-0.010	-0.039	-0.005	0.029	1.792	1.079	1.074	1.074	1.089	1.079	1.074
-0.005	0.000	-0.005	-0.005	-0.029	0.000	0.034	1.802	1.084	1.074	1.074	1.094	1.084	1.079
-0.005	-0.010	-0.005	-0.005	-0.029	-0.020	0.034	1.792	1.079	1.074	1.074	1.089	1.084	1.074
-0.005	-0.005	0.000	-0.005	-0.024	-0.015	0.034	1.768	1.074	1.074	1.074	1.094	1.089	1.079
-0.005	0.000	-0.005	-0.005	-0.005	-0.005	0.029	1.797	1.074	1.074	1.074	1.094	1.089	1.084
0.000	-0.020	0.005	-0.005	0.000	-0.005	0.029	1.802	1.079	1.069	1.074	1.094	1.094	1.084
0.010	-0.024	0.000	-0.005	0.010	-0.020	0.029	1.743	1.074	1.069	1.074	1.094	1.094	1.084
0.015	-0.034	0.010	-0.010	0.015	-0.005	0.034	1.777	1.074	1.069	1.069	1.089	1.094	1.089
0.024	-0.024	-0.005	-0.005	0.024	-0.010	0.034	1.777	1.079	1.074	1.069	1.089	1.094	1.094
0.015	0.000	0.000	-0.005	0.020	0.000	0.029	1.802	1.079	1.079	1.074	1.094	1.089	1.089
0.010	0.005	-0.005	0.005	-0.005	0.005	0.029	1.797	1.079	1.079	1.069	1.094	1.084	1.089
0.010	-0.005	-0.005	-0.005	-0.039	0.000	0.034	1.738	1.069	1.079	1.074	1.089	1.074	1.084
0.000	0.005	-0.010	-0.005	-0.029	0.000	0.029	1.797	1.074	1.074	1.074	1.089	1.079	1.079
-0.005	0.005	-0.005	-0.005	-0.044	0.000	0.029	1.812	1.074	1.074	1.074	1.094	1.079	1.079
-0.010	0.015	-0.005	0.005	-0.034	0.010	0.029	1.748	1.069	1.074	1.074	1.094	1.084	1.079
-0.015	0.029	-0.005	0.005	-0.029	-0.015	0.034	1.777	1.074	1.079	1.074	1.094	1.089	1.074
-0.029	0.010	0.000	0.000	-0.020	0.000	0.029	1.758	1.064	1.069	1.074	1.094	1.089	1.079
-0.015	0.015	0.000	0.005	-0.024	0.020	0.029	1.768	1.069	1.069	1.074	1.094	1.089	1.089
-0.020	0.005	0.000	0.005	-0.020	-0.005	0.029	1.802	1.074	1.069	1.074	1.094	1.089	1.084
-0.020	0.005	0.005	0.005	-0.015	0.005	0.029	1.772	1.074	1.064	1.074	1.089	1.089	1.084
-0.010	0.000	0.005	0.005	-0.015	-0.015	0.034	1.797	1.079	1.069	1.069	1.089	1.089	1.079
-0.005	-0.005	0.005	0.005	-0.020	-0.010	0.029	1.753	1.074	1.069	1.069	1.089	1.089	1.079
-0.005	-0.015	0.000	-0.005	-0.020	0.005	0.029	1.782	1.074	1.064	1.069	1.089	1.084	1.089
-0.005	-0.034	0.005	-0.005	-0.020	0.000	0.034	1.782	1.079	1.064	1.064	1.089	1.084	1.084
0.005	-0.024	0.005	0.000	-0.029	-0.010	0.029	1.738	1.079	1.064	1.064	1.089	1.079	1.079
0.000	-0.029	0.005	0.000	-0.029	0.000	0.029	1.792	1.074	1.069	1.064	1.084	1.079	1.084
0.000	-0.020	0.005	0.000	-0.015	0.005	0.029	1.797	1.079	1.069	1.069	1.089	1.084	1.084
0.000	-0.015	0.000	0.000	0.005	0.010	0.034	1.797	1.079	1.074	1.064	1.084	1.089	1.084
0.000	-0.005	-0.005	0.000	0.044	0.005	0.034	1.787	1.079	1.079	1.069	1.089	1.099	1.089
-0.005	0.000	-0.010	0.000	0.059	-0.005	0.034	1.792	1.079	1.079	1.069	1.089	1.094	1.089
-0.005	0.010	-0.005	0.005	0.063	-0.005	0.029	1.797	1.079	1.084	1.074	1.089	1.094	1.084
-0.005	0.015	-0.005	0.000	0.068	-0.010	0.034	1.758	1.079	1.084	1.079	1.089	1.094	1.089
0.005	0.010	-0.005	0.000	0.068	0.000	0.034	1.768	1.079	1.084	1.079	1.094	1.094	1.094
0.005	0.029	-0.005	0.000	0.039	0.000	0.034	1.802	1.084	1.084	1.079	1.094	1.084	1.089
0.005	0.010	0.005	0.000	0.024	0.010	0.029	1.768	1.079	1.079	1.079	1.094	1.084	1.084
0.010	0.010	0.000	0.005	0.020	0.000	0.029	1.763	1.079	1.074	1.079	1.094	1.084	1.079
0.010	0.005	-0.005	0.000	0.010	-0.005	0.029	1.792	1.084	1.079	1.079	1.094	1.084	1.079
0.015	-0.005	0.005	0.005	0.000	-0.020	0.034	1.777	1.079	1.074	1.079	1.094	1.084	1.074
0.015	-0.005	0.000	0.000	-0.005	0.005	0.034	1.797	1.079	1.069	1.074	1.094	1.084	1.079
0.015	0.000	0.005	0.000	0.005	-0.015	0.034	1.758	1.079	1.074	1.074	1.094	1.089	1.079
0.015	-0.010	0.005	0.005	0.005	0.000	0.029	1.777	1.079	1.069	1.074	1.094	1.089	1.084
0.010	-0.005	0.000	0.000	0.000	0.005	0.029	1.787	1.079	1.069	1.069	1.089	1.089	1.084
0.010	0.000	0.005	0.005	0.000	0.005	0.029	1.782	1.079	1.074	1.074	1.089	1.089	1.084
0.010	0.000	-0.005	0.010	0.000	0.005	0.034	1.792	1.079	1.074	1.074	1.094	1.084	1.084
0.010	0.015	0.005	0.005	-0.005	0.010	0.029	1.802	1.084	1.079	1.074	1.094	1.089	1.084
0.005	0.000	-0.005	0.005	-0.005	-0.005	0.029	1.787	1.084	1.074	1.074	1.094	1.089	1.084
-0.010	0.005	0.000	0.015	0.000	-0.010	0.029	1.709	1.069	1.079	1.074	1.094	1.089	1.084
-0.010	0.005	-0.005	0.005	0.005	0.005	0.029	1.797	1.074	1.074	1.074	1.094	1.089	1.089
-0.015	0.024	-0.005	0.005	0.005	0.005	0.029	1.792	1.079	1.079	1.074	1.094	1.089	1.084
-0.015	0.020	-0.010	0.005	0.005	0.005	0.029	1.768	1.074	1.074	1.074	1.089	1.089	1.084
-0.010	0.005	-0.010	0.000	0.005	0.005	0.029	1.792	1.079	1.074	1.074	1.094	1.089	1.089
0.000	0.010	-0.010	0.000	0.000	-0.005	0.029	1.807	1.084	1.074	1.074	1.094	1.084	1.084
0.000	-0.005	-0.005	0.000	-0.005	0.005	0.029	1.724	1.074	1.074	1.074	1.094	1.084	1.084
0.005	-0.005	0.000	0.005	0.000	-0.015	0.029	1.792	1.079	1.069	1.074	1.094	1.089	1.079
0.000	-0.029	0.005	0.005	0.000	0.005	0.029	1.802	1.079	1.064	1.069	1.094	1.089	1.084
0.010	-0.039	0.000	0.005	-0.005	-0.005	0.034	1.768	1.079	1.064	1.069	1.089	1.089	1.084
0.005	-0.015	0.005	0.000	0.005	-0.015	0.034	1.768	1.079	1.074	1.069	1.089	1.089	1.079
-0.005	-0.005	0.005	0.000	-0.005	-0.015	0.029	1.787	1.074	1.079	1.069	1.089	1.084	1.079
0.010	-0.010	0.010	-0.005	0.005	0.010	0.034	1.777	1.074	1.074	1.074	1.089	1.084	1.089
0.005	-0.010	0.005	-0.005	0.000	-0.024	0.034	1.777	1.079	1.074	1.069	1.089	1.084	1.079
-0.005	-0.005	0.000	0.000	0.000	-0.005	0.034	1.763	1.074	1.074	1.074	1.089	1.084	1.084
-0.005	0.000	0.000	0.000	0.000	0.005	0.034	1.768	1.074	1.074	1.069	1.089	1.089	1.084
-0.005	0.005	-0.010	0.000	0.005	0.005	0.029	1.797	1.079	1.079	1.074	1.089	1.084	1.084
-0.005	0.020	-0.010	0.005	-0.005	0.000	0.034	1.802	1.079	1.079	1.074	1.094	1.084	1.084
-0.005	0.020	-0.005	0.000	-0.010	-0.005	0.029	1.792	1.084	1.079	1.074	1.089	1.084	1.079
-0.005	0.005	-0.005	0.005	-0.005	0.000	0.034	1.714	1.074	1.074	1.074	1.094	1.089	1.084
-0.010	0.010	0.000	0.000	0.000	0.005	0.034	1.797	1.074	1.074	1.074	1.094	1.089	1.089
-0.005	0.020	-0.005	0.005	-0.005	0.000	0.029	1.816	1.084	1.079	1.074	1.094	1.089	1.084
0.000	0.015	0.005	0.000	-0.015	0.010	0.034	1.724	1.074	1.074	1.074	1.089	1.089	1.084
0.005	0.005	-0.005	0.005	-0.010	0.005	0.029	1.792	1.079	1.074	1.074	1.094	1.089	1.084
-0.010	0.000	0.000	0.000	-0.015	0.005	0.034	1.753	1.079	1.069	1.074	1.094	1.089	1.084
0.000	-0.020	0.000	0.000	-0.024	-0.010	0.029	1.787	1.079	1.064	1.074	1.094	1.084	1.079
0.005	-0.020	0.000	-0.005	-0.020	-0.024	0.029	1.797	1.084	1.069	1.069	1.089	1.084	1.074
0.000	-0.015	0.005	-0.005	-0.015	0.005	0.029	1.782	1.079	1.069	1.069	1.089	1.089	1.084
0.000	-0.020	0.000	-0.010	-0.010	-0.005	0.029	1.782	1.079	1.069	1.069	1.089	1.089	1.084
0.000	-0.015	0.000	0.000	-0.005	-0.005	0.034	1.729	1.069	1.074	1.069	1.089	1.089	1.084
0.005	-0.005	0.000	0.000	0.010	0.000	0.029	1.797	1.074	1.074	1.069	1.089	1.089	1.089
0.000	-0.005	-0.005	-0.005	0.005	0.005	0.034	1.792	1.074	1.069	1.069	1.089	1.089	1.084
-0.005	0.000	0.000	0.000	0.010	0.000	0.029	1.787	1.079	1.074	1.069	1.089	1.089	1.084
-0.010	0.005	0.000	-0.005	0.015	0.000	0.029	1.797	1.079	1.074	1.074	1.089	1.089	1.089
-0.010	-0.005	-0.010	-0.005	0.015	0.005	0.029	1.782	1.079	1.074	1.069	1.089	1.089	1.089
-0.005	0.020	-0.010	-0.010	0.005	0.000	0.029	1.802	1.079	1.079	1.074	1.089	1.084	1.084
-0.010	0.000	-0.005	-0.010	-0.005	-0.010	0.034	1.768	1.074	1.074	1.074	1.089	1.079	1.079
-0.005	0.005	-0.005	0.005	-0.010	-0.010	0.034	1.802	1.079	1.074	1.074	1.094	1.084	1.079
-0.010	0.000	0.000	0.015	-0.029	0.000	0.034	1.797	1.079	1.074	1.074	1.099	1.079	1.079
0.005	-0.005	-0.005	0.020	-0.068	0.000	0.034	1.772	1.079	1.074	1.074	1.094	1.074	1.074
-0.005	-0.010	0.000	0.024	-0.093	-0.010	0.034	1.719	1.069	1.074	1.074	1.094	1.074	1.074
0.000	-0.005	0.000	0.020	-0.029	-0.005	0.034	1.797	1.074	1.074	1.074	1.094	1.094	1.079
-0.005	-0.015	0.005	0.020	0.000	0.000	0.034	1.797	1.074	1.069	1.074	1.094	1.099	1.084
0.000	-0.005	0.005	0.024	0.005	-0.005	0.034	1.719	1.074	1.074	1.074	1.094	1.099	1.089
0.000	-0.015	0.005	0.020	0.020	-0.005	0.034	1.782	1.074	1.069	1.074	1.089	1.099	1.089
0.000	-0.020	0.005	0.010	0.005	0.000	0.029	1.792	1.079	1.069	1.069	1.089	1.089	1.094
0.000	-0.015	0.005	0.010	0.010	0.010	0.029	1.772	1.079	1.074	1.069	1.089	1.089	1.089
-0.005	-0.015	0.005	0.015	0.015	0.024	0.029	1.797	1.079	1.074	1.074	1.089	1.094	1.094
-0.010	-0.010	0.005	0.005	0.024	-0.010	0.034	1.802	1.079	1.074	1.069	1.089	1.089	1.084
-0.015	0.005	0.000	-0.029	0.024	0.015	0.029	1.797	1.079	1.079	1.069	1.074	1.084	1.089
-0.010	0.000	0.000	-0.054	0.039	0.020	0.034	1.797	1.089	1.079	1.069	1.074	1.084	1.089
-0.010	0.000	-0.005	-0.049	0.059	0.005	0.029	1.753	1.079	1.079	1.074	1.079	1.089	1.084
0.000	0.010	-0.010	-0.054	0.098	0.020	0.029	1.802	1.079	1.079	1.074	1.084	1.094	1.089
-0.010	0.005	-0.005	-0.059	0.054	0.020	0.029	1.816	1.089	1.079	1.074	1.084	1.079	1.084
0.005	0.005	-0.005	-0.054	0.005	-0.005	0.034	1.768	1.089	1.084	1.079	1.089	1.069	1.074
0.005	0.015	-0.005	-0.044	-0.024	0.010	0.034	1.763	1.079	1.084	1.079	1.094	1.064	1.074
0.010	0.020	0.000	-0.039	-0.034	0.005	0.029	1.787	1.079	1.084	1.084	1.094	1.069	1.069
0.010	0.020	0.000	-0.034	-0.049	0.005	0.029	1.748	1.079	1.079	1.084	1.099	1.074	1.069
0.020	-0.010	0.010	-0.024	-0.039	-0.005	0.029	1.821	1.079	1.074	1.079	1.099	1.079	1.064
0.015	-0.010	0.010	-0.015	-0.039	0.010	0.029	1.797	1.079	1.074	1.079	1.104	1.084	1.079
0.010	-0.005	0.010	-0.010	-0.034	0.000	0.034	1.797	1.079	1.079	1.074	1.104	1.094	1.074
0.015	-0.015	0.005	-0.005	-0.024	-0.029	0.034	1.709	1.074	1.069	1.074	1.099	1.094	1.074
0.015	-0.005	0.005	0.039	-0.015	-0.029	0.034	1.792	1.069	1.074	1.079	1.113	1.099	1.079
0.000	0.005	0.005	0.098	-0.005	-0.049	0.034	1.792	1.074	1.074	1.074	1.123	1.108	1.079
-0.005	0.000	0.005	0.093	0.010	-0.005	0.029	1.772	1.069	1.074	1.074	1.108	1.113	1.104
-0.005	0.005	-0.005	0.078	0.024	-0.005	0.034	1.782	1.074	1.069	1.074	1.104	1.113	1.104
0.000	0.020	-0.005	0.063	0.029	-0.010	0.034	1.758	1.074	1.074	1.074	1.094	1.108	1.104
0.000	0.005	-0.005	0.054	0.010	-0.005	0.034	1.787	1.084	1.074	1.069	1.094	1.094	1.099
-0.005	0.015	-0.005	-0.063	0.005	-0.020	0.029	1.738	1.074	1.074	1.064	1.055	1.084	1.094
-0.005	0.010	-0.010	-0.229	0.010	0.015	0.034	1.797	1.074	1.069	1.060	1.016	1.060	1.089
-0.015	0.015	-0.005	-0.210	0.015	0.010	0.034	1.758	1.079	1.074	1.064	1.045	1.060	1.079
-0.015	0.005	-0.005	-0.156	0.059	-0.005	0.034	1.772	1.074	1.074	1.069	1.069	1.069	1.074
-0.010	-0.005	-0.005	-0.117	0.083	-0.020	0.034	1.807	1.074	1.064	1.069	1.084	1.079	1.069
-0.005	-0.005	-0.005	-0.093	0.063	-0.005	0.029	1.807	1.079	1.069	1.069	1.094	1.079	1.079
-0.005	-0.005	0.005	-0.059	0.044	0.000	0.029	1.733	1.074	1.069	1.074	1.099	1.084	1.079
0.010	-0.005	0.005	-0.039	0.029	-0.015	0.029	1.792	1.079	1.074	1.074	1.104	1.079	1.069
0.005	-0.024	0.010	-0.015	0.015	-0.005	0.029	1.792	1.074	1.064	1.074	1.104	1.084	1.079
0.000	-0.015	0.010	-0.044	-0.010	0.000	0.029	1.802	1.079	1.069	1.069	1.089	1.074	1.074
-0.005	-0.005	0.010	-0.054	-0.049	-0.015	0.029	1.777	1.074	1.069	1.069	1.084	1.069	1.064
0.000	-0.010	0.005	-0.059	-0.054	0.015	0.029	1.792	1.069	1.069	1.069	1.084	1.069	1.079
-0.005	-0.010	0.005	-0.059	-0.054	0.020	0.029	1.753	1.069	1.069	1.064	1.084	1.074	1.074
-0.005	-0.005	-0.005	-0.039	-0.054	0.015	0.034	1.797	1.069	1.064	1.064	1.089	1.079	1.074
-0.010	-0.005	-0.005	-0.024	-0.034	0.015	0.029	1.777	1.069	1.064	1.064	1.094	1.089	1.079
-0.005	0.005	-0.005	-0.005	-0.015	0.015	0.034	1.782	1.074	1.074	1.069	1.094	1.094	1.079
-0.020	0.015	0.000	-0.117	0.000	0.015	0.029	1.816	1.074	1.074	1.064	1.064	1.089	1.084
-0.010	0.005	-0.005	-0.083	0.010	0.015	0.029	1.733	1.079	1.074	1.069	1.079	1.084	1.084
-0.010	0.015	-0.005	-0.049	-0.015	0.015	0.034	1.733	1.069	1.069	1.069	1.089	1.079	1.084
-0.010	0.000	-0.005	-0.034	-0.029	0.000	0.034	1.802	1.074	1.069	1.069	1.094	1.079	1.074
0.000	0.015	-0.005	-0.015	-0.029	0.005	0.034	1.821	1.079	1.074	1.074	1.099	1.084	1.079
0.000	0.005	-0.005	-0.005	-0.024	0.000	0.029	1.748	1.074	1.074	1.074	1.099	1.089	1.079
-0.005	-0.010	0.000	0.015	-0.020	0.005	0.034	1.733	1.069	1.069	1.074	1.099	1.094	1.084
0.000	0.000	-0.005	0.024	-0.010	-0.005	0.034	1.782	1.074	1.069	1.074	1.099	1.094	1.084
0.010	0.000	0.000	0.029	0.005	-0.005	0.029	1.797	1.079	1.069	1.074	1.099	1.099	1.084
0.010	-0.015	0.010	0.034	-0.010	0.000	0.029	1.782	1.079	1.069	1.074	1.099	1.094	1.089
0.005	-0.020	0.005	0.044	-0.005	-0.005	0.034	1.772	1.079	1.069	1.069	1.094	1.099	1.094
0.005	-0.010	0.005	0.044	0.010	0.000	0.034	1.797	1.074	1.074	1.074	1.094	1.099	1.094
0.010	-0.010	0.005	0.039	0.015	-0.005	0.034	1.807	1.079	1.074	1.069	1.094	1.094	1.089
0.010	0.000	0.000	0.044	0.024	-0.010	0.029	1.743	1.084	1.079	1.074	1.094	1.099	1.094
0.000	0.005	0.000	0.044	0.020	-0.015	0.029	1.743	1.074	1.079	1.074	1.089	1.094	1.089
0.000	0.010	-0.005	0.049	0.024	-0.005	0.029	1.743	1.069	1.079	1.074	1.094	1.094	1.089
-0.005	0.015	-0.005	0.044	0.020	-0.005	0.029	1.782	1.074	1.074	1.074	1.094	1.094	1.089
0.005	0.015	-0.005	0.049	0.015	-0.005	0.034	1.748	1.074	1.074	1.074	1.089	1.089	1.089
0.000	0.020	-0.005	0.054	-0.005	-0.005	0.029	1.792	1.074	1.074	1.074	1.094	1.084	1.089
-0.005	0.020	0.000	0.044	-0.024	0.000	0.029	1.763	1.079	1.074	1.074	1.089	1.079	1.089
-0.005	0.015	-0.005	0.044	-0.029	0.005	0.034	1.738	1.069	1.069	1.074	1.089	1.079	1.084
-0.005	0.010	-0.005	0.039	-0.024	-0.005	0.029	1.724	1.069	1.069	1.074	1.089	1.084	1.079
0.010	0.010	-0.005	0.034	-0.015	0.000	0.029	1.802	1.069	1.064	1.069	1.089	1.089	1.084
-0.005	0.000	0.005	0.020	0.005	0.005	0.029	1.792	1.074	1.064	1.069	1.084	1.089	1.084
-0.005	0.005	0.000	0.000	0.015	0.000	0.029	1.782	1.074	1.064	1.064	1.079	1.089	1.084
-0.005	0.005	0.005	0.000	0.010	-0.005	0.034	1.743	1.074	1.064	1.064	1.079	1.084	1.084
0.005	-0.005	0.005	-0.034	0.010	-0.010	0.029	1.772	1.074	1.064	1.064	1.069	1.074	1.079
0.000	-0.020	0.000	-0.034	0.000	-0.005	0.034	1.797	1.074	1.060	1.064	1.074	1.074	1.079
0.005	-0.020	0.010	-0.020	-0.005	-0.005	0.034	1.797	1.079	1.069	1.064	1.079	1.074	1.074
0.000	-0.005	0.000	-0.005	-0.005	-0.020	0.029	1.768	1.074	1.074	1.064	1.084	1.074	1.064
-0.010	0.015	0.000	-0.005	-0.010	0.010	0.034	1.802	1.074	1.079	1.069	1.089	1.074	1.074
-0.015	0.015	0.000	0.000	-0.005	-0.015	0.029	1.792	1.074	1.074	1.069	1.089	1.079	1.069
-0.015	0.010	-0.005	0.005	-0.010	0.005	0.029	1.787	1.069	1.069	1.069	1.089	1.079	1.074
-0.010	0.015	-0.010	0.020	-0.010	0.005	0.034	1.777	1.074	1.074	1.074	1.094	1.084	1.079
-0.005	0.015	-0.010	0.020	-0.010	0.010	0.029	1.792	1.079	1.069	1.074	1.094	1.084	1.079
-0.005	0.005	-0.005	0.029	0.005	0.005	0.034	1.768	1.079	1.074	1.069	1.094	1.094	1.079
0.005	0.015	-0.005	0.024	0.010	-0.010	0.034	1.807	1.084	1.074	1.074	1.094	1.094	1.079
0.005	0.000	-0.010	0.029	0.000	0.000	0.034	1.777	1.084	1.074	1.074	1.094	1.089	1.084
0.005	0.015	0.000	0.024	-0.005	0.005	0.029	1.743	1.079	1.079	1.079	1.094	1.089	1.084
0.010	0.000	0.000	0.034	-0.005	0.000	0.029	1.743	1.069	1.074	1.074	1.094	1.089	1.084
0.005	0.005	-0.005	0.034	0.000	-0.010	0.029	1.787	1.074	1.074	1.074	1.094	1.089	1.084
0.005	-0.015	0.000	0.034	-0.005	-0.005	0.029	1.797	1.079	1.064	1.069	1.094	1.089	1.079
0.000	-0.029	0.000	0.034	0.010	0.010	0.029	1.812	1.074	1.064	1.069	1.094	1.094	1.084
0.000	-0.010	0.005	0.039	0.020	0.010	0.029	1.792	1.079	1.074	1.069	1.089	1.094	1.089
0.010	-0.005	0.000	0.049	0.039	0.005	0.029	1.772	1.079	1.074	1.069	1.094	1.094	1.089
0.010	-0.015	0.000	0.054	0.044	0.010	0.029	1.753	1.069	1.069	1.069	1.094	1.094	1.089
-0.005	-0.005	0.000	0.049	0.039	-0.005	0.029	1.787	1.064	1.069	1.069	1.089	1.089	1.084
-0.005	-0.010	0.000	0.054	0.010	0.010	0.029	1.792	1.074	1.064	1.069	1.089	1.079	1.089
-0.020	-0.010	-0.005	0.054	-0.010	0.015	0.029	1.821	1.074	1.069	1.064	1.089	1.074	1.084
-0.005	-0.005	-0.005	0.020	-0.005	0.005	0.029	1.753	1.074	1.074	1.064	1.074	1.074	1.079
-0.015	0.005	-0.010	-0.010	-0.020	0.000	0.034	1.763	1.069	1.074	1.069	1.069	1.069	1.074
-0.020	0.005	-0.005	-0.005	-0.020	-0.005	0.029	1.802	1.079	1.074	1.069	1.079	1.069	1.069
-0.005	0.015	-0.005	0.000	-0.015	0.010	0.034	1.797	1.084	1.079	1.074	1.084	1.074	1.074
-0.010	0.005	-0.005	0.015	-0.010	-0.024	0.034	1.787	1.079	1.074	1.074	1.089	1.079	1.069
-0.010	0.000	-0.005	0.020	0.005	0.000	0.029	1.816	1.084	1.074	1.074	1.094	1.089	1.079
-0.005	0.005	0.000	0.024	0.005	-0.010	0.034	1.777	1.079	1.079	1.074	1.094	1.089	1.079
-0.005	0.000	0.000	0.024	-0.005	-0.010	0.034	1.733	1.069	1.074	1.079	1.094	1.084	1.079
0.000	0.000	-0.005	0.020	0.000	-0.020	0.029	1.787	1.074	1.069	1.074	1.089	1.084	1.079
0.005	0.010	0.005	0.015	0.000	0.010	0.029	1.802	1.079	1.074	1.074	1.089	1.084	1.084
0.005	-0.010	0.005	0.010	-0.005	0.005	0.029	1.816	1.079	1.069	1.074	1.089	1.084	1.079
0.010	-0.015	0.005	0.010	-0.015	0.010	0.029	1.787	1.084	1.074	1.069	1.089	1.084	1.079
0.010	-0.010	0.005	0.005	-0.010	0.000	0.029	1.807	1.084	1.074	1.069	1.089	1.084	1.079
0.015	0.000	0.000	0.005	0.005	0.005	0.029	1.748	1.074	1.074	1.074	1.089	1.089	1.084
0.010	-0.010	0.000	0.010	0.015	0.005	0.034	1.802	1.074	1.069	1.074	1.094	1.089	1.084
0.000	0.010	0.010	0.015	-0.015	0.005	0.029	1.787	1.074	1.079	1.074	1.089	1.079	1.079
0.010	0.015	0.000	0.020	-0.039	-0.005	0.034	1.772	1.074	1.079	1.074	1.089	1.074	1.074
0.000	-0.005	-0.005	0.024	-0.015	0.000	0.034	1.797	1.069	1.064	1.074	1.094	1.089	1.084
-0.005	-0.005	-0.010	0.029	0.054	0.005	0.034	1.816	1.079	1.069	1.069	1.099	1.104	1.084
-0.020	-0.010	-0.005	0.034	0.049	0.000	0.034	1.694	1.064	1.064	1.069	1.094	1.099	1.094
-0.020	-0.020	-0.005	0.034	0.020	0.005	0.029	1.787	1.064	1.060	1.069	1.094	1.089	1.089
-0.005	-0.010	0.000	0.029	0.005	0.010	0.029	1.792	1.079	1.069	1.069	1.094	1.089	1.084
-0.005	-0.020	0.005	0.034	0.039	-0.005	0.029	1.724	1.074	1.069	1.069	1.089	1.094	1.084
0.005	-0.029	0.000	0.029	0.039	0.005	0.034	1.772	1.069	1.064	1.064	1.084	1.094	1.094
0.010	-0.024	0.000	0.020	0.049	-0.005	0.034	1.807	1.079	1.069	1.069	1.084	1.094	1.089
0.020	-0.005	0.005	0.010	0.034	0.000	0.034	1.792	1.084	1.074	1.069	1.084	1.079	1.084
0.010	-0.010	0.005	0.005	0.010	-0.010	0.034	1.777	1.079	1.074	1.069	1.084	1.074	1.079
0.010	-0.010	0.010	0.000	0.015	-0.005	0.034	1.768	1.079	1.074	1.074	1.084	1.074	1.074
0.010	-0.029	0.000	-0.005	-0.005	-0.015	0.029	1.787	1.074	1.069	1.069	1.079	1.064	1.074
-0.005	0.000	0.005	-0.010	-0.078	0.010	0.029	1.797	1.074	1.079	1.069	1.079	1.050	1.069
0.000	-0.020	0.000	-0.010	-0.112	-0.015	0.034	1.772	1.069	1.069	1.064	1.079	1.050	1.060
0.000	-0.010	-0.005	-0.005	-0.088	0.010	0.029	1.743	1.064	1.069	1.064	1.084	1.064	1.064
-0.005	0.020	0.000	0.000	0.000	0.010	0.034	1.802	1.069	1.079	1.074	1.089	1.094	1.074
-0.005	0.049	0.000	0.000	0.068	-0.010	0.034	1.802	1.079	1.084	1.074	1.094	1.108	1.079
-0.005	0.020	0.005	0.010	0.039	0.015	0.029	1.802	1.079	1.074	1.079	1.094	1.094	1.089
0.000	0.005	0.000	0.015	0.024	0.010	0.029	1.777	1.074	1.069	1.074	1.094	1.089	1.094
-0.005	0.005	-0.005	0.020	-0.005	0.029	0.029	1.772	1.079	1.069	1.074	1.094	1.084	1.089
-0.015	-0.024	-0.010	0.020	-0.005	0.020	0.029	1.797	1.074	1.060	1.069	1.094	1.089	1.089
-0.015	-0.029	0.005	0.020	0.054	0.010	0.029	1.753	1.079	1.069	1.069	1.094	1.099	1.084
-0.005	-0.034	0.005	0.015	0.049	-0.024	0.029	1.802	1.084	1.069	1.069	1.089	1.094	1.079
