0.010	-0.010	0.005	-0.015	0.000	0.010	0.039	2.676	4.097	2.871	2.583	2.324	2.388	2.314
0.000	0.000	0.000	-0.020	0.010	0.015	0.044	2.676	3.584	3.086	2.715	2.432	2.397	2.339
0.005	-0.005	0.000	-0.010	0.000	0.010	0.039	2.661	3.213	3.135	2.832	2.544	2.432	2.363
0.000	-0.005	0.005	-0.010	0.000	0.000	0.044	2.671	2.944	3.096	2.910	2.651	2.490	2.393
0.000	0.000	-0.005	-0.005	0.005	0.000	0.044	2.676	2.749	3.008	2.939	2.734	2.554	2.437
-0.005	0.010	0.000	0.000	0.000	0.010	0.044	2.681	2.617	2.905	2.935	2.803	2.617	2.485
0.005	0.020	0.000	0.005	0.000	-0.005	0.044	2.681	2.520	2.808	2.900	2.832	2.676	2.534
-0.005	0.010	-0.005	0.010	0.005	0.010	0.044	2.700	2.456	2.715	2.852	2.847	2.725	2.593
-0.005	0.010	0.000	0.005	0.005	0.010	0.044	2.681	2.412	2.632	2.798	2.842	2.759	2.637
-0.005	0.005	0.000	0.005	0.000	0.005	0.044	2.705	2.393	2.568	2.734	2.817	2.773	2.671
0.000	0.005	0.000	0.010	-0.005	0.000	0.044	2.686	2.373	2.515	2.676	2.783	2.773	2.700
-0.005	0.005	-0.010	0.005	-0.010	-0.005	0.044	2.700	2.368	2.480	2.622	2.744	2.764	2.720
-0.005	0.000	0.000	-0.005	0.000	0.010	0.044	2.705	2.363	2.446	2.573	2.705	2.754	2.729
0.005	-0.010	0.005	-0.005	0.005	0.005	0.044	2.676	2.368	2.427	2.534	2.661	2.729	2.729
0.000	-0.010	0.005	-0.010	0.010	0.000	0.044	2.686	2.363	2.412	2.500	2.622	2.695	2.725
0.010	0.000	0.000	-0.015	0.005	-0.005	0.044	2.686	2.368	2.402	2.471	2.583	2.666	2.705
0.000	-0.005	0.010	-0.015	0.000	-0.010	0.044	2.686	2.363	2.393	2.451	2.554	2.632	2.686
0.005	-0.005	0.005	-0.020	-0.005	-0.010	0.044	2.778	2.378	2.393	2.437	2.524	2.598	2.661
0.000	0.000	0.005	-0.015	0.000	0.005	0.044	2.642	2.383	2.393	2.422	2.500	2.573	2.642
0.000	0.005	0.000	-0.010	0.005	0.010	0.044	2.651	2.363	2.388	2.412	2.485	2.549	2.622
0.005	-0.005	0.000	-0.005	0.000	-0.005	0.044	2.788	2.378	2.383	2.402	2.466	2.520	2.593
0.000	0.015	0.000	0.000	0.010	0.015	0.044	2.739	2.378	2.388	2.397	2.456	2.505	2.573
-0.015	0.015	-0.005	0.005	0.005	-0.005	0.044	2.666	2.358	2.383	2.388	2.446	2.490	2.544
-0.005	0.015	-0.005	0.010	-0.015	0.005	0.044	2.637	2.358	2.378	2.388	2.432	2.466	2.529
-0.010	0.010	-0.005	0.020	-0.005	0.010	0.044	2.676	2.349	2.373	2.383	2.427	2.461	2.510
0.000	0.010	0.000	0.010	0.005	-0.005	0.044	2.637	2.334	2.363	2.378	2.417	2.446	2.490
0.000	0.000	0.000	0.015	0.000	-0.005	0.044	2.695	2.324	2.349	2.368	2.412	2.432	2.476
-0.010	-0.010	0.000	0.005	-0.005	-0.005	0.044	2.622	2.314	2.344	2.358	2.397	2.427	2.461
0.005	-0.010	0.000	0.005	0.000	0.000	0.044	2.734	2.319	2.339	2.354	2.393	2.412	2.451
0.000	0.000	0.000	0.000	0.010	0.000	0.044	2.637	2.305	2.334	2.349	2.383	2.407	2.441
0.005	-0.010	0.000	-0.005	0.010	0.000	0.044	2.661	2.305	2.324	2.339	2.373	2.397	2.427
0.000	-0.020	0.005	-0.010	0.005	0.005	0.044	2.666	2.295	2.314	2.329	2.368	2.388	2.417
0.005	-0.020	0.000	-0.015	0.005	0.010	0.044	2.642	2.285	2.305	2.324	2.358	2.373	2.402
-0.005	-0.024	0.005	-0.015	0.000	0.005	0.044	2.656	2.280	2.300	2.319	2.349	2.368	2.397
-0.005	-0.010	0.005	-0.020	0.000	0.005	0.039	2.676	2.275	2.295	2.310	2.344	2.358	2.383
0.000	-0.024	0.005	-0.015	0.000	0.010	0.044	2.676	2.275	2.285	2.305	2.339	2.354	2.373
-0.005	-0.005	0.000	-0.010	0.000	0.015	0.044	2.705	2.275	2.290	2.300	2.334	2.349	2.368
-0.005	0.005	0.005	-0.010	0.005	-0.005	0.044	2.700	2.271	2.285	2.295	2.329	2.344	2.358
0.000	0.015	0.005	0.000	-0.005	0.005	0.039	2.681	2.266	2.285	2.290	2.329	2.334	2.354
-0.005	0.010	-0.005	0.010	-0.010	0.005	0.044	2.710	2.261	2.280	2.285	2.324	2.329	2.349
0.000	0.020	0.000	0.015	-0.015	0.005	0.044	2.661	2.256	2.275	2.285	2.319	2.324	2.344
0.005	0.010	0.000	0.015	-0.005	0.000	0.044	2.700	2.246	2.266	2.280	2.314	2.319	2.339
0.000	0.020	0.000	0.015	0.000	-0.005	0.044	2.671	2.241	2.261	2.275	2.310	2.319	2.334
-0.005	0.000	0.000	0.015	0.000	0.000	0.039	2.681	2.236	2.251	2.266	2.300	2.314	2.324
0.005	0.000	0.000	0.005	0.005	0.005	0.044	2.671	2.231	2.246	2.261	2.295	2.310	2.324
0.000	0.000	-0.005	0.000	0.005	0.005	0.039	2.681	2.227	2.241	2.256	2.290	2.300	2.319
0.010	-0.005	0.000	-0.005	0.000	-0.005	0.044	2.671	2.222	2.236	2.251	2.280	2.295	2.310
0.010	0.000	0.005	-0.010	0.010	0.005	0.044	2.671	2.217	2.231	2.246	2.275	2.285	2.305
0.010	0.005	0.005	-0.015	0.005	0.000	0.044	2.695	2.217	2.227	2.241	2.271	2.280	2.300
0.000	0.000	0.005	-0.015	0.005	0.005	0.039	2.686	2.207	2.222	2.231	2.261	2.275	2.290
0.000	-0.005	0.005	-0.020	0.000	0.000	0.044	2.700	2.202	2.217	2.227	2.256	2.266	2.285
-0.005	-0.010	0.000	-0.010	0.000	0.005	0.044	2.671	2.197	2.212	2.222	2.251	2.261	2.280
0.000	-0.010	0.005	-0.010	-0.005	0.005	0.044	2.686	2.192	2.207	2.217	2.251	2.256	2.271
0.000	0.000	0.000	-0.010	0.000	0.000	0.039	2.705	2.192	2.207	2.212	2.246	2.251	2.266
0.000	0.000	0.005	-0.005	0.000	0.000	0.039	2.690	2.187	2.202	2.212	2.246	2.251	2.261
0.005	0.000	0.000	0.005	-0.005	0.010	0.039	2.700	2.187	2.202	2.207	2.241	2.246	2.261
0.005	0.000	0.000	0.005	0.000	-0.005	0.044	2.695	2.183	2.197	2.202	2.236	2.241	2.246
0.000	0.010	-0.005	0.024	0.005	-0.015	0.044	2.686	2.183	2.192	2.197	2.236	2.241	2.251
-0.005	0.010	0.005	0.015	0.010	-0.005	0.044	2.671	2.173	2.187	2.197	2.231	2.241	2.251
0.010	0.010	0.000	0.010	0.005	0.010	0.044	2.686	2.173	2.187	2.192	2.227	2.231	2.251
0.005	0.005	-0.005	0.010	0.010	0.000	0.044	2.690	2.168	2.183	2.187	2.222	2.227	2.241
0.000	0.005	-0.005	0.005	-0.005	0.005	0.044	2.700	2.163	2.178	2.183	2.212	2.222	2.231
0.005	0.000	-0.005	0.005	-0.005	0.005	0.039	2.690	2.158	2.168	2.183	2.207	2.212	2.231
0.000	-0.005	0.005	-0.005	0.000	-0.005	0.044	2.676	2.148	2.163	2.178	2.202	2.207	2.217
0.005	-0.015	0.005	-0.010	0.010	-0.010	0.044	2.671	2.148	2.158	2.168	2.197	2.207	2.222
0.005	-0.015	0.000	-0.015	0.015	0.000	0.039	2.681	2.144	2.153	2.168	2.187	2.202	2.217
0.010	-0.010	0.000	-0.010	0.000	0.005	0.039	2.690	2.144	2.153	2.158	2.187	2.192	2.212
0.000	-0.005	0.000	-0.015	-0.010	0.005	0.039	2.681	2.139	2.148	2.153	2.183	2.187	2.202
0.000	0.005	0.000	-0.010	-0.005	0.000	0.044	2.671	2.129	2.148	2.153	2.178	2.187	2.197
0.005	0.005	0.000	-0.010	-0.005	-0.005	0.044	2.671	2.124	2.139	2.148	2.178	2.183	2.192
0.000	-0.005	0.000	-0.005	0.005	0.000	0.044	2.671	2.124	2.134	2.144	2.178	2.183	2.192
0.005	0.015	-0.005	-0.005	0.005	0.000	0.039	2.681	2.124	2.139	2.144	2.173	2.183	2.187
-0.010	0.015	0.000	0.000	0.015	0.000	0.039	2.681	2.119	2.129	2.139	2.173	2.178	2.187
-0.005	0.020	0.000	0.005	0.015	0.000	0.044	2.671	2.119	2.129	2.139	2.168	2.173	2.183
-0.010	0.015	-0.005	0.010	0.000	0.010	0.044	2.690	2.114	2.124	2.134	2.163	2.168	2.183
0.000	0.015	-0.005	0.015	0.000	0.005	0.039	2.686	2.114	2.124	2.129	2.163	2.168	2.178
-0.005	0.000	0.000	0.015	0.000	-0.015	0.044	2.676	2.109	2.119	2.124	2.158	2.163	2.168
0.000	0.005	0.000	0.005	0.010	-0.020	0.044	2.695	2.109	2.119	2.124	2.153	2.158	2.168
0.005	0.024	0.000	0.005	0.000	-0.015	0.044	2.686	2.109	2.114	2.119	2.148	2.153	2.158
0.010	0.005	-0.005	0.000	-0.010	0.000	0.044	2.676	2.100	2.104	2.114	2.139	2.148	2.163
0.005	-0.020	0.000	-0.005	-0.015	0.005	0.044	2.671	2.095	2.100	2.109	2.139	2.144	2.158
0.000	-0.010	0.000	-0.005	-0.005	0.005	0.044	2.661	2.090	2.100	2.109	2.134	2.139	2.153
0.010	0.015	0.005	-0.005	0.000	0.005	0.044	2.671	2.090	2.104	2.104	2.129	2.139	2.148
0.010	0.015	0.000	-0.015	0.000	0.005	0.039	2.671	2.090	2.095	2.100	2.129	2.134	2.144
0.010	0.010	0.010	-0.015	0.000	0.005	0.044	2.671	2.085	2.090	2.100	2.124	2.134	2.139
0.010	-0.005	0.005	-0.015	0.000	-0.005	0.044	2.681	2.080	2.090	2.095	2.124	2.124	2.134
-0.005	-0.005	0.005	-0.005	0.000	0.005	0.039	2.676	2.070	2.085	2.090	2.119	2.124	2.134
0.000	0.000	0.000	-0.005	0.005	0.005	0.044	2.676	2.075	2.080	2.085	2.119	2.119	2.129
-0.005	-0.005	0.000	0.000	0.000	0.005	0.039	2.686	2.070	2.080	2.085	2.114	2.119	2.129
0.000	0.010	0.000	0.005	0.005	-0.015	0.039	2.690	2.075	2.080	2.085	2.114	2.114	2.119
-0.005	0.024	-0.005	0.010	0.000	0.005	0.044	2.686	2.075	2.080	2.085	2.109	2.114	2.124
0.000	0.020	0.000	0.010	-0.005	0.000	0.044	2.681	2.070	2.075	2.080	2.109	2.109	2.119
-0.005	0.015	0.000	0.010	0.005	0.000	0.039	2.686	2.065	2.075	2.080	2.109	2.109	2.114
-0.005	0.000	-0.005	0.010	0.005	0.005	0.044	2.690	2.065	2.065	2.075	2.104	2.104	2.119
0.000	-0.015	-0.005	0.010	0.000	-0.005	0.044	2.676	2.061	2.061	2.070	2.100	2.104	2.104
0.005	-0.020	0.000	0.005	0.005	0.005	0.044	2.666	2.061	2.061	2.065	2.095	2.100	2.109
0.000	-0.020	0.000	0.000	0.005	-0.015	0.044	2.661	2.051	2.056	2.065	2.090	2.095	2.100
0.010	-0.020	0.005	-0.005	0.000	0.010	0.039	2.676	2.051	2.056	2.061	2.085	2.090	2.104
0.005	-0.015	0.005	-0.010	-0.005	-0.015	0.039	2.671	2.046	2.056	2.061	2.080	2.085	2.095
0.010	-0.010	0.000	-0.010	-0.005	0.005	0.044	2.676	2.046	2.051	2.056	2.080	2.080	2.095
0.010	0.000	-0.005	-0.015	0.010	0.005	0.044	2.676	2.046	2.051	2.056	2.075	2.080	2.090
0.005	-0.005	0.005	-0.015	0.005	0.005	0.044	2.676	2.041	2.051	2.051	2.075	2.080	2.090
-0.005	-0.005	0.000	-0.010	0.000	0.000	0.044	2.681	2.036	2.046	2.051	2.075	2.075	2.080
-0.005	0.024	0.000	-0.005	0.000	0.005	0.044	2.681	2.036	2.051	2.051	2.075	2.075	2.080
0.005	0.020	0.000	0.000	0.005	-0.010	0.044	2.671	2.036	2.046	2.046	2.075	2.075	2.075
-0.005	0.020	-0.005	0.005	0.000	0.010	0.044	2.676	2.036	2.041	2.046	2.075	2.075	2.080
-0.010	0.010	-0.005	0.010	0.000	0.010	0.044	2.671	2.026	2.036	2.041	2.070	2.070	2.080
-0.005	0.020	-0.005	0.015	0.000	0.005	0.044	2.661	2.031	2.041	2.041	2.070	2.070	2.075
-0.005	0.015	0.000	0.015	0.000	-0.010	0.039	2.686	2.026	2.036	2.041	2.065	2.065	2.070
-0.005	0.020	0.000	0.015	0.000	0.010	0.039	2.671	2.026	2.031	2.036	2.065	2.065	2.070
-0.010	0.005	0.000	0.010	0.005	0.005	0.044	2.681	2.026	2.026	2.036	2.061	2.065	2.070
-0.010	-0.005	0.000	0.005	0.005	0.005	0.044	2.686	2.026	2.026	2.031	2.056	2.061	2.065
0.010	0.000	0.005	0.000	0.005	0.005	0.039	2.676	2.026	2.026	2.026	2.056	2.056	2.065
0.010	-0.015	0.005	0.000	0.000	-0.005	0.044	2.671	2.021	2.021	2.026	2.051	2.051	2.061
-0.005	-0.010	0.000	-0.005	0.000	0.000	0.044	2.671	2.017	2.021	2.021	2.046	2.046	2.056
0.010	-0.015	0.000	-0.010	0.000	-0.010	0.039	2.671	2.017	2.017	2.021	2.041	2.046	2.051
0.000	0.000	0.000	-0.015	0.000	0.010	0.044	2.671	2.012	2.021	2.021	2.036	2.041	2.056
0.000	-0.010	0.005	-0.015	-0.005	0.010	0.044	2.690	2.012	2.017	2.017	2.036	2.041	2.051
0.000	0.000	0.005	-0.015	0.000	0.010	0.039	2.686	2.012	2.017	2.017	2.036	2.036	2.046
0.005	0.005	0.005	-0.010	0.000	0.005	0.044	2.690	2.012	2.017	2.017	2.036	2.036	2.041
0.000	0.000	0.005	-0.005	0.000	0.005	0.044	2.671	2.012	2.017	2.017	2.036	2.036	2.041
-0.010	0.015	0.005	0.000	0.000	0.000	0.044	2.681	2.007	2.017	2.012	2.041	2.036	2.036
-0.005	0.005	-0.005	0.005	0.000	-0.005	0.039	2.671	2.007	2.012	2.012	2.036	2.036	2.036
-0.005	0.005	-0.005	0.015	0.000	0.005	0.044	2.671	2.007	2.012	2.012	2.036	2.036	2.041
-0.010	0.010	-0.005	0.015	0.000	-0.010	0.044	2.676	2.002	2.012	2.012	2.036	2.031	2.036
-0.005	0.015	0.000	0.015	0.000	-0.005	0.044	2.681	2.002	2.007	2.012	2.031	2.031	2.036
0.000	0.015	0.000	0.015	0.000	-0.020	0.039	2.681	2.002	2.007	2.012	2.031	2.031	2.031
0.000	0.010	0.000	0.010	0.000	0.005	0.044	2.681	2.002	2.002	2.007	2.026	2.031	2.036
0.000	0.005	0.000	0.010	0.000	0.000	0.044	2.681	1.997	2.007	2.007	2.026	2.026	2.031
0.000	0.000	0.000	0.000	0.005	0.000	0.044	2.681	1.997	1.997	2.002	2.026	2.026	2.031
0.005	-0.010	0.005	-0.005	0.000	0.000	0.044	2.681	1.992	1.992	1.997	2.021	2.026	2.026
0.010	0.000	0.005	-0.010	0.005	-0.010	0.044	2.666	1.992	1.997	1.997	2.017	2.021	2.026
0.015	0.000	0.005	-0.015	0.000	0.000	0.044	2.686	1.992	1.997	1.997	2.017	2.017	2.026
0.005	-0.005	0.005	-0.010	0.000	0.000	0.044	2.681	1.987	1.992	1.992	2.012	2.017	2.021
0.010	-0.010	0.000	-0.015	0.000	-0.020	0.044	2.666	1.987	1.987	1.992	2.012	2.012	2.017
0.005	-0.005	0.000	-0.010	0.000	0.005	0.044	2.686	1.982	1.987	1.987	2.012	2.012	2.021
0.005	-0.005	0.000	-0.005	0.000	-0.010	0.044	2.671	1.982	1.987	1.987	2.012	2.012	2.012
0.000	0.010	0.000	-0.005	-0.005	0.010	0.039	2.671	1.978	1.987	1.987	2.012	2.007	2.021
0.000	-0.015	0.000	0.000	0.000	0.015	0.044	2.681	1.978	1.982	1.982	2.012	2.012	2.017
-0.005	-0.020	-0.005	0.005	-0.005	0.000	0.039	2.690	1.982	1.982	1.982	2.012	2.012	2.012
-0.005	-0.005	-0.005	0.015	-0.005	0.010	0.039	2.686	1.982	1.982	1.982	2.012	2.007	2.012
-0.010	0.005	-0.005	0.015	0.000	-0.005	0.044	2.686	1.982	1.987	1.982	2.007	2.007	2.007
0.000	0.005	-0.005	0.015	0.005	-0.024	0.044	2.686	1.987	1.987	1.982	2.007	2.007	2.002
0.000	0.000	0.000	0.015	0.000	0.015	0.044	2.676	1.982	1.982	1.982	2.007	2.007	2.017
0.010	0.000	0.005	0.010	-0.005	0.015	0.044	2.681	1.982	1.982	1.982	2.002	2.002	2.012
-0.005	-0.005	0.005	0.005	-0.005	0.005	0.044	2.686	1.978	1.978	1.982	2.002	1.997	2.002
0.020	-0.015	0.000	0.000	0.010	-0.010	0.044	2.681	1.982	1.978	1.978	1.997	2.002	2.002
0.005	-0.005	0.000	-0.005	0.000	0.005	0.044	2.676	1.973	1.978	1.978	1.997	1.997	2.002
0.000	0.000	0.000	-0.010	0.005	0.015	0.044	2.681	1.973	1.978	1.978	1.997	1.997	2.007
0.000	-0.005	0.005	-0.010	0.005	0.000	0.039	2.681	1.968	1.973	1.978	1.992	1.992	1.997
0.000	-0.005	0.000	-0.010	0.000	0.000	0.039	2.671	1.963	1.968	1.973	1.992	1.992	1.992
0.000	0.000	0.000	-0.015	0.005	-0.010	0.044	2.671	1.968	1.973	1.973	1.992	1.987	1.987
0.000	-0.005	0.000	-0.010	0.010	0.010	0.044	2.666	1.963	1.968	1.973	1.992	1.992	1.997
0.000	0.005	0.005	-0.005	-0.005	0.010	0.044	2.671	1.963	1.968	1.968	1.992	1.987	1.997
0.000	0.010	0.005	0.000	-0.010	0.010	0.044	2.690	1.968	1.973	1.968	1.992	1.987	1.992
0.000	0.015	0.000	0.005	-0.010	-0.005	0.044	2.661	1.963	1.973	1.968	1.992	1.987	1.982
-0.010	0.015	-0.005	0.010	-0.005	0.000	0.039	2.671	1.958	1.968	1.968	1.992	1.987	1.987
-0.005	0.015	0.000	0.015	0.000	0.015	0.044	2.681	1.958	1.963	1.963	1.992	1.992	1.992
-0.005	0.010	0.000	0.015	0.000	0.005	0.044	2.686	1.963	1.963	1.963	1.992	1.987	1.987
-0.005	0.005	-0.005	0.015	0.005	0.010	0.044	2.676	1.958	1.963	1.963	1.987	1.992	1.992
0.005	0.005	-0.005	0.010	0.010	0.005	0.044	2.686	1.963	1.963	1.963	1.982	1.987	1.992
0.000	0.000	-0.005	0.010	0.005	-0.010	0.044	2.666	1.958	1.958	1.958	1.982	1.982	1.982
0.010	0.000	0.000	0.005	0.010	0.005	0.044	2.681	1.958	1.958	1.958	1.978	1.982	1.987
0.000	-0.010	0.000	-0.005	0.005	0.005	0.039	2.686	1.958	1.953	1.958	1.978	1.978	1.982
0.005	-0.005	0.000	-0.005	0.005	0.005	0.044	2.676	1.958	1.958	1.953	1.973	1.978	1.978
0.005	-0.010	0.000	-0.010	0.005	0.005	0.044	2.661	1.953	1.953	1.953	1.973	1.973	1.978
0.010	-0.015	0.005	-0.010	-0.005	0.005	0.039	2.681	1.953	1.953	1.953	1.973	1.968	1.978
0.000	-0.010	0.010	-0.010	-0.005	0.000	0.039	2.671	1.953	1.953	1.953	1.973	1.968	1.973
0.005	-0.010	0.005	-0.010	-0.005	-0.020	0.044	2.671	1.948	1.953	1.953	1.973	1.968	1.968
0.000	-0.010	0.005	-0.005	0.000	-0.010	0.044	2.681	1.948	1.948	1.948	1.973	1.968	1.973
-0.005	0.000	0.005	-0.005	-0.005	0.005	0.044	2.681	1.948	1.953	1.953	1.973	1.968	1.973
-0.005	0.005	0.000	0.000	0.000	0.005	0.044	2.690	1.948	1.948	1.948	1.973	1.973	1.973
-0.005	0.010	0.000	0.015	-0.005	-0.005	0.044	2.686	1.953	1.953	1.948	1.973	1.968	1.973
-0.005	0.015	0.000	0.010	-0.005	-0.015	0.044	2.671	1.948	1.958	1.953	1.973	1.968	1.963
-0.005	0.015	0.000	0.015	0.000	0.010	0.044	2.681	1.948	1.953	1.953	1.973	1.973	1.973
0.005	0.010	-0.005	0.015	0.000	-0.010	0.039	2.676	1.948	1.948	1.953	1.973	1.973	1.973
0.000	0.000	0.000	0.015	0.000	0.000	0.039	2.661	1.948	1.948	1.948	1.973	1.973	1.973
0.005	0.010	0.000	0.010	0.000	0.015	0.039	2.676	1.948	1.948	1.948	1.968	1.968	1.973
0.005	0.010	0.005	0.005	0.000	0.015	0.044	2.686	1.948	1.948	1.948	1.968	1.968	1.973
0.005	-0.005	0.000	0.005	0.010	0.010	0.044	2.681	1.948	1.943	1.943	1.968	1.968	1.968
0.010	-0.024	0.000	-0.005	0.005	-0.010	0.044	2.690	1.948	1.938	1.943	1.963	1.963	1.963
0.005	-0.029	0.005	-0.010	0.000	-0.005	0.044	2.661	1.943	1.938	1.943	1.958	1.958	1.963
0.000	-0.024	0.005	-0.010	0.005	-0.020	0.044	2.666	1.938	1.938	1.943	1.958	1.958	1.958
0.015	-0.020	0.005	-0.010	0.005	-0.005	0.044	2.676	1.943	1.943	1.938	1.958	1.958	1.963
0.000	-0.015	0.000	-0.010	0.000	0.010	0.044	2.637	1.934	1.938	1.938	1.958	1.958	1.963
0.000	0.000	0.005	-0.005	0.000	0.005	0.044	2.676	1.938	1.943	1.938	1.958	1.958	1.963
-0.005	0.000	0.000	-0.005	-0.005	0.000	0.039	2.676	1.938	1.938	1.938	1.958	1.953	1.958
0.005	0.000	0.000	-0.005	0.015	0.005	0.044	2.666	1.934	1.938	1.938	1.958	1.958	1.958
0.000	0.000	0.000	0.000	0.010	0.005	0.044	2.651	1.934	1.934	1.938	1.963	1.958	1.958
-0.005	0.015	0.000	0.005	0.005	0.000	0.039	2.720	1.938	1.943	1.938	1.963	1.958	1.953
-0.005	0.010	-0.005	0.010	0.000	0.000	0.044	2.827	1.953	1.938	1.938	1.963	1.958	1.958
-0.010	0.005	-0.005	0.020	0.000	0.010	0.044	2.642	1.943	1.943	1.938	1.963	1.958	1.958
-0.010	0.010	0.000	0.015	-0.005	0.010	0.044	2.847	1.958	1.943	1.943	1.958	1.958	1.958
0.005	0.005	0.000	0.015	0.000	0.005	0.044	2.681	1.953	1.948	1.943	1.958	1.958	1.958
0.000	0.005	0.000	0.010	0.000	0.000	0.044	2.656	1.943	1.948	1.943	1.958	1.958	1.958
0.000	0.005	0.000	0.005	-0.005	0.000	0.044	2.676	1.943	1.943	1.943	1.958	1.953	1.953
0.005	-0.005	0.000	0.000	0.005	-0.005	0.044	2.681	1.938	1.938	1.943	1.958	1.958	1.953
0.000	-0.010	0.000	-0.005	0.000	-0.010	0.044	2.676	1.934	1.938	1.938	1.958	1.953	1.953
-0.005	-0.005	0.005	-0.010	0.000	-0.005	0.044	2.661	1.934	1.938	1.938	1.953	1.953	1.953
0.005	-0.005	0.005	-0.010	0.000	0.005	0.044	2.666	1.929	1.934	1.938	1.953	1.948	1.953
0.005	-0.015	0.000	-0.010	0.000	-0.005	0.044	2.642	1.924	1.929	1.934	1.948	1.948	1.953
0.010	0.000	0.000	-0.010	0.000	0.000	0.044	2.646	1.924	1.934	1.934	1.953	1.948	1.953
0.000	0.005	0.000	-0.010	-0.005	0.005	0.044	2.651	1.924	1.934	1.929	1.953	1.948	1.953
-0.005	0.010	0.000	-0.005	0.000	0.005	0.044	2.705	1.924	1.929	1.929	1.953	1.948	1.948
0.000	0.010	0.000	-0.005	0.000	0.000	0.039	2.651	1.924	1.929	1.929	1.953	1.948	1.948
0.000	0.015	0.000	0.005	0.000	-0.010	0.039	2.642	1.924	1.929	1.929	1.953	1.948	1.948
-0.005	0.015	-0.005	0.010	0.005	0.005	0.044	2.822	1.943	1.934	1.929	1.953	1.953	1.953
-0.010	0.039	-0.005	0.010	0.005	0.005	0.044	2.686	1.938	1.943	1.934	1.953	1.953	1.953
-0.010	0.024	-0.005	0.015	0.000	0.010	0.039	2.690	1.938	1.934	1.929	1.953	1.948	1.953
0.000	0.020	-0.005	0.015	0.005	0.000	0.044	2.676	1.934	1.934	1.934	1.948	1.948	1.948
-0.005	0.000	-0.005	0.010	0.000	0.005	0.044	2.666	1.929	1.929	1.934	1.948	1.948	1.948
0.000	0.010	-0.005	0.005	-0.005	-0.020	0.044	2.666	1.934	1.929	1.929	1.948	1.948	1.943
0.005	0.000	0.005	0.005	0.000	-0.005	0.044	2.671	1.929	1.929	1.929	1.948	1.943	1.948
0.005	0.000	0.000	-0.005	-0.005	0.000	0.039	2.656	1.929	1.929	1.929	1.943	1.943	1.948
0.005	-0.010	0.005	-0.005	0.000	-0.005	0.044	2.661	1.924	1.924	1.924	1.943	1.943	1.943
0.010	-0.010	0.005	-0.005	-0.005	0.015	0.044	2.651	1.919	1.924	1.924	1.943	1.943	1.948
0.000	-0.015	0.005	-0.015	0.000	0.010	0.044	2.651	1.914	1.919	1.924	1.938	1.938	1.948
0.005	-0.005	0.000	-0.010	0.000	0.005	0.039	2.681	1.924	1.919	1.919	1.943	1.938	1.943
0.015	0.010	0.005	-0.010	0.005	0.000	0.039	2.646	1.919	1.924	1.919	1.943	1.938	1.938
0.005	0.020	0.000	-0.010	0.000	0.005	0.044	2.646	1.914	1.924	1.919	1.943	1.938	1.943
0.000	-0.015	0.000	-0.005	0.000	-0.005	0.039	2.817	1.934	1.914	1.919	1.938	1.938	1.938
0.000	-0.010	-0.005	0.000	0.005	0.000	0.044	2.676	1.929	1.919	1.919	1.943	1.938	1.943
-0.005	-0.005	0.000	0.005	0.000	0.005	0.044	2.676	1.924	1.919	1.919	1.943	1.938	1.943
-0.005	-0.005	0.000	0.010	0.000	-0.005	0.044	2.671	1.924	1.924	1.924	1.943	1.938	1.938
0.005	0.000	0.000	0.015	0.010	0.005	0.039	2.666	1.929	1.929	1.924	1.943	1.938	1.943
0.000	0.010	0.000	0.015	0.000	0.005	0.039	2.681	1.929	1.929	1.924	1.943	1.938	1.943
-0.010	0.000	-0.005	0.015	0.000	0.000	0.039	2.671	1.924	1.929	1.924	1.943	1.938	1.938
-0.005	0.015	-0.005	0.010	-0.005	0.005	0.039	2.671	1.929	1.929	1.924	1.943	1.938	1.938
0.005	0.005	0.000	0.005	-0.005	0.000	0.044	2.651	1.924	1.924	1.924	1.938	1.938	1.938
-0.005	0.000	0.005	0.000	0.000	0.005	0.044	2.656	1.919	1.919	1.924	1.938	1.934	1.938
0.010	-0.010	0.005	-0.005	0.010	0.000	0.044	2.651	1.919	1.914	1.919	1.938	1.938	1.938
0.015	0.000	0.005	-0.010	0.010	0.005	0.039	2.676	1.919	1.919	1.919	1.934	1.934	1.938
0.005	-0.010	0.000	-0.010	0.000	-0.015	0.044	2.646	1.914	1.914	1.914	1.934	1.929	1.934
-0.005	0.000	0.005	-0.015	-0.005	-0.005	0.044	2.642	1.914	1.914	1.914	1.934	1.929	1.934
0.000	-0.005	0.000	-0.010	0.000	-0.005	0.044	2.651	1.909	1.914	1.914	1.934	1.929	1.929
0.005	0.000	0.000	-0.010	0.010	-0.020	0.044	2.681	1.914	1.914	1.914	1.934	1.929	1.924
0.000	0.010	0.000	-0.005	0.005	0.000	0.044	2.681	1.909	1.919	1.914	1.934	1.934	1.938
0.000	0.010	0.000	0.000	0.005	0.015	0.044	2.681	1.909	1.919	1.914	1.938	1.934	1.938
-0.005	0.015	0.000	0.000	-0.005	0.010	0.044	2.681	1.914	1.914	1.914	1.938	1.929	1.934
-0.010	0.010	0.000	0.005	-0.010	0.005	0.039	2.681	1.919	1.914	1.914	1.938	1.929	1.929
-0.005	0.020	0.000	0.010	0.000	0.005	0.044	2.686	1.919	1.919	1.914	1.938	1.934	1.934
-0.005	0.010	-0.005	0.015	0.005	0.005	0.044	2.661	1.919	1.919	1.914	1.938	1.934	1.934
-0.005	0.010	0.000	0.015	0.005	-0.020	0.039	2.661	1.914	1.914	1.914	1.938	1.929	1.929
0.000	0.000	0.000	0.015	0.000	0.000	0.039	2.656	1.909	1.909	1.914	1.934	1.929	1.934
0.005	-0.005	0.000	0.010	0.000	0.010	0.044	2.642	1.909	1.909	1.909	1.934	1.934	1.934
0.000	-0.020	0.000	0.005	-0.010	-0.005	0.044	2.666	1.909	1.904	1.909	1.929	1.929	1.929
0.005	0.000	0.000	0.000	0.015	0.005	0.039	2.637	1.909	1.909	1.909	1.924	1.929	1.934
0.010	-0.005	0.000	-0.005	0.010	-0.020	0.039	2.617	1.924	1.909	1.909	1.924	1.924	1.924
0.005	-0.020	0.005	-0.010	0.015	-0.010	0.044	2.773	1.914	1.909	1.909	1.924	1.924	1.929
0.005	-0.010	0.000	-0.010	0.005	-0.005	0.044	2.690	1.914	1.909	1.909	1.924	1.924	1.924
0.010	-0.005	0.005	-0.015	0.000	0.015	0.044	2.686	1.914	1.909	1.909	1.924	1.919	1.929
0.000	0.000	0.005	-0.010	0.000	0.010	0.044	2.676	1.914	1.914	1.909	1.924	1.919	1.929
0.000	0.000	-0.005	-0.010	0.005	0.005	0.044	2.676	1.914	1.909	1.909	1.924	1.919	1.924
0.000	-0.005	-0.005	-0.005	0.000	0.010	0.039	2.671	1.909	1.909	1.909	1.929	1.919	1.924
0.005	0.000	0.000	0.000	0.005	-0.005	0.044	2.676	1.914	1.914	1.914	1.929	1.924	1.924
0.005	-0.005	0.000	0.005	0.000	-0.005	0.039	2.666	1.909	1.914	1.909	1.929	1.924	1.924
0.000	0.000	0.000	0.010	-0.005	0.010	0.044	2.661	1.909	1.909	1.909	1.934	1.924	1.924
0.000	0.005	-0.005	0.015	0.000	0.010	0.044	2.661	1.909	1.914	1.909	1.934	1.924	1.924
-0.005	0.005	0.000	0.015	0.005	0.010	0.044	2.651	1.909	1.909	1.909	1.934	1.929	1.929
0.000	0.000	0.000	0.015	0.005	0.010	0.044	2.661	1.909	1.909	1.909	1.929	1.929	1.929
0.000	0.000	0.000	0.010	0.000	0.005	0.044	2.827	1.929	1.909	1.909	1.929	1.929	1.924
-0.010	-0.005	0.005	0.010	0.005	0.005	0.044	2.656	1.919	1.909	1.909	1.929	1.929	1.924
0.000	-0.010	0.005	0.005	0.000	-0.005	0.044	2.822	1.934	1.914	1.909	1.924	1.924	1.919
0.005	-0.010	0.000	-0.005	-0.010	-0.010	0.044	2.671	1.924	1.914	1.914	1.924	1.919	1.919
-0.005	-0.015	0.005	-0.005	-0.005	-0.024	0.039	2.686	1.924	1.919	1.914	1.924	1.924	1.914
0.005	-0.010	0.000	-0.010	-0.005	0.005	0.039	2.671	1.919	1.919	1.914	1.924	1.924	1.924
0.005	-0.015	0.010	-0.015	-0.005	0.010	0.044	2.671	1.914	1.914	1.914	1.929	1.919	1.924
0.005	-0.005	0.005	-0.015	0.000	0.005	0.044	2.676	1.914	1.914	1.909	1.929	1.919	1.924
0.000	0.005	0.005	-0.015	0.000	0.005	0.044	2.681	1.909	1.914	1.914	1.929	1.924	1.924
0.000	0.005	0.005	-0.010	0.000	0.005	0.044	2.661	1.904	1.914	1.914	1.934	1.924	1.924
-0.005	0.000	-0.005	-0.005	0.005	-0.005	0.044	2.661	1.904	1.909	1.909	1.934	1.929	1.924
-0.005	-0.005	0.000	0.005	0.000	0.000	0.039	2.646	1.904	1.904	1.909	1.929	1.929	1.924
-0.010	-0.005	-0.005	0.000	0.000	0.000	0.039	2.656	1.904	1.904	1.904	1.929	1.924	1.929
-0.005	0.000	-0.005	0.015	-0.005	0.005	0.039	2.661	1.904	1.904	1.909	1.929	1.924	1.924
-0.005	0.010	0.000	0.015	-0.005	0.010	0.039	2.808	1.924	1.914	1.909	1.934	1.924	1.929
0.000	0.010	0.000	0.015	-0.005	0.000	0.044	2.646	1.914	1.914	1.909	1.929	1.929	1.924
-0.005	0.015	-0.005	0.015	-0.005	0.010	0.044	2.656	1.914	1.914	1.909	1.929	1.929	1.929
0.005	0.020	-0.005	0.010	0.005	0.005	0.044	2.676	1.914	1.919	1.909	1.929	1.929	1.924
0.005	0.015	0.000	0.005	0.010	0.010	0.044	2.676	1.914	1.914	1.914	1.929	1.929	1.929
0.005	0.000	0.005	0.000	0.005	0.000	0.044	2.681	1.914	1.904	1.914	1.924	1.924	1.924
0.010	0.000	0.000	0.000	0.000	0.005	0.044	2.686	1.919	1.909	1.909	1.924	1.924	1.924
0.020	-0.005	-0.005	-0.005	0.005	0.000	0.044	2.666	1.914	1.909	1.909	1.924	1.924	1.924
0.010	-0.005	0.005	-0.010	0.005	0.005	0.039	2.676	1.909	1.909	1.904	1.924	1.924	1.924
0.015	-0.005	0.005	-0.015	0.010	0.000	0.044	2.637	1.904	1.909	1.909	1.924	1.919	1.924
0.005	-0.005	0.010	-0.010	-0.005	-0.010	0.044	2.822	1.919	1.909	1.909	1.924	1.914	1.919
0.000	-0.005	0.005	-0.010	0.000	-0.020	0.044	2.671	1.914	1.914	1.904	1.924	1.919	1.914
-0.010	-0.005	0.000	-0.005	0.005	0.000	0.044	2.681	1.909	1.909	1.909	1.929	1.924	1.924
-0.005	0.000	0.000	0.000	0.000	-0.010	0.044	2.681	1.909	1.914	1.909	1.929	1.919	1.919
0.000	0.005	0.000	0.005	-0.005	0.010	0.044	2.686	1.914	1.914	1.909	1.929	1.919	1.924
-0.015	0.015	-0.005	0.010	0.000	0.000	0.039	2.666	1.909	1.914	1.909	1.929	1.924	1.919
-0.005	0.010	-0.005	0.010	-0.005	0.000	0.039	2.622	1.904	1.909	1.909	1.929	1.924	1.924
-0.010	0.015	-0.010	0.015	0.000	0.000	0.044	2.627	1.899	1.909	1.909	1.929	1.924	1.924
-0.015	0.010	-0.005	0.015	0.000	0.000	0.044	2.856	1.924	1.904	1.909	1.929	1.924	1.924
-0.010	0.000	-0.005	0.015	0.000	-0.015	0.044	2.681	1.919	1.909	1.909	1.929	1.924	1.919
0.000	-0.005	0.005	0.010	0.005	0.015	0.044	2.690	1.919	1.909	1.909	1.929	1.924	1.929
-0.005	0.000	0.000	0.005	0.000	0.005	0.039	2.676	1.914	1.914	1.909	1.924	1.924	1.924
0.005	-0.005	0.005	0.000	-0.005	0.005	0.039	2.661	1.914	1.914	1.909	1.924	1.924	1.924
0.005	-0.015	0.000	-0.005	0.000	0.000	0.039	2.681	1.914	1.909	1.909	1.924	1.919	1.919
0.010	-0.010	0.005	-0.005	0.005	0.005	0.039	2.632	1.909	1.909	1.909	1.924	1.924	1.924
0.010	-0.010	0.000	-0.010	0.000	0.005	0.044	2.812	1.919	1.909	1.904	1.924	1.919	1.924
0.005	0.000	0.005	-0.015	0.005	-0.005	0.039	2.681	1.914	1.914	1.909	1.924	1.919	1.919
0.005	-0.005	0.000	-0.010	0.000	0.005	0.044	2.686	1.914	1.909	1.909	1.924	1.919	1.924
0.000	0.005	-0.005	-0.010	0.000	-0.005	0.044	2.676	1.909	1.914	1.909	1.924	1.919	1.919
0.005	0.005	0.005	-0.005	0.005	0.010	0.044	2.681	1.909	1.909	1.909	1.929	1.919	1.924
0.005	0.005	0.000	0.000	0.000	0.005	0.044	2.671	1.909	1.914	1.909	1.929	1.924	1.919
0.000	0.020	-0.005	0.005	-0.005	0.010	0.044	2.656	1.904	1.914	1.909	1.929	1.924	1.919
-0.005	0.010	-0.005	0.010	0.005	0.020	0.039	2.671	1.904	1.904	1.909	1.934	1.924	1.924
-0.005	0.010	-0.005	0.015	0.000	0.005	0.039	2.666	1.904	1.909	1.909	1.929	1.924	1.924
-0.015	0.000	0.000	0.015	0.000	0.005	0.039	2.651	1.904	1.904	1.909	1.929	1.924	1.924
-0.005	-0.010	-0.005	0.015	0.000	0.005	0.044	2.646	1.899	1.899	1.904	1.929	1.924	1.924
0.000	-0.010	-0.005	0.010	0.000	0.000	0.044	2.808	1.924	1.904	1.904	1.924	1.924	1.924
-0.005	-0.005	0.000	0.010	-0.005	-0.015	0.044	2.671	1.919	1.909	1.909	1.924	1.924	1.919
0.000	-0.010	0.005	0.005	0.000	-0.015	0.044	2.661	1.914	1.909	1.904	1.924	1.924	1.919
0.005	-0.010	0.005	0.000	-0.005	-0.005	0.044	2.642	1.904	1.909	1.909	1.919	1.919	1.919
-0.005	-0.005	0.010	-0.010	0.000	0.000	0.039	2.661	1.904	1.904	1.909	1.919	1.919	1.924
0.010	-0.015	0.005	-0.005	-0.005	-0.010	0.044	2.686	1.904	1.904	1.904	1.919	1.919	1.919
0.010	-0.020	0.005	-0.010	0.000	-0.010	0.044	2.676	1.904	1.904	1.899	1.919	1.919	1.924
0.010	-0.005	0.000	-0.010	0.000	0.010	0.044	2.681	1.904	1.904	1.904	1.919	1.919	1.924
0.015	0.000	0.005	-0.010	0.010	0.015	0.039	2.676	1.904	1.909	1.904	1.924	1.919	1.924
0.005	0.005	0.000	-0.010	0.000	0.005	0.044	2.690	1.909	1.909	1.904	1.924	1.919	1.919
0.000	0.000	0.000	-0.005	0.000	0.005	0.044	2.666	1.904	1.904	1.904	1.924	1.919	1.919
0.005	0.015	-0.005	0.005	0.005	0.000	0.044	2.661	1.899	1.909	1.904	1.924	1.919	1.919
-0.010	0.005	-0.005	0.010	0.015	-0.024	0.039	2.661	1.899	1.899	1.904	1.924	1.919	1.914
-0.005	0.005	0.000	0.010	0.000	-0.010	0.044	2.666	1.899	1.904	1.904	1.924	1.919	1.919
-0.010	0.015	0.000	0.015	0.005	-0.005	0.044	2.686	1.904	1.904	1.904	1.924	1.924	1.924
0.000	0.000	0.000	0.020	0.005	-0.015	0.044	2.681	1.904	1.899	1.904	1.924	1.919	1.919
0.000	0.010	-0.005	0.015	0.000	0.015	0.044	2.715	1.914	1.904	1.904	1.924	1.919	1.924
0.000	0.005	0.005	0.005	-0.005	0.000	0.039	2.656	1.909	1.904	1.904	1.919	1.919	1.919
0.005	0.010	0.005	0.005	-0.005	0.005	0.044	2.803	1.919	1.909	1.904	1.919	1.919	1.919
0.010	0.005	0.000	0.005	0.000	0.005	0.039	2.793	1.934	1.914	1.904	1.919	1.919	1.919
0.005	0.010	0.000	-0.005	0.000	0.005	0.044	2.700	1.929	1.919	1.909	1.919	1.919	1.914
0.005	0.010	0.000	-0.010	0.005	0.010	0.044	2.686	1.914	1.919	1.909	1.919	1.919	1.919
0.005	0.000	0.005	-0.010	0.005	0.000	0.044	2.666	1.914	1.909	1.909	1.924	1.914	1.919
0.010	-0.010	0.005	-0.010	0.000	-0.010	0.044	2.681	1.909	1.909	1.909	1.924	1.919	1.914
0.010	-0.005	0.005	-0.010	0.005	0.005	0.044	2.705	1.909	1.909	1.904	1.924	1.919	1.919
0.005	0.000	0.005	-0.010	0.005	0.005	0.039	2.676	1.904	1.909	1.909	1.924	1.919	1.919
-0.005	-0.005	0.005	-0.010	-0.005	-0.010	0.039	2.690	1.904	1.904	1.904	1.924	1.919	1.914
-0.005	0.000	0.005	-0.005	0.000	0.005	0.039	2.666	1.904	1.909	1.904	1.929	1.919	1.919
0.000	0.005	0.000	0.000	0.005	0.005	0.039	2.686	1.909	1.909	1.904	1.929	1.924	1.919
-0.010	0.000	0.005	0.010	-0.005	0.000	0.044	2.676	1.904	1.909	1.909	1.929	1.924	1.914
-0.010	0.010	0.000	0.015	-0.005	0.000	0.044	2.686	1.909	1.909	1.904	1.934	1.924	1.919
-0.005	0.015	-0.005	0.020	0.005	-0.010	0.044	2.676	1.909	1.909	1.904	1.929	1.924	1.924
-0.005	0.010	-0.010	0.015	0.000	0.000	0.044	2.666	1.909	1.909	1.904	1.924	1.924	1.924
0.000	0.015	-0.005	0.010	0.000	0.015	0.044	2.681	1.909	1.904	1.909	1.929	1.924	1.929
-0.005	0.005	-0.005	0.010	0.000	0.005	0.044	2.671	1.909	1.904	1.904	1.924	1.924	1.924
0.005	-0.005	0.000	0.005	0.005	0.005	0.044	2.686	1.909	1.904	1.904	1.924	1.924	1.924
0.005	-0.005	0.005	0.000	0.000	0.005	0.044	2.671	1.904	1.904	1.904	1.919	1.919	1.924
0.000	-0.005	0.000	-0.005	0.005	-0.005	0.039	2.671	1.899	1.899	1.904	1.919	1.919	1.919
0.000	-0.010	0.005	-0.010	0.000	-0.005	0.044	2.686	1.904	1.899	1.904	1.919	1.914	1.919
0.005	-0.005	0.005	-0.015	0.000	0.005	0.044	2.690	1.904	1.904	1.899	1.919	1.914	1.919
0.005	0.005	0.005	-0.015	0.005	0.005	0.044	2.661	1.904	1.904	1.904	1.919	1.914	1.919
0.000	-0.010	0.005	-0.015	0.005	-0.005	0.044	2.681	1.904	1.899	1.899	1.919	1.914	1.914
-0.005	-0.005	0.005	-0.005	0.005	0.000	0.044	2.690	1.904	1.899	1.899	1.919	1.914	1.919
0.005	0.000	0.000	-0.005	0.005	0.005	0.039	2.671	1.904	1.904	1.899	1.919	1.919	1.919
0.000	0.010	0.000	0.000	0.000	0.005	0.044	2.690	1.909	1.904	1.904	1.924	1.914	1.919
-0.005	0.005	0.000	0.005	0.000	0.005	0.039	2.686	1.904	1.904	1.904	1.924	1.914	1.919
-0.005	0.010	-0.005	0.010	-0.005	0.005	0.039	2.690	1.904	1.909	1.904	1.924	1.914	1.919
-0.005	0.010	0.000	0.015	0.000	-0.005	0.039	2.686	1.909	1.904	1.904	1.924	1.914	1.914
-0.005	0.005	0.000	0.015	0.005	0.005	0.044	2.720	1.909	1.909	1.904	1.924	1.919	1.919
-0.010	-0.005	0.000	0.015	-0.005	-0.005	0.044	2.686	1.909	1.904	1.904	1.924	1.919	1.914
0.000	0.000	-0.005	0.015	0.000	-0.020	0.044	2.681	1.914	1.909	1.904	1.924	1.914	1.914
0.000	-0.005	0.000	0.010	0.000	0.010	0.044	2.686	1.909	1.904	1.904	1.924	1.914	1.924
0.005	0.000	0.005	0.005	0.005	-0.005	0.044	2.690	1.909	1.909	1.904	1.924	1.919	1.914
0.010	0.015	-0.005	0.000	-0.005	-0.010	0.044	2.671	1.909	1.909	1.904	1.924	1.919	1.914
0.010	0.010	0.000	-0.005	0.005	-0.005	0.044	2.676	1.909	1.909	1.909	1.919	1.919	1.919
0.005	0.005	0.005	-0.010	0.000	0.010	0.044	2.671	1.904	1.909	1.909	1.919	1.914	1.919
0.000	0.005	0.000	-0.010	0.000	0.000	0.039	2.671	1.904	1.904	1.904	1.919	1.914	1.914
0.000	0.000	0.005	-0.015	0.000	0.000	0.044	2.686	1.904	1.899	1.904	1.919	1.914	1.919
0.000	-0.005	0.000	-0.010	0.000	0.010	0.044	2.690	1.904	1.899	1.899	1.919	1.919	1.919
-0.005	0.000	0.005	-0.005	0.005	0.000	0.044	2.676	1.904	1.904	1.904	1.924	1.919	1.914
-0.005	0.005	0.005	0.000	0.000	0.000	0.039	2.661	1.899	1.904	1.904	1.924	1.914	1.919
0.000	0.015	0.005	0.000	0.000	0.000	0.044	2.676	1.904	1.904	1.899	1.924	1.919	1.919
-0.015	0.015	0.000	0.005	0.000	0.000	0.044	2.686	1.899	1.904	1.899	1.924	1.919	1.919
-0.010	0.020	0.000	0.015	-0.005	0.015	0.044	2.686	1.904	1.904	1.899	1.924	1.919	1.919
0.005	0.005	-0.005	0.015	0.000	0.005	0.044	2.671	1.904	1.899	1.899	1.924	1.919	1.919
-0.005	0.010	0.000	0.015	-0.005	0.000	0.044	2.681	1.904	1.904	1.904	1.924	1.914	1.919
-0.005	0.010	0.000	0.015	-0.005	0.010	0.044	2.661	1.904	1.904	1.899	1.919	1.919	1.919
0.000	0.005	-0.005	0.010	-0.005	0.005	0.044	2.681	1.909	1.899	1.904	1.919	1.914	1.919
0.005	-0.010	-0.005	0.005	-0.005	0.005	0.044	2.681	1.909	1.899	1.899	1.919	1.914	1.919
0.005	-0.015	0.000	0.005	0.000	0.000	0.044	2.666	1.904	1.899	1.899	1.914	1.914	1.919
0.010	-0.020	0.000	0.000	0.000	0.005	0.039	2.686	1.904	1.899	1.895	1.914	1.914	1.914
0.015	-0.020	0.005	-0.010	-0.005	0.005	0.044	2.681	1.904	1.899	1.899	1.914	1.909	1.914
0.010	-0.015	0.010	-0.015	0.010	0.000	0.039	2.739	1.914	1.904	1.899	1.914	1.914	1.914
0.010	-0.020	0.005	-0.015	0.000	-0.005	0.039	2.676	1.909	1.904	1.899	1.914	1.909	1.914
0.010	0.000	0.000	-0.015	-0.005	-0.010	0.039	2.686	1.909	1.909	1.899	1.919	1.909	1.904
0.000	0.000	0.005	-0.015	0.000	-0.005	0.044	2.690	1.904	1.909	1.899	1.919	1.909	1.909
0.015	0.005	0.000	-0.005	-0.005	-0.020	0.039	2.676	1.904	1.909	1.904	1.919	1.909	1.909
0.005	0.010	0.000	0.000	0.000	-0.010	0.044	2.686	1.899	1.904	1.904	1.919	1.914	1.914
-0.005	0.015	0.005	0.005	0.000	0.000	0.039	2.686	1.899	1.904	1.904	1.924	1.919	1.919
-0.005	0.005	0.000	0.010	-0.005	0.000	0.044	2.686	1.904	1.904	1.904	1.924	1.919	1.919
-0.005	0.015	0.000	0.010	0.000	0.005	0.039	2.671	1.904	1.909	1.904	1.924	1.919	1.919
0.000	0.005	0.000	0.015	0.000	-0.010	0.044	2.681	1.904	1.904	1.904	1.924	1.919	1.914
-0.010	0.005	0.000	0.015	0.000	0.015	0.044	2.686	1.899	1.904	1.904	1.924	1.919	1.924
-0.010	0.010	0.000	0.015	0.005	0.020	0.044	2.666	1.899	1.904	1.904	1.924	1.919	1.924
-0.005	0.000	-0.005	0.010	0.000	0.020	0.044	2.671	1.904	1.899	1.899	1.919	1.919	1.919
-0.005	0.000	0.005	0.005	0.005	0.015	0.044	2.686	1.904	1.899	1.899	1.919	1.919	1.924
0.010	-0.010	0.005	0.000	0.000	0.000	0.044	2.661	1.904	1.899	1.899	1.914	1.914	1.914
0.005	-0.005	0.010	-0.005	0.000	0.015	0.044	2.686	1.904	1.899	1.899	1.914	1.914	1.919
0.005	-0.015	0.005	-0.010	-0.005	0.005	0.044	2.681	1.909	1.899	1.899	1.914	1.914	1.914
0.010	-0.010	0.005	-0.010	0.000	0.010	0.044	2.671	1.904	1.899	1.899	1.914	1.909	1.914
0.000	-0.010	0.005	-0.010	0.005	0.005	0.044	2.666	1.899	1.899	1.899	1.914	1.914	1.914
0.000	-0.010	0.010	-0.010	0.010	-0.010	0.044	2.671	1.899	1.899	1.899	1.914	1.914	1.909
0.005	-0.005	0.000	-0.010	0.000	0.000	0.039	2.686	1.904	1.899	1.895	1.914	1.909	1.914
0.000	0.005	0.000	-0.005	0.010	-0.015	0.044	2.666	1.899	1.904	1.899	1.919	1.914	1.909
-0.010	0.005	0.000	0.000	0.005	0.000	0.039	2.690	1.904	1.899	1.895	1.919	1.914	1.914
-0.010	0.005	0.000	0.005	0.015	-0.005	0.044	2.686	1.904	1.899	1.899	1.924	1.914	1.914
-0.010	0.015	0.000	0.015	0.015	-0.005	0.044	2.690	1.904	1.904	1.899	1.919	1.919	1.914
-0.010	0.010	-0.005	0.015	0.020	-0.010	0.044	2.686	1.904	1.899	1.899	1.919	1.919	1.914
-0.005	0.000	-0.005	0.020	0.015	-0.029	0.044	2.681	1.904	1.899	1.899	1.919	1.914	1.909
-0.010	0.000	0.000	0.015	0.015	-0.005	0.039	2.690	1.904	1.899	1.899	1.919	1.919	1.919
-0.005	-0.010	0.000	0.015	0.020	-0.010	0.039	2.676	1.904	1.899	1.899	1.919	1.919	1.914
0.000	-0.024	-0.005	0.010	0.029	-0.010	0.039	2.690	1.904	1.895	1.895	1.914	1.919	1.914
0.010	-0.029	0.000	0.000	0.034	-0.015	0.039	2.681	1.904	1.895	1.895	1.914	1.914	1.914
0.010	-0.020	0.005	-0.005	0.024	-0.015	0.044	2.671	1.904	1.904	1.899	1.914	1.909	1.914
0.010	-0.024	0.005	-0.005	0.010	-0.005	0.044	2.681	1.904	1.899	1.899	1.914	1.909	1.914
0.010	-0.020	0.000	-0.010	0.010	-0.029	0.044	2.671	1.904	1.899	1.895	1.909	1.904	1.904
0.000	-0.020	0.000	-0.010	0.005	-0.010	0.044	2.671	1.899	1.899	1.895	1.914	1.904	1.914
0.010	-0.005	0.005	-0.010	0.000	-0.005	0.039	2.686	1.904	1.904	1.899	1.914	1.904	1.914
0.020	-0.005	0.000	-0.010	-0.005	-0.015	0.044	2.681	1.904	1.904	1.899	1.914	1.904	1.909
-0.005	-0.010	0.005	-0.010	-0.010	0.010	0.039	2.690	1.899	1.899	1.899	1.919	1.909	1.914
-0.005	0.005	-0.005	-0.005	-0.020	-0.010	0.039	2.686	1.904	1.904	1.899	1.919	1.904	1.909
0.005	0.010	0.000	0.000	-0.020	0.015	0.044	2.681	1.904	1.904	1.899	1.919	1.909	1.914
-0.005	0.020	0.000	0.005	-0.020	0.005	0.039	2.686	1.909	1.909	1.904	1.924	1.909	1.909
0.000	0.005	-0.005	0.015	-0.020	0.000	0.044	2.681	1.904	1.909	1.904	1.924	1.914	1.909
0.000	0.010	-0.005	0.015	-0.020	0.010	0.044	2.690	1.904	1.904	1.904	1.924	1.914	1.914
-0.015	0.010	-0.005	0.020	-0.020	0.024	0.044	2.676	1.899	1.904	1.904	1.924	1.919	1.919
0.000	0.010	-0.005	0.015	-0.015	0.020	0.044	2.686	1.909	1.904	1.904	1.924	1.919	1.919
0.005	0.000	0.000	0.020	-0.020	0.000	0.044	2.671	1.899	1.899	1.899	1.924	1.919	1.909
0.000	0.000	0.000	0.000	-0.015	0.015	0.044	2.681	1.899	1.899	1.899	1.919	1.919	1.919
0.000	0.005	0.005	0.000	-0.010	0.010	0.044	2.681	1.899	1.899	1.904	1.919	1.914	1.919
0.000	0.015	0.010	-0.005	-0.015	0.010	0.044	2.725	1.909	1.904	1.899	1.919	1.914	1.919
0.005	-0.005	0.000	-0.005	-0.010	0.015	0.039	2.681	1.904	1.899	1.899	1.914	1.914	1.919
0.005	0.005	0.005	-0.010	-0.005	0.015	0.044	2.690	1.914	1.904	1.899	1.914	1.914	1.914
0.010	0.015	0.000	-0.010	-0.005	0.024	0.044	2.690	1.909	1.909	1.899	1.914	1.914	1.914
0.010	-0.015	0.000	-0.015	-0.005	0.020	0.044	2.690	1.904	1.895	1.899	1.914	1.909	1.914
0.005	0.005	-0.005	-0.010	0.000	0.015	0.039	2.676	1.909	1.904	1.899	1.919	1.914	1.909
0.005	0.010	0.000	-0.005	0.005	0.010	0.044	2.676	1.904	1.904	1.904	1.919	1.914	1.914
-0.005	0.000	0.005	-0.005	0.000	0.015	0.039	2.681	1.904	1.904	1.904	1.919	1.914	1.914
0.000	0.000	0.000	0.005	-0.005	0.005	0.044	2.676	1.904	1.904	1.904	1.924	1.914	1.909
-0.005	0.005	-0.005	0.010	0.000	-0.005	0.039	2.686	1.899	1.904	1.899	1.924	1.914	1.914
-0.010	0.010	0.000	0.010	0.005	-0.005	0.039	2.690	1.904	1.904	1.904	1.924	1.919	1.909
-0.005	0.005	0.000	0.015	0.000	0.005	0.044	2.690	1.909	1.904	1.899	1.924	1.919	1.914
-0.005	-0.005	0.005	0.015	0.005	-0.005	0.044	2.681	1.904	1.904	1.899	1.924	1.919	1.914
0.005	0.000	0.005	0.015	0.000	-0.005	0.044	2.661	1.904	1.904	1.904	1.919	1.919	1.914
0.005	0.000	0.005	0.010	0.000	0.000	0.044	2.700	1.909	1.904	1.904	1.919	1.914	1.919
0.000	-0.010	0.000	0.005	0.000	-0.015	0.044	2.671	1.899	1.899	1.899	1.919	1.914	1.914
0.010	0.010	0.000	0.000	0.005	0.005	0.044	2.676	1.904	1.904	1.904	1.919	1.914	1.919
0.010	0.010	0.000	-0.005	0.010	0.005	0.044	2.676	1.904	1.904	1.904	1.919	1.914	1.919
-0.005	0.000	0.005	-0.010	0.010	-0.005	0.039	2.671	1.899	1.899	1.899	1.914	1.914	1.914
0.015	0.000	0.005	-0.010	0.000	-0.010	0.039	2.656	1.899	1.899	1.899	1.914	1.914	1.909
0.000	0.010	0.000	-0.015	0.005	-0.010	0.039	2.676	1.899	1.899	1.899	1.914	1.914	1.909
0.000	0.005	0.005	-0.010	0.000	-0.005	0.044	2.681	1.899	1.899	1.899	1.914	1.909	1.914
0.005	0.005	0.005	-0.010	0.005	0.015	0.044	2.681	1.899	1.895	1.895	1.914	1.914	1.919
-0.005	0.005	0.000	-0.005	0.005	0.005	0.044	2.705	1.904	1.899	1.895	1.919	1.914	1.914
0.000	0.010	0.000	0.005	0.000	0.005	0.044	2.686	1.899	1.899	1.895	1.919	1.909	1.914
-0.005	0.005	0.000	0.005	0.000	-0.005	0.044	2.690	1.899	1.899	1.899	1.919	1.914	1.914
0.000	0.015	0.000	0.010	0.000	-0.015	0.039	2.690	1.904	1.899	1.899	1.919	1.909	1.909
0.015	0.005	-0.005	0.015	0.005	0.005	0.039	2.686	1.909	1.904	1.899	1.919	1.914	1.919
0.020	0.005	0.000	0.015	0.005	-0.020	0.044	2.676	1.904	1.904	1.899	1.919	1.914	1.909
0.005	0.020	-0.005	0.015	0.000	-0.005	0.039	2.681	1.899	1.904	1.899	1.919	1.914	1.909
0.000	-0.005	0.000	0.010	0.005	0.000	0.044	2.686	1.899	1.895	1.899	1.919	1.914	1.914
0.005	-0.005	0.000	0.005	0.005	0.005	0.044	2.646	1.899	1.895	1.899	1.914	1.914	1.919
-0.010	-0.005	0.005	0.000	0.005	0.005	0.044	2.681	1.895	1.895	1.895	1.914	1.914	1.919
-0.010	-0.015	0.005	-0.005	0.005	-0.010	0.044	2.686	1.899	1.895	1.895	1.914	1.909	1.909
-0.005	-0.005	-0.005	-0.005	0.005	0.000	0.039	2.681	1.899	1.895	1.895	1.909	1.909	1.914
-0.015	-0.010	0.005	-0.010	0.005	0.010	0.044	2.676	1.895	1.895	1.895	1.909	1.909	1.914
-0.020	0.000	0.005	-0.015	0.000	0.010	0.044	2.690	1.895	1.895	1.895	1.909	1.909	1.909
-0.020	0.000	0.005	-0.010	-0.005	-0.005	0.039	2.681	1.895	1.899	1.895	1.909	1.904	1.904
-0.010	0.000	0.005	-0.010	0.005	-0.005	0.039	2.686	1.899	1.899	1.895	1.909	1.909	1.909
-0.010	-0.005	0.000	-0.005	0.005	0.005	0.039	2.671	1.899	1.895	1.895	1.909	1.909	1.909
-0.010	0.000	0.005	0.000	0.000	-0.005	0.044	2.686	1.899	1.899	1.895	1.914	1.909	1.904
0.000	0.010	0.000	0.000	0.000	-0.005	0.044	2.690	1.904	1.899	1.895	1.914	1.909	1.909
-0.010	-0.005	0.000	0.005	0.000	0.015	0.044	2.671	1.904	1.899	1.895	1.914	1.909	1.909
-0.005	-0.015	-0.005	0.010	-0.005	0.010	0.039	2.686	1.904	1.899	1.895	1.914	1.909	1.909
0.000	-0.015	0.000	0.015	0.005	0.010	0.039	2.686	1.904	1.899	1.895	1.919	1.909	1.914
0.005	-0.010	-0.005	0.015	0.000	0.005	0.044	2.681	1.909	1.899	1.899	1.919	1.914	1.914
0.015	-0.010	-0.005	0.015	0.000	-0.005	0.039	2.671	1.909	1.904	1.899	1.914	1.914	1.909
0.010	-0.010	0.000	0.010	0.005	0.005	0.044	2.700	1.909	1.904	1.899	1.914	1.914	1.914
0.010	-0.010	-0.005	0.005	0.000	0.005	0.044	2.681	1.904	1.899	1.899	1.914	1.909	1.914
0.010	-0.020	0.000	0.000	0.010	0.005	0.044	2.671	1.904	1.899	1.899	1.914	1.909	1.909
0.020	0.000	0.005	-0.005	-0.005	0.005	0.044	2.666	1.899	1.909	1.899	1.914	1.909	1.914
0.010	-0.020	0.005	-0.005	0.005	0.005	0.044	2.671	1.899	1.895	1.899	1.914	1.909	1.909
0.020	-0.005	0.005	-0.010	0.000	0.000	0.044	2.671	1.904	1.899	1.899	1.914	1.909	1.909
0.005	0.005	0.010	-0.015	0.000	0.000	0.039	2.690	1.895	1.899	1.899	1.914	1.909	1.914
0.015	0.005	0.005	-0.010	0.000	0.000	0.039	2.676	1.899	1.899	1.895	1.914	1.909	1.904
0.010	0.000	-0.005	-0.010	0.005	-0.015	0.044	2.676	1.899	1.899	1.895	1.914	1.909	1.904
0.005	0.010	0.000	0.000	0.000	0.000	0.039	2.661	1.890	1.899	1.895	1.914	1.909	1.914
-0.005	0.005	0.000	-0.005	0.000	-0.005	0.039	2.681	1.895	1.895	1.895	1.919	1.909	1.909
-0.005	0.000	0.000	0.005	-0.005	0.010	0.044	2.666	1.895	1.895	1.895	1.919	1.909	1.914
-0.010	0.010	0.000	0.005	0.000	-0.015	0.044	2.686	1.895	1.899	1.895	1.919	1.909	1.909
-0.020	0.015	0.000	0.010	0.005	0.005	0.044	2.681	1.895	1.895	1.895	1.919	1.914	1.914
-0.015	0.015	-0.005	0.015	0.005	-0.005	0.044	2.671	1.899	1.895	1.895	1.919	1.909	1.909
-0.005	0.005	-0.005	0.015	-0.005	-0.010	0.044	2.666	1.899	1.899	1.895	1.919	1.914	1.914
0.000	0.005	-0.005	0.015	0.000	0.010	0.044	2.666	1.895	1.895	1.899	1.914	1.909	1.919
0.005	-0.010	0.005	0.010	0.000	0.005	0.039	2.676	1.904	1.895	1.895	1.914	1.914	1.914
0.024	-0.010	0.005	0.005	0.005	0.005	0.044	2.666	1.904	1.899	1.895	1.914	1.914	1.914
0.029	-0.015	0.005	0.000	0.005	0.005	0.039	2.681	1.904	1.899	1.895	1.914	1.909	1.914
0.015	-0.015	0.005	-0.005	0.000	0.000	0.044	2.671	1.899	1.899	1.895	1.909	1.909	1.909
0.005	-0.005	0.000	-0.010	0.000	-0.005	0.039	2.690	1.895	1.899	1.895	1.909	1.904	1.904
0.015	-0.010	0.005	-0.010	0.000	0.005	0.044	2.681	1.899	1.895	1.890	1.909	1.904	1.909
0.010	-0.005	0.005	-0.010	0.000	-0.020	0.044	2.661	1.895	1.899	1.895	1.909	1.904	1.904
-0.005	0.010	0.000	-0.010	-0.005	0.000	0.044	2.690	1.895	1.899	1.895	1.909	1.904	1.909
-0.005	-0.005	0.000	-0.005	0.000	0.005	0.044	2.676	1.890	1.895	1.890	1.909	1.909	1.909
-0.010	0.015	-0.005	-0.005	0.000	-0.005	0.044	2.676	1.895	1.899	1.890	1.914	1.904	1.904
-0.015	0.020	-0.005	0.010	0.000	0.000	0.044	2.671	1.895	1.899	1.895	1.914	1.909	1.909
-0.020	0.015	-0.005	0.005	0.000	-0.010	0.044	2.681	1.890	1.895	1.895	1.914	1.909	1.904
-0.024	0.015	0.000	0.005	0.000	-0.005	0.039	2.690	1.895	1.895	1.895	1.914	1.909	1.909
-0.024	0.029	0.000	0.015	0.000	0.010	0.044	2.671	1.895	1.899	1.895	1.914	1.909	1.914
-0.020	0.005	-0.005	0.015	0.000	-0.015	0.039	2.671	1.895	1.890	1.895	1.914	1.909	1.909
-0.015	0.029	-0.010	0.015	0.000	-0.010	0.039	2.656	1.899	1.899	1.895	1.914	1.909	1.909
-0.015	0.024	0.000	0.010	0.000	0.015	0.039	2.690	1.904	1.899	1.895	1.914	1.909	1.914
-0.015	0.020	0.000	0.010	0.000	0.005	0.039	2.681	1.899	1.899	1.895	1.914	1.909	1.914
-0.010	0.015	-0.005	0.000	-0.005	-0.024	0.039	2.661	1.899	1.895	1.895	1.909	1.909	1.904
-0.015	-0.005	0.005	-0.005	0.005	0.010	0.044	2.690	1.904	1.895	1.895	1.909	1.909	1.909
0.010	-0.005	0.005	-0.005	0.000	0.005	0.044	2.671	1.904	1.895	1.895	1.909	1.909	1.909
0.015	-0.010	0.005	-0.010	0.000	0.010	0.044	2.686	1.904	1.895	1.895	1.909	1.909	1.909
0.015	-0.010	0.010	-0.015	0.000	-0.005	0.044	2.671	1.904	1.899	1.895	1.909	1.904	1.904
0.015	-0.005	0.010	-0.010	0.005	0.000	0.044	2.681	1.899	1.899	1.895	1.909	1.909	1.909
0.010	0.000	0.005	-0.015	0.005	0.010	0.044	2.686	1.899	1.899	1.895	1.914	1.909	1.909
0.010	0.005	0.000	-0.010	0.000	0.005	0.044	2.690	1.899	1.899	1.895	1.914	1.904	1.904
0.015	0.005	0.000	-0.005	-0.005	-0.005	0.044	2.686	1.899	1.899	1.895	1.914	1.909	1.904
0.015	0.005	0.000	0.000	-0.005	0.005	0.044	2.686	1.899	1.904	1.895	1.914	1.909	1.909
0.000	0.010	0.000	0.005	0.005	-0.005	0.044	2.681	1.895	1.899	1.899	1.919	1.909	1.909
0.000	0.010	-0.005	0.015	0.005	-0.015	0.039	2.681	1.895	1.899	1.895	1.919	1.909	1.904
0.000	0.005	-0.005	0.015	0.000	0.010	0.044	2.681	1.895	1.895	1.899	1.919	1.914	1.914
0.005	0.010	-0.005	0.015	0.005	0.005	0.039	2.671	1.904	1.899	1.895	1.919	1.914	1.909
0.005	0.005	0.000	0.015	0.000	0.000	0.044	2.690	1.899	1.899	1.899	1.914	1.914	1.909
0.000	0.005	0.000	0.010	0.005	0.010	0.039	2.686	1.899	1.899	1.895	1.914	1.914	1.914
0.010	-0.005	0.005	0.005	0.000	0.000	0.044	2.681	1.904	1.895	1.895	1.914	1.909	1.909
0.020	0.000	0.005	0.000	0.000	0.005	0.039	2.681	1.904	1.899	1.899	1.914	1.909	1.914
0.005	-0.010	0.000	-0.005	0.000	-0.005	0.044	2.671	1.899	1.895	1.895	1.914	1.909	1.909
0.010	-0.005	0.000	-0.005	-0.005	0.010	0.044	2.686	1.899	1.895	1.895	1.909	1.904	1.909
0.010	-0.010	0.005	-0.010	0.000	-0.005	0.044	2.661	1.899	1.899	1.895	1.909	1.909	1.909
0.010	-0.005	0.005	-0.015	0.005	0.005	0.044	2.681	1.895	1.895	1.895	1.909	1.904	1.909
0.000	0.000	0.000	-0.010	0.000	-0.010	0.044	2.676	1.895	1.895	1.895	1.909	1.904	1.904
-0.005	-0.005	0.000	-0.005	0.000	-0.010	0.044	2.661	1.890	1.895	1.895	1.909	1.904	1.904
-0.010	0.005	0.005	-0.005	-0.005	0.005	0.039	2.676	1.890	1.895	1.895	1.914	1.909	1.909
0.005	0.000	0.005	0.000	0.000	-0.005	0.044	2.690	1.899	1.895	1.895	1.914	1.909	1.909
0.000	0.005	0.000	0.005	0.010	-0.005	0.044	2.686	1.899	1.899	1.895	1.914	1.909	1.909
-0.005	0.010	-0.005	0.010	0.005	-0.005	0.044	2.671	1.895	1.899	1.895	1.914	1.909	1.909
0.000	0.010	-0.005	0.015	0.000	-0.005	0.044	2.686	1.899	1.899	1.895	1.914	1.909	1.909
-0.005	0.015	-0.005	0.015	0.005	-0.005	0.044	2.676	1.899	1.899	1.895	1.919	1.914	1.909
0.000	0.005	-0.005	0.015	0.000	-0.005	0.044	2.681	1.899	1.895	1.895	1.914	1.909	1.914
-0.005	0.010	0.000	0.015	0.005	0.015	0.044	2.656	1.895	1.895	1.895	1.914	1.914	1.914
0.005	0.000	0.000	0.010	0.015	-0.010	0.039	2.676	1.899	1.895	1.895	1.914	1.909	1.909
0.005	0.000	0.005	0.005	-0.005	0.020	0.044	2.671	1.899	1.895	1.895	1.914	1.909	1.914
0.010	-0.005	0.005	0.000	-0.005	0.005	0.039	2.681	1.899	1.895	1.895	1.909	1.904	1.909
0.000	-0.010	0.005	-0.005	0.000	-0.005	0.039	2.676	1.899	1.890	1.890	1.909	1.904	1.904
0.005	-0.024	0.000	-0.010	0.000	-0.024	0.044	2.666	1.895	1.890	1.890	1.909	1.904	1.904
0.005	-0.024	0.005	-0.010	0.005	0.005	0.044	2.681	1.899	1.895	1.890	1.904	1.909	1.909
0.005	-0.020	0.005	-0.010	0.010	0.000	0.044	2.671	1.899	1.890	1.890	1.909	1.909	1.909
0.000	-0.020	0.005	-0.010	0.010	0.010	0.044	2.676	1.895	1.895	1.890	1.909	1.904	1.909
0.000	-0.010	0.005	-0.010	0.005	0.000	0.044	2.666	1.895	1.895	1.890	1.909	1.904	1.904
0.005	-0.005	-0.005	-0.005	0.005	-0.010	0.044	2.671	1.899	1.899	1.890	1.909	1.904	1.899
-0.005	-0.005	0.000	0.000	-0.005	0.005	0.044	2.686	1.899	1.895	1.890	1.914	1.904	1.909
-0.005	0.000	0.000	0.005	-0.005	-0.005	0.044	2.671	1.895	1.899	1.895	1.914	1.904	1.904
-0.005	0.010	0.000	0.015	0.000	0.005	0.044	2.681	1.899	1.899	1.899	1.914	1.909	1.904
-0.010	0.015	-0.005	0.015	0.000	-0.005	0.044	2.656	1.895	1.899	1.895	1.914	1.909	1.904
0.000	0.010	-0.005	0.015	-0.005	-0.005	0.044	2.661	1.895	1.895	1.895	1.914	1.909	1.909
-0.015	0.000	-0.005	0.010	0.000	-0.005	0.039	2.676	1.895	1.890	1.895	1.914	1.909	1.909
-0.010	0.010	0.005	0.010	0.000	0.010	0.044	2.676	1.899	1.895	1.895	1.914	1.909	1.909
0.010	0.005	0.000	0.005	-0.005	0.000	0.044	2.681	1.899	1.895	1.895	1.914	1.904	1.909
0.000	0.005	0.005	0.000	-0.010	0.000	0.044	2.686	1.899	1.895	1.895	1.909	1.909	1.909
0.000	-0.005	0.005	0.000	-0.005	-0.010	0.044	2.661	1.899	1.895	1.895	1.909	1.909	1.904
0.015	-0.005	0.005	-0.005	0.005	-0.005	0.044	2.656	1.895	1.890	1.895	1.909	1.909	1.909
0.005	-0.015	0.000	-0.010	0.000	0.005	0.044	2.681	1.895	1.890	1.890	1.909	1.904	1.909
0.005	-0.015	0.005	-0.010	0.005	0.015	0.039	2.686	1.895	1.890	1.890	1.909	1.909	1.909
0.000	-0.005	0.005	-0.010	0.000	0.010	0.039	2.681	1.895	1.895	1.890	1.904	1.904	1.909
0.005	-0.005	0.000	-0.010	0.010	-0.010	0.039	2.676	1.895	1.895	1.890	1.909	1.904	1.904
-0.005	0.010	0.005	-0.010	0.005	0.000	0.039	2.681	1.895	1.899	1.890	1.909	1.904	1.904
0.000	0.010	0.000	-0.005	-0.005	0.005	0.039	2.681	1.895	1.895	1.895	1.909	1.904	1.904
-0.005	0.000	0.005	0.000	0.000	0.000	0.044	2.681	1.899	1.895	1.895	1.914	1.904	1.904
-0.015	0.005	0.000	0.005	-0.010	-0.010	0.044	2.681	1.895	1.895	1.895	1.914	1.904	1.899
0.000	0.000	-0.005	0.015	-0.010	-0.020	0.044	2.671	1.899	1.895	1.890	1.914	1.904	1.899
-0.005	0.010	0.000	0.015	-0.010	0.000	0.039	2.686	1.895	1.899	1.895	1.914	1.909	1.909
-0.020	0.029	0.000	0.015	-0.005	-0.015	0.044	2.686	1.895	1.899	1.895	1.919	1.909	1.899
-0.005	0.024	-0.005	0.015	0.005	-0.005	0.044	2.681	1.899	1.899	1.895	1.914	1.914	1.909
0.000	0.015	-0.005	0.010	0.020	-0.015	0.039	2.681	1.899	1.899	1.895	1.914	1.914	1.909
-0.005	0.005	0.000	0.010	0.020	0.005	0.039	2.686	1.899	1.895	1.895	1.914	1.914	1.914
0.010	0.010	0.005	0.000	0.015	0.005	0.044	2.666	1.899	1.895	1.895	1.909	1.909	1.914
0.000	0.000	0.000	-0.005	0.005	0.005	0.044	2.666	1.895	1.895	1.895	1.909	1.909	1.914
0.000	0.000	0.010	-0.010	0.005	-0.005	0.044	2.681	1.895	1.890	1.895	1.909	1.904	1.904
0.000	-0.005	0.005	-0.010	-0.005	0.010	0.044	2.681	1.895	1.895	1.890	1.909	1.904	1.909
0.005	0.000	0.005	-0.010	-0.005	0.005	0.044	2.686	1.899	1.890	1.890	1.909	1.904	1.909
0.000	-0.010	0.000	-0.015	-0.005	0.005	0.044	2.681	1.899	1.895	1.890	1.909	1.904	1.904
0.015	-0.005	-0.005	-0.010	-0.005	0.000	0.039	2.671	1.899	1.895	1.890	1.909	1.904	1.904
0.000	0.000	0.010	-0.010	-0.005	0.005	0.039	2.690	1.895	1.895	1.895	1.909	1.904	1.904
0.005	0.000	0.000	0.000	-0.010	-0.015	0.044	2.681	1.899	1.899	1.895	1.914	1.904	1.895
0.000	0.010	0.000	0.005	-0.005	-0.005	0.044	2.690	1.899	1.899	1.895	1.914	1.909	1.909
0.000	0.005	0.000	0.010	0.000	0.000	0.044	2.686	1.899	1.899	1.895	1.914	1.909	1.909
0.000	0.015	-0.005	0.015	0.000	0.010	0.044	2.681	1.899	1.899	1.899	1.914	1.909	1.914
0.000	0.020	-0.005	0.015	0.005	0.005	0.044	2.681	1.904	1.899	1.899	1.919	1.909	1.909
-0.005	0.015	-0.005	0.015	0.005	0.000	0.044	2.676	1.899	1.899	1.899	1.919	1.914	1.909
-0.005	0.000	-0.005	0.015	0.015	0.005	0.039	2.681	1.899	1.895	1.895	1.919	1.914	1.914
-0.005	0.000	-0.005	0.015	0.020	-0.010	0.044	2.671	1.899	1.895	1.895	1.914	1.914	1.914
0.010	0.005	0.005	0.005	0.010	0.000	0.039	2.681	1.899	1.899	1.899	1.914	1.909	1.914
0.005	-0.010	0.010	-0.005	0.000	0.010	0.039	2.681	1.899	1.890	1.895	1.914	1.904	1.914
0.005	-0.005	0.005	-0.005	0.000	0.000	0.039	2.676	1.899	1.895	1.895	1.909	1.904	1.909
0.015	-0.015	0.005	-0.010	-0.005	0.010	0.044	2.681	1.904	1.895	1.895	1.909	1.904	1.909
0.015	-0.015	0.005	-0.010	-0.005	0.010	0.044	2.681	1.899	1.895	1.895	1.909	1.904	1.909
0.010	-0.010	0.005	-0.010	0.000	-0.005	0.044	2.686	1.899	1.895	1.890	1.909	1.904	1.904
0.005	-0.005	0.000	-0.010	0.000	-0.015	0.044	2.661	1.895	1.895	1.890	1.909	1.904	1.904
0.000	0.000	0.000	-0.010	-0.005	0.000	0.044	2.666	1.895	1.895	1.890	1.909	1.904	1.904
-0.005	0.000	-0.005	-0.005	0.000	0.000	0.039	2.676	1.895	1.895	1.895	1.909	1.904	1.904
-0.005	0.000	-0.005	0.000	0.000	-0.010	0.044	2.676	1.895	1.895	1.890	1.914	1.904	1.904
0.005	0.010	-0.005	0.005	-0.010	0.000	0.044	2.671	1.899	1.899	1.895	1.914	1.904	1.909
0.005	0.000	0.000	0.010	-0.005	0.010	0.039	2.686	1.899	1.899	1.899	1.914	1.909	1.909
0.010	0.000	-0.005	0.015	0.000	-0.005	0.039	2.686	1.899	1.899	1.895	1.914	1.909	1.904
0.015	0.005	-0.005	0.015	0.000	0.010	0.044	2.676	1.899	1.899	1.895	1.919	1.914	1.909
0.005	0.010	-0.005	0.015	-0.005	0.010	0.044	2.671	1.899	1.899	1.895	1.914	1.909	1.909
0.000	0.000	0.005	0.010	0.000	-0.005	0.044	2.671	1.895	1.895	1.895	1.914	1.909	1.909
0.000	-0.005	0.005	0.010	0.000	0.005	0.044	2.651	1.895	1.895	1.895	1.914	1.914	1.914
0.000	-0.005	0.005	0.000	0.000	0.005	0.044	2.681	1.895	1.890	1.895	1.909	1.909	1.909
-0.005	0.000	-0.005	-0.005	-0.005	0.005	0.039	2.676	1.895	1.895	1.890	1.909	1.909	1.909
-0.015	0.005	0.000	-0.005	0.000	0.000	0.044	2.676	1.895	1.890	1.895	1.909	1.904	1.904
-0.010	-0.005	0.005	-0.010	0.000	0.000	0.044	2.681	1.899	1.890	1.895	1.909	1.904	1.909
-0.005	0.000	0.005	-0.010	0.010	0.000	0.044	2.681	1.899	1.895	1.895	1.909	1.904	1.909
-0.005	0.000	0.015	-0.015	0.010	-0.010	0.044	2.681	1.895	1.895	1.895	1.909	1.904	1.904
-0.005	0.005	0.005	-0.005	0.000	-0.015	0.044	2.681	1.899	1.895	1.895	1.909	1.904	1.899
-0.005	-0.010	0.005	-0.005	-0.005	0.010	0.039	2.666	1.895	1.895	1.890	1.909	1.904	1.909
-0.005	0.005	0.000	0.000	0.000	0.005	0.039	2.690	1.904	1.899	1.890	1.909	1.904	1.909
-0.005	0.005	-0.005	0.005	0.005	0.000	0.044	2.681	1.899	1.895	1.890	1.914	1.909	1.904
-0.010	0.005	0.000	0.005	0.000	0.005	0.044	2.686	1.899	1.899	1.890	1.914	1.909	1.909
-0.010	0.005	0.000	0.015	-0.005	0.005	0.044	2.666	1.899	1.899	1.895	1.914	1.909	1.909
-0.005	0.015	0.000	0.015	0.000	0.010	0.044	2.686	1.904	1.904	1.895	1.914	1.909	1.909
-0.005	0.000	-0.005	0.015	0.005	0.000	0.044	2.686	1.904	1.899	1.895	1.914	1.909	1.909
0.000	-0.005	-0.005	0.015	0.000	-0.005	0.044	2.676	1.899	1.899	1.895	1.914	1.909	1.904
0.010	-0.005	0.000	0.010	-0.005	0.010	0.039	2.681	1.899	1.895	1.899	1.914	1.909	1.909
0.005	-0.005	0.005	0.005	0.000	0.005	0.044	2.690	1.904	1.899	1.899	1.914	1.909	1.909
0.010	-0.005	0.000	0.000	0.000	0.005	0.044	2.842	1.924	1.899	1.895	1.914	1.909	1.909
0.010	-0.010	0.005	-0.005	0.000	0.000	0.044	2.681	1.914	1.904	1.899	1.909	1.909	1.909
0.005	-0.024	0.005	-0.005	0.000	-0.005	0.044	2.661	1.904	1.899	1.895	1.909	1.904	1.904
0.000	-0.010	0.010	-0.015	0.000	-0.015	0.044	2.666	1.895	1.904	1.899	1.909	1.904	1.904
0.005	0.010	0.000	-0.010	0.000	-0.010	0.044	2.637	1.890	1.904	1.899	1.909	1.909	1.904
0.010	0.000	0.000	-0.010	0.005	0.005	0.044	2.778	1.909	1.904	1.899	1.914	1.909	1.909
0.005	0.000	0.005	-0.005	0.005	0.010	0.044	2.642	1.895	1.899	1.899	1.914	1.909	1.914
-0.005	0.000	0.000	-0.005	-0.005	0.000	0.044	2.646	1.890	1.895	1.899	1.914	1.909	1.909
-0.010	0.005	0.000	0.000	0.000	0.005	0.044	2.671	1.895	1.895	1.895	1.919	1.909	1.909
-0.010	0.005	-0.005	0.005	0.000	0.005	0.044	2.681	1.895	1.895	1.895	1.919	1.909	1.909
-0.010	0.005	0.000	0.005	0.000	-0.024	0.039	2.686	1.895	1.895	1.895	1.919	1.909	1.904
-0.005	0.005	0.000	0.010	0.005	-0.010	0.039	2.676	1.895	1.899	1.895	1.919	1.914	1.909
-0.015	0.015	-0.005	0.015	0.005	-0.005	0.044	2.666	1.895	1.899	1.895	1.919	1.914	1.914
-0.010	0.010	0.000	0.015	0.000	-0.010	0.044	2.666	1.895	1.895	1.895	1.919	1.914	1.909
-0.010	0.010	0.000	0.010	0.000	0.005	0.039	2.671	1.899	1.895	1.895	1.914	1.909	1.914
-0.005	0.000	0.000	0.010	0.010	0.010	0.044	2.666	1.899	1.895	1.895	1.914	1.914	1.914
0.010	-0.005	0.005	0.005	0.005	0.015	0.039	2.646	1.899	1.895	1.895	1.909	1.914	1.919
0.020	-0.029	0.000	0.000	0.005	-0.005	0.044	2.651	1.895	1.890	1.890	1.909	1.909	1.909
0.010	-0.020	0.005	-0.005	0.000	0.000	0.039	2.646	1.895	1.890	1.890	1.909	1.909	1.909
0.020	-0.020	0.005	-0.005	0.005	0.005	0.044	2.749	1.904	1.895	1.890	1.904	1.909	1.909
0.010	-0.020	0.005	-0.010	0.010	-0.005	0.039	2.646	1.895	1.895	1.890	1.904	1.904	1.909
0.000	-0.005	0.005	-0.015	0.010	0.010	0.044	2.808	1.914	1.899	1.895	1.909	1.904	1.909
0.015	0.005	0.005	-0.015	0.015	0.010	0.044	2.832	1.924	1.909	1.895	1.909	1.909	1.909
0.010	0.005	0.000	-0.010	0.020	0.010	0.044	2.666	1.919	1.909	1.899	1.914	1.909	1.909
0.005	0.005	0.000	-0.005	0.010	0.010	0.044	2.676	1.909	1.909	1.899	1.919	1.904	1.909
0.010	0.005	0.000	0.000	0.005	0.005	0.044	2.676	1.909	1.909	1.904	1.919	1.909	1.904
0.000	0.015	0.000	0.010	0.000	0.010	0.044	2.661	1.899	1.909	1.904	1.919	1.909	1.909
0.005	0.015	-0.005	0.015	0.000	-0.005	0.044	2.666	1.899	1.909	1.904	1.924	1.914	1.904
0.000	0.015	-0.005	0.015	-0.005	-0.010	0.044	2.676	1.899	1.904	1.904	1.924	1.909	1.904
0.000	0.015	-0.005	0.015	-0.029	-0.015	0.039	2.656	1.895	1.899	1.904	1.924	1.909	1.904
0.000	0.010	-0.005	0.015	-0.015	-0.010	0.044	2.656	1.895	1.899	1.899	1.924	1.914	1.909
0.005	0.020	-0.005	0.010	0.015	-0.020	0.039	2.651	1.890	1.895	1.899	1.919	1.924	1.909
0.010	0.000	0.000	0.010	-0.010	-0.005	0.044	2.637	1.890	1.890	1.895	1.919	1.914	1.914
0.010	0.000	0.000	0.005	-0.039	-0.005	0.044	2.734	1.899	1.895	1.895	1.914	1.904	1.909
0.010	-0.010	0.005	0.000	-0.024	-0.015	0.044	2.642	1.895	1.890	1.890	1.914	1.909	1.904
0.010	-0.010	0.005	-0.005	-0.015	0.000	0.044	2.632	1.890	1.890	1.890	1.909	1.914	1.914
0.000	-0.010	0.005	-0.010	0.005	0.005	0.044	2.676	1.909	1.895	1.890	1.909	1.914	1.914
0.000	-0.005	0.005	-0.010	0.005	0.005	0.044	2.686	1.909	1.899	1.890	1.909	1.914	1.914
-0.010	-0.005	0.005	-0.010	0.015	0.000	0.044	2.671	1.895	1.895	1.895	1.909	1.909	1.914
-0.005	0.000	0.005	-0.010	0.010	0.000	0.044	2.666	1.899	1.899	1.895	1.909	1.909	1.914
-0.015	-0.005	0.005	-0.005	0.010	0.005	0.044	2.671	1.899	1.899	1.890	1.909	1.909	1.914
-0.020	-0.005	0.000	-0.005	0.005	0.005	0.044	2.676	1.895	1.895	1.890	1.914	1.904	1.909
-0.010	-0.005	-0.005	0.000	0.005	0.015	0.044	2.676	1.899	1.895	1.890	1.914	1.904	1.914
-0.015	0.010	0.000	0.010	0.010	0.005	0.044	2.671	1.899	1.899	1.895	1.914	1.909	1.909
-0.005	0.010	0.000	0.015	0.020	0.015	0.044	2.651	1.899	1.899	1.895	1.919	1.919	1.914
-0.005	0.015	0.005	0.015	0.015	0.010	0.044	2.642	1.895	1.899	1.899	1.914	1.914	1.914
-0.005	0.015	-0.005	0.015	0.020	0.010	0.039	2.651	1.895	1.899	1.895	1.914	1.914	1.914
0.005	0.015	-0.005	0.015	0.015	0.015	0.044	2.715	1.899	1.899	1.895	1.914	1.914	1.914
0.010	-0.020	0.000	0.010	0.010	0.010	0.044	2.808	1.914	1.895	1.895	1.909	1.909	1.909
0.010	-0.020	0.000	0.010	0.005	0.005	0.039	2.632	1.904	1.899	1.895	1.909	1.909	1.909
0.015	0.000	0.000	0.005	-0.015	0.005	0.039	2.837	1.924	1.909	1.899	1.909	1.904	1.904
0.000	-0.005	0.005	-0.005	-0.010	-0.005	0.039	2.681	1.914	1.909	1.899	1.909	1.904	1.899
0.015	-0.015	0.010	-0.005	-0.029	-0.005	0.039	2.666	1.909	1.909	1.904	1.909	1.899	1.904
0.010	-0.010	0.005	-0.010	-0.015	0.005	0.044	2.671	1.899	1.904	1.899	1.914	1.904	1.904
0.005	-0.005	0.005	-0.010	0.000	0.005	0.044	2.671	1.899	1.904	1.899	1.914	1.914	1.909
0.000	-0.010	0.010	-0.010	0.005	0.000	0.044	2.666	1.895	1.904	1.899	1.914	1.914	1.909
-0.010	0.000	0.005	-0.010	0.015	-0.005	0.044	2.666	1.895	1.899	1.899	1.919	1.914	1.909
-0.005	0.005	0.000	-0.005	0.020	-0.024	0.044	2.646	1.890	1.899	1.899	1.919	1.914	1.909
0.005	0.005	-0.005	0.000	0.010	-0.020	0.039	2.656	1.895	1.895	1.895	1.919	1.914	1.909
-0.005	0.000	-0.005	0.005	0.029	-0.015	0.044	2.651	1.890	1.895	1.895	1.919	1.914	1.914
-0.005	0.005	-0.005	0.010	0.005	-0.005	0.044	2.637	1.890	1.895	1.895	1.919	1.914	1.919
-0.005	0.005	0.000	0.015	0.000	-0.010	0.039	2.681	1.895	1.895	1.895	1.919	1.914	1.914
-0.010	0.015	0.000	0.015	-0.005	0.010	0.039	2.754	1.909	1.899	1.895	1.919	1.914	1.919
-0.005	0.010	0.000	0.015	-0.005	0.010	0.044	2.637	1.904	1.899	1.895	1.919	1.914	1.919
-0.005	0.000	0.000	0.010	0.000	0.005	0.044	2.837	1.924	1.904	1.895	1.914	1.914	1.914
0.000	0.000	0.000	0.010	0.010	-0.010	0.044	2.681	1.919	1.904	1.899	1.914	1.914	1.909
0.000	-0.005	0.000	0.005	0.015	0.020	0.044	2.681	1.909	1.904	1.899	1.914	1.919	1.924
0.005	-0.005	0.005	0.000	0.015	0.015	0.044	2.666	1.909	1.909	1.904	1.914	1.914	1.919
0.005	0.000	0.000	-0.005	0.020	0.005	0.044	2.676	1.904	1.904	1.904	1.914	1.914	1.914
0.000	-0.005	0.000	-0.005	0.010	0.010	0.044	2.666	1.899	1.904	1.899	1.914	1.909	1.914
0.010	-0.005	0.000	-0.010	0.000	-0.005	0.044	2.661	1.899	1.899	1.899	1.914	1.909	1.909
0.010	-0.005	0.010	-0.015	-0.005	-0.015	0.044	2.656	1.899	1.899	1.899	1.914	1.904	1.904
0.005	-0.005	0.005	-0.010	-0.015	-0.020	0.044	2.656	1.895	1.899	1.899	1.914	1.904	1.899
0.015	-0.005	0.000	-0.005	-0.015	-0.034	0.044	2.651	1.895	1.899	1.899	1.914	1.904	1.899
0.005	0.005	0.000	-0.005	-0.015	-0.015	0.039	2.651	1.895	1.899	1.899	1.919	1.909	1.909
0.005	0.010	0.000	0.000	-0.020	0.005	0.044	2.681	1.895	1.895	1.899	1.919	1.909	1.914
0.005	0.010	-0.005	0.010	-0.024	0.005	0.044	2.632	1.890	1.895	1.895	1.919	1.909	1.914
-0.005	0.010	-0.005	0.010	0.000	-0.015	0.044	2.637	1.885	1.890	1.895	1.919	1.919	1.909
-0.005	0.020	-0.005	0.015	0.020	0.024	0.039	2.827	1.909	1.895	1.895	1.919	1.924	1.924
-0.005	0.015	-0.005	0.015	0.024	0.020	0.044	2.666	1.904	1.899	1.899	1.919	1.924	1.924
-0.005	0.005	-0.005	0.020	0.010	0.020	0.044	2.676	1.904	1.895	1.899	1.919	1.914	1.919
0.000	0.000	-0.005	0.015	-0.010	0.015	0.044	2.671	1.899	1.899	1.895	1.914	1.909	1.914
0.005	0.005	0.000	0.005	-0.020	-0.005	0.039	2.671	1.904	1.899	1.895	1.914	1.909	1.909
0.015	0.000	0.000	0.005	-0.005	0.010	0.039	2.676	1.904	1.899	1.899	1.914	1.909	1.914
0.005	-0.010	0.000	0.000	0.010	-0.005	0.044	2.651	1.899	1.899	1.895	1.909	1.914	1.909
0.005	-0.010	0.000	-0.005	0.005	-0.005	0.039	2.661	1.895	1.895	1.895	1.909	1.909	1.914
0.010	-0.010	0.005	-0.010	0.000	0.005	0.039	2.661	1.899	1.895	1.895	1.909	1.909	1.909
0.020	-0.015	0.005	-0.010	-0.005	0.000	0.039	2.632	1.895	1.895	1.895	1.909	1.904	1.909
0.010	-0.010	0.005	-0.015	-0.010	0.010	0.044	2.646	1.890	1.890	1.890	1.909	1.904	1.909
0.000	-0.005	0.000	-0.010	0.000	0.000	0.039	2.676	1.890	1.890	1.890	1.909	1.904	1.909
0.000	0.000	0.000	-0.005	-0.005	0.010	0.039	2.651	1.890	1.890	1.890	1.914	1.904	1.904
0.005	0.015	0.000	-0.005	0.000	0.010	0.044	2.632	1.890	1.895	1.890	1.914	1.909	1.909
-0.005	0.020	-0.005	0.000	-0.005	-0.005	0.044	2.651	1.890	1.895	1.890	1.914	1.904	1.904
-0.010	0.005	0.000	0.010	0.000	0.000	0.044	2.671	1.890	1.890	1.890	1.914	1.909	1.904
-0.015	0.000	0.000	0.015	-0.010	0.005	0.044	2.681	1.890	1.885	1.890	1.914	1.904	1.909
-0.010	0.005	0.000	0.015	-0.005	-0.020	0.044	2.690	1.895	1.890	1.890	1.914	1.909	1.899
-0.010	0.000	0.000	0.015	0.000	0.000	0.039	2.676	1.899	1.895	1.890	1.909	1.909	1.909
-0.010	0.000	-0.010	0.010	0.000	0.000	0.039	2.666	1.895	1.895	1.890	1.909	1.909	1.909
-0.010	0.000	0.000	0.010	0.000	0.000	0.044	2.666	1.899	1.890	1.890	1.909	1.904	1.909
0.000	0.005	0.000	0.005	0.005	-0.024	0.044	2.637	1.899	1.895	1.890	1.909	1.909	1.904
0.005	0.000	0.000	0.000	0.010	-0.015	0.044	2.837	1.914	1.899	1.890	1.909	1.909	1.904
0.010	0.000	0.000	-0.005	0.015	0.010	0.044	2.681	1.909	1.899	1.895	1.909	1.909	1.914
0.005	-0.005	0.000	-0.005	0.005	0.005	0.044	2.676	1.909	1.899	1.895	1.909	1.899	1.909
0.005	-0.005	0.000	-0.010	-0.005	-0.010	0.044	2.656	1.904	1.899	1.895	1.909	1.904	1.899
0.000	-0.015	0.000	-0.010	0.000	0.010	0.044	2.676	1.895	1.895	1.895	1.909	1.904	1.904
0.000	-0.010	0.000	-0.010	0.000	0.000	0.039	2.676	1.899	1.895	1.899	1.909	1.904	1.904
0.000	-0.005	0.005	-0.010	0.000	0.000	0.039	2.642	1.890	1.895	1.895	1.909	1.904	1.904
-0.005	-0.020	0.000	-0.005	0.000	-0.015	0.039	2.812	1.904	1.895	1.890	1.914	1.904	1.904
0.000	-0.029	-0.005	0.000	0.000	0.005	0.044	2.671	1.909	1.895	1.890	1.914	1.904	1.904
-0.005	0.005	-0.005	0.005	0.000	-0.005	0.044	2.676	1.904	1.904	1.895	1.914	1.904	1.904
0.000	-0.005	-0.005	0.010	0.005	0.000	0.044	2.686	1.904	1.899	1.899	1.919	1.909	1.909
-0.005	0.005	0.000	0.010	0.000	-0.005	0.044	2.676	1.899	1.904	1.899	1.919	1.909	1.909
0.000	0.010	-0.005	0.015	-0.005	0.010	0.039	2.695	1.904	1.904	1.899	1.919	1.914	1.909
0.000	-0.010	0.000	0.015	0.010	-0.010	0.039	2.661	1.899	1.899	1.899	1.919	1.914	1.904
-0.005	-0.005	0.005	0.010	0.000	0.010	0.039	2.646	1.895	1.899	1.899	1.919	1.914	1.914
-0.005	0.000	0.005	0.010	0.005	0.005	0.039	2.725	1.914	1.904	1.899	1.919	1.914	1.914
0.010	0.005	0.005	0.005	0.005	0.000	0.039	2.671	1.914	1.909	1.904	1.919	1.914	1.909
0.005	0.005	0.005	0.000	0.005	0.010	0.039	2.671	1.909	1.904	1.899	1.914	1.914	1.914
0.005	0.000	0.005	-0.005	0.000	0.005	0.044	2.681	1.909	1.904	1.899	1.914	1.909	1.909
0.020	0.005	0.000	-0.005	0.000	-0.005	0.044	2.661	1.899	1.904	1.899	1.914	1.914	1.909
0.005	0.000	0.010	-0.015	0.000	-0.015	0.044	2.671	1.895	1.899	1.899	1.914	1.909	1.904
-0.005	-0.005	0.010	-0.010	-0.005	0.000	0.044	2.671	1.895	1.899	1.899	1.914	1.909	1.909
0.005	0.000	0.000	-0.010	-0.005	-0.005	0.044	2.656	1.895	1.899	1.899	1.914	1.909	1.909
0.005	0.015	0.000	-0.005	0.000	-0.024	0.039	2.661	1.890	1.895	1.899	1.919	1.909	1.904
0.000	0.005	0.000	0.000	-0.005	0.005	0.039	2.642	1.890	1.895	1.895	1.919	1.909	1.914
0.005	0.015	0.000	0.005	-0.005	0.005	0.044	2.632	1.890	1.895	1.895	1.919	1.914	1.914
0.000	0.020	0.000	0.020	0.000	-0.005	0.039	2.646	1.885	1.890	1.895	1.919	1.914	1.909
-0.005	0.015	0.005	0.020	-0.010	-0.015	0.044	2.681	1.890	1.890	1.895	1.919	1.914	1.909
0.005	0.010	0.000	0.020	-0.010	0.005	0.044	2.666	1.895	1.890	1.890	1.914	1.914	1.914
-0.005	0.015	0.000	0.020	-0.020	0.010	0.044	2.656	1.890	1.890	1.890	1.914	1.909	1.914
0.000	0.005	0.000	0.020	-0.010	0.005	0.044	2.827	1.914	1.895	1.890	1.909	1.909	1.914
-0.005	0.000	-0.005	0.015	0.000	0.005	0.044	2.666	1.904	1.895	1.890	1.909	1.914	1.914
0.000	0.005	0.000	0.005	0.005	0.005	0.044	2.676	1.904	1.899	1.890	1.909	1.914	1.914
0.005	0.000	0.005	0.010	0.024	0.005	0.039	2.671	1.909	1.899	1.895	1.909	1.914	1.914
0.010	-0.015	0.000	-0.010	0.039	-0.005	0.039	2.666	1.899	1.895	1.895	1.904	1.914	1.909
0.010	-0.005	-0.005	-0.010	0.005	-0.020	0.039	2.676	1.899	1.899	1.890	1.904	1.899	1.904
0.005	-0.005	-0.005	0.000	-0.020	-0.005	0.039	2.666	1.899	1.895	1.890	1.909	1.895	1.904
0.010	0.000	0.000	0.015	-0.034	-0.024	0.039	2.656	1.895	1.899	1.895	1.914	1.895	1.895
0.010	0.005	0.005	0.024	-0.034	-0.015	0.039	2.651	1.890	1.899	1.895	1.914	1.899	1.904
0.005	-0.005	0.005	0.029	-0.044	0.005	0.044	2.642	1.890	1.890	1.890	1.919	1.899	1.904
0.000	0.005	0.005	0.068	-0.010	-0.005	0.039	2.676	1.890	1.895	1.895	1.929	1.919	1.909
0.000	0.000	0.000	0.122	0.044	-0.005	0.044	2.666	1.890	1.895	1.895	1.938	1.938	1.919
-0.015	0.005	0.005	0.117	0.049	0.005	0.039	2.803	1.909	1.895	1.895	1.929	1.938	1.924
-0.010	0.005	0.000	0.132	0.039	0.015	0.044	2.808	1.924	1.904	1.895	1.929	1.929	1.929
0.000	0.010	-0.005	0.127	0.015	0.020	0.044	2.632	1.914	1.909	1.899	1.924	1.924	1.929
-0.005	0.015	-0.005	0.181	0.054	0.015	0.044	2.637	1.904	1.909	1.904	1.938	1.938	1.934
-0.010	0.005	0.005	0.171	0.063	0.024	0.039	2.695	1.914	1.909	1.904	1.934	1.938	1.934
0.000	0.020	0.000	0.122	0.024	0.005	0.044	2.661	1.909	1.909	1.904	1.919	1.919	1.929
-0.005	0.005	0.000	0.117	-0.020	0.000	0.044	2.686	1.904	1.904	1.904	1.914	1.899	1.919
-0.005	0.000	0.000	0.122	-0.020	0.010	0.044	2.676	1.909	1.904	1.904	1.919	1.909	1.914
0.000	-0.010	0.000	0.122	-0.020	-0.005	0.044	2.690	1.904	1.904	1.899	1.919	1.909	1.909
0.010	0.010	0.005	0.117	-0.015	0.000	0.044	2.666	1.904	1.904	1.904	1.919	1.909	1.909
0.005	-0.029	0.005	0.083	-0.078	0.000	0.044	2.681	1.899	1.895	1.895	1.909	1.890	1.904
0.000	-0.024	0.000	0.054	-0.083	-0.010	0.039	2.676	1.895	1.895	1.895	1.899	1.890	1.899
0.010	-0.020	0.010	0.034	-0.029	0.010	0.044	2.681	1.899	1.895	1.899	1.899	1.909	1.904
0.000	-0.010	0.000	0.010	0.000	0.010	0.044	2.686	1.899	1.899	1.895	1.899	1.909	1.909
0.000	-0.005	0.005	0.034	0.015	0.000	0.044	2.676	1.899	1.899	1.895	1.909	1.914	1.909
-0.005	-0.005	0.005	0.049	0.049	0.010	0.039	2.686	1.895	1.895	1.899	1.919	1.924	1.914
-0.005	0.005	0.000	0.059	0.063	0.005	0.044	2.676	1.899	1.899	1.899	1.919	1.924	1.919
-0.010	0.005	-0.005	0.137	0.049	-0.005	0.044	2.681	1.904	1.904	1.899	1.943	1.924	1.914
-0.015	0.015	-0.005	0.181	0.044	-0.015	0.044	2.681	1.899	1.904	1.899	1.948	1.924	1.919
0.000	0.005	-0.005	0.195	0.015	0.000	0.044	2.676	1.904	1.904	1.904	1.943	1.924	1.924
-0.005	0.000	-0.005	0.161	0.005	-0.010	0.039	2.681	1.904	1.899	1.899	1.924	1.924	1.919
0.000	0.015	-0.005	0.107	0.010	-0.005	0.039	2.686	1.909	1.904	1.899	1.914	1.919	1.919
0.005	0.010	-0.005	0.098	-0.015	-0.005	0.039	2.676	1.909	1.904	1.899	1.909	1.909	1.919
-0.005	0.000	0.000	0.049	-0.005	-0.024	0.044	2.690	1.904	1.899	1.899	1.899	1.904	1.909
0.010	-0.005	0.005	0.029	-0.024	-0.024	0.044	2.656	1.904	1.904	1.895	1.899	1.895	1.904
0.000	-0.010	0.005	-0.015	-0.010	-0.010	0.044	2.666	1.899	1.895	1.895	1.885	1.899	1.904
0.005	-0.024	0.000	-0.044	0.000	-0.005	0.044	2.671	1.899	1.895	1.890	1.885	1.895	1.904
0.005	-0.020	0.000	-0.049	-0.015	0.010	0.044	2.676	1.899	1.895	1.895	1.890	1.885	1.904
0.010	-0.005	0.005	-0.044	-0.010	0.010	0.044	2.676	1.899	1.899	1.895	1.899	1.890	1.899
0.005	0.000	0.000	-0.063	-0.010	0.000	0.039	2.686	1.899	1.895	1.895	1.899	1.890	1.895
0.010	0.000	0.005	-0.054	-0.020	0.005	0.044	2.686	1.899	1.895	1.895	1.904	1.890	1.895
-0.005	0.000	0.000	-0.049	0.000	0.010	0.039	2.676	1.895	1.899	1.895	1.909	1.899	1.899
0.000	0.020	-0.005	0.029	0.000	0.005	0.039	2.686	1.899	1.899	1.899	1.934	1.909	1.899
0.005	0.015	0.000	0.093	0.000	-0.010	0.044	2.676	1.899	1.899	1.899	1.948	1.919	1.904
0.000	0.024	-0.005	0.059	-0.010	-0.010	0.044	2.681	1.895	1.899	1.899	1.929	1.919	1.909
-0.010	0.020	-0.005	0.054	0.000	-0.005	0.044	2.690	1.899	1.895	1.895	1.924	1.924	1.909
0.000	0.010	-0.005	0.005	0.005	-0.010	0.039	2.681	1.899	1.895	1.895	1.904	1.919	1.914
-0.005	0.010	-0.005	-0.020	-0.005	0.000	0.039	2.676	1.899	1.899	1.895	1.904	1.909	1.914
0.000	0.010	-0.005	-0.024	0.010	0.000	0.039	2.676	1.899	1.899	1.895	1.904	1.909	1.914
-0.005	0.000	-0.005	-0.015	0.010	-0.010	0.039	2.676	1.899	1.895	1.895	1.904	1.909	1.909
0.005	-0.005	0.000	-0.068	0.010	0.000	0.044	2.671	1.899	1.890	1.890	1.895	1.904	1.909
0.005	0.005	0.000	-0.112	0.005	-0.020	0.044	2.666	1.899	1.895	1.895	1.885	1.895	1.899
0.005	0.000	0.005	-0.137	0.010	0.005	0.044	2.671	1.895	1.895	1.895	1.885	1.895	1.904
0.005	-0.005	0.005	-0.098	0.005	0.010	0.044	2.666	1.895	1.895	1.895	1.904	1.895	1.904
0.005	-0.005	0.005	-0.098	0.005	0.005	0.044	2.690	1.899	1.895	1.895	1.909	1.895	1.899
0.010	-0.010	0.005	-0.112	0.000	-0.005	0.044	2.681	1.899	1.895	1.890	1.904	1.895	1.895
-0.005	0.000	0.005	-0.112	0.000	0.010	0.039	2.686	1.895	1.895	1.890	1.904	1.899	1.899
0.010	-0.005	0.005	-0.107	-0.005	-0.005	0.044	2.686	1.899	1.895	1.890	1.904	1.895	1.895
0.005	0.005	0.000	-0.132	-0.005	0.015	0.044	2.676	1.895	1.899	1.890	1.899	1.895	1.899
0.000	-0.005	0.000	-0.117	0.000	0.020	0.039	2.690	1.895	1.895	1.890	1.909	1.899	1.899
0.000	0.010	-0.005	-0.083	0.010	-0.005	0.044	2.681	1.895	1.899	1.895	1.919	1.909	1.899
-0.005	0.005	0.000	-0.010	0.010	0.015	0.044	2.681	1.895	1.899	1.899	1.938	1.914	1.909
-0.015	-0.020	-0.005	0.000	0.005	0.010	0.044	2.671	1.890	1.890	1.895	1.934	1.919	1.909
-0.005	0.000	0.005	-0.015	0.000	0.000	0.044	2.686	1.899	1.899	1.895	1.924	1.914	1.909
0.000	0.005	-0.005	-0.010	0.005	0.005	0.044	2.676	1.895	1.899	1.895	1.919	1.919	1.914
0.000	-0.010	0.000	0.000	0.005	-0.020	0.044	2.686	1.899	1.895	1.895	1.924	1.919	1.909
-0.005	-0.010	0.000	0.020	-0.005	0.000	0.044	2.671	1.895	1.895	1.895	1.924	1.919	1.914
0.005	-0.005	0.000	0.024	-0.005	0.015	0.039	2.676	1.899	1.899	1.895	1.924	1.919	1.919
-0.005	-0.010	0.000	0.024	0.000	-0.005	0.044	2.661	1.899	1.895	1.895	1.919	1.919	1.914
0.005	-0.010	0.005	0.034	-0.005	0.000	0.044	2.666	1.899	1.895	1.895	1.919	1.914	1.914
0.000	-0.005	0.000	0.034	0.000	0.000	0.044	2.715	1.904	1.899	1.895	1.919	1.919	1.914
0.000	-0.005	0.000	0.049	-0.005	-0.015	0.044	2.666	1.895	1.899	1.895	1.919	1.914	1.914
0.010	-0.005	0.000	0.073	0.000	-0.010	0.044	2.686	1.899	1.895	1.895	1.929	1.919	1.919
0.010	-0.005	0.000	0.054	0.000	0.005	0.044	2.681	1.904	1.899	1.899	1.914	1.914	1.919
0.000	-0.005	0.005	-0.024	-0.005	0.015	0.044	2.676	1.904	1.895	1.890	1.895	1.909	1.919
0.000	0.000	0.000	-0.044	0.000	0.000	0.044	2.671	1.899	1.899	1.895	1.890	1.899	1.909
0.000	0.024	0.000	-0.034	0.005	0.010	0.039	2.671	1.899	1.904	1.899	1.899	1.899	1.914
-0.005	0.020	0.000	-0.044	-0.005	0.005	0.039	2.686	1.899	1.899	1.899	1.904	1.899	1.904
-0.005	0.015	0.000	-0.024	0.005	0.005	0.039	2.686	1.899	1.899	1.899	1.914	1.904	1.909
0.000	0.024	-0.005	-0.010	0.015	0.000	0.039	2.686	1.904	1.904	1.899	1.919	1.909	1.904
-0.015	0.015	-0.005	-0.029	0.000	-0.005	0.044	2.686	1.899	1.899	1.899	1.909	1.904	1.904
-0.010	0.020	-0.005	-0.039	0.005	0.005	0.044	2.681	1.899	1.899	1.895	1.914	1.909	1.909
-0.005	0.005	0.000	-0.029	0.010	0.000	0.044	2.666	1.899	1.895	1.899	1.914	1.909	1.909
0.005	0.005	0.000	-0.049	-0.005	0.005	0.044	2.676	1.904	1.895	1.895	1.909	1.904	1.909
0.005	0.000	0.000	-0.049	-0.010	-0.005	0.039	2.681	1.899	1.895	1.895	1.909	1.904	1.904
0.000	-0.005	0.000	-0.054	-0.020	0.005	0.039	2.681	1.899	1.895	1.895	1.909	1.899	1.909
0.010	-0.010	0.000	-0.083	-0.005	-0.005	0.039	2.681	1.904	1.890	1.890	1.899	1.899	1.904
0.010	-0.005	0.000	-0.049	0.000	0.005	0.039	2.676	1.899	1.895	1.895	1.914	1.904	1.909
0.005	-0.010	0.010	-0.039	0.000	0.010	0.039	2.681	1.899	1.895	1.895	1.914	1.909	1.909
0.015	-0.020	0.005	-0.059	-0.005	-0.005	0.039	2.676	1.899	1.895	1.895	1.909	1.904	1.904
0.015	-0.010	0.005	-0.020	0.000	0.005	0.044	2.671	1.895	1.895	1.895	1.919	1.909	1.909
0.000	-0.005	0.000	0.015	0.005	-0.015	0.044	2.671	1.895	1.895	1.895	1.929	1.914	1.909
0.000	0.000	0.000	0.063	-0.005	0.005	0.044	2.666	1.895	1.899	1.895	1.938	1.919	1.914
-0.005	0.005	0.000	0.098	0.005	0.005	0.044	2.690	1.899	1.899	1.899	1.943	1.929	1.919
0.000	0.020	0.000	0.142	0.010	0.000	0.044	2.671	1.899	1.904	1.899	1.948	1.934	1.924
0.000	0.000	-0.005	0.142	0.000	0.005	0.044	2.676	1.899	1.899	1.899	1.943	1.934	1.929
0.000	0.000	-0.005	0.146	0.000	-0.020	0.044	2.671	1.899	1.899	1.895	1.934	1.934	1.924
-0.005	0.005	-0.005	0.127	0.000	0.000	0.044	2.686	1.904	1.899	1.895	1.924	1.929	1.929
0.000	0.000	0.000	0.112	-0.005	0.000	0.039	2.666	1.904	1.899	1.899	1.919	1.919	1.929
-0.005	0.005	0.000	0.093	0.000	0.000	0.044	2.681	1.904	1.899	1.895	1.914	1.919	1.924
0.005	0.000	0.005	0.054	0.000	0.005	0.039	2.681	1.904	1.899	1.899	1.904	1.909	1.924
0.005	0.000	0.005	0.015	-0.005	-0.005	0.044	2.666	1.904	1.899	1.895	1.895	1.904	1.914
-0.010	-0.015	0.005	-0.020	0.000	0.000	0.039	2.681	1.904	1.895	1.895	1.890	1.899	1.909
0.005	-0.005	0.000	-0.049	-0.005	0.005	0.044	2.686	1.904	1.899	1.890	1.885	1.890	1.904
0.010	-0.010	0.005	-0.073	-0.005	0.005	0.044	2.656	1.899	1.899	1.890	1.885	1.890	1.904
-0.005	-0.005	0.000	-0.063	0.005	-0.020	0.044	2.671	1.895	1.899	1.895	1.895	1.890	1.890
0.005	0.010	0.000	-0.039	0.000	0.010	0.039	2.671	1.899	1.904	1.895	1.909	1.895	1.899
0.005	-0.005	0.005	0.005	-0.005	0.005	0.039	2.686	1.899	1.899	1.895	1.924	1.904	1.899
0.000	0.000	0.005	0.020	-0.005	0.005	0.039	2.686	1.899	1.899	1.895	1.924	1.904	1.899
0.000	0.005	0.000	-0.024	-0.010	0.005	0.044	2.695	1.899	1.899	1.895	1.909	1.904	1.899
0.005	0.015	-0.005	-0.034	0.000	-0.020	0.039	2.773	1.909	1.904	1.895	1.909	1.909	1.899
-0.005	0.015	-0.005	0.020	-0.010	0.010	0.039	2.676	1.904	1.904	1.899	1.924	1.909	1.909
0.005	0.010	-0.005	0.000	-0.024	-0.005	0.044	2.676	1.904	1.904	1.899	1.919	1.909	1.904
-0.005	0.010	-0.005	-0.020	-0.020	0.010	0.044	2.676	1.899	1.904	1.895	1.914	1.909	1.909
-0.010	-0.005	-0.005	0.000	0.015	0.005	0.044	2.676	1.899	1.895	1.899	1.919	1.924	1.914
0.000	-0.010	-0.005	-0.054	0.063	-0.005	0.044	2.681	1.904	1.895	1.895	1.904	1.924	1.914
-0.005	-0.020	0.000	-0.088	0.054	0.000	0.039	2.676	1.899	1.895	1.895	1.895	1.914	1.914
0.000	-0.020	0.000	-0.098	0.010	-0.024	0.044	2.681	1.899	1.895	1.895	1.895	1.895	1.904
0.005	-0.020	0.000	-0.073	-0.029	0.010	0.039	2.661	1.899	1.899	1.895	1.904	1.885	1.904
0.005	0.005	0.005	-0.107	-0.117	0.005	0.044	2.681	1.895	1.899	1.895	1.895	1.865	1.890
0.005	0.010	0.010	-0.112	-0.142	0.000	0.044	2.676	1.899	1.904	1.899	1.899	1.870	1.885
0.010	0.005	0.005	-0.068	-0.078	-0.005	0.039	2.686	1.895	1.899	1.899	1.919	1.899	1.890
0.010	-0.005	0.000	-0.049	0.024	-0.020	0.039	2.681	1.890	1.895	1.899	1.924	1.929	1.899
0.005	0.005	0.000	-0.073	0.093	-0.029	0.044	2.676	1.895	1.899	1.895	1.914	1.943	1.909
-0.005	0.000	-0.005	-0.068	0.122	-0.024	0.044	2.676	1.895	1.895	1.895	1.919	1.943	1.919
0.005	0.010	-0.005	-0.073	0.137	-0.010	0.044	2.676	1.895	1.895	1.895	1.914	1.938	1.929
-0.010	0.010	-0.005	-0.059	0.103	-0.005	0.039	2.681	1.895	1.895	1.895	1.914	1.924	1.929
0.000	0.000	0.000	-0.068	0.073	0.010	0.044	2.700	1.899	1.895	1.895	1.914	1.909	1.929
-0.005	0.010	0.000	-0.059	0.034	0.005	0.039	2.676	1.899	1.899	1.895	1.914	1.899	1.919
-0.005	0.005	0.000	-0.039	0.005	0.005	0.039	2.686	1.904	1.899	1.895	1.924	1.899	1.909
-0.005	0.005	0.000	0.020	-0.010	0.020	0.039	2.671	1.904	1.899	1.899	1.934	1.904	1.914
-0.015	0.000	-0.005	0.020	-0.015	0.010	0.039	2.686	1.899	1.899	1.899	1.929	1.909	1.909
-0.005	0.005	-0.005	0.024	-0.020	0.010	0.039	2.676	1.899	1.899	1.895	1.924	1.909	1.909
-0.005	-0.005	-0.005	-0.024	-0.024	0.005	0.044	2.676	1.899	1.899	1.895	1.904	1.904	1.909
0.005	0.000	0.005	-0.029	-0.029	0.000	0.044	2.686	1.904	1.899	1.899	1.909	1.904	1.904
0.000	-0.010	0.005	-0.068	-0.024	0.005	0.044	2.666	1.895	1.895	1.895	1.895	1.904	1.904
0.010	-0.015	0.000	-0.063	-0.029	0.000	0.044	2.676	1.899	1.890	1.895	1.899	1.899	1.904
0.000	-0.015	0.005	-0.117	-0.029	0.005	0.039	2.690	1.899	1.895	1.890	1.890	1.895	1.899
0.010	-0.010	0.005	-0.132	-0.024	0.000	0.044	2.671	1.895	1.895	1.890	1.890	1.895	1.899
0.005	-0.005	0.005	-0.054	-0.020	0.000	0.039	2.695	1.895	1.899	1.895	1.919	1.904	1.895
0.010	0.000	0.000	-0.034	-0.010	-0.005	0.039	2.690	1.899	1.899	1.895	1.924	1.909	1.899
0.005	0.000	-0.005	-0.005	-0.015	-0.010	0.044	2.686	1.895	1.895	1.895	1.924	1.914	1.899
0.005	0.020	0.000	0.020	-0.010	0.005	0.044	2.686	1.895	1.904	1.899	1.929	1.919	1.909
-0.005	0.015	0.005	0.005	-0.005	0.005	0.044	2.686	1.895	1.899	1.899	1.924	1.919	1.914
0.000	0.015	-0.005	-0.005	-0.029	-0.015	0.044	2.676	1.895	1.899	1.895	1.914	1.909	1.904
-0.005	-0.005	0.000	-0.020	-0.034	-0.005	0.039	2.676	1.895	1.890	1.895	1.909	1.909	1.909
-0.010	-0.005	-0.005	-0.029	0.000	-0.005	0.044	2.681	1.895	1.890	1.890	1.909	1.919	1.909
-0.010	-0.005	-0.005	-0.005	0.024	-0.005	0.039	2.681	1.895	1.895	1.895	1.924	1.929	1.914
0.000	0.005	0.000	0.000	0.024	-0.015	0.039	2.681	1.899	1.899	1.895	1.914	1.924	1.914
0.005	-0.005	0.000	-0.044	0.015	-0.024	0.039	2.681	1.904	1.895	1.895	1.899	1.909	1.914
0.005	0.000	0.000	-0.054	0.010	0.005	0.044	2.764	1.899	1.899	1.895	1.904	1.909	1.919
0.005	-0.015	0.000	-0.088	-0.005	-0.015	0.044	2.681	1.899	1.895	1.895	1.890	1.899	1.909
0.005	-0.005	-0.005	-0.093	0.005	0.000	0.044	2.671	1.899	1.899	1.890	1.895	1.899	1.909
0.005	-0.005	0.000	-0.112	0.015	0.010	0.039	2.681	1.899	1.895	1.895	1.895	1.899	1.909
0.005	-0.015	0.005	-0.122	0.000	-0.005	0.044	2.651	1.895	1.895	1.890	1.895	1.890	1.899
0.010	-0.005	0.000	-0.142	-0.010	-0.005	0.039	2.681	1.895	1.895	1.890	1.895	1.885	1.895
0.005	0.015	0.005	-0.112	-0.020	0.005	0.039	2.695	1.895	1.899	1.895	1.904	1.890	1.899
-0.005	0.015	0.005	-0.107	-0.005	0.010	0.039	2.681	1.895	1.899	1.895	1.909	1.899	1.899
-0.005	0.010	0.010	-0.098	0.000	0.015	0.039	2.695	1.899	1.895	1.895	1.914	1.904	1.899
0.000	0.010	0.000	-0.093	-0.005	0.015	0.039	2.695	1.899	1.895	1.895	1.914	1.904	1.904
0.000	0.015	0.000	-0.068	0.015	0.005	0.039	2.686	1.899	1.899	1.895	1.924	1.914	1.904
-0.005	0.010	-0.005	-0.044	-0.005	0.010	0.044	2.671	1.899	1.899	1.895	1.929	1.914	1.909
-0.005	0.010	-0.005	-0.039	0.005	0.005	0.044	2.676	1.899	1.899	1.895	1.924	1.914	1.909
0.000	0.005	-0.005	-0.039	-0.010	0.005	0.044	2.690	1.899	1.899	1.895	1.924	1.914	1.909
0.000	0.020	-0.005	-0.039	-0.044	0.010	0.044	2.681	1.899	1.899	1.899	1.914	1.904	1.909
0.005	0.005	0.000	-0.049	-0.044	0.000	0.039	2.681	1.904	1.899	1.895	1.914	1.909	1.909
0.005	0.005	0.000	-0.054	0.029	0.005	0.039	2.681	1.904	1.895	1.895	1.919	1.929	1.914
0.005	-0.020	0.000	-0.063	0.024	0.010	0.039	2.686	1.904	1.890	1.895	1.914	1.919	1.914
0.005	-0.029	0.005	-0.054	0.015	-0.005	0.044	2.671	1.899	1.890	1.895	1.914	1.914	1.914
0.005	-0.020	0.010	-0.068	-0.024	0.005	0.044	2.681	1.899	1.895	1.895	1.909	1.899	1.914
0.010	-0.020	0.005	-0.054	-0.015	0.000	0.044	2.666	1.899	1.895	1.890	1.909	1.909	1.909
0.010	-0.005	0.000	-0.054	0.029	0.000	0.044	2.676	1.899	1.899	1.895	1.914	1.919	1.909
0.005	0.000	0.005	-0.059	0.039	0.005	0.044	2.681	1.899	1.899	1.895	1.914	1.919	1.914
0.000	0.010	0.005	-0.054	0.059	-0.010	0.044	2.686	1.904	1.904	1.895	1.914	1.924	1.914
0.000	0.005	0.000	-0.029	0.044	0.005	0.039	2.671	1.904	1.899	1.899	1.919	1.919	1.919
0.000	0.005	0.000	-0.024	0.034	0.000	0.044	2.686	1.899	1.899	1.899	1.919	1.914	1.914
0.005	0.000	0.005	-0.024	0.024	0.000	0.044	2.671	1.899	1.904	1.895	1.919	1.914	1.914
-0.005	0.005	-0.005	-0.015	0.015	-0.005	0.044	2.681	1.899	1.899	1.899	1.919	1.909	1.909
-0.005	0.015	0.000	0.000	0.010	-0.005	0.044	2.656	1.895	1.904	1.899	1.924	1.909	1.914
0.005	0.015	0.000	0.010	0.005	-0.015	0.039	2.695	1.904	1.899	1.899	1.929	1.914	1.909
-0.005	0.000	0.000	0.024	0.005	-0.005	0.039	2.681	1.899	1.899	1.899	1.929	1.919	1.914
-0.005	0.000	-0.005	0.034	-0.005	-0.010	0.044	2.681	1.895	1.895	1.899	1.929	1.914	1.914
0.000	0.010	0.000	0.024	-0.005	0.000	0.044	2.681	1.904	1.899	1.899	1.924	1.914	1.914
0.005	0.010	0.000	0.020	-0.020	-0.024	0.044	2.686	1.904	1.899	1.899	1.919	1.914	1.909
0.005	-0.005	0.005	0.005	-0.015	0.005	0.039	2.666	1.899	1.899	1.899	1.914	1.914	1.919
-0.005	-0.005	0.000	-0.015	-0.010	-0.005	0.039	2.681	1.899	1.895	1.895	1.909	1.909	1.914
0.010	-0.010	0.005	-0.005	-0.010	0.000	0.039	2.676	1.904	1.899	1.895	1.909	1.909	1.909
0.005	-0.005	0.005	-0.005	0.000	-0.024	0.044	2.686	1.899	1.899	1.895	1.914	1.914	1.909
0.005	-0.005	0.000	-0.015	0.000	-0.010	0.044	2.671	1.899	1.895	1.895	1.909	1.909	1.914
0.005	-0.010	0.010	-0.024	0.005	-0.020	0.044	2.671	1.899	1.899	1.895	1.909	1.909	1.909
0.000	-0.010	0.010	0.020	0.000	-0.005	0.044	2.676	1.895	1.895	1.899	1.924	1.909	1.914
0.005	0.000	0.005	0.000	-0.005	0.015	0.044	2.681	1.899	1.899	1.895	1.914	1.909	1.914
0.000	0.005	0.000	-0.015	-0.005	0.015	0.044	2.686	1.899	1.899	1.895	1.909	1.909	1.914
0.005	0.005	0.000	0.000	-0.005	0.010	0.044	2.666	1.899	1.899	1.895	1.914	1.909	1.914
0.005	0.000	-0.005	0.005	-0.005	0.005	0.044	2.681	1.895	1.899	1.895	1.914	1.909	1.909
-0.005	0.020	-0.010	0.010	-0.005	0.005	0.044	2.686	1.895	1.899	1.895	1.914	1.909	1.909
0.000	0.015	-0.010	0.010	-0.005	0.000	0.044	2.671	1.899	1.899	1.895	1.914	1.909	1.909
-0.005	0.015	-0.005	0.005	-0.005	0.005	0.044	2.690	1.899	1.899	1.895	1.914	1.914	1.909
-0.005	0.015	-0.005	0.024	-0.005	-0.015	0.044	2.686	1.899	1.899	1.899	1.924	1.909	1.909
0.000	0.000	0.000	0.010	0.000	0.010	0.044	2.676	1.899	1.895	1.899	1.914	1.914	1.914
0.000	-0.005	0.005	0.010	-0.005	-0.005	0.039	2.666	1.899	1.895	1.895	1.914	1.909	1.909
0.000	-0.010	0.005	-0.005	-0.005	0.000	0.044	2.690	1.904	1.895	1.895	1.909	1.909	1.909
0.005	-0.015	0.005	-0.010	-0.005	0.010	0.039	2.666	1.899	1.895	1.895	1.909	1.909	1.914
0.000	-0.010	0.000	-0.005	0.000	0.000	0.044	2.686	1.899	1.895	1.895	1.914	1.909	1.909
0.000	-0.015	0.005	0.005	0.010	-0.010	0.039	2.686	1.904	1.895	1.895	1.914	1.914	1.904
0.005	-0.005	0.005	-0.010	0.029	0.005	0.044	2.666	1.899	1.899	1.895	1.909	1.914	1.914
0.000	-0.005	0.000	-0.010	0.000	0.000	0.044	2.681	1.899	1.899	1.895	1.909	1.904	1.909
0.000	0.000	0.000	-0.010	-0.005	0.005	0.044	2.676	1.899	1.899	1.895	1.909	1.904	1.909
-0.005	0.000	0.000	-0.005	-0.010	0.000	0.044	2.686	1.899	1.899	1.895	1.914	1.904	1.909
0.000	0.000	0.000	-0.005	-0.010	-0.024	0.044	2.676	1.899	1.899	1.895	1.914	1.904	1.899
0.005	0.000	0.000	-0.195	-0.010	0.005	0.039	2.681	1.899	1.899	1.890	1.841	1.885	1.904
-0.005	0.005	0.000	-0.664	-0.010	0.000	0.039	2.676	1.895	1.895	1.875	1.733	1.836	1.880
0.000	0.015	-0.005	-0.723	-0.010	0.005	0.039	2.681	1.895	1.899	1.880	1.768	1.816	1.870
-0.005	0.010	0.000	-0.630	-0.005	0.010	0.044	2.695	1.895	1.895	1.885	1.836	1.821	1.855
-0.010	0.000	-0.005	-0.513	-0.010	-0.015	0.044	2.671	1.890	1.890	1.890	1.885	1.841	1.846
0.005	0.005	-0.005	-0.381	0.000	-0.010	0.044	2.676	1.890	1.895	1.899	1.929	1.870	1.855
-0.005	0.010	0.000	-0.278	0.010	0.005	0.044	2.681	1.885	1.890	1.899	1.953	1.895	1.870
0.000	-0.005	0.000	-0.166	0.015	-0.005	0.039	2.681	1.885	1.885	1.899	1.973	1.919	1.880
0.005	-0.015	0.005	-0.068	0.010	0.005	0.044	2.681	1.885	1.880	1.899	1.987	1.938	1.895
0.005	-0.015	0.000	0.034	0.010	-0.005	0.044	2.681	1.890	1.885	1.895	1.997	1.953	1.909
-0.005	-0.015	0.005	0.127	-0.005	0.000	0.039	2.681	1.890	1.885	1.895	1.997	1.963	1.924
0.000	-0.010	0.000	0.176	0.000	-0.005	0.044	2.686	1.895	1.890	1.895	1.987	1.973	1.938
0.010	-0.020	0.000	0.200	0.000	-0.005	0.044	2.686	1.899	1.890	1.890	1.973	1.973	1.948
0.005	-0.010	0.005	0.171	0.024	0.005	0.044	2.666	1.899	1.895	1.890	1.948	1.968	1.958
0.005	0.005	0.000	0.117	-0.005	0.005	0.044	2.681	1.899	1.899	1.890	1.919	1.948	1.953
0.000	-0.015	0.005	0.088	-0.010	-0.005	0.044	2.686	1.904	1.895	1.890	1.909	1.934	1.943
0.000	-0.015	0.000	0.068	-0.010	0.000	0.044	2.686	1.909	1.899	1.890	1.904	1.924	1.943
0.000	0.000	0.000	0.059	-0.020	0.020	0.044	2.681	1.909	1.904	1.890	1.904	1.914	1.938
-0.010	0.010	0.000	0.068	-0.039	0.020	0.044	2.676	1.904	1.909	1.895	1.909	1.909	1.929
0.000	0.010	-0.005	0.073	-0.024	0.005	0.039	2.686	1.909	1.909	1.899	1.914	1.909	1.924
-0.010	0.010	-0.005	0.073	-0.034	0.034	0.039	2.690	1.904	1.904	1.899	1.914	1.909	1.929
-0.005	0.015	-0.005	0.073	-0.029	0.034	0.039	2.676	1.909	1.909	1.904	1.919	1.914	1.924
0.005	0.005	0.000	0.073	0.010	0.024	0.044	2.671	1.909	1.904	1.904	1.919	1.924	1.919
0.000	0.000	0.000	0.073	0.024	0.000	0.039	2.661	1.904	1.904	1.904	1.919	1.924	1.919
0.010	-0.005	0.000	0.083	-0.005	0.010	0.044	2.676	1.904	1.899	1.904	1.919	1.914	1.914
0.000	-0.005	0.005	0.083	0.000	-0.005	0.044	2.690	1.904	1.904	1.899	1.924	1.914	1.909
0.010	-0.005	0.000	0.083	0.000	0.000	0.044	2.681	1.904	1.899	1.899	1.919	1.914	1.914
0.005	-0.005	0.005	0.073	0.005	-0.010	0.044	2.681	1.899	1.904	1.899	1.919	1.919	1.914
0.005	0.010	0.005	0.083	0.039	-0.010	0.039	2.681	1.899	1.904	1.904	1.924	1.924	1.919
0.010	0.005	0.005	0.103	0.054	-0.039	0.039	2.686	1.904	1.904	1.904	1.929	1.929	1.914
0.010	0.015	0.005	0.107	0.083	-0.034	0.039	2.671	1.904	1.904	1.904	1.929	1.934	1.919
-0.005	0.000	0.005	0.098	0.093	-0.044	0.044	2.676	1.899	1.899	1.899	1.924	1.934	1.919
-0.005	0.015	0.000	0.107	0.098	-0.034	0.039	2.690	1.904	1.904	1.899	1.924	1.934	1.929
0.000	0.034	0.000	0.112	0.034	-0.020	0.044	2.681	1.909	1.909	1.899	1.924	1.909	1.924
0.005	0.010	-0.005	0.132	-0.015	-0.005	0.044	2.671	1.904	1.899	1.899	1.929	1.904	1.924
-0.005	-0.010	-0.005	0.151	-0.005	-0.015	0.044	2.671	1.904	1.895	1.899	1.929	1.909	1.919
0.000	-0.005	-0.005	0.151	-0.029	0.010	0.039	2.671	1.904	1.904	1.899	1.929	1.909	1.919
0.005	-0.010	-0.005	0.122	-0.049	0.015	0.039	2.686	1.904	1.899	1.899	1.914	1.904	1.919
-0.005	0.000	-0.005	0.112	-0.054	0.015	0.044	2.681	1.904	1.904	1.899	1.914	1.904	1.914
0.005	-0.020	0.000	0.103	-0.039	0.029	0.044	2.651	1.904	1.899	1.899	1.914	1.909	1.919
0.000	-0.010	0.005	0.112	-0.024	0.034	0.044	2.681	1.899	1.904	1.899	1.919	1.914	1.919
0.005	-0.010	0.005	0.093	-0.029	0.029	0.039	2.681	1.904	1.904	1.899	1.914	1.909	1.914
0.005	-0.015	0.000	0.083	0.024	0.015	0.044	2.671	1.899	1.899	1.899	1.909	1.924	1.909
0.005	-0.010	0.010	0.088	0.039	0.020	0.044	2.686	1.899	1.899	1.899	1.919	1.924	1.919
0.005	-0.015	0.000	0.098	0.078	-0.005	0.044	2.671	1.899	1.899	1.895	1.919	1.929	1.914
0.005	-0.010	0.005	0.107	0.059	0.010	0.044	2.676	1.899	1.899	1.899	1.924	1.919	1.919
0.010	-0.010	0.000	0.112	0.034	0.015	0.044	2.676	1.899	1.899	1.899	1.919	1.914	1.919
0.005	-0.005	0.000	0.112	0.015	0.000	0.039	2.671	1.904	1.904	1.899	1.919	1.909	1.914
-0.005	0.000	0.000	0.112	0.005	-0.010	0.044	2.690	1.904	1.904	1.899	1.919	1.909	1.909
0.000	0.000	0.005	0.122	-0.005	0.000	0.044	2.695	1.904	1.904	1.899	1.919	1.904	1.909
-0.010	-0.005	-0.005	0.112	0.005	-0.005	0.044	2.681	1.904	1.899	1.899	1.919	1.914	1.909
-0.010	0.010	0.000	0.112	0.005	-0.010	0.039	2.686	1.904	1.904	1.899	1.919	1.914	1.909
-0.015	0.024	0.000	0.103	0.005	-0.010	0.044	2.690	1.899	1.904	1.899	1.919	1.909	1.909
-0.010	0.015	-0.005	0.098	0.005	-0.010	0.044	2.686	1.904	1.904	1.904	1.914	1.909	1.909
-0.010	-0.005	0.000	0.103	0.000	-0.010	0.044	2.686	1.904	1.899	1.899	1.919	1.909	1.909
-0.010	0.020	-0.010	0.103	-0.029	-0.005	0.039	2.671	1.904	1.904	1.899	1.919	1.904	1.909
-0.005	0.015	-0.005	0.098	-0.059	0.000	0.044	2.671	1.899	1.904	1.899	1.914	1.899	1.909
0.000	0.015	-0.005	0.093	-0.044	0.000	0.044	2.681	1.904	1.904	1.904	1.919	1.909	1.909
0.015	0.000	0.000	0.103	-0.029	0.005	0.044	2.671	1.904	1.899	1.899	1.919	1.914	1.909
0.015	0.005	0.010	0.083	-0.020	-0.015	0.044	2.690	1.899	1.899	1.904	1.919	1.914	1.909
0.005	-0.005	0.005	0.078	-0.024	0.010	0.039	2.690	1.904	1.899	1.899	1.914	1.909	1.909
0.010	-0.005	0.005	0.073	-0.020	-0.010	0.044	2.681	1.899	1.899	1.899	1.909	1.909	1.909
0.005	-0.005	-0.005	0.063	-0.029	0.005	0.039	2.671	1.899	1.895	1.895	1.909	1.909	1.909
0.000	-0.005	0.005	0.054	-0.020	0.010	0.044	2.651	1.895	1.895	1.895	1.909	1.909	1.914
-0.005	-0.010	0.005	0.054	-0.010	-0.015	0.044	2.671	1.895	1.890	1.890	1.909	1.909	1.904
0.005	-0.005	0.000	0.044	-0.015	0.010	0.039	2.690	1.899	1.895	1.890	1.909	1.909	1.909
0.000	0.000	-0.005	0.044	-0.020	0.015	0.039	2.690	1.899	1.895	1.890	1.909	1.904	1.909
-0.015	0.024	0.000	0.044	-0.010	0.005	0.044	2.671	1.895	1.904	1.895	1.909	1.909	1.909
0.000	0.020	-0.005	0.039	-0.010	0.000	0.044	2.676	1.899	1.899	1.895	1.909	1.909	1.904
-0.005	0.020	0.000	0.039	-0.005	0.010	0.044	2.676	1.899	1.899	1.899	1.909	1.909	1.914
-0.005	0.005	-0.005	0.029	0.005	-0.010	0.044	2.676	1.899	1.895	1.895	1.909	1.909	1.904
-0.005	0.015	0.000	0.015	0.010	0.000	0.039	2.681	1.899	1.899	1.895	1.909	1.909	1.909
-0.005	0.005	0.000	0.015	0.010	-0.005	0.039	2.676	1.899	1.899	1.895	1.909	1.909	1.909
0.000	0.005	0.000	0.034	0.015	0.010	0.039	2.686	1.904	1.899	1.899	1.914	1.909	1.909
0.000	0.005	0.000	0.029	-0.020	0.010	0.039	2.681	1.899	1.895	1.895	1.914	1.899	1.909
0.010	0.000	0.005	0.029	-0.020	0.010	0.044	2.686	1.904	1.895	1.895	1.914	1.904	1.909
0.000	-0.005	0.005	0.034	-0.005	0.000	0.044	2.681	1.904	1.895	1.895	1.914	1.909	1.904
0.005	0.005	0.000	0.015	0.010	0.005	0.039	2.690	1.899	1.899	1.895	1.909	1.909	1.909
0.010	-0.005	0.005	0.020	0.005	0.015	0.044	2.676	1.899	1.895	1.895	1.909	1.909	1.909
0.005	-0.010	0.005	0.020	0.000	0.010	0.044	2.666	1.899	1.895	1.895	1.909	1.904	1.909
0.005	-0.010	0.005	0.020	0.005	0.000	0.044	2.676	1.895	1.895	1.895	1.914	1.909	1.904
0.010	-0.010	0.000	0.020	0.020	-0.010	0.044	2.686	1.895	1.895	1.895	1.909	1.909	1.904
0.005	-0.015	0.005	0.044	0.010	-0.005	0.044	2.695	1.899	1.895	1.895	1.919	1.909	1.904
-0.005	-0.010	0.000	0.029	0.000	0.000	0.039	2.686	1.895	1.895	1.890	1.914	1.904	1.904
-0.005	0.015	-0.005	0.034	0.010	-0.005	0.039	2.681	1.895	1.899	1.890	1.914	1.909	1.909
-0.005	0.015	-0.005	0.049	0.015	0.005	0.039	2.690	1.899	1.899	1.895	1.919	1.909	1.909
0.000	0.005	0.000	0.039	0.024	-0.005	0.044	2.686	1.899	1.899	1.895	1.914	1.909	1.909
-0.010	-0.005	-0.005	0.029	0.020	0.000	0.044	2.666	1.895	1.895	1.895	1.914	1.909	1.914
-0.010	-0.010	0.000	0.049	0.010	-0.015	0.044	2.646	1.895	1.895	1.895	1.919	1.909	1.909
0.005	0.000	-0.005	0.034	0.010	0.005	0.039	2.646	1.895	1.899	1.895	1.909	1.909	1.914
0.005	-0.005	0.000	0.024	0.010	0.005	0.044	2.671	1.895	1.895	1.895	1.909	1.904	1.909
0.000	-0.015	0.000	0.005	0.005	0.005	0.039	2.651	1.895	1.890	1.890	1.904	1.904	1.909
0.005	-0.010	0.005	-0.010	0.010	0.000	0.044	2.646	1.890	1.890	1.890	1.899	1.904	1.909
0.005	0.005	0.005	-0.005	0.005	-0.005	0.039	2.681	1.895	1.895	1.895	1.904	1.899	1.904
0.005	-0.005	0.005	0.000	0.005	0.000	0.044	2.739	1.904	1.895	1.895	1.909	1.899	1.904
0.010	-0.005	0.000	-0.005	0.005	0.005	0.039	2.729	1.904	1.895	1.890	1.909	1.899	1.904
0.015	0.005	0.000	0.000	0.005	-0.005	0.039	2.666	1.899	1.899	1.895	1.909	1.904	1.904
0.005	-0.015	0.005	0.000	0.005	0.005	0.044	2.646	1.895	1.895	1.895	1.909	1.904	1.904
-0.005	-0.005	-0.005	0.000	0.005	0.005	0.044	2.729	1.899	1.895	1.895	1.909	1.904	1.904
0.000	-0.010	0.000	0.005	0.005	0.000	0.039	2.666	1.899	1.895	1.895	1.914	1.904	1.904
0.000	-0.005	0.000	0.005	0.005	-0.020	0.039	2.734	1.904	1.899	1.895	1.909	1.904	1.899
-0.005	0.000	0.000	0.005	0.000	0.000	0.039	2.651	1.895	1.904	1.895	1.909	1.909	1.904
-0.005	0.000	0.000	0.000	0.000	0.005	0.044	2.661	1.895	1.899	1.895	1.914	1.909	1.909
-0.010	0.010	-0.005	0.005	0.005	0.010	0.039	2.656	1.895	1.899	1.899	1.919	1.909	1.909
-0.010	0.005	0.000	0.010	0.000	-0.010	0.044	2.798	1.909	1.899	1.895	1.919	1.909	1.904
0.000	0.010	0.000	0.015	0.005	0.010	0.044	2.676	1.904	1.899	1.899	1.919	1.909	1.914
0.005	-0.005	0.000	0.015	-0.005	0.010	0.039	2.642	1.899	1.899	1.899	1.919	1.909	1.909
0.000	0.000	0.000	0.024	0.005	-0.005	0.044	2.734	1.904	1.899	1.899	1.919	1.914	1.909
0.005	-0.010	0.000	0.024	0.000	0.000	0.044	2.686	1.899	1.899	1.895	1.919	1.914	1.909
0.005	0.000	0.000	0.020	0.015	0.005	0.039	2.734	1.904	1.899	1.899	1.914	1.914	1.914
0.000	0.000	0.005	0.005	0.005	-0.020	0.044	2.666	1.904	1.899	1.899	1.909	1.909	1.909
0.005	-0.005	0.005	0.010	0.010	0.010	0.039	2.646	1.899	1.899	1.895	1.914	1.914	1.914
0.010	-0.005	0.005	0.000	0.020	0.000	0.044	2.817	1.914	1.899	1.895	1.914	1.914	1.909
0.000	0.000	0.005	0.015	0.005	-0.005	0.044	2.632	1.899	1.899	1.895	1.914	1.909	1.909
0.000	0.005	0.005	0.015	-0.010	-0.005	0.044	2.739	1.909	1.904	1.899	1.914	1.904	1.909
-0.005	0.005	0.005	0.015	-0.039	-0.005	0.044	2.681	1.904	1.904	1.899	1.914	1.895	1.904
-0.015	0.000	0.005	0.010	-0.063	-0.005	0.044	2.632	1.895	1.899	1.899	1.914	1.895	1.899
0.000	0.034	0.000	0.020	-0.073	-0.010	0.039	2.690	1.904	1.909	1.899	1.919	1.899	1.899
-0.005	0.024	-0.005	0.005	-0.098	-0.015	0.039	2.754	1.909	1.904	1.899	1.914	1.895	1.899
0.000	0.024	-0.005	0.005	-0.112	-0.010	0.039	2.666	1.904	1.909	1.899	1.914	1.895	1.895
0.000	0.029	0.000	0.010	-0.068	-0.010	0.044	2.666	1.904	1.904	1.904	1.919	1.914	1.904
-0.005	0.024	0.000	0.005	0.000	-0.010	0.044	2.695	1.899	1.899	1.904	1.919	1.934	1.914
0.000	0.010	0.000	-0.005	0.059	-0.034	0.044	2.676	1.899	1.899	1.899	1.919	1.943	1.919
0.000	0.005	0.000	-0.005	0.098	0.010	0.044	2.686	1.899	1.895	1.899	1.919	1.948	1.934
-0.005	0.000	0.000	-0.010	0.044	0.034	0.039	2.686	1.904	1.895	1.899	1.914	1.924	1.938
0.005	-0.005	0.005	-0.005	0.010	0.039	0.044	2.690	1.904	1.895	1.895	1.914	1.909	1.929
0.010	-0.005	0.010	-0.015	0.044	0.034	0.044	2.681	1.909	1.899	1.895	1.914	1.919	1.929
0.005	-0.005	0.000	-0.015	0.073	0.039	0.039	2.700	1.904	1.899	1.895	1.914	1.929	1.929
0.000	0.000	0.000	-0.020	0.088	0.029	0.039	2.710	1.909	1.904	1.895	1.909	1.924	1.924
0.005	-0.005	0.000	-0.024	0.063	0.034	0.039	2.671	1.909	1.899	1.895	1.909	1.909	1.919
0.015	-0.005	-0.005	-0.005	0.049	0.015	0.044	2.686	1.909	1.904	1.899	1.914	1.909	1.909
0.000	0.005	-0.005	0.000	0.068	0.015	0.044	2.695	1.904	1.909	1.899	1.919	1.919	1.914
0.000	0.015	0.000	0.000	0.049	0.010	0.044	2.700	1.909	1.909	1.899	1.924	1.909	1.909
0.005	0.015	0.000	0.015	0.005	-0.005	0.039	2.695	1.904	1.904	1.904	1.919	1.899	1.904
0.000	0.015	0.000	0.000	-0.024	-0.024	0.039	2.695	1.904	1.904	1.904	1.919	1.895	1.895
-0.005	0.005	-0.005	0.000	-0.039	-0.020	0.044	2.695	1.904	1.899	1.899	1.919	1.899	1.895
-0.010	0.010	0.000	0.020	-0.054	-0.015	0.039	2.700	1.904	1.904	1.904	1.924	1.899	1.895
-0.005	0.000	0.000	0.005	-0.063	-0.020	0.039	2.705	1.904	1.899	1.899	1.919	1.899	1.895
-0.010	0.000	0.000	-0.005	-0.049	-0.054	0.039	2.681	1.904	1.899	1.899	1.914	1.904	1.890
0.000	-0.005	-0.005	-0.010	-0.024	-0.020	0.044	2.676	1.899	1.899	1.899	1.914	1.914	1.909
0.005	-0.005	0.000	-0.020	0.034	-0.015	0.039	2.690	1.899	1.899	1.899	1.914	1.934	1.914
0.000	-0.010	0.005	-0.024	0.078	0.000	0.039	2.681	1.899	1.899	1.899	1.914	1.938	1.929
0.000	-0.005	0.005	-0.020	0.049	0.000	0.039	2.690	1.904	1.899	1.899	1.919	1.924	1.924
0.000	-0.015	0.005	-0.020	0.088	0.005	0.044	2.632	1.895	1.895	1.895	1.914	1.934	1.929
0.000	-0.015	0.005	-0.015	0.112	0.010	0.039	2.700	1.914	1.899	1.899	1.914	1.929	1.929
0.015	-0.010	0.000	0.005	0.063	0.005	0.039	2.676	1.909	1.904	1.899	1.919	1.914	1.924
0.010	0.000	0.005	-0.005	0.029	0.034	0.044	2.715	1.899	1.904	1.899	1.914	1.904	1.924
0.010	-0.005	0.000	-0.010	-0.054	0.020	0.044	2.715	1.904	1.904	1.899	1.909	1.880	1.909
0.000	0.005	0.000	-0.010	-0.068	0.034	0.039	2.671	1.899	1.904	1.899	1.914	1.885	1.909
0.005	-0.005	0.000	0.000	-0.088	0.039	0.044	2.661	1.904	1.899	1.899	1.919	1.890	1.904
-0.005	0.000	0.000	-0.005	-0.078	0.015	0.044	2.681	1.899	1.904	1.899	1.914	1.899	1.895
0.000	0.000	-0.005	-0.005	-0.088	0.029	0.044	2.734	1.909	1.904	1.899	1.914	1.899	1.899
-0.005	0.010	-0.005	-0.005	-0.093	0.010	0.044	2.788	1.899	1.904	1.899	1.914	1.904	1.895
-0.010	0.005	-0.005	-0.010	-0.044	0.005	0.044	2.729	1.904	1.904	1.904	1.914	1.919	1.904
0.000	0.005	-0.005	-0.010	0.020	0.015	0.044	2.749	1.914	1.904	1.904	1.919	1.934	1.914
-0.005	0.005	0.000	-0.020	0.039	0.000	0.044	2.637	1.904	1.904	1.904	1.919	1.934	1.914
0.000	0.005	0.000	-0.015	0.024	-0.020	0.039	2.715	1.909	1.904	1.899	1.919	1.924	1.909
0.005	-0.005	0.000	-0.015	0.029	-0.024	0.044	2.715	1.909	1.904	1.904	1.919	1.919	1.909
0.010	-0.015	0.005	-0.010	0.005	-0.029	0.044	2.744	1.914	1.899	1.899	1.924	1.914	1.914
0.005	-0.005	0.005	-0.005	0.000	-0.034	0.039	2.661	1.904	1.904	1.904	1.919	1.914	1.909
0.015	-0.010	0.010	-0.005	-0.020	-0.034	0.039	2.695	1.909	1.904	1.904	1.919	1.909	1.909
0.020	-0.010	0.010	-0.010	-0.039	-0.029	0.044	2.686	1.904	1.904	1.899	1.919	1.904	1.909
0.005	-0.015	0.010	-0.010	-0.059	-0.029	0.039	2.671	1.899	1.899	1.899	1.919	1.904	1.904
0.000	-0.005	0.010	-0.010	-0.044	-0.015	0.044	2.666	1.895	1.899	1.899	1.919	1.909	1.909
0.000	-0.005	0.005	-0.010	0.005	-0.005	0.039	2.676	1.895	1.899	1.899	1.919	1.924	1.919
0.000	0.005	0.000	-0.005	0.010	0.005	0.044	2.710	1.904	1.904	1.899	1.924	1.924	1.924
0.000	0.005	0.000	0.010	-0.005	0.010	0.039	2.676	1.899	1.904	1.899	1.924	1.919	1.924
0.005	0.015	-0.005	0.005	0.000	0.010	0.044	2.681	1.904	1.904	1.899	1.919	1.919	1.924
-0.005	0.020	0.000	0.005	0.010	0.015	0.039	2.700	1.904	1.904	1.899	1.919	1.924	1.924
0.000	0.024	0.000	0.015	0.005	0.015	0.039	2.671	1.904	1.904	1.904	1.924	1.919	1.924
-0.005	0.015	0.000	0.029	0.005	0.005	0.039	2.705	1.904	1.904	1.904	1.929	1.919	1.919
0.000	0.010	-0.005	0.049	0.005	0.015	0.044	2.700	1.909	1.904	1.904	1.934	1.924	1.924
-0.010	0.005	0.000	0.063	0.005	0.010	0.044	2.700	1.914	1.904	1.904	1.934	1.924	1.924
-0.005	-0.005	0.000	0.063	0.010	0.015	0.039	2.686	1.909	1.904	1.904	1.929	1.924	1.924
0.005	-0.005	-0.005	0.059	0.010	-0.020	0.044	2.695	1.909	1.904	1.904	1.929	1.924	1.914
-0.010	-0.015	0.000	0.059	0.005	0.005	0.039	2.705	1.909	1.899	1.899	1.924	1.924	1.919
-0.005	-0.020	0.005	0.059	0.005	0.005	0.039	2.700	1.909	1.899	1.899	1.924	1.919	1.924
0.015	-0.010	0.005	0.049	0.005	0.000	0.044	2.651	1.909	1.909	1.899	1.919	1.919	1.919
0.010	-0.015	0.005	0.054	0.015	0.010	0.044	2.666	1.904	1.904	1.904	1.919	1.919	1.924
0.010	-0.005	0.000	0.034	0.010	0.010	0.039	2.676	1.904	1.904	1.899	1.914	1.914	1.924
0.010	-0.015	0.000	0.034	0.015	0.005	0.044	2.700	1.904	1.904	1.899	1.914	1.914	1.919
0.005	-0.005	0.000	0.034	0.015	0.005	0.044	2.690	1.904	1.904	1.904	1.914	1.914	1.919
0.000	-0.005	0.005	0.029	0.015	0.005	0.044	2.686	1.904	1.904	1.904	1.914	1.914	1.919
-0.005	0.005	0.000	0.034	0.010	-0.015	0.044	2.642	1.899	1.904	1.899	1.919	1.909	1.909
-0.005	0.005	-0.005	0.029	0.010	0.010	0.044	2.651	1.899	1.904	1.899	1.919	1.909	1.914
-0.005	0.015	0.000	0.020	0.010	-0.010	0.044	2.671	1.895	1.904	1.904	1.919	1.909	1.909
-0.005	-0.010	0.000	0.020	0.010	-0.005	0.044	2.778	1.909	1.895	1.899	1.914	1.914	1.909
0.000	-0.005	-0.005	0.029	0.005	0.005	0.039	2.725	1.914	1.899	1.899	1.914	1.909	1.914
-0.005	-0.005	-0.005	0.010	0.005	0.010	0.039	2.666	1.909	1.909	1.899	1.914	1.909	1.914
0.000	0.005	-0.005	-0.015	0.005	0.005	0.039	2.749	1.909	1.904	1.899	1.909	1.909	1.914
0.005	0.010	0.000	-0.034	0.010	0.005	0.044	2.676	1.904	1.904	1.904	1.904	1.904	1.914
0.000	0.005	0.000	-0.049	0.005	0.005	0.044	2.725	1.909	1.904	1.904	1.909	1.904	1.909
0.010	-0.005	0.005	-0.063	0.005	0.010	0.044	2.808	1.924	1.909	1.904	1.904	1.904	1.909
0.005	0.000	0.005	-0.078	0.005	-0.020	0.044	2.720	1.919	1.914	1.904	1.909	1.904	1.899
0.005	-0.005	0.005	-0.083	-0.005	0.015	0.044	2.720	1.909	1.909	1.904	1.909	1.899	1.909
0.005	-0.015	0.005	-0.083	0.000	0.000	0.044	2.632	1.899	1.904	1.899	1.914	1.904	1.904
0.005	-0.005	0.005	-0.088	0.000	0.010	0.044	2.637	1.895	1.904	1.904	1.909	1.904	1.904
0.005	-0.010	0.000	-0.093	-0.005	0.005	0.039	2.734	1.904	1.899	1.899	1.914	1.904	1.904
-0.005	0.015	0.000	-0.093	0.000	0.000	0.039	2.729	1.909	1.904	1.899	1.914	1.904	1.904
0.005	0.005	0.005	-0.103	0.010	-0.005	0.039	2.666	1.904	1.904	1.899	1.914	1.909	1.904
0.000	0.020	0.000	-0.078	0.005	-0.005	0.044	2.686	1.899	1.909	1.904	1.919	1.909	1.904
-0.005	0.020	0.000	-0.078	0.010	-0.005	0.039	2.686	1.899	1.904	1.899	1.924	1.914	1.909
-0.005	0.020	0.000	-0.073	0.005	-0.015	0.044	2.661	1.899	1.904	1.904	1.924	1.914	1.904
-0.010	0.020	-0.005	-0.063	0.010	-0.020	0.044	2.681	1.895	1.899	1.899	1.924	1.914	1.909
-0.005	0.015	-0.005	-0.059	0.010	0.000	0.044	2.666	1.895	1.895	1.899	1.924	1.919	1.919
0.000	0.000	0.000	-0.063	-0.005	0.000	0.044	2.681	1.895	1.895	1.895	1.919	1.914	1.914
-0.005	0.000	0.000	-0.039	-0.005	0.000	0.039	2.681	1.899	1.890	1.895	1.924	1.914	1.919
-0.005	-0.010	0.005	-0.054	-0.015	0.015	0.039	2.676	1.895	1.890	1.895	1.914	1.914	1.919
0.005	-0.024	0.000	-0.059	0.000	-0.020	0.044	2.681	1.899	1.890	1.895	1.914	1.914	1.909
0.005	-0.015	0.005	-0.063	-0.005	0.000	0.039	2.700	1.904	1.895	1.890	1.914	1.909	1.914
0.005	-0.005	0.010	-0.063	-0.020	0.015	0.044	2.705	1.909	1.899	1.895	1.909	1.909	1.914
0.005	-0.005	0.005	-0.059	-0.005	0.005	0.044	2.686	1.904	1.904	1.895	1.914	1.909	1.914
0.010	0.000	0.010	-0.054	-0.010	0.010	0.039	2.690	1.904	1.904	1.899	1.909	1.909	1.914
0.000	-0.010	0.000	-0.049	-0.015	0.015	0.044	2.700	1.904	1.899	1.895	1.914	1.904	1.909
-0.010	0.000	0.000	-0.039	-0.015	0.000	0.044	2.681	1.895	1.899	1.899	1.919	1.909	1.909
0.000	0.005	0.000	-0.029	0.015	0.010	0.039	2.681	1.899	1.904	1.899	1.919	1.924	1.914
0.000	0.010	0.000	-0.029	0.034	0.020	0.044	2.695	1.904	1.904	1.899	1.919	1.924	1.919
0.005	0.010	0.000	-0.020	0.034	0.015	0.039	2.686	1.904	1.904	1.899	1.924	1.924	1.919
0.034	0.010	-0.005	-0.015	0.020	0.005	0.044	2.695	1.914	1.904	1.899	1.924	1.919	1.919
0.059	0.010	-0.005	-0.005	0.015	0.010	0.044	2.705	1.919	1.914	1.904	1.929	1.919	1.919
0.029	0.005	0.000	0.010	0.000	-0.005	0.044	2.676	1.909	1.909	1.904	1.929	1.919	1.914
0.000	0.005	0.000	0.005	0.000	0.000	0.044	2.686	1.895	1.904	1.904	1.924	1.919	1.914
-0.029	0.020	0.000	-0.005	0.005	0.015	0.044	2.686	1.890	1.899	1.904	1.924	1.919	1.924
-0.039	0.010	0.000	-0.010	0.020	-0.005	0.044	2.646	1.880	1.895	1.899	1.919	1.919	1.914
-0.049	0.005	0.000	-0.029	0.010	0.010	0.039	2.661	1.885	1.890	1.895	1.914	1.914	1.919
-0.034	-0.010	0.005	-0.034	-0.005	0.005	0.044	2.676	1.895	1.885	1.890	1.909	1.909	1.914
-0.034	-0.005	0.005	-0.059	-0.020	-0.005	0.044	2.793	1.904	1.890	1.890	1.904	1.899	1.909
-0.010	-0.005	0.010	-0.039	-0.024	0.000	0.039	2.725	1.914	1.895	1.895	1.909	1.904	1.904
0.005	-0.015	0.005	-0.029	-0.015	0.005	0.039	2.690	1.914	1.899	1.895	1.914	1.909	1.909
0.010	0.005	0.000	-0.029	-0.005	-0.005	0.044	2.622	1.904	1.909	1.895	1.914	1.909	1.909
0.010	0.005	0.000	-0.010	-0.020	-0.005	0.044	2.671	1.904	1.904	1.899	1.919	1.904	1.909
0.015	0.000	0.000	-0.010	-0.010	0.015	0.044	2.637	1.899	1.904	1.899	1.919	1.914	1.914
0.015	0.000	0.000	-0.005	0.000	0.005	0.039	2.788	1.914	1.904	1.899	1.924	1.914	1.914
0.005	0.005	0.000	0.005	0.005	0.000	0.039	2.720	1.909	1.904	1.899	1.924	1.919	1.909
0.000	-0.005	0.000	0.005	-0.020	0.005	0.039	2.759	1.904	1.899	1.899	1.924	1.914	1.909
0.000	0.010	-0.005	0.024	-0.020	0.000	0.044	2.637	1.899	1.904	1.899	1.924	1.914	1.914
0.000	0.015	0.000	0.015	0.044	0.010	0.039	2.715	1.904	1.904	1.899	1.924	1.938	1.924
0.010	0.020	-0.005	0.015	0.093	0.005	0.044	2.725	1.914	1.904	1.904	1.924	1.938	1.929
-0.005	0.015	0.005	0.020	0.034	-0.015	0.044	2.729	1.909	1.904	1.904	1.924	1.919	1.919
-0.005	0.020	0.005	0.024	-0.029	-0.015	0.044	2.661	1.904	1.904	1.904	1.924	1.899	1.914
0.005	0.010	0.000	0.015	-0.039	-0.015	0.044	2.700	1.909	1.904	1.904	1.924	1.904	1.914
0.005	-0.005	0.000	0.015	0.020	-0.005	0.044	2.686	1.909	1.899	1.899	1.919	1.924	1.919
0.015	0.000	0.005	0.005	0.059	-0.020	0.044	2.666	1.904	1.904	1.904	1.919	1.929	1.919
0.005	-0.024	0.000	0.005	0.063	-0.005	0.044	2.671	1.899	1.895	1.899	1.919	1.929	1.924
0.005	-0.044	0.000	0.010	0.034	-0.020	0.039	2.676	1.899	1.890	1.895	1.914	1.914	1.919
0.010	-0.049	0.005	0.005	0.005	0.005	0.044	2.681	1.904	1.890	1.895	1.914	1.904	1.919
0.005	-0.029	0.005	0.010	0.010	0.020	0.039	2.676	1.899	1.899	1.895	1.914	1.909	1.924
0.005	-0.020	0.005	0.020	0.010	0.024	0.044	2.695	1.904	1.904	1.899	1.919	1.909	1.919
0.000	0.000	0.000	0.020	0.000	0.024	0.044	2.676	1.904	1.909	1.899	1.914	1.909	1.919
-0.005	0.005	0.000	0.020	-0.029	0.020	0.044	2.695	1.904	1.909	1.899	1.914	1.899	1.909
-0.005	0.005	-0.005	0.015	-0.059	0.015	0.039	2.705	1.909	1.909	1.899	1.919	1.899	1.904
-0.005	0.005	-0.005	0.015	-0.029	-0.010	0.044	2.686	1.904	1.904	1.904	1.919	1.909	1.899
-0.010	0.015	-0.005	0.020	0.000	0.005	0.039	2.710	1.904	1.909	1.904	1.919	1.919	1.909
-0.010	0.010	0.000	0.034	-0.005	-0.005	0.044	2.681	1.904	1.909	1.909	1.929	1.919	1.909
0.000	0.010	0.000	0.044	0.000	0.000	0.039	2.676	1.904	1.909	1.909	1.929	1.924	1.914
0.000	0.005	-0.005	0.034	0.024	-0.015	0.039	2.695	1.909	1.904	1.904	1.924	1.929	1.914
0.005	0.024	-0.005	0.015	0.049	-0.020	0.039	2.676	1.909	1.909	1.909	1.919	1.934	1.919
0.000	0.000	0.000	0.005	0.063	0.000	0.039	2.700	1.909	1.904	1.904	1.919	1.929	1.924
0.005	0.000	0.000	-0.005	-0.020	0.000	0.039	2.695	1.909	1.904	1.899	1.914	1.899	1.919
0.010	0.000	0.000	-0.005	-0.073	0.005	0.044	2.666	1.909	1.904	1.899	1.909	1.890	1.909
0.010	-0.005	0.005	-0.005	-0.073	0.005	0.039	2.671	1.904	1.904	1.904	1.914	1.895	1.904
0.005	0.005	0.005	0.000	-0.078	0.010	0.039	2.686	1.899	1.904	1.904	1.919	1.899	1.904
0.005	-0.005	0.005	-0.005	-0.054	0.024	0.039	2.690	1.904	1.895	1.899	1.919	1.909	1.909
0.000	-0.005	0.010	0.000	0.015	0.024	0.044	2.646	1.895	1.899	1.899	1.924	1.934	1.919
0.005	-0.005	0.005	0.024	0.054	0.015	0.039	2.661	1.895	1.899	1.899	1.929	1.938	1.924
0.005	0.005	0.005	0.063	0.063	0.020	0.039	2.681	1.899	1.904	1.904	1.938	1.938	1.929
-0.005	0.015	0.000	0.073	0.059	0.010	0.044	2.783	1.909	1.904	1.904	1.934	1.934	1.929
0.000	0.010	0.000	0.073	-0.005	0.010	0.044	2.734	1.919	1.909	1.904	1.929	1.914	1.924
-0.005	0.015	0.000	0.063	-0.024	-0.005	0.044	2.666	1.909	1.914	1.904	1.924	1.914	1.914
-0.010	0.005	-0.005	0.044	0.010	0.010	0.039	2.744	1.919	1.904	1.904	1.919	1.924	1.919
-0.010	-0.005	-0.005	0.034	0.015	0.000	0.044	2.681	1.909	1.904	1.904	1.919	1.924	1.919
-0.005	0.020	-0.005	0.083	0.015	0.005	0.044	2.637	1.904	1.909	1.909	1.934	1.924	1.924
-0.005	0.015	-0.005	0.083	0.039	0.000	0.044	2.808	1.919	1.914	1.909	1.929	1.929	1.924
0.000	0.005	-0.005	0.029	0.059	-0.020	0.039	2.734	1.924	1.909	1.909	1.914	1.929	1.924
-0.005	0.010	0.000	-0.024	0.029	-0.005	0.044	2.661	1.914	1.914	1.904	1.899	1.909	1.919
0.005	0.000	-0.005	-0.054	-0.020	-0.020	0.039	2.637	1.909	1.909	1.904	1.895	1.895	1.904
0.005	0.010	0.005	-0.073	-0.029	-0.010	0.039	2.739	1.914	1.914	1.904	1.899	1.890	1.904
0.010	0.010	0.005	-0.083	-0.054	-0.010	0.044	2.729	1.914	1.914	1.904	1.904	1.885	1.899
0.015	0.010	0.000	-0.083	-0.044	-0.029	0.044	2.729	1.914	1.909	1.904	1.909	1.890	1.890
0.015	0.010	0.000	-0.078	-0.039	-0.020	0.039	2.656	1.909	1.909	1.909	1.914	1.899	1.895
0.005	0.005	0.005	-0.078	-0.029	-0.029	0.039	2.695	1.904	1.904	1.909	1.914	1.904	1.895
0.000	0.000	0.005	-0.073	-0.020	-0.005	0.044	2.676	1.899	1.904	1.904	1.919	1.909	1.909
0.000	0.000	0.000	-0.049	-0.039	0.005	0.044	2.676	1.899	1.904	1.904	1.929	1.909	1.909
-0.005	0.015	0.000	-0.024	-0.010	0.000	0.039	2.686	1.899	1.904	1.904	1.934	1.929	1.914
-0.005	0.024	0.000	-0.015	0.005	0.010	0.044	2.686	1.899	1.904	1.904	1.934	1.929	1.919
-0.010	0.020	0.000	0.000	-0.020	-0.005	0.044	2.700	1.899	1.904	1.909	1.934	1.924	1.919
-0.010	0.010	-0.005	0.015	-0.034	-0.010	0.044	2.676	1.899	1.899	1.904	1.934	1.924	1.919
0.005	0.005	-0.005	0.020	0.000	0.029	0.039	2.690	1.904	1.895	1.899	1.934	1.938	1.934
-0.005	-0.010	-0.010	0.024	0.029	0.020	0.044	2.690	1.909	1.895	1.899	1.929	1.938	1.934
0.000	0.000	0.000	0.015	0.039	0.015	0.044	2.695	1.909	1.899	1.899	1.924	1.938	1.938
0.000	-0.010	0.000	0.010	0.039	0.029	0.039	2.700	1.909	1.899	1.899	1.919	1.929	1.938
0.000	-0.010	0.010	0.005	0.039	0.029	0.039	2.695	1.909	1.904	1.904	1.919	1.924	1.934
0.000	-0.005	0.010	0.000	0.020	-0.005	0.044	2.695	1.909	1.909	1.904	1.914	1.914	1.919
0.005	-0.020	0.010	0.000	0.000	0.020	0.039	2.676	1.909	1.904	1.899	1.919	1.909	1.924
0.010	-0.015	0.000	0.005	-0.005	0.010	0.039	2.690	1.904	1.904	1.899	1.919	1.909	1.914
0.010	-0.020	0.000	0.010	0.005	0.005	0.039	2.700	1.909	1.904	1.899	1.919	1.914	1.914
0.000	-0.005	0.000	0.024	0.005	-0.005	0.039	2.686	1.909	1.909	1.904	1.929	1.914	1.914
0.000	-0.005	0.000	0.024	0.015	-0.005	0.044	2.671	1.904	1.904	1.904	1.924	1.919	1.914
0.010	0.005	0.000	0.015	0.024	0.000	0.039	2.666	1.904	1.909	1.904	1.919	1.924	1.914
-0.005	0.005	0.000	0.010	0.020	-0.010	0.044	2.695	1.904	1.904	1.904	1.919	1.919	1.914
0.000	0.020	-0.005	0.010	0.024	-0.005	0.044	2.710	1.909	1.909	1.904	1.919	1.919	1.919
-0.010	0.015	-0.005	0.010	0.010	0.000	0.044	2.686	1.904	1.904	1.904	1.919	1.914	1.919
-0.010	0.010	-0.005	0.020	0.000	-0.010	0.039	2.686	1.904	1.904	1.904	1.924	1.914	1.914
0.000	0.005	-0.005	0.029	0.000	-0.034	0.039	2.632	1.904	1.904	1.904	1.924	1.914	1.909
-0.005	0.015	-0.005	0.029	-0.005	0.000	0.039	2.661	1.899	1.904	1.904	1.924	1.919	1.919
0.000	0.000	0.000	0.024	-0.010	0.005	0.039	2.666	1.904	1.904	1.899	1.919	1.914	1.919
-0.005	0.005	0.005	0.020	-0.010	-0.005	0.039	2.793	1.919	1.904	1.904	1.919	1.914	1.914
0.000	-0.005	0.005	0.005	-0.010	-0.005	0.039	2.642	1.904	1.899	1.899	1.914	1.914	1.914
-0.010	-0.015	0.000	-0.010	-0.005	-0.005	0.044	2.695	1.899	1.899	1.899	1.914	1.914	1.914
0.000	0.000	0.010	-0.015	0.000	0.000	0.044	2.739	1.909	1.904	1.899	1.914	1.914	1.914
0.000	0.000	0.010	-0.020	0.005	-0.015	0.039	2.676	1.909	1.909	1.904	1.914	1.914	1.909
0.005	0.005	0.005	-0.024	-0.005	0.000	0.039	2.637	1.895	1.904	1.899	1.914	1.909	1.914
0.000	-0.010	0.005	-0.024	0.000	-0.005	0.039	2.788	1.914	1.899	1.899	1.914	1.909	1.909
0.005	-0.005	0.005	-0.020	0.000	0.005	0.039	2.715	1.919	1.909	1.904	1.914	1.909	1.914
0.000	0.005	0.000	-0.010	-0.010	0.010	0.039	2.749	1.904	1.909	1.904	1.919	1.909	1.914
-0.010	-0.010	0.000	-0.005	-0.024	0.010	0.039	2.627	1.895	1.899	1.899	1.919	1.904	1.914
-0.015	0.000	-0.005	-0.005	-0.034	0.005	0.039	2.739	1.909	1.904	1.904	1.919	1.909	1.909
-0.005	0.005	-0.005	-0.015	-0.029	0.000	0.039	2.720	1.909	1.904	1.899	1.919	1.914	1.909
-0.005	0.005	0.000	-0.015	-0.039	-0.005	0.039	2.729	1.919	1.909	1.904	1.919	1.904	1.909
-0.005	0.010	-0.005	-0.020	-0.039	0.010	0.044	2.661	1.909	1.909	1.909	1.919	1.909	1.914
0.000	0.020	-0.005	-0.005	-0.029	0.005	0.039	2.681	1.909	1.914	1.909	1.924	1.919	1.914
-0.005	0.000	-0.005	0.010	-0.024	0.005	0.044	2.681	1.904	1.904	1.904	1.929	1.924	1.914
-0.005	-0.010	0.000	0.010	0.005	-0.005	0.039	2.686	1.909	1.899	1.904	1.929	1.934	1.919
0.010	-0.005	0.000	0.000	0.020	-0.015	0.044	2.671	1.904	1.904	1.904	1.924	1.929	1.919
0.010	-0.010	0.005	-0.005	0.059	0.005	0.039	2.671	1.904	1.904	1.904	1.924	1.943	1.934
0.000	-0.010	0.010	-0.010	0.093	0.010	0.039	2.705	1.909	1.904	1.904	1.924	1.943	1.934
0.005	-0.015	0.005	-0.024	0.093	0.000	0.039	2.666	1.904	1.899	1.899	1.919	1.934	1.934
-0.005	-0.010	0.005	-0.020	0.098	0.005	0.044	2.700	1.909	1.904	1.904	1.919	1.929	1.934
0.005	-0.010	0.000	-0.024	0.093	0.000	0.039	2.676	1.909	1.904	1.904	1.919	1.929	1.934
-0.005	-0.005	0.010	-0.020	0.078	-0.005	0.044	2.671	1.904	1.904	1.904	1.919	1.914	1.924
-0.005	-0.005	0.005	-0.020	0.034	0.000	0.039	2.700	1.909	1.904	1.899	1.919	1.904	1.924
-0.010	0.000	0.000	-0.010	-0.010	0.010	0.039	2.710	1.909	1.909	1.899	1.924	1.899	1.909
0.005	-0.005	-0.005	0.000	-0.005	0.015	0.039	2.705	1.914	1.909	1.904	1.924	1.909	1.914
0.005	0.005	-0.005	-0.010	0.005	0.020	0.039	2.676	1.909	1.909	1.904	1.919	1.909	1.914
0.005	0.000	-0.005	-0.005	0.000	0.020	0.039	2.700	1.909	1.914	1.904	1.924	1.909	1.914
-0.010	0.005	0.005	0.015	-0.010	0.015	0.039	2.700	1.909	1.909	1.909	1.929	1.914	1.909
0.000	0.020	0.000	0.024	-0.020	0.010	0.039	2.676	1.909	1.914	1.909	1.934	1.914	1.909
0.005	0.024	0.000	0.015	-0.039	0.015	0.044	2.700	1.909	1.914	1.909	1.929	1.909	1.909
0.005	0.068	-0.005	0.034	-0.044	0.029	0.044	2.686	1.909	1.929	1.914	1.938	1.919	1.919
0.005	0.044	0.000	0.024	-0.044	0.034	0.039	2.695	1.904	1.909	1.909	1.929	1.919	1.919
-0.005	-0.024	-0.005	0.000	-0.044	0.024	0.039	2.681	1.899	1.885	1.904	1.919	1.919	1.919
-0.005	-0.068	0.000	-0.005	-0.054	-0.005	0.044	2.690	1.904	1.880	1.895	1.919	1.909	1.909
0.015	-0.059	0.005	-0.015	-0.054	-0.020	0.039	2.681	1.904	1.890	1.895	1.914	1.909	1.904
0.010	-0.039	0.005	-0.015	-0.068	-0.029	0.039	2.642	1.899	1.895	1.895	1.914	1.904	1.899
0.015	-0.005	0.005	-0.020	-0.049	-0.024	0.039	2.656	1.904	1.904	1.895	1.914	1.909	1.909
0.010	0.020	0.005	-0.010	-0.059	-0.039	0.039	2.671	1.895	1.909	1.899	1.914	1.909	1.899
0.010	0.034	0.005	0.000	-0.083	-0.024	0.039	2.778	1.909	1.909	1.899	1.919	1.904	1.904
0.000	-0.005	0.005	0.024	-0.029	-0.059	0.044	2.637	1.895	1.895	1.904	1.929	1.924	1.904
0.005	-0.010	0.000	0.024	0.029	-0.059	0.039	2.686	1.899	1.895	1.899	1.929	1.938	1.914
0.000	-0.005	-0.005	0.034	0.015	-0.054	0.044	2.627	1.890	1.899	1.899	1.924	1.934	1.924
-0.005	0.000	0.000	0.029	0.015	-0.015	0.044	2.686	1.895	1.895	1.899	1.924	1.929	1.934
0.000	0.015	0.005	0.039	0.039	-0.020	0.039	2.632	1.895	1.899	1.899	1.924	1.934	1.934
0.005	0.015	-0.005	0.039	0.068	0.005	0.039	2.808	1.919	1.904	1.899	1.924	1.938	1.943
-0.005	0.015	-0.005	0.029	0.039	0.010	0.039	2.729	1.919	1.909	1.899	1.919	1.924	1.938
0.000	0.010	-0.005	0.024	0.068	0.010	0.039	2.671	1.914	1.909	1.904	1.919	1.934	1.938
-0.005	0.010	0.000	0.049	0.083	0.029	0.039	2.622	1.904	1.909	1.904	1.929	1.929	1.938
-0.010	-0.005	-0.005	0.063	0.059	0.034	0.039	2.710	1.904	1.904	1.904	1.929	1.924	1.938
0.000	0.000	0.005	0.039	0.049	0.024	0.039	2.720	1.919	1.909	1.904	1.919	1.919	1.929
0.005	0.000	0.000	0.015	0.044	0.020	0.039	2.725	1.914	1.909	1.904	1.914	1.914	1.924
0.005	-0.020	0.000	-0.020	0.068	0.029	0.039	2.666	1.909	1.904	1.899	1.904	1.919	1.924
0.005	-0.020	0.000	-0.034	0.059	0.005	0.044	2.705	1.914	1.904	1.899	1.904	1.909	1.909
0.015	-0.063	0.000	-0.034	0.039	0.034	0.039	2.676	1.904	1.895	1.899	1.904	1.899	1.919
0.005	-0.029	0.005	-0.039	0.015	0.029	0.039	2.676	1.904	1.909	1.899	1.909	1.899	1.909
0.010	0.029	0.005	-0.029	0.010	0.015	0.039	2.676	1.909	1.924	1.909	1.914	1.899	1.904
0.015	0.005	0.000	-0.015	-0.005	0.010	0.039	2.676	1.904	1.909	1.904	1.924	1.899	1.895
0.000	0.020	0.010	0.000	-0.029	0.010	0.039	2.700	1.904	1.914	1.909	1.929	1.899	1.899
-0.010	0.020	0.005	0.024	-0.049	0.005	0.044	2.666	1.899	1.909	1.909	1.934	1.904	1.899
-0.010	0.054	0.000	0.029	-0.059	0.000	0.039	2.676	1.899	1.914	1.909	1.934	1.904	1.899
-0.020	0.024	-0.005	0.010	-0.044	-0.024	0.039	2.700	1.904	1.899	1.904	1.929	1.914	1.895
-0.024	0.024	-0.005	-0.010	-0.044	-0.005	0.039	2.681	1.899	1.899	1.904	1.919	1.914	1.909
-0.005	0.005	0.000	-0.020	-0.049	-0.020	0.039	2.690	1.904	1.895	1.899	1.914	1.914	1.904
-0.005	0.000	-0.005	-0.024	-0.049	-0.010	0.039	2.681	1.904	1.895	1.899	1.914	1.914	1.909
-0.005	0.000	-0.005	-0.039	-0.034	-0.005	0.039	2.700	1.904	1.895	1.899	1.914	1.914	1.914
0.010	0.000	-0.005	-0.024	-0.024	0.000	0.039	2.676	1.909	1.899	1.895	1.919	1.914	1.914
0.015	0.000	0.000	-0.024	-0.010	-0.015	0.039	2.671	1.904	1.899	1.899	1.919	1.919	1.914
0.000	-0.020	0.005	-0.020	0.000	-0.015	0.039	2.700	1.904	1.895	1.899	1.919	1.919	1.919
0.000	-0.039	0.010	-0.010	-0.010	-0.010	0.039	2.666	1.899	1.890	1.895	1.919	1.914	1.919
0.015	-0.039	0.000	-0.005	-0.024	-0.005	0.039	2.690	1.904	1.890	1.895	1.919	1.909	1.919
0.005	-0.029	0.000	0.005	-0.029	-0.010	0.039	2.690	1.904	1.895	1.895	1.924	1.909	1.914
-0.005	-0.015	0.005	0.015	-0.005	0.005	0.039	2.700	1.904	1.904	1.895	1.924	1.924	1.919
0.010	0.015	0.015	0.024	-0.005	0.005	0.044	2.676	1.904	1.909	1.899	1.924	1.919	1.924
-0.005	0.010	0.000	0.024	-0.015	0.010	0.039	2.681	1.899	1.904	1.899	1.924	1.919	1.919
-0.005	0.005	0.000	0.029	0.049	0.015	0.039	2.690	1.899	1.904	1.899	1.924	1.938	1.929
-0.010	0.010	0.005	0.020	0.088	0.000	0.039	2.651	1.895	1.904	1.904	1.919	1.938	1.929
0.000	0.020	0.005	0.020	0.078	0.015	0.044	2.661	1.904	1.904	1.904	1.924	1.929	1.934
-0.005	0.029	0.000	0.010	0.049	0.010	0.039	2.686	1.904	1.909	1.904	1.919	1.919	1.929
-0.005	0.015	-0.005	0.005	0.020	0.005	0.039	2.646	1.899	1.904	1.895	1.914	1.909	1.924
0.000	0.020	-0.005	0.005	-0.005	0.005	0.039	2.720	1.909	1.909	1.899	1.914	1.904	1.914
-0.005	0.020	0.000	0.000	-0.010	0.005	0.044	2.676	1.904	1.904	1.904	1.914	1.904	1.909
-0.005	0.005	-0.005	0.000	-0.010	-0.015	0.039	2.651	1.899	1.899	1.899	1.914	1.904	1.909
0.005	0.000	0.005	-0.005	-0.005	0.010	0.039	2.686	1.904	1.899	1.899	1.914	1.909	1.914
0.010	0.015	0.005	0.010	-0.010	-0.005	0.039	2.651	1.899	1.899	1.899	1.919	1.909	1.904
0.005	0.005	0.005	0.010	-0.005	0.005	0.039	2.651	1.895	1.899	1.899	1.919	1.914	1.914
0.000	-0.015	0.005	0.010	0.000	0.005	0.039	2.637	1.890	1.890	1.895	1.919	1.914	1.909
-0.010	-0.005	0.000	0.005	0.000	-0.005	0.039	2.627	1.885	1.890	1.895	1.914	1.909	1.909
0.000	-0.020	0.005	0.005	0.005	0.005	0.044	2.642	1.890	1.885	1.890	1.914	1.909	1.914
0.000	-0.020	0.010	0.005	0.005	-0.005	0.039	2.739	1.899	1.890	1.890	1.909	1.909	1.909
0.020	-0.020	0.010	0.010	-0.005	0.005	0.039	2.729	1.914	1.895	1.890	1.909	1.909	1.914
0.029	-0.024	0.000	0.015	-0.010	0.000	0.039	2.632	1.904	1.895	1.890	1.909	1.904	1.909
0.010	0.000	-0.005	0.015	-0.024	0.015	0.039	2.671	1.899	1.904	1.890	1.909	1.899	1.909
-0.005	0.010	0.000	0.010	-0.029	0.015	0.039	2.676	1.895	1.904	1.895	1.909	1.904	1.909
-0.005	0.034	-0.005	0.020	-0.029	-0.005	0.044	2.690	1.895	1.909	1.899	1.914	1.904	1.904
-0.020	0.044	0.000	0.015	-0.020	0.005	0.039	2.676	1.895	1.904	1.899	1.914	1.904	1.909
-0.015	-0.010	0.000	0.020	-0.015	-0.020	0.039	2.686	1.899	1.890	1.895	1.919	1.909	1.899
-0.005	-0.020	-0.005	0.015	-0.020	0.000	0.044	2.676	1.899	1.890	1.895	1.914	1.909	1.909
0.000	-0.010	-0.005	0.015	-0.024	0.005	0.044	2.671	1.904	1.899	1.895	1.914	1.909	1.909
0.000	0.000	0.000	0.010	-0.015	-0.005	0.039	2.671	1.904	1.904	1.899	1.914	1.909	1.909
