-0.010	-0.015	0.000	-0.005	-0.005	0.005	-0.005	2.700	-10.000	-2.041	1.309	1.924	2.329	2.256
0.010	0.000	-0.005	-0.005	0.000	0.005	0.000	2.671	-7.007	-3.545	0.010	1.450	2.100	2.217
-0.005	0.005	-0.005	-0.005	0.000	0.000	0.000	2.690	-4.443	-3.887	-1.069	0.796	1.763	2.100
-0.005	0.005	-0.005	-0.005	0.000	0.000	0.000	2.681	-2.588	-3.599	-1.792	0.112	1.328	1.895
-0.005	-0.005	-0.005	-0.005	-0.005	-0.015	0.000	2.705	-1.260	-3.008	-2.158	-0.498	0.840	1.616
0.000	-0.010	-0.005	0.000	0.000	0.000	0.000	2.690	-0.332	-2.314	-2.231	-0.972	0.352	1.284
-0.005	-0.005	-0.005	-0.005	0.005	-0.015	0.000	2.681	0.308	-1.621	-2.095	-1.284	-0.093	0.913
-0.005	0.005	-0.005	-0.005	0.005	0.005	0.000	2.661	0.723	-0.996	-1.816	-1.440	-0.464	0.547
-0.005	0.000	-0.005	-0.005	0.005	-0.024	0.000	2.783	0.977	-0.474	-1.470	-1.460	-0.747	0.190
-0.005	0.000	0.000	0.000	0.000	-0.005	0.000	2.637	1.143	-0.044	-1.089	-1.367	-0.923	-0.107
-0.005	0.000	0.000	0.000	0.000	0.010	-0.005	2.651	1.201	0.283	-0.723	-1.196	-1.011	-0.352
0.000	0.000	-0.005	0.000	0.000	0.005	0.000	2.642	1.216	0.527	-0.386	-0.981	-1.016	-0.542
-0.005	-0.005	-0.005	0.000	0.000	0.000	-0.005	2.666	1.196	0.693	-0.098	-0.742	-0.947	-0.654
-0.005	-0.005	-0.005	-0.005	-0.005	0.005	0.000	2.720	1.157	0.806	0.151	-0.498	-0.840	-0.713
-0.010	-0.015	0.005	-0.005	-0.005	0.000	0.000	2.661	1.113	0.874	0.352	-0.269	-0.688	-0.713
-0.005	-0.010	-0.005	-0.005	-0.005	-0.005	0.000	2.739	1.074	0.918	0.508	-0.054	-0.522	-0.664
0.000	-0.015	-0.005	-0.005	-0.005	-0.010	0.000	2.690	1.030	0.933	0.625	0.137	-0.347	-0.586
-0.005	-0.010	-0.005	-0.005	-0.010	0.000	0.000	2.612	0.986	0.937	0.713	0.303	-0.171	-0.474
0.005	-0.010	0.000	-0.005	-0.015	-0.010	0.000	2.705	0.962	0.937	0.776	0.435	-0.010	-0.352
0.000	0.015	0.000	-0.005	-0.010	-0.005	0.000	2.632	0.937	0.933	0.820	0.547	0.142	-0.220
0.000	0.020	-0.005	-0.005	0.005	0.000	0.000	2.720	0.933	0.923	0.854	0.635	0.283	-0.083
-0.005	0.000	-0.005	-0.005	0.000	-0.005	0.000	2.720	0.923	0.908	0.869	0.708	0.400	0.044
-0.010	-0.005	-0.005	0.000	-0.010	-0.005	0.000	2.646	0.918	0.903	0.879	0.762	0.498	0.171
-0.005	0.000	0.000	-0.005	-0.005	0.000	0.000	2.666	0.923	0.903	0.889	0.806	0.586	0.283
-0.005	0.005	0.000	0.000	0.000	0.000	0.000	2.700	0.933	0.898	0.894	0.835	0.654	0.381
-0.005	-0.005	0.005	0.000	0.005	-0.005	0.000	2.710	0.937	0.903	0.898	0.859	0.713	0.469
0.005	-0.005	-0.005	0.000	0.000	0.000	0.000	2.661	0.947	0.913	0.898	0.874	0.757	0.547
0.005	-0.005	-0.005	0.000	0.000	0.000	0.000	2.695	0.952	0.918	0.903	0.889	0.786	0.615
-0.005	-0.005	0.000	0.000	-0.005	-0.010	0.000	2.700	0.962	0.923	0.908	0.898	0.815	0.669
-0.005	-0.005	0.000	0.000	-0.010	-0.010	0.000	2.676	0.972	0.933	0.913	0.908	0.840	0.713
0.000	-0.005	0.000	0.000	-0.010	0.000	0.000	2.690	0.986	0.937	0.923	0.913	0.854	0.752
0.005	0.005	0.000	-0.005	-0.005	-0.015	-0.005	2.695	1.001	0.952	0.928	0.923	0.874	0.781
0.000	-0.005	0.000	-0.005	-0.015	0.005	0.000	2.695	1.011	0.962	0.933	0.928	0.889	0.815
-0.005	-0.005	0.000	-0.005	0.000	0.005	0.000	2.681	1.021	0.972	0.942	0.937	0.903	0.835
-0.005	-0.005	0.000	0.000	-0.005	0.000	-0.005	2.676	1.030	0.986	0.957	0.947	0.918	0.859
-0.005	-0.005	-0.005	-0.005	-0.005	-0.010	0.000	2.671	1.040	0.996	0.967	0.957	0.928	0.874
-0.005	-0.005	0.000	-0.005	-0.005	0.000	0.000	2.666	1.050	1.006	0.977	0.967	0.937	0.898
-0.005	0.000	-0.005	-0.005	-0.005	-0.005	0.000	2.710	1.069	1.025	0.991	0.981	0.947	0.908
-0.005	0.005	-0.005	-0.005	-0.010	0.000	0.000	2.705	1.084	1.040	1.006	0.991	0.962	0.923
0.000	-0.010	-0.005	-0.005	0.005	0.000	0.000	2.671	1.094	1.050	1.016	1.006	0.977	0.937
0.000	0.005	-0.005	-0.005	0.005	-0.015	0.000	2.710	1.108	1.064	1.030	1.016	0.986	0.947
-0.005	0.015	-0.005	0.000	0.005	0.005	0.000	2.676	1.118	1.084	1.045	1.030	1.001	0.967
-0.005	0.020	0.000	0.005	0.010	-0.010	0.000	2.681	1.123	1.089	1.060	1.040	1.011	0.972
-0.010	0.020	-0.005	0.000	0.005	0.000	0.000	2.700	1.138	1.094	1.069	1.055	1.021	0.991
0.000	0.010	-0.005	0.000	0.000	0.005	0.000	2.681	1.147	1.104	1.074	1.064	1.030	1.001
-0.005	0.000	0.000	0.000	0.000	-0.005	0.000	2.671	1.152	1.113	1.084	1.074	1.040	1.006
-0.005	0.005	-0.005	0.000	0.000	0.000	0.000	2.676	1.162	1.123	1.094	1.079	1.050	1.021
0.000	-0.005	-0.005	-0.005	-0.010	0.000	0.000	2.651	1.167	1.128	1.099	1.089	1.060	1.025
0.000	-0.005	-0.005	-0.005	-0.010	-0.005	0.000	2.773	1.177	1.138	1.108	1.099	1.069	1.035
0.000	-0.005	-0.005	-0.005	-0.005	-0.005	0.000	2.729	1.196	1.152	1.123	1.108	1.079	1.050
-0.005	0.000	-0.005	-0.005	-0.005	-0.005	0.000	2.651	1.196	1.162	1.133	1.118	1.089	1.060
-0.005	-0.005	0.000	-0.005	-0.005	-0.020	0.000	2.642	1.221	1.172	1.143	1.133	1.099	1.069
-0.005	-0.005	-0.005	-0.005	-0.005	-0.015	0.000	2.681	1.230	1.187	1.152	1.143	1.108	1.084
-0.005	-0.015	0.000	-0.005	-0.010	0.005	0.000	2.656	1.235	1.196	1.167	1.157	1.123	1.094
-0.005	-0.005	0.000	-0.005	0.000	0.005	0.000	2.700	1.250	1.211	1.182	1.167	1.138	1.108
-0.005	0.000	-0.010	-0.005	-0.010	-0.020	0.000	2.725	1.270	1.230	1.191	1.182	1.147	1.113
-0.005	-0.010	0.000	0.000	-0.005	-0.005	0.000	2.690	1.274	1.235	1.206	1.191	1.157	1.133
0.010	-0.005	-0.005	0.000	-0.005	0.000	0.000	2.729	1.284	1.245	1.216	1.206	1.172	1.143
-0.005	0.000	0.000	0.000	-0.005	-0.005	0.000	2.749	1.294	1.260	1.230	1.216	1.182	1.152
-0.005	0.010	0.000	0.000	-0.005	-0.010	-0.005	2.632	1.294	1.270	1.240	1.226	1.191	1.162
-0.005	0.005	0.000	0.000	-0.005	0.005	0.000	2.720	1.309	1.274	1.245	1.235	1.206	1.177
0.000	-0.005	0.000	0.000	0.000	0.000	-0.005	2.661	1.309	1.274	1.255	1.245	1.216	1.187
0.000	-0.020	0.000	0.000	0.000	0.000	0.000	2.651	1.309	1.279	1.260	1.255	1.221	1.196
-0.010	-0.024	-0.005	-0.005	0.000	0.000	0.000	2.676	1.318	1.284	1.260	1.260	1.230	1.201
-0.005	-0.020	0.000	0.000	-0.010	0.000	0.000	2.666	1.323	1.294	1.274	1.265	1.235	1.211
0.000	-0.015	-0.005	-0.005	-0.015	0.000	0.000	2.695	1.338	1.304	1.279	1.274	1.245	1.221
-0.005	-0.010	0.000	-0.005	-0.010	-0.015	0.000	2.700	1.353	1.318	1.289	1.284	1.255	1.226
-0.010	-0.020	-0.005	-0.005	-0.005	-0.020	0.000	2.700	1.357	1.318	1.299	1.289	1.265	1.235
-0.005	-0.015	-0.005	-0.005	0.010	0.000	0.000	2.690	1.367	1.333	1.309	1.299	1.279	1.250
-0.005	-0.020	-0.005	-0.005	0.020	0.000	0.000	2.695	1.382	1.343	1.318	1.309	1.289	1.265
-0.005	-0.010	-0.005	-0.005	0.015	-0.010	0.000	2.700	1.387	1.357	1.328	1.318	1.294	1.270
-0.005	-0.015	0.000	-0.005	0.005	-0.010	0.000	2.705	1.401	1.367	1.338	1.333	1.304	1.279
0.000	0.010	-0.005	-0.005	0.005	0.010	0.000	2.705	1.416	1.387	1.353	1.343	1.313	1.294
0.000	0.000	-0.005	-0.005	0.005	0.005	0.000	2.681	1.416	1.387	1.362	1.353	1.323	1.304
-0.005	-0.005	-0.010	0.000	0.000	-0.020	0.000	2.671	1.421	1.396	1.372	1.362	1.328	1.304
-0.010	0.010	-0.005	0.000	-0.005	-0.005	0.000	2.695	1.426	1.406	1.382	1.372	1.343	1.318
-0.005	0.005	-0.010	0.000	-0.005	0.000	0.000	2.690	1.431	1.406	1.387	1.382	1.353	1.328
-0.010	-0.005	-0.005	0.000	-0.015	-0.020	0.000	2.671	1.436	1.411	1.392	1.387	1.353	1.328
-0.010	-0.010	-0.005	0.000	-0.024	0.000	0.000	2.705	1.440	1.416	1.396	1.396	1.362	1.343
-0.010	0.000	0.000	0.000	-0.015	-0.005	0.000	2.676	1.445	1.421	1.401	1.401	1.372	1.348
-0.010	0.005	0.000	-0.005	-0.015	-0.010	0.000	2.700	1.450	1.431	1.406	1.401	1.377	1.353
-0.010	0.005	0.005	-0.005	-0.015	-0.010	0.000	2.695	1.460	1.436	1.416	1.411	1.387	1.362
-0.010	0.010	0.000	-0.005	-0.005	-0.024	0.000	2.676	1.465	1.440	1.421	1.421	1.396	1.367
-0.015	0.005	-0.005	-0.005	0.010	0.000	0.000	2.700	1.470	1.445	1.426	1.426	1.406	1.387
-0.005	0.010	-0.005	-0.005	0.020	0.005	0.000	2.671	1.479	1.460	1.436	1.436	1.416	1.396
-0.005	0.005	-0.005	-0.005	0.005	0.005	0.000	2.676	1.484	1.460	1.440	1.440	1.421	1.401
0.000	-0.005	-0.005	-0.005	0.005	-0.005	0.000	2.676	1.494	1.465	1.445	1.450	1.426	1.401
0.005	-0.010	0.000	-0.005	0.000	-0.010	-0.005	2.666	1.499	1.470	1.455	1.455	1.431	1.411
0.000	-0.010	-0.005	-0.005	0.005	-0.015	0.000	2.788	1.504	1.479	1.460	1.465	1.440	1.416
0.005	-0.010	0.000	0.000	0.000	-0.010	0.000	2.754	1.523	1.489	1.470	1.470	1.450	1.431
0.000	-0.005	0.000	0.000	0.000	0.010	0.000	2.666	1.519	1.499	1.479	1.479	1.460	1.440
-0.005	0.000	0.000	0.000	0.000	0.000	0.000	2.646	1.523	1.504	1.484	1.484	1.460	1.440
-0.010	0.010	-0.005	0.000	-0.005	0.010	-0.005	2.671	1.528	1.509	1.489	1.489	1.470	1.450
0.005	0.000	-0.005	0.000	0.000	0.000	0.000	2.715	1.538	1.514	1.499	1.499	1.475	1.455
0.000	0.000	-0.005	0.000	-0.010	0.000	-0.005	2.671	1.538	1.519	1.499	1.504	1.479	1.460
0.000	0.000	-0.005	0.000	-0.010	-0.010	0.000	2.739	1.548	1.523	1.504	1.504	1.484	1.460
-0.005	-0.005	0.000	0.000	0.000	0.005	0.000	2.666	1.543	1.523	1.509	1.514	1.494	1.475
-0.005	-0.010	-0.005	0.000	-0.010	0.005	0.000	2.749	1.558	1.528	1.514	1.514	1.494	1.479
-0.005	-0.024	-0.005	-0.005	-0.005	-0.010	0.000	2.720	1.562	1.528	1.519	1.519	1.499	1.484
-0.005	-0.020	-0.005	0.000	-0.010	0.005	0.000	2.627	1.558	1.543	1.523	1.523	1.509	1.494
-0.010	-0.020	-0.005	-0.005	-0.010	-0.010	0.000	2.720	1.567	1.543	1.528	1.528	1.509	1.494
0.005	0.005	-0.005	-0.005	-0.005	0.000	0.000	2.671	1.572	1.558	1.538	1.538	1.514	1.504
-0.005	0.005	-0.005	-0.005	-0.005	0.005	0.000	2.632	1.562	1.558	1.543	1.543	1.523	1.509
-0.015	0.005	0.000	-0.005	-0.005	0.000	0.000	2.686	1.572	1.562	1.548	1.553	1.528	1.514
0.005	0.005	0.000	0.000	0.000	-0.005	0.000	2.686	1.582	1.567	1.558	1.558	1.538	1.523
0.005	0.010	-0.005	0.000	0.000	-0.010	0.000	2.695	1.592	1.577	1.558	1.562	1.548	1.528
-0.005	0.005	0.000	0.000	0.000	-0.005	0.000	2.695	1.597	1.577	1.562	1.567	1.553	1.533
0.005	0.000	-0.005	0.000	0.000	-0.024	0.000	2.690	1.602	1.582	1.567	1.572	1.558	1.538
-0.015	0.005	-0.005	0.000	-0.010	-0.005	0.000	2.686	1.602	1.587	1.572	1.577	1.558	1.548
-0.005	0.000	-0.005	0.000	-0.010	-0.010	0.000	2.700	1.611	1.592	1.577	1.582	1.562	1.553
0.000	0.005	0.000	0.000	-0.010	0.000	0.000	2.700	1.616	1.597	1.582	1.587	1.567	1.558
-0.005	0.000	0.000	-0.005	-0.005	0.005	-0.005	2.671	1.616	1.597	1.587	1.592	1.577	1.558
0.000	0.010	-0.005	0.000	-0.005	0.010	0.000	2.690	1.621	1.606	1.587	1.597	1.577	1.567
-0.010	0.015	0.000	0.000	-0.010	0.005	0.000	2.671	1.611	1.606	1.592	1.597	1.582	1.567
-0.005	-0.005	0.000	-0.005	-0.005	-0.005	0.000	2.666	1.621	1.602	1.592	1.602	1.587	1.567
0.000	0.005	0.000	-0.005	-0.005	0.000	0.000	2.695	1.626	1.611	1.597	1.606	1.592	1.577
-0.005	0.005	0.005	-0.005	0.005	-0.020	0.000	2.671	1.631	1.616	1.602	1.606	1.597	1.577
-0.010	0.000	0.000	-0.005	0.000	0.000	0.000	2.671	1.631	1.616	1.602	1.611	1.597	1.587
0.005	-0.005	0.000	-0.005	0.000	-0.015	0.000	2.695	1.641	1.621	1.611	1.616	1.602	1.587
0.005	-0.005	-0.005	-0.005	0.000	0.010	0.000	2.690	1.646	1.626	1.611	1.616	1.606	1.602
-0.005	-0.005	-0.005	-0.005	0.000	0.000	0.000	2.656	1.646	1.631	1.621	1.626	1.611	1.602
-0.005	-0.005	-0.005	-0.005	0.000	0.000	0.000	2.671	1.650	1.636	1.626	1.631	1.616	1.606
-0.005	0.000	0.000	-0.005	-0.005	0.000	0.000	2.666	1.650	1.646	1.631	1.636	1.621	1.606
-0.005	0.000	0.000	0.000	-0.005	0.000	0.000	2.681	1.660	1.646	1.636	1.641	1.626	1.611
-0.005	0.005	-0.005	0.000	-0.005	-0.020	0.000	2.681	1.665	1.650	1.641	1.646	1.626	1.611
0.000	0.015	0.000	0.000	-0.005	0.005	0.000	2.681	1.665	1.655	1.646	1.650	1.631	1.626
-0.005	0.000	-0.005	0.000	-0.005	-0.005	0.000	2.666	1.665	1.655	1.646	1.655	1.641	1.626
0.000	0.000	-0.005	0.000	0.000	-0.010	0.000	2.656	1.665	1.655	1.646	1.655	1.646	1.626
-0.010	0.000	-0.005	0.000	0.005	0.005	0.000	2.778	1.680	1.660	1.650	1.660	1.646	1.636
-0.005	-0.010	-0.005	0.000	0.005	-0.010	0.000	2.637	1.675	1.660	1.650	1.660	1.646	1.636
-0.005	-0.005	0.000	-0.005	0.000	0.000	0.000	2.651	1.675	1.660	1.650	1.660	1.650	1.641
-0.010	-0.029	-0.005	-0.005	0.000	0.005	0.000	2.637	1.675	1.655	1.650	1.665	1.650	1.646
-0.005	-0.029	0.000	0.000	-0.005	0.000	0.000	2.686	1.685	1.665	1.655	1.665	1.650	1.646
0.000	-0.015	-0.005	-0.005	0.000	-0.005	0.000	2.710	1.689	1.670	1.660	1.665	1.655	1.646
-0.005	-0.010	-0.005	-0.005	0.005	0.000	0.000	2.661	1.689	1.680	1.660	1.670	1.660	1.650
-0.005	-0.020	-0.005	-0.010	0.005	-0.005	0.000	2.720	1.699	1.680	1.665	1.675	1.660	1.655
0.005	-0.015	-0.005	-0.005	0.005	-0.010	0.000	2.690	1.699	1.685	1.675	1.680	1.670	1.660
0.000	0.005	-0.005	-0.005	-0.005	0.000	0.000	2.754	1.714	1.699	1.680	1.685	1.670	1.660
-0.005	0.010	-0.005	0.000	-0.005	-0.010	0.000	2.725	1.714	1.709	1.689	1.694	1.675	1.665
0.000	0.010	0.000	-0.005	-0.005	0.000	0.000	2.725	1.719	1.709	1.694	1.699	1.680	1.670
0.000	0.010	-0.005	0.000	-0.005	0.000	0.000	2.744	1.729	1.714	1.699	1.704	1.685	1.675
-0.005	-0.005	-0.005	0.000	-0.010	-0.005	0.000	2.720	1.729	1.714	1.699	1.709	1.689	1.675
-0.005	0.000	-0.005	0.000	-0.005	-0.020	0.000	2.646	1.719	1.714	1.704	1.714	1.694	1.680
-0.005	0.000	0.000	0.000	-0.005	-0.024	0.000	2.651	1.719	1.714	1.709	1.714	1.699	1.685
-0.005	0.005	-0.005	0.000	-0.005	0.010	0.000	2.705	1.719	1.714	1.709	1.719	1.704	1.699
-0.005	0.000	0.000	0.000	-0.010	-0.020	0.000	2.681	1.724	1.714	1.709	1.719	1.709	1.689
0.000	0.005	0.000	-0.005	-0.005	0.005	0.000	2.661	1.724	1.719	1.709	1.719	1.709	1.704
0.005	0.000	0.000	-0.005	-0.005	0.000	0.000	2.695	1.729	1.714	1.709	1.719	1.709	1.699
0.000	-0.010	0.000	-0.005	-0.005	0.010	0.000	2.700	1.729	1.719	1.709	1.724	1.714	1.704
0.005	-0.005	-0.010	-0.005	0.000	0.000	0.000	2.686	1.733	1.719	1.709	1.724	1.714	1.709
0.005	-0.005	-0.005	-0.005	-0.005	0.000	0.000	2.695	1.733	1.719	1.714	1.724	1.714	1.709
0.000	-0.005	0.000	-0.005	-0.005	0.005	0.000	2.671	1.733	1.724	1.714	1.729	1.719	1.709
0.000	-0.010	0.000	-0.005	0.000	-0.005	0.000	2.681	1.738	1.724	1.719	1.729	1.719	1.714
0.000	-0.005	0.000	-0.005	0.000	-0.005	0.000	2.690	1.743	1.729	1.724	1.733	1.724	1.714
0.005	-0.005	0.000	-0.005	-0.005	-0.005	0.000	2.671	1.748	1.733	1.724	1.738	1.724	1.719
-0.005	0.000	-0.005	-0.005	-0.005	-0.010	0.000	2.705	1.753	1.743	1.733	1.743	1.733	1.724
-0.010	0.000	0.000	0.000	-0.005	0.005	0.000	2.686	1.753	1.743	1.733	1.743	1.733	1.729
-0.005	0.000	-0.005	0.000	-0.005	-0.010	-0.005	2.671	1.758	1.748	1.738	1.748	1.733	1.724
-0.005	0.010	-0.005	0.000	-0.005	0.005	0.000	2.671	1.758	1.748	1.738	1.753	1.738	1.733
-0.005	0.000	0.005	0.000	-0.010	-0.005	0.000	2.676	1.758	1.748	1.743	1.753	1.743	1.733
-0.010	0.000	-0.005	0.000	-0.005	0.010	0.000	2.666	1.753	1.748	1.743	1.753	1.748	1.738
0.000	-0.005	-0.005	0.000	0.000	-0.010	0.000	2.671	1.753	1.748	1.743	1.758	1.743	1.733
-0.005	-0.010	-0.005	0.000	0.000	-0.020	0.000	2.676	1.758	1.743	1.743	1.758	1.743	1.733
-0.010	-0.015	0.005	0.000	-0.005	0.005	0.000	2.676	1.758	1.743	1.738	1.758	1.748	1.738
-0.005	-0.015	0.000	-0.005	-0.005	0.005	0.000	2.661	1.758	1.748	1.738	1.758	1.748	1.743
-0.005	-0.020	0.000	-0.005	-0.005	0.005	-0.005	2.676	1.758	1.748	1.743	1.758	1.748	1.748
-0.005	-0.015	-0.005	-0.005	0.000	0.005	0.000	2.681	1.763	1.748	1.743	1.758	1.753	1.748
-0.005	-0.010	0.005	-0.005	-0.005	0.000	0.000	2.656	1.763	1.753	1.743	1.758	1.753	1.748
0.000	-0.010	-0.005	-0.005	-0.005	-0.005	0.000	2.773	1.777	1.763	1.748	1.758	1.753	1.748
-0.005	0.000	-0.005	-0.005	-0.010	-0.020	0.000	2.646	1.782	1.768	1.753	1.763	1.753	1.743
0.000	0.000	-0.005	-0.005	-0.005	-0.005	0.000	2.642	1.777	1.772	1.758	1.768	1.758	1.753
-0.005	-0.010	-0.005	-0.005	-0.005	0.000	0.000	2.642	1.777	1.768	1.763	1.772	1.763	1.758
0.000	0.005	-0.005	0.000	-0.005	0.000	0.000	2.686	1.787	1.777	1.768	1.777	1.768	1.763
0.005	0.010	-0.005	0.000	0.000	0.000	0.000	2.651	1.782	1.782	1.768	1.782	1.768	1.768
0.005	0.010	-0.005	0.000	0.005	-0.005	0.000	2.661	1.782	1.782	1.772	1.787	1.777	1.768
-0.010	0.005	-0.005	0.000	-0.005	0.000	0.000	2.715	1.782	1.782	1.772	1.787	1.777	1.768
0.000	0.005	-0.010	0.000	-0.010	0.000	0.000	2.661	1.782	1.782	1.772	1.787	1.777	1.772
-0.005	-0.005	-0.010	-0.005	-0.005	0.000	0.000	2.642	1.782	1.777	1.777	1.787	1.777	1.772
0.005	-0.010	-0.005	0.005	0.000	0.005	0.000	2.734	1.792	1.777	1.772	1.792	1.782	1.777
0.000	-0.010	-0.005	0.000	0.000	-0.005	0.000	2.729	1.797	1.777	1.777	1.787	1.782	1.777
0.005	-0.020	-0.005	0.000	-0.005	-0.005	0.000	2.651	1.802	1.782	1.772	1.787	1.782	1.772
0.000	-0.039	-0.005	-0.005	-0.005	-0.015	0.000	2.715	1.797	1.777	1.772	1.787	1.777	1.777
0.000	-0.024	-0.005	-0.005	0.000	-0.005	0.000	2.622	1.802	1.787	1.777	1.792	1.782	1.782
0.000	-0.010	-0.005	-0.005	0.010	-0.005	0.000	2.666	1.797	1.792	1.782	1.797	1.787	1.777
-0.005	-0.010	0.000	-0.005	0.005	0.000	0.000	2.671	1.797	1.792	1.782	1.797	1.787	1.782
-0.005	-0.015	0.005	-0.005	0.000	0.000	0.000	2.700	1.802	1.792	1.787	1.797	1.787	1.787
-0.005	-0.015	-0.005	-0.005	-0.005	-0.005	0.000	2.690	1.807	1.797	1.787	1.802	1.787	1.787
0.005	-0.015	-0.005	-0.005	-0.005	0.000	0.000	2.676	1.802	1.802	1.792	1.802	1.792	1.792
0.000	0.000	0.000	-0.005	0.000	0.005	0.000	2.671	1.807	1.807	1.797	1.812	1.797	1.797
-0.005	0.000	-0.005	0.000	-0.005	-0.005	0.000	2.676	1.807	1.807	1.797	1.812	1.802	1.797
0.000	0.005	-0.005	0.000	0.000	-0.010	0.000	2.700	1.812	1.807	1.802	1.816	1.802	1.797
-0.005	-0.005	0.005	0.000	-0.005	0.005	0.000	2.686	1.812	1.807	1.802	1.816	1.807	1.802
-0.005	-0.005	0.005	0.000	-0.005	0.010	0.000	2.690	1.812	1.807	1.802	1.816	1.807	1.807
-0.005	0.000	0.000	0.000	-0.005	0.010	0.000	2.661	1.807	1.807	1.807	1.816	1.807	1.807
-0.005	0.005	-0.005	0.000	0.005	0.005	0.000	2.666	1.812	1.807	1.802	1.821	1.812	1.807
-0.010	-0.010	0.000	-0.005	-0.005	-0.005	0.000	2.700	1.812	1.802	1.802	1.821	1.812	1.802
-0.005	0.005	0.000	0.000	0.000	-0.005	0.000	2.671	1.812	1.812	1.802	1.816	1.812	1.802
-0.005	0.000	-0.005	-0.005	-0.005	0.010	0.000	2.671	1.812	1.802	1.797	1.816	1.812	1.812
-0.015	-0.010	-0.005	-0.005	-0.010	0.000	0.000	2.690	1.812	1.802	1.797	1.816	1.807	1.807
0.000	-0.010	-0.005	-0.005	-0.015	-0.010	0.000	2.676	1.816	1.807	1.797	1.816	1.807	1.807
0.000	-0.005	0.000	-0.005	-0.010	0.005	0.000	2.690	1.816	1.807	1.802	1.816	1.807	1.807
0.000	0.000	0.000	-0.005	-0.010	-0.005	0.000	2.671	1.816	1.812	1.802	1.821	1.812	1.807
-0.005	0.015	0.000	-0.005	-0.015	-0.005	0.000	2.695	1.821	1.816	1.807	1.821	1.812	1.807
0.000	0.010	-0.005	-0.005	-0.005	-0.005	0.000	2.666	1.821	1.816	1.812	1.826	1.816	1.812
0.000	0.005	-0.010	-0.005	0.010	-0.005	0.000	2.661	1.821	1.821	1.812	1.826	1.821	1.816
0.000	0.015	-0.005	-0.005	0.015	-0.005	0.000	2.676	1.826	1.821	1.816	1.831	1.826	1.821
0.000	0.005	-0.005	0.000	0.010	-0.024	0.000	2.686	1.831	1.821	1.816	1.831	1.826	1.816
-0.005	0.005	-0.005	-0.005	0.005	0.000	0.000	2.661	1.826	1.821	1.821	1.836	1.826	1.826
0.000	0.010	-0.005	0.000	0.000	0.000	0.000	2.783	1.826	1.826	1.821	1.836	1.826	1.821
-0.005	0.010	0.000	0.000	-0.005	0.005	0.000	2.788	1.841	1.831	1.821	1.836	1.826	1.826
-0.010	-0.005	0.000	0.000	0.005	-0.005	0.000	2.651	1.831	1.821	1.821	1.836	1.831	1.826
-0.005	0.024	-0.005	0.000	0.000	0.005	0.000	2.725	1.836	1.831	1.821	1.836	1.831	1.826
-0.005	-0.024	-0.005	0.000	-0.005	0.005	0.000	2.686	1.836	1.821	1.821	1.836	1.831	1.831
0.000	-0.024	-0.005	0.000	-0.005	0.005	0.000	2.642	1.826	1.816	1.816	1.836	1.826	1.831
-0.005	-0.010	-0.005	-0.005	0.000	0.005	0.000	2.671	1.826	1.821	1.816	1.836	1.826	1.826
-0.005	-0.020	-0.005	-0.005	0.005	0.000	0.000	2.734	1.836	1.821	1.816	1.831	1.826	1.826
-0.005	-0.010	0.000	-0.005	0.000	0.000	0.000	2.676	1.836	1.821	1.816	1.831	1.826	1.826
0.000	-0.024	-0.005	-0.005	-0.010	-0.005	0.000	2.720	1.836	1.826	1.816	1.836	1.826	1.826
-0.010	-0.024	-0.005	-0.005	-0.005	-0.005	0.000	2.705	1.836	1.826	1.821	1.836	1.831	1.821
-0.005	-0.010	-0.005	-0.005	-0.005	0.000	0.000	2.637	1.836	1.836	1.826	1.836	1.831	1.831
-0.005	-0.010	-0.005	-0.005	-0.015	0.005	0.000	2.651	1.831	1.836	1.826	1.841	1.831	1.831
-0.005	-0.010	0.000	-0.005	-0.015	0.000	0.000	2.710	1.831	1.831	1.831	1.846	1.836	1.831
0.010	0.005	-0.005	0.000	0.000	0.000	0.000	2.700	1.841	1.841	1.831	1.846	1.841	1.836
0.000	0.000	-0.005	0.000	-0.010	0.005	0.000	2.646	1.841	1.836	1.831	1.851	1.841	1.836
0.000	0.010	0.000	0.000	-0.005	0.000	0.000	2.666	1.841	1.841	1.836	1.851	1.846	1.836
0.005	0.005	-0.005	0.000	0.000	-0.005	0.000	2.661	1.846	1.841	1.836	1.851	1.846	1.841
-0.005	0.015	-0.005	0.000	0.010	-0.005	0.000	2.690	1.841	1.836	1.836	1.855	1.851	1.841
0.000	0.010	-0.005	0.000	-0.005	-0.029	0.000	2.695	1.846	1.841	1.836	1.851	1.846	1.836
0.000	0.015	-0.005	0.000	0.000	-0.005	0.000	2.690	1.846	1.841	1.836	1.851	1.846	1.846
0.000	0.000	-0.005	0.000	-0.005	-0.010	0.000	2.686	1.846	1.836	1.836	1.851	1.846	1.841
-0.005	-0.015	-0.010	0.000	0.005	0.000	0.000	2.671	1.841	1.831	1.831	1.846	1.846	1.846
0.005	-0.010	-0.005	0.000	0.005	0.010	0.000	2.690	1.846	1.831	1.831	1.851	1.846	1.846
-0.020	-0.015	0.000	-0.005	-0.005	0.010	0.000	2.661	1.841	1.831	1.831	1.846	1.841	1.846
0.000	-0.005	0.000	-0.005	-0.005	-0.015	0.000	2.676	1.846	1.836	1.831	1.846	1.841	1.836
-0.005	-0.010	-0.005	-0.005	-0.010	0.015	0.000	2.690	1.846	1.836	1.831	1.846	1.841	1.846
0.000	0.000	0.000	-0.005	-0.005	0.005	0.000	2.671	1.851	1.846	1.836	1.851	1.841	1.846
0.005	0.005	-0.005	-0.005	-0.015	0.015	0.000	2.705	1.855	1.846	1.836	1.851	1.841	1.846
0.000	0.010	0.000	-0.005	-0.010	0.005	0.000	2.695	1.860	1.855	1.841	1.855	1.851	1.846
0.005	0.000	-0.005	0.000	-0.010	0.000	0.000	2.656	1.855	1.855	1.846	1.860	1.851	1.846
-0.005	0.010	0.000	0.000	-0.005	0.005	0.000	2.695	1.855	1.855	1.851	1.860	1.855	1.851
-0.005	0.020	-0.005	0.000	0.000	0.005	0.000	2.676	1.860	1.860	1.851	1.865	1.855	1.855
0.000	-0.005	0.000	-0.005	0.000	0.005	0.000	2.705	1.860	1.855	1.851	1.865	1.860	1.855
0.005	0.000	-0.005	0.000	0.000	-0.005	-0.005	2.686	1.860	1.855	1.851	1.865	1.860	1.855
-0.005	0.000	0.000	0.000	0.000	-0.005	0.000	2.695	1.865	1.855	1.851	1.870	1.860	1.855
-0.005	0.015	0.000	0.000	0.000	0.010	-0.005	2.700	1.860	1.855	1.851	1.870	1.860	1.860
0.000	0.010	-0.005	0.000	0.000	0.000	0.000	2.666	1.855	1.855	1.851	1.870	1.860	1.855
-0.010	0.000	-0.005	0.000	-0.005	-0.010	0.000	2.676	1.851	1.851	1.851	1.865	1.855	1.855
-0.005	-0.005	0.000	-0.005	-0.010	0.010	0.000	2.656	1.846	1.846	1.846	1.860	1.855	1.860
0.000	-0.005	-0.005	0.000	-0.020	-0.015	0.000	2.773	1.860	1.846	1.846	1.860	1.851	1.851
-0.010	0.000	-0.005	-0.005	-0.015	0.010	0.000	2.632	1.851	1.846	1.846	1.865	1.855	1.860
0.000	0.000	0.000	-0.005	-0.005	0.010	0.000	2.651	1.851	1.846	1.846	1.865	1.860	1.860
0.000	-0.029	0.005	-0.005	0.000	0.000	0.000	2.637	1.846	1.841	1.841	1.865	1.860	1.860
0.000	0.000	0.000	-0.005	0.000	0.000	0.000	2.681	1.855	1.851	1.846	1.865	1.860	1.860
0.000	0.000	-0.005	-0.010	0.000	-0.005	0.000	2.715	1.860	1.851	1.846	1.865	1.860	1.860
0.000	0.000	-0.005	-0.005	0.000	-0.005	0.000	2.690	1.865	1.860	1.851	1.865	1.865	1.860
-0.010	0.015	-0.010	-0.005	-0.005	-0.005	0.000	2.705	1.865	1.865	1.855	1.870	1.865	1.865
-0.010	-0.005	-0.005	0.000	-0.005	-0.020	0.000	2.686	1.865	1.860	1.855	1.870	1.860	1.860
-0.010	-0.005	-0.005	-0.005	-0.005	-0.005	0.000	2.720	1.870	1.860	1.860	1.870	1.865	1.865
0.000	-0.020	0.000	0.000	-0.005	-0.005	0.000	2.729	1.875	1.860	1.860	1.875	1.865	1.865
-0.005	-0.005	0.000	0.000	-0.005	-0.005	0.000	2.627	1.865	1.865	1.860	1.875	1.870	1.865
-0.015	-0.015	-0.005	0.000	-0.005	-0.005	0.000	2.725	1.865	1.865	1.855	1.875	1.870	1.865
-0.015	-0.010	0.000	0.000	-0.005	0.000	0.000	2.710	1.865	1.860	1.860	1.875	1.870	1.870
-0.005	-0.005	-0.005	0.000	0.005	-0.015	0.000	2.646	1.870	1.860	1.855	1.875	1.870	1.865
-0.010	-0.010	0.000	-0.005	0.000	0.010	0.000	2.646	1.870	1.860	1.855	1.870	1.870	1.870
-0.005	-0.005	-0.005	-0.005	0.000	-0.005	0.000	2.690	1.865	1.860	1.855	1.870	1.865	1.865
-0.005	-0.010	-0.005	-0.005	-0.005	0.000	0.000	2.690	1.865	1.860	1.855	1.870	1.865	1.865
-0.005	0.005	-0.005	-0.005	0.000	-0.010	0.000	2.686	1.870	1.865	1.860	1.870	1.865	1.865
-0.005	0.005	0.000	-0.005	0.000	-0.005	0.000	2.686	1.865	1.865	1.860	1.870	1.870	1.865
0.000	0.005	-0.005	0.000	-0.005	0.015	0.000	2.686	1.865	1.865	1.860	1.875	1.870	1.870
-0.005	0.005	0.000	-0.005	-0.010	0.020	0.000	2.695	1.870	1.865	1.860	1.875	1.870	1.870
0.000	0.010	0.000	-0.005	-0.010	0.005	0.000	2.700	1.875	1.870	1.865	1.880	1.870	1.870
0.000	0.005	-0.005	-0.005	-0.005	-0.005	-0.005	2.690	1.870	1.870	1.865	1.880	1.875	1.870
0.000	0.015	-0.010	-0.005	-0.005	0.000	0.000	2.661	1.875	1.875	1.865	1.885	1.875	1.875
0.000	0.000	-0.005	0.000	0.000	-0.005	0.000	2.686	1.865	1.870	1.870	1.885	1.875	1.875
-0.005	0.005	0.000	0.000	0.005	-0.020	0.000	2.666	1.870	1.870	1.870	1.885	1.880	1.870
-0.005	0.015	0.000	0.000	0.010	0.005	-0.005	2.700	1.870	1.870	1.870	1.885	1.885	1.880
-0.005	0.010	-0.005	0.000	0.000	0.000	0.000	2.666	1.870	1.865	1.865	1.885	1.875	1.880
0.005	0.005	-0.005	0.000	0.005	-0.010	0.000	2.686	1.870	1.870	1.865	1.885	1.880	1.875
-0.005	0.000	-0.010	0.000	0.024	-0.005	0.000	2.666	1.870	1.865	1.865	1.885	1.885	1.880
-0.010	-0.005	-0.010	0.000	0.024	-0.010	0.000	2.656	1.865	1.860	1.860	1.880	1.880	1.880
-0.010	-0.005	-0.005	0.000	0.015	-0.010	0.000	2.700	1.870	1.860	1.855	1.875	1.875	1.875
-0.005	0.000	-0.005	0.000	0.005	-0.020	0.000	2.690	1.870	1.865	1.855	1.875	1.875	1.875
-0.010	-0.005	0.000	-0.005	0.015	-0.015	0.000	2.695	1.870	1.865	1.860	1.875	1.870	1.870
-0.015	-0.010	0.005	-0.005	0.020	-0.015	0.000	2.695	1.870	1.860	1.860	1.875	1.875	1.875
0.005	-0.020	0.000	-0.005	0.024	-0.020	0.000	2.671	1.870	1.865	1.860	1.875	1.875	1.875
-0.005	-0.005	0.000	-0.005	0.024	-0.015	-0.005	2.661	1.870	1.870	1.860	1.875	1.870	1.875
0.000	-0.005	0.000	-0.005	0.015	-0.005	0.000	2.676	1.875	1.870	1.865	1.875	1.870	1.875
0.000	-0.005	0.000	-0.005	0.010	-0.010	0.000	2.661	1.870	1.870	1.865	1.880	1.870	1.870
0.000	0.000	0.000	-0.005	0.000	-0.015	0.000	2.788	1.885	1.875	1.870	1.885	1.875	1.875
0.000	-0.005	0.000	0.000	-0.005	0.000	0.000	2.637	1.885	1.880	1.870	1.885	1.875	1.875
0.010	-0.005	-0.010	0.000	-0.010	0.000	0.000	2.632	1.875	1.875	1.870	1.885	1.875	1.880
-0.005	-0.005	-0.005	0.000	-0.010	0.000	0.000	2.637	1.870	1.875	1.870	1.885	1.875	1.880
-0.015	-0.005	-0.010	0.000	-0.020	0.005	0.000	2.671	1.870	1.870	1.870	1.885	1.880	1.880
0.000	-0.010	-0.005	0.005	-0.015	0.005	0.000	2.607	1.865	1.870	1.875	1.890	1.880	1.875
-0.005	-0.005	-0.005	0.000	-0.024	0.005	0.000	2.686	1.870	1.865	1.870	1.885	1.875	1.875
-0.010	-0.015	0.000	0.000	-0.024	0.010	0.000	2.729	1.870	1.865	1.870	1.885	1.875	1.880
-0.005	-0.010	0.000	0.000	-0.020	0.015	0.000	2.686	1.870	1.865	1.865	1.880	1.880	1.880
-0.005	-0.005	0.000	-0.005	-0.024	0.010	0.000	2.637	1.870	1.865	1.865	1.880	1.875	1.875
-0.005	-0.010	0.000	-0.005	-0.020	0.015	0.000	2.710	1.870	1.865	1.865	1.880	1.875	1.875
-0.005	-0.005	0.000	-0.005	-0.020	0.015	0.000	2.617	1.860	1.865	1.865	1.880	1.875	1.875
-0.005	-0.015	0.000	-0.005	-0.015	-0.005	-0.005	2.734	1.875	1.865	1.860	1.880	1.875	1.875
-0.005	-0.005	0.000	-0.005	-0.020	0.005	0.000	2.725	1.880	1.870	1.865	1.880	1.875	1.875
0.005	-0.010	-0.005	-0.005	-0.020	0.005	0.000	2.632	1.880	1.870	1.865	1.880	1.875	1.880
-0.005	-0.015	0.005	-0.005	-0.020	-0.010	0.000	2.656	1.880	1.875	1.870	1.880	1.875	1.875
-0.010	-0.020	0.000	-0.005	-0.010	-0.010	0.000	2.666	1.875	1.870	1.870	1.885	1.880	1.880
0.000	0.000	-0.005	-0.005	-0.010	0.005	0.000	2.695	1.880	1.880	1.870	1.890	1.880	1.885
-0.005	0.000	-0.010	0.000	-0.010	0.005	-0.005	2.686	1.885	1.880	1.875	1.890	1.885	1.885
0.005	0.005	-0.005	0.000	-0.010	0.000	0.000	2.681	1.885	1.885	1.875	1.890	1.885	1.880
-0.010	0.005	-0.010	0.000	-0.015	0.000	0.000	2.700	1.880	1.885	1.875	1.895	1.885	1.885
0.005	0.010	0.000	-0.005	-0.005	0.005	0.000	2.695	1.885	1.885	1.880	1.895	1.890	1.885
0.000	0.005	0.005	0.000	0.005	0.000	0.000	2.700	1.880	1.880	1.880	1.895	1.890	1.885
0.000	-0.010	0.005	0.000	-0.005	0.000	-0.005	2.676	1.880	1.875	1.875	1.895	1.890	1.885
-0.005	-0.005	0.000	0.000	0.000	-0.005	0.000	2.666	1.875	1.875	1.875	1.895	1.890	1.885
-0.005	0.010	-0.005	-0.005	0.000	0.005	0.000	2.671	1.870	1.875	1.875	1.890	1.885	1.885
0.005	0.015	-0.005	-0.005	0.000	-0.005	0.000	2.661	1.870	1.875	1.875	1.890	1.885	1.885
-0.010	0.005	-0.005	-0.005	0.005	-0.005	0.000	2.661	1.865	1.870	1.870	1.885	1.885	1.880
-0.005	0.005	-0.005	-0.005	0.005	0.000	0.000	2.695	1.870	1.870	1.870	1.885	1.885	1.885
0.000	0.000	-0.005	-0.005	0.015	0.005	0.000	2.695	1.875	1.870	1.870	1.885	1.885	1.885
-0.005	0.000	-0.005	-0.005	0.020	0.000	0.000	2.695	1.875	1.870	1.870	1.885	1.885	1.885
-0.005	-0.005	-0.005	-0.005	0.020	0.000	0.000	2.695	1.875	1.870	1.870	1.885	1.885	1.890
0.005	-0.005	-0.010	-0.005	0.005	-0.005	0.000	2.661	1.880	1.875	1.870	1.885	1.880	1.885
-0.005	0.005	-0.005	-0.005	-0.005	-0.010	0.000	2.656	1.875	1.880	1.875	1.890	1.880	1.880
0.000	0.000	0.000	0.000	0.010	-0.015	0.000	2.671	1.880	1.880	1.875	1.895	1.890	1.885
-0.010	0.010	-0.005	0.000	0.010	-0.005	0.000	2.705	1.885	1.880	1.880	1.895	1.890	1.885
-0.005	0.005	-0.005	0.000	0.005	-0.005	0.000	2.666	1.885	1.885	1.880	1.895	1.890	1.890
0.000	0.000	-0.010	0.000	-0.005	-0.010	0.000	2.671	1.880	1.880	1.880	1.895	1.885	1.885
-0.010	0.005	-0.005	0.000	0.000	-0.005	0.000	2.681	1.880	1.880	1.875	1.895	1.890	1.890
-0.005	0.000	-0.005	0.000	0.000	-0.010	0.000	2.642	1.875	1.880	1.875	1.895	1.890	1.885
0.000	-0.010	-0.005	0.000	0.005	-0.010	0.000	2.773	1.890	1.875	1.875	1.895	1.890	1.885
0.000	-0.005	0.000	0.000	0.000	-0.015	0.000	2.637	1.899	1.880	1.875	1.890	1.885	1.885
0.000	-0.005	-0.005	0.000	0.000	-0.010	0.000	2.646	1.885	1.880	1.875	1.890	1.885	1.885
0.000	-0.005	0.005	-0.005	-0.010	-0.005	0.000	2.622	1.880	1.880	1.875	1.890	1.880	1.885
0.000	-0.020	0.000	0.000	-0.015	-0.015	0.000	2.666	1.880	1.875	1.875	1.890	1.880	1.880
-0.010	-0.015	0.000	-0.005	-0.005	-0.005	0.000	2.710	1.875	1.875	1.875	1.890	1.885	1.885
-0.010	-0.010	-0.005	-0.005	-0.005	-0.020	0.000	2.671	1.875	1.875	1.875	1.890	1.885	1.880
0.000	-0.010	-0.005	-0.005	0.005	-0.005	0.000	2.725	1.885	1.875	1.875	1.890	1.890	1.885
0.000	-0.005	-0.005	-0.005	0.005	0.015	0.000	2.681	1.885	1.885	1.875	1.895	1.890	1.895
0.000	-0.010	0.000	-0.005	0.000	0.000	0.000	2.734	1.895	1.885	1.880	1.895	1.890	1.890
0.000	-0.005	0.000	0.000	0.000	0.015	0.000	2.705	1.895	1.890	1.885	1.899	1.895	1.895
-0.010	0.000	-0.005	-0.005	0.005	0.000	0.000	2.710	1.895	1.890	1.885	1.899	1.895	1.895
-0.005	0.015	-0.010	0.000	-0.010	0.005	0.000	2.705	1.895	1.899	1.890	1.899	1.890	1.895
0.005	-0.010	0.000	-0.005	-0.015	-0.005	0.000	2.725	1.899	1.890	1.890	1.904	1.890	1.895
-0.005	-0.010	-0.005	0.000	-0.015	0.005	0.000	2.622	1.885	1.890	1.890	1.904	1.895	1.895
-0.010	-0.015	0.005	0.000	0.000	0.000	0.000	2.666	1.885	1.885	1.890	1.909	1.899	1.895
-0.010	-0.010	0.000	0.000	0.005	-0.005	0.000	2.676	1.880	1.880	1.880	1.904	1.899	1.895
0.000	-0.015	-0.005	0.000	0.000	-0.010	0.000	2.686	1.885	1.880	1.880	1.899	1.895	1.895
-0.010	-0.010	-0.005	0.000	-0.010	-0.015	0.000	2.681	1.880	1.880	1.880	1.899	1.890	1.895
-0.005	-0.005	0.000	-0.005	0.000	0.005	0.000	2.686	1.880	1.880	1.880	1.899	1.895	1.895
0.000	-0.015	0.000	-0.005	0.010	0.000	0.000	2.686	1.880	1.875	1.875	1.895	1.895	1.899
-0.005	0.010	0.000	-0.005	-0.005	-0.005	0.000	2.681	1.880	1.885	1.875	1.895	1.890	1.890
-0.005	0.005	0.000	-0.005	0.005	0.005	0.000	2.686	1.880	1.880	1.880	1.895	1.890	1.895
0.000	0.005	0.000	-0.005	-0.005	-0.010	0.000	2.676	1.885	1.885	1.875	1.895	1.890	1.890
-0.005	0.000	-0.005	-0.005	0.005	0.010	0.000	2.695	1.890	1.880	1.880	1.895	1.890	1.895
-0.005	0.000	-0.005	-0.005	-0.005	0.005	0.000	2.666	1.885	1.885	1.880	1.899	1.890	1.895
-0.005	0.005	-0.005	-0.005	-0.005	-0.024	0.000	2.656	1.885	1.885	1.885	1.899	1.895	1.890
-0.010	0.000	-0.005	0.000	-0.005	0.000	0.000	2.695	1.890	1.885	1.885	1.904	1.895	1.899
0.005	0.005	-0.005	-0.005	-0.005	-0.024	0.000	2.695	1.895	1.890	1.885	1.904	1.895	1.890
0.000	0.000	0.000	0.000	-0.005	-0.010	0.000	2.666	1.890	1.890	1.885	1.904	1.895	1.899
-0.010	-0.005	-0.005	0.000	-0.010	0.005	0.000	2.676	1.885	1.885	1.885	1.904	1.895	1.899
0.000	-0.005	-0.005	0.000	0.000	-0.010	0.000	2.666	1.890	1.885	1.885	1.904	1.899	1.899
0.000	-0.005	0.000	0.000	0.010	0.005	-0.005	2.661	1.885	1.885	1.885	1.904	1.904	1.899
0.005	-0.005	0.005	0.000	0.000	-0.010	0.000	2.681	1.885	1.885	1.885	1.899	1.899	1.895
-0.010	-0.015	0.000	0.000	-0.005	0.005	0.000	2.671	1.880	1.875	1.880	1.904	1.895	1.899
0.000	-0.015	-0.010	-0.005	-0.010	0.010	0.000	2.690	1.880	1.875	1.870	1.895	1.890	1.895
-0.005	-0.015	-0.005	-0.005	-0.010	0.000	0.000	2.676	1.880	1.875	1.875	1.895	1.890	1.890
0.005	0.000	-0.005	-0.005	-0.005	0.000	0.000	2.671	1.880	1.880	1.875	1.890	1.890	1.890
-0.005	-0.005	-0.005	-0.005	0.005	0.000	0.000	2.676	1.875	1.875	1.875	1.895	1.890	1.890
0.000	-0.005	0.005	-0.005	0.000	0.005	0.000	2.656	1.880	1.875	1.875	1.890	1.895	1.890
-0.005	-0.010	0.000	-0.005	-0.005	-0.010	0.000	2.764	1.890	1.875	1.875	1.890	1.890	1.890
-0.005	-0.005	0.005	-0.005	-0.010	0.000	0.000	2.646	1.885	1.880	1.880	1.895	1.890	1.890
-0.005	-0.010	0.000	-0.005	-0.005	0.000	-0.005	2.651	1.885	1.880	1.875	1.895	1.890	1.890
-0.005	-0.005	0.000	-0.005	0.010	-0.010	0.000	2.646	1.880	1.880	1.880	1.899	1.895	1.895
-0.005	0.000	-0.005	0.000	0.020	-0.005	0.000	2.681	1.890	1.890	1.885	1.899	1.899	1.895
0.000	-0.015	0.000	0.000	0.000	0.000	0.000	2.627	1.885	1.885	1.885	1.899	1.895	1.895
-0.010	0.005	0.000	0.000	-0.005	-0.005	0.000	2.690	1.890	1.890	1.885	1.904	1.895	1.890
-0.005	0.015	0.000	0.000	-0.005	-0.015	0.000	2.710	1.890	1.890	1.885	1.904	1.895	1.895
-0.005	0.005	-0.005	0.000	-0.005	-0.010	0.000	2.695	1.890	1.890	1.885	1.904	1.895	1.895
-0.005	0.005	0.000	0.000	-0.010	0.000	0.000	2.612	1.885	1.890	1.885	1.904	1.895	1.895
0.005	0.005	-0.005	0.000	-0.010	-0.015	0.000	2.715	1.890	1.885	1.885	1.899	1.895	1.890
-0.005	0.000	-0.005	0.000	-0.010	0.005	-0.005	2.695	1.870	1.875	1.880	1.899	1.895	1.899
0.000	-0.010	-0.005	-0.005	-0.005	0.005	0.000	2.617	1.870	1.870	1.875	1.895	1.890	1.895
0.000	-0.005	-0.005	-0.005	-0.005	0.000	0.000	2.720	1.875	1.870	1.875	1.895	1.895	1.890
0.005	-0.005	-0.005	-0.005	0.000	0.005	0.000	2.642	1.875	1.870	1.875	1.890	1.895	1.895
-0.005	-0.005	0.000	-0.005	-0.005	-0.005	0.000	2.642	1.870	1.875	1.875	1.890	1.890	1.890
-0.010	-0.005	0.000	-0.005	-0.005	-0.005	0.000	2.671	1.875	1.870	1.870	1.890	1.890	1.890
-0.005	-0.015	0.000	-0.005	-0.010	-0.020	0.000	2.705	1.880	1.875	1.870	1.890	1.885	1.880
-0.010	-0.010	-0.005	-0.005	0.000	0.010	0.000	2.681	1.880	1.875	1.875	1.890	1.890	1.895
-0.005	-0.005	0.000	-0.005	0.000	0.005	0.000	2.705	1.890	1.880	1.875	1.890	1.890	1.890
0.000	0.000	0.000	-0.005	0.000	-0.010	0.000	2.671	1.895	1.890	1.880	1.895	1.895	1.895
-0.010	0.000	-0.005	0.000	-0.005	-0.020	0.000	2.671	1.890	1.890	1.885	1.895	1.890	1.890
0.000	0.010	-0.005	0.000	0.000	-0.010	0.000	2.690	1.895	1.890	1.885	1.899	1.895	1.890
-0.005	-0.005	-0.005	0.000	-0.005	0.010	0.000	2.695	1.890	1.885	1.885	1.904	1.895	1.899
-0.010	0.000	0.005	0.000	-0.015	0.005	0.000	2.666	1.890	1.895	1.890	1.904	1.895	1.899
0.000	0.005	0.000	0.000	-0.005	0.005	0.000	2.695	1.890	1.890	1.890	1.904	1.895	1.895
-0.005	0.010	0.000	0.000	-0.005	0.000	0.000	2.661	1.885	1.890	1.885	1.904	1.899	1.895
-0.010	0.000	-0.005	0.000	0.005	-0.005	0.000	2.695	1.890	1.885	1.885	1.899	1.899	1.895
0.000	-0.020	-0.005	0.000	0.000	-0.005	0.000	2.695	1.885	1.875	1.880	1.899	1.895	1.895
-0.005	-0.015	-0.005	-0.005	0.005	0.005	0.000	2.666	1.885	1.875	1.875	1.895	1.895	1.895
-0.005	-0.010	-0.005	0.000	0.000	-0.005	0.000	2.666	1.880	1.875	1.875	1.895	1.890	1.890
-0.005	-0.005	-0.005	-0.005	0.005	-0.010	-0.005	2.671	1.880	1.880	1.875	1.895	1.890	1.885
0.000	-0.015	0.000	-0.005	0.000	0.005	0.000	2.700	1.885	1.875	1.875	1.895	1.890	1.895
0.000	-0.020	0.000	-0.005	-0.005	-0.005	0.000	2.651	1.885	1.880	1.875	1.895	1.890	1.890
0.005	-0.005	0.000	-0.005	-0.005	0.000	0.000	2.695	1.890	1.885	1.880	1.895	1.890	1.895
-0.010	0.005	-0.005	-0.005	-0.005	0.000	0.000	2.705	1.885	1.885	1.880	1.899	1.890	1.890
-0.005	0.005	-0.005	0.000	-0.005	-0.020	0.000	2.661	1.890	1.890	1.885	1.899	1.895	1.890
0.000	0.015	-0.005	0.000	-0.010	0.000	0.000	2.676	1.890	1.895	1.890	1.904	1.895	1.899
-0.005	0.015	-0.005	0.000	0.005	-0.020	0.000	2.676	1.890	1.890	1.890	1.904	1.899	1.890
-0.005	0.000	-0.005	0.000	0.000	-0.024	0.000	2.651	1.885	1.885	1.890	1.904	1.899	1.895
0.000	0.010	-0.005	0.000	0.000	-0.015	0.000	2.769	1.899	1.890	1.885	1.909	1.899	1.899
-0.005	0.024	-0.005	0.000	0.000	0.000	0.000	2.632	1.890	1.899	1.890	1.909	1.904	1.904
0.000	0.020	0.000	0.000	0.000	0.005	0.000	2.646	1.885	1.895	1.890	1.904	1.899	1.904
-0.005	0.020	-0.005	0.000	-0.005	0.005	0.000	2.617	1.875	1.885	1.885	1.904	1.899	1.899
-0.005	0.010	-0.005	0.000	0.000	0.010	0.000	2.676	1.880	1.880	1.885	1.904	1.899	1.899
-0.005	0.015	-0.005	0.000	0.000	0.000	0.000	2.661	1.880	1.880	1.880	1.899	1.895	1.895
-0.005	0.010	-0.005	-0.005	0.000	0.000	0.000	2.686	1.885	1.880	1.875	1.899	1.899	1.895
-0.005	-0.005	-0.005	0.000	-0.005	0.005	0.000	2.710	1.885	1.875	1.875	1.895	1.895	1.899
-0.005	-0.015	0.000	-0.005	-0.005	-0.015	0.000	2.686	1.885	1.875	1.875	1.895	1.890	1.890
-0.005	-0.020	-0.005	-0.005	0.000	-0.005	0.000	2.705	1.890	1.870	1.875	1.895	1.890	1.895
0.000	0.000	-0.005	-0.005	0.000	-0.005	0.000	2.734	1.895	1.885	1.875	1.895	1.890	1.895
-0.005	0.010	0.000	-0.005	0.000	-0.010	0.000	2.686	1.899	1.895	1.885	1.895	1.895	1.895
0.000	-0.005	-0.005	-0.005	0.000	0.000	0.000	2.739	1.904	1.890	1.885	1.899	1.895	1.895
0.005	0.010	-0.005	0.000	-0.005	-0.010	0.000	2.700	1.909	1.899	1.890	1.899	1.895	1.895
-0.005	0.010	0.000	-0.005	0.000	-0.010	0.000	2.651	1.904	1.899	1.895	1.909	1.899	1.895
0.000	0.010	-0.005	0.000	-0.005	-0.015	0.000	2.637	1.895	1.904	1.895	1.909	1.899	1.899
0.000	0.000	-0.005	0.000	0.005	0.000	0.000	2.690	1.895	1.895	1.895	1.914	1.904	1.904
-0.010	0.005	0.000	0.000	0.000	0.000	-0.005	2.690	1.890	1.895	1.899	1.914	1.904	1.904
-0.005	-0.005	0.000	0.000	-0.010	-0.020	0.000	2.700	1.895	1.890	1.895	1.909	1.904	1.895
-0.005	-0.005	0.000	0.000	-0.005	0.000	0.000	2.676	1.890	1.890	1.890	1.909	1.904	1.904
0.000	-0.005	-0.005	0.000	-0.005	-0.005	0.000	2.695	1.890	1.890	1.890	1.909	1.904	1.904
-0.005	-0.005	-0.005	0.000	0.000	-0.005	0.000	2.671	1.890	1.885	1.890	1.904	1.904	1.904
0.000	-0.015	-0.005	0.000	-0.005	0.000	0.000	2.686	1.890	1.885	1.885	1.904	1.904	1.904
0.000	-0.024	-0.005	0.000	-0.005	0.000	0.000	2.661	1.885	1.885	1.885	1.899	1.899	1.904
0.000	-0.034	-0.005	-0.005	-0.005	0.000	0.000	2.681	1.890	1.875	1.880	1.904	1.899	1.899
0.005	-0.029	-0.005	-0.005	-0.005	0.000	0.000	2.690	1.885	1.880	1.880	1.899	1.899	1.899
0.010	-0.020	0.000	-0.005	-0.005	-0.024	0.000	2.666	1.890	1.885	1.880	1.899	1.895	1.890
0.000	-0.020	0.000	-0.005	0.000	0.000	0.000	2.690	1.890	1.885	1.880	1.899	1.899	1.899
0.000	-0.015	0.000	-0.005	-0.010	-0.005	0.000	2.686	1.890	1.890	1.885	1.899	1.899	1.899
0.005	-0.015	0.000	-0.005	0.000	0.005	0.000	2.690	1.895	1.890	1.885	1.899	1.899	1.899
0.000	-0.005	-0.005	-0.005	0.005	0.015	0.000	2.676	1.899	1.895	1.890	1.909	1.904	1.904
-0.005	-0.005	-0.005	0.000	0.000	0.000	0.000	2.666	1.895	1.895	1.890	1.904	1.899	1.904
-0.010	-0.005	-0.005	0.000	0.005	-0.005	0.000	2.695	1.895	1.895	1.895	1.909	1.904	1.899
-0.005	0.000	0.000	0.000	0.010	0.015	0.000	2.700	1.899	1.899	1.895	1.909	1.909	1.909
-0.010	0.000	0.000	0.000	0.005	-0.015	0.000	2.686	1.899	1.899	1.895	1.909	1.904	1.899
-0.010	0.000	-0.005	0.000	-0.005	-0.015	0.000	2.690	1.895	1.895	1.895	1.909	1.904	1.899
-0.005	0.000	-0.005	0.000	-0.005	0.010	0.000	2.671	1.895	1.895	1.895	1.909	1.904	1.909
-0.010	0.000	0.000	-0.005	-0.005	0.000	0.000	2.686	1.890	1.895	1.890	1.909	1.904	1.904
-0.005	-0.010	0.000	0.000	0.000	0.000	0.000	2.676	1.890	1.885	1.890	1.909	1.904	1.904
-0.005	-0.005	0.000	-0.005	-0.010	-0.005	0.000	2.656	1.885	1.880	1.885	1.904	1.899	1.899
0.000	-0.015	0.000	0.000	-0.005	-0.024	0.000	2.778	1.895	1.880	1.880	1.904	1.899	1.895
0.000	-0.005	-0.005	-0.005	-0.005	-0.010	0.000	2.783	1.904	1.890	1.880	1.899	1.899	1.895
0.000	-0.010	-0.005	-0.005	-0.005	0.000	0.000	2.651	1.899	1.890	1.885	1.899	1.899	1.904
0.005	-0.010	0.000	-0.005	-0.005	-0.005	0.000	2.729	1.904	1.895	1.885	1.904	1.899	1.895
-0.005	-0.005	-0.005	-0.005	-0.005	0.000	-0.005	2.671	1.899	1.899	1.890	1.904	1.899	1.899
0.005	0.010	0.000	-0.005	-0.005	-0.005	0.000	2.642	1.895	1.899	1.895	1.909	1.899	1.899
-0.005	0.010	-0.005	-0.005	-0.005	-0.024	0.000	2.666	1.895	1.899	1.895	1.909	1.904	1.895
-0.005	0.015	-0.005	0.000	-0.005	-0.024	0.000	2.744	1.899	1.899	1.895	1.914	1.904	1.899
0.000	0.015	-0.005	0.000	-0.005	0.010	0.000	2.681	1.899	1.899	1.899	1.914	1.909	1.914
0.000	0.015	-0.010	0.000	0.000	0.000	0.000	2.705	1.899	1.899	1.899	1.914	1.909	1.914
0.000	0.000	-0.005	0.000	-0.010	0.005	0.000	2.710	1.904	1.899	1.895	1.914	1.909	1.909
0.000	-0.005	0.000	0.000	0.000	0.005	0.000	2.705	1.904	1.899	1.899	1.919	1.914	1.909
0.000	0.000	-0.005	0.000	0.000	0.000	0.000	2.637	1.895	1.899	1.895	1.914	1.909	1.909
-0.010	0.005	-0.005	-0.005	0.000	0.000	0.000	2.622	1.885	1.895	1.895	1.914	1.909	1.909
-0.015	-0.005	0.000	0.000	0.000	0.005	0.000	2.642	1.890	1.885	1.890	1.914	1.909	1.909
0.000	-0.005	-0.005	0.000	0.000	0.000	0.000	2.642	1.890	1.885	1.885	1.909	1.904	1.904
-0.005	-0.005	0.000	-0.005	-0.005	-0.024	0.000	2.666	1.885	1.885	1.885	1.909	1.904	1.899
-0.010	-0.005	0.000	-0.005	0.000	0.005	0.000	2.666	1.880	1.880	1.885	1.904	1.904	1.904
0.000	-0.010	-0.005	-0.005	-0.005	-0.010	0.000	2.666	1.885	1.880	1.880	1.899	1.899	1.904
-0.005	-0.005	-0.005	-0.005	-0.010	0.005	0.000	2.690	1.890	1.880	1.880	1.899	1.899	1.904
-0.010	-0.015	-0.005	-0.005	0.000	-0.010	0.000	2.666	1.885	1.880	1.880	1.899	1.899	1.904
-0.005	-0.005	-0.005	-0.005	0.000	-0.010	0.000	2.695	1.890	1.890	1.885	1.899	1.899	1.904
0.000	0.005	-0.005	-0.005	0.000	0.005	0.000	2.676	1.895	1.895	1.890	1.904	1.899	1.904
-0.005	0.000	0.000	-0.005	-0.005	-0.015	0.000	2.671	1.895	1.895	1.890	1.904	1.899	1.899
-0.005	-0.005	-0.005	-0.005	-0.010	-0.010	0.000	2.700	1.899	1.895	1.890	1.909	1.904	1.904
-0.005	0.015	0.000	0.000	0.000	0.005	0.000	2.676	1.899	1.899	1.895	1.914	1.904	1.909
-0.010	0.005	0.000	-0.005	-0.005	0.000	0.000	2.710	1.899	1.895	1.895	1.909	1.904	1.904
0.000	0.010	-0.005	0.000	-0.005	-0.020	0.000	2.700	1.904	1.899	1.899	1.914	1.904	1.899
0.010	0.015	-0.010	0.000	0.000	-0.010	0.000	2.686	1.899	1.899	1.895	1.909	1.909	1.909
0.020	-0.005	-0.005	0.000	0.000	0.005	0.000	2.666	1.899	1.899	1.895	1.909	1.909	1.909
0.010	0.000	0.000	0.000	-0.005	0.000	0.000	2.661	1.899	1.899	1.895	1.909	1.904	1.904
0.010	0.005	-0.005	0.000	-0.005	0.005	0.000	2.700	1.895	1.895	1.890	1.909	1.904	1.904
0.010	0.020	-0.005	-0.005	0.000	-0.005	0.000	2.671	1.890	1.895	1.890	1.909	1.904	1.899
0.005	0.015	-0.005	-0.005	-0.005	0.005	0.000	2.690	1.890	1.890	1.890	1.909	1.904	1.904
0.000	0.010	-0.005	-0.005	0.000	-0.005	0.000	2.656	1.880	1.890	1.890	1.904	1.904	1.904
-0.010	0.005	0.000	-0.005	-0.005	-0.005	0.000	2.671	1.885	1.885	1.885	1.909	1.899	1.904
-0.020	0.000	0.000	-0.005	0.000	0.000	0.000	2.695	1.890	1.880	1.885	1.904	1.904	1.904
-0.015	-0.005	-0.005	-0.005	0.000	-0.015	0.000	2.686	1.890	1.880	1.880	1.904	1.899	1.899
-0.024	0.005	0.000	-0.005	0.005	0.000	0.000	2.676	1.890	1.885	1.885	1.904	1.904	1.904
-0.020	0.000	0.000	-0.005	0.000	-0.005	0.000	2.666	1.890	1.890	1.885	1.904	1.904	1.904
-0.024	-0.005	-0.005	-0.005	0.005	-0.005	0.000	2.783	1.899	1.890	1.890	1.909	1.904	1.904
-0.029	0.000	-0.005	0.000	0.000	-0.020	0.000	2.627	1.895	1.895	1.890	1.909	1.904	1.899
-0.015	0.000	-0.005	0.000	-0.005	-0.015	0.000	2.642	1.895	1.890	1.890	1.909	1.904	1.904
-0.010	0.005	-0.005	0.000	-0.005	-0.005	0.000	2.637	1.890	1.895	1.890	1.909	1.904	1.904
-0.015	0.005	-0.005	0.000	-0.005	-0.005	0.000	2.681	1.895	1.895	1.890	1.909	1.904	1.909
-0.005	0.000	-0.005	0.000	-0.005	0.005	0.000	2.637	1.895	1.895	1.890	1.909	1.904	1.904
-0.005	0.000	0.000	0.000	0.000	-0.005	0.000	2.690	1.899	1.895	1.890	1.909	1.904	1.904
-0.005	-0.010	0.000	0.000	0.000	0.000	0.000	2.734	1.899	1.890	1.890	1.904	1.904	1.904
0.000	-0.010	0.000	0.000	-0.005	-0.005	0.000	2.686	1.895	1.890	1.885	1.904	1.899	1.904
0.015	-0.015	-0.005	-0.005	0.000	-0.010	0.000	2.705	1.899	1.890	1.885	1.899	1.899	1.899
0.024	-0.010	-0.005	-0.005	0.000	-0.024	0.000	2.715	1.904	1.890	1.885	1.899	1.895	1.895
0.039	-0.015	0.000	-0.005	0.000	-0.010	0.000	2.627	1.899	1.890	1.885	1.904	1.899	1.899
0.029	-0.015	-0.005	-0.005	-0.005	0.010	0.000	2.715	1.895	1.895	1.890	1.904	1.899	1.904
0.024	-0.015	0.000	-0.005	-0.005	0.010	0.000	2.734	1.904	1.895	1.890	1.904	1.899	1.899
0.029	-0.010	0.000	-0.005	-0.005	0.000	0.000	2.646	1.895	1.895	1.890	1.904	1.899	1.899
0.010	-0.010	0.000	-0.005	-0.010	0.005	0.000	2.637	1.885	1.895	1.890	1.909	1.899	1.899
0.000	-0.005	0.000	-0.005	-0.005	0.000	0.000	2.690	1.885	1.895	1.890	1.914	1.904	1.899
-0.015	0.000	-0.005	-0.005	-0.005	0.000	0.000	2.695	1.890	1.895	1.895	1.914	1.904	1.899
-0.024	0.000	0.000	0.000	-0.010	0.000	0.000	2.676	1.890	1.895	1.895	1.914	1.904	1.904
-0.024	0.005	-0.005	0.000	-0.005	0.000	0.000	2.695	1.890	1.890	1.895	1.914	1.909	1.909
-0.039	0.000	0.000	0.000	-0.005	-0.005	0.000	2.671	1.890	1.890	1.890	1.914	1.909	1.904
-0.049	0.005	-0.005	0.005	-0.015	0.000	0.000	2.666	1.885	1.890	1.890	1.909	1.909	1.909
-0.044	0.000	-0.005	0.005	-0.015	-0.005	0.000	2.705	1.890	1.885	1.890	1.909	1.904	1.904
-0.039	-0.005	0.000	0.000	-0.010	0.000	0.000	2.695	1.895	1.885	1.890	1.909	1.904	1.909
-0.034	-0.005	0.000	0.000	-0.010	-0.015	0.000	2.695	1.899	1.885	1.885	1.904	1.904	1.899
-0.024	0.000	-0.005	-0.005	0.000	0.005	-0.005	2.671	1.890	1.885	1.880	1.904	1.904	1.909
-0.020	0.005	-0.010	-0.005	0.015	0.000	0.000	2.671	1.895	1.885	1.880	1.899	1.904	1.904
-0.010	-0.005	-0.005	-0.005	0.020	0.005	0.000	2.695	1.895	1.885	1.880	1.899	1.904	1.904
-0.010	-0.010	0.000	-0.005	0.010	-0.005	0.000	2.666	1.890	1.890	1.885	1.899	1.899	1.899
0.000	-0.010	-0.005	-0.005	0.010	-0.005	0.000	2.690	1.899	1.890	1.885	1.899	1.899	1.899
0.010	-0.010	0.000	-0.005	0.010	-0.005	0.000	2.686	1.899	1.890	1.885	1.899	1.899	1.899
0.010	-0.005	-0.005	-0.005	0.005	0.000	-0.005	2.700	1.899	1.895	1.890	1.904	1.895	1.899
0.010	-0.005	-0.005	-0.005	0.000	0.000	0.000	2.666	1.899	1.895	1.890	1.904	1.895	1.895
0.020	-0.005	-0.005	0.000	0.000	-0.015	0.000	2.666	1.899	1.899	1.895	1.909	1.899	1.899
0.020	-0.010	-0.005	0.000	0.000	-0.015	0.000	2.666	1.899	1.899	1.895	1.914	1.904	1.899
0.020	-0.010	0.000	0.000	-0.005	-0.005	0.000	2.705	1.904	1.899	1.899	1.914	1.904	1.904
0.020	-0.005	0.000	-0.005	-0.010	0.010	0.000	2.676	1.899	1.899	1.899	1.914	1.909	1.909
0.015	0.005	-0.005	0.000	0.000	-0.005	0.000	2.681	1.899	1.899	1.899	1.914	1.909	1.904
0.005	-0.005	-0.005	0.000	0.005	-0.005	0.000	2.676	1.895	1.895	1.895	1.914	1.909	1.909
0.010	-0.020	0.000	0.000	-0.005	0.000	0.000	2.651	1.890	1.890	1.895	1.914	1.909	1.909
0.015	-0.010	-0.005	0.000	-0.005	-0.005	0.000	2.778	1.899	1.890	1.890	1.909	1.904	1.904
0.005	-0.015	-0.005	-0.005	-0.010	-0.005	0.000	2.632	1.890	1.890	1.890	1.909	1.904	1.904
0.000	-0.024	0.000	-0.005	-0.005	-0.005	0.000	2.651	1.885	1.880	1.885	1.904	1.904	1.899
0.005	-0.005	-0.005	-0.005	-0.005	0.000	0.000	2.642	1.880	1.885	1.885	1.904	1.899	1.904
0.000	0.000	0.000	-0.005	-0.005	-0.010	0.000	2.681	1.885	1.890	1.885	1.904	1.899	1.899
0.000	-0.005	-0.005	-0.005	-0.005	-0.005	0.000	2.725	1.875	1.880	1.880	1.904	1.899	1.904
0.000	-0.005	-0.005	-0.005	-0.005	-0.005	0.000	2.686	1.880	1.880	1.880	1.904	1.899	1.899
-0.010	0.000	0.000	-0.005	0.000	0.000	-0.005	2.729	1.890	1.880	1.880	1.904	1.899	1.904
0.000	0.000	-0.005	-0.005	-0.005	0.000	0.000	2.671	1.895	1.885	1.880	1.904	1.899	1.899
0.005	0.010	-0.005	0.000	-0.010	-0.020	0.000	2.632	1.890	1.895	1.885	1.904	1.899	1.895
-0.005	0.000	-0.005	0.000	0.000	0.000	0.000	2.715	1.895	1.890	1.890	1.904	1.904	1.904
-0.005	-0.005	-0.005	-0.005	-0.005	-0.005	-0.005	2.627	1.890	1.890	1.890	1.909	1.899	1.904
-0.010	0.005	0.000	0.000	-0.010	0.000	0.005	2.651	1.890	1.895	1.890	1.909	1.899	1.904
-0.005	-0.005	0.000	0.000	-0.005	-0.005	0.000	2.720	1.895	1.890	1.895	1.909	1.904	1.904
-0.005	0.005	0.005	-0.005	-0.005	-0.020	0.000	2.622	1.890	1.895	1.890	1.909	1.904	1.899
-0.005	0.000	-0.010	0.000	0.000	-0.005	0.000	2.632	1.890	1.890	1.890	1.909	1.904	1.909
-0.015	0.005	-0.005	0.000	0.000	-0.005	0.000	2.666	1.885	1.885	1.890	1.904	1.904	1.904
-0.005	0.000	0.000	0.000	-0.005	-0.005	-0.005	2.695	1.890	1.885	1.885	1.904	1.899	1.904
-0.020	-0.015	0.000	0.000	0.000	0.005	0.000	2.681	1.885	1.875	1.880	1.904	1.899	1.904
-0.005	-0.005	0.000	-0.005	0.000	0.000	0.000	2.681	1.890	1.880	1.880	1.899	1.899	1.899
-0.005	0.005	-0.005	-0.005	0.000	-0.015	0.000	2.671	1.885	1.885	1.880	1.895	1.895	1.895
0.000	-0.010	-0.005	-0.005	-0.010	0.005	0.000	2.686	1.890	1.880	1.880	1.895	1.895	1.895
-0.005	-0.005	-0.005	-0.005	-0.005	-0.010	-0.005	2.700	1.890	1.880	1.880	1.895	1.895	1.890
0.000	-0.020	-0.005	-0.005	-0.005	0.000	0.000	2.666	1.890	1.885	1.880	1.899	1.895	1.899
-0.010	-0.005	-0.005	-0.005	-0.005	-0.015	0.000	2.690	1.890	1.885	1.880	1.899	1.895	1.890
-0.005	-0.010	-0.005	-0.005	-0.005	0.005	0.000	2.700	1.895	1.890	1.880	1.899	1.895	1.899
-0.005	-0.010	0.000	-0.005	0.000	-0.005	0.000	2.666	1.895	1.890	1.885	1.904	1.899	1.899
-0.010	-0.010	-0.005	-0.005	0.000	-0.010	-0.005	2.705	1.895	1.890	1.890	1.904	1.904	1.899
-0.005	0.005	0.000	0.000	0.000	-0.010	0.000	2.676	1.895	1.899	1.890	1.909	1.899	1.899
-0.015	0.010	0.000	-0.005	0.000	0.000	0.000	2.681	1.895	1.895	1.890	1.909	1.904	1.904
-0.005	-0.020	0.000	0.000	-0.010	0.000	0.000	2.666	1.895	1.890	1.890	1.909	1.904	1.904
-0.005	-0.015	0.000	0.000	-0.005	-0.005	0.000	2.661	1.890	1.890	1.890	1.904	1.904	1.904
-0.005	-0.015	-0.005	0.000	-0.005	-0.015	0.000	2.666	1.890	1.885	1.890	1.909	1.899	1.895
-0.005	-0.010	-0.005	0.000	-0.005	0.000	0.000	2.700	1.890	1.890	1.885	1.904	1.904	1.904
-0.010	-0.010	-0.005	0.000	-0.005	0.000	0.000	2.666	1.890	1.890	1.885	1.904	1.899	1.899
-0.005	-0.015	-0.005	0.000	-0.005	-0.029	-0.005	2.686	1.885	1.885	1.880	1.899	1.895	1.895
-0.010	-0.015	-0.010	-0.005	0.000	0.000	0.000	2.666	1.880	1.880	1.880	1.899	1.899	1.904
0.000	-0.015	-0.005	-0.005	-0.005	-0.010	0.000	2.671	1.890	1.885	1.880	1.899	1.895	1.895
0.000	-0.015	0.000	-0.005	0.000	-0.010	0.000	2.686	1.890	1.885	1.880	1.899	1.895	1.895
0.005	-0.020	0.000	-0.005	0.005	-0.005	0.000	2.646	1.885	1.885	1.880	1.899	1.899	1.899
-0.010	-0.005	0.000	-0.005	-0.005	-0.005	0.000	2.773	1.895	1.890	1.885	1.899	1.895	1.895
-0.005	-0.010	0.000	-0.005	-0.005	0.005	0.000	2.637	1.890	1.890	1.885	1.904	1.895	1.899
-0.005	-0.005	-0.005	-0.005	-0.005	-0.005	0.000	2.651	1.885	1.890	1.885	1.904	1.899	1.899
-0.010	0.000	0.000	-0.005	-0.005	-0.005	-0.005	2.646	1.885	1.890	1.890	1.904	1.899	1.899
-0.005	0.010	0.000	0.000	-0.005	0.005	0.000	2.676	1.895	1.899	1.895	1.909	1.899	1.904
0.000	0.010	0.000	-0.005	-0.005	0.000	0.000	2.637	1.895	1.890	1.890	1.909	1.899	1.904
-0.005	0.005	-0.005	0.000	0.000	0.005	-0.005	2.656	1.895	1.895	1.895	1.909	1.904	1.904
-0.010	0.000	0.000	0.000	0.010	0.000	0.000	2.744	1.899	1.890	1.890	1.909	1.904	1.899
0.000	0.005	-0.005	0.000	-0.005	-0.010	0.000	2.686	1.899	1.895	1.890	1.909	1.904	1.904
0.005	0.005	-0.005	0.000	-0.005	-0.010	0.000	2.729	1.904	1.895	1.890	1.909	1.899	1.899
-0.005	0.000	-0.005	0.000	0.000	-0.005	0.000	2.700	1.899	1.895	1.890	1.909	1.904	1.904
-0.005	-0.005	0.000	0.000	0.005	-0.005	0.000	2.710	1.899	1.890	1.890	1.904	1.904	1.904
0.000	0.005	-0.010	0.000	0.000	0.000	0.000	2.632	1.895	1.895	1.885	1.904	1.899	1.904
-0.005	-0.010	0.000	0.000	0.000	-0.010	0.000	2.715	1.890	1.885	1.885	1.904	1.899	1.899
0.000	0.010	0.000	-0.005	-0.005	0.005	0.000	2.622	1.885	1.890	1.890	1.904	1.899	1.904
0.005	0.005	0.005	-0.005	-0.005	0.010	0.000	2.642	1.885	1.890	1.885	1.904	1.899	1.899
-0.005	0.015	0.000	-0.005	0.000	0.000	0.000	2.690	1.885	1.885	1.885	1.904	1.899	1.899
-0.005	-0.015	0.005	-0.005	-0.005	0.005	0.000	2.695	1.890	1.875	1.885	1.904	1.899	1.899
-0.005	-0.010	0.000	-0.010	-0.005	-0.015	0.000	2.681	1.890	1.885	1.880	1.904	1.899	1.895
-0.005	-0.005	0.000	-0.005	-0.005	0.000	0.000	2.695	1.895	1.890	1.885	1.904	1.904	1.899
0.005	-0.005	-0.005	0.000	-0.005	-0.005	0.000	2.695	1.895	1.895	1.890	1.909	1.904	1.904
0.000	0.000	-0.005	-0.005	-0.005	0.005	0.000	2.700	1.899	1.895	1.890	1.909	1.904	1.904
-0.005	-0.005	-0.010	0.000	-0.005	-0.015	0.000	2.700	1.899	1.899	1.890	1.909	1.904	1.904
0.005	-0.005	-0.005	0.000	-0.010	0.000	0.000	2.686	1.899	1.899	1.895	1.909	1.904	1.909
-0.005	0.000	-0.005	0.000	-0.005	0.010	0.000	2.666	1.895	1.895	1.895	1.909	1.904	1.909
-0.005	0.010	0.000	0.000	0.000	0.010	0.000	2.671	1.899	1.895	1.895	1.909	1.904	1.909
-0.005	0.005	-0.005	0.000	-0.005	0.000	0.000	2.671	1.899	1.895	1.890	1.909	1.904	1.904
-0.005	-0.005	-0.005	0.000	-0.005	0.010	0.000	2.700	1.895	1.890	1.890	1.909	1.904	1.904
-0.005	0.000	0.000	-0.005	-0.010	-0.005	0.000	2.661	1.890	1.890	1.890	1.909	1.904	1.899
-0.005	-0.010	0.000	-0.005	-0.010	-0.034	0.000	2.671	1.890	1.885	1.885	1.904	1.899	1.890
0.000	-0.010	0.000	-0.005	-0.005	-0.015	0.000	2.666	1.895	1.885	1.885	1.904	1.899	1.899
0.000	0.000	0.000	-0.005	-0.010	-0.039	0.000	2.671	1.885	1.885	1.885	1.904	1.899	1.895
0.000	-0.005	0.000	-0.005	0.000	-0.005	0.000	2.690	1.890	1.890	1.885	1.904	1.904	1.904
-0.005	-0.005	0.000	-0.005	0.000	0.000	0.000	2.671	1.890	1.890	1.885	1.904	1.904	1.904
0.005	-0.010	0.000	-0.005	-0.005	0.000	0.000	2.666	1.890	1.890	1.885	1.904	1.904	1.904
0.005	-0.010	-0.005	-0.005	0.010	-0.015	0.000	2.676	1.899	1.890	1.890	1.904	1.904	1.904
0.000	0.000	-0.005	-0.005	0.005	0.000	0.000	2.681	1.899	1.895	1.890	1.909	1.904	1.909
-0.005	0.000	0.000	-0.005	0.005	0.015	0.000	2.676	1.895	1.899	1.895	1.909	1.909	1.909
0.005	0.000	0.000	0.000	0.010	0.010	0.000	2.681	1.899	1.899	1.899	1.909	1.904	1.909
-0.010	0.015	0.000	0.000	0.000	0.010	0.000	2.661	1.895	1.899	1.895	1.914	1.909	1.909
-0.005	0.000	-0.005	0.000	-0.005	0.010	0.000	2.651	1.904	1.895	1.895	1.909	1.904	1.904
-0.010	0.000	0.000	0.000	0.000	-0.005	0.000	2.676	1.899	1.895	1.895	1.914	1.904	1.904
0.005	-0.005	-0.005	0.000	0.000	-0.005	0.000	2.651	1.895	1.895	1.890	1.909	1.904	1.904
0.000	-0.005	-0.005	0.000	-0.005	-0.015	0.000	2.734	1.890	1.895	1.890	1.909	1.904	1.899
-0.010	0.005	-0.005	0.000	-0.005	-0.024	0.000	2.686	1.890	1.890	1.890	1.909	1.904	1.899
-0.005	0.015	-0.010	0.000	-0.005	-0.034	0.000	2.603	1.875	1.890	1.885	1.904	1.904	1.895
-0.010	0.015	-0.010	-0.005	-0.005	0.005	0.000	2.661	1.880	1.885	1.885	1.904	1.904	1.909
-0.010	0.010	-0.005	-0.005	-0.005	0.005	0.000	2.734	1.890	1.880	1.885	1.904	1.899	1.904
0.005	0.005	-0.005	-0.005	0.000	-0.020	0.000	2.681	1.890	1.880	1.885	1.904	1.899	1.899
-0.010	0.000	0.000	-0.005	-0.010	0.000	0.000	2.646	1.885	1.880	1.880	1.904	1.895	1.899
-0.005	0.000	-0.005	-0.005	-0.005	0.000	0.000	2.734	1.895	1.880	1.880	1.899	1.899	1.904
-0.010	0.005	0.000	-0.005	-0.005	0.005	0.000	2.720	1.899	1.890	1.885	1.904	1.899	1.904
-0.005	0.000	-0.005	-0.005	0.000	0.000	0.000	2.705	1.904	1.890	1.885	1.904	1.899	1.904
0.000	-0.005	-0.005	-0.005	-0.005	0.000	0.000	2.715	1.909	1.899	1.890	1.909	1.899	1.904
-0.005	-0.005	-0.005	-0.005	-0.005	-0.005	0.000	2.642	1.899	1.904	1.890	1.909	1.904	1.904
-0.010	-0.005	0.000	-0.005	-0.010	-0.005	0.000	2.651	1.895	1.895	1.895	1.909	1.904	1.899
-0.005	-0.020	-0.005	0.000	-0.005	-0.010	0.000	2.690	1.895	1.895	1.890	1.909	1.904	1.904
-0.010	-0.015	-0.005	0.000	0.000	0.000	0.000	2.695	1.895	1.890	1.895	1.909	1.904	1.904
-0.005	-0.010	-0.005	0.000	-0.010	0.000	0.000	2.686	1.899	1.895	1.890	1.909	1.904	1.904
0.005	-0.015	-0.005	0.000	-0.005	0.000	0.000	2.690	1.890	1.895	1.890	1.909	1.904	1.904
0.000	-0.015	-0.005	0.000	-0.005	0.005	0.000	2.695	1.890	1.895	1.890	1.909	1.904	1.909
-0.005	-0.010	0.000	-0.005	-0.005	0.010	0.000	2.695	1.890	1.890	1.890	1.909	1.904	1.904
-0.005	-0.020	0.000	0.000	0.000	-0.020	0.000	2.690	1.890	1.890	1.885	1.904	1.899	1.895
-0.005	-0.005	0.000	-0.005	-0.010	-0.010	0.000	2.695	1.890	1.890	1.885	1.904	1.895	1.899
-0.010	0.000	0.000	0.000	-0.005	-0.034	0.000	2.671	1.890	1.890	1.890	1.904	1.899	1.895
0.000	-0.005	-0.005	-0.005	0.005	0.010	0.000	2.695	1.890	1.890	1.885	1.904	1.899	1.904
0.005	-0.005	-0.005	-0.005	0.005	0.005	0.000	2.656	1.895	1.890	1.885	1.904	1.899	1.904
-0.005	0.000	-0.005	-0.005	0.000	-0.005	0.000	2.695	1.895	1.890	1.885	1.904	1.899	1.904
0.000	0.000	-0.005	-0.005	-0.005	-0.015	0.000	2.666	1.890	1.890	1.890	1.904	1.899	1.899
0.000	0.000	-0.005	-0.005	-0.005	0.005	0.000	2.700	1.899	1.895	1.895	1.909	1.904	1.904
0.000	0.000	-0.005	-0.005	-0.005	-0.005	0.000	2.700	1.899	1.899	1.895	1.909	1.904	1.904
-0.005	0.005	0.000	0.000	0.000	0.020	0.000	2.671	1.895	1.899	1.895	1.909	1.909	1.909
0.000	0.010	-0.005	0.000	-0.005	0.015	0.000	2.695	1.899	1.899	1.895	1.914	1.909	1.909
0.000	0.015	-0.005	0.000	-0.005	0.010	0.000	2.690	1.899	1.904	1.899	1.914	1.909	1.909
-0.005	0.015	-0.005	0.000	0.000	0.010	0.000	2.671	1.895	1.899	1.899	1.914	1.909	1.909
-0.005	0.005	-0.005	0.000	-0.005	0.010	0.000	2.690	1.899	1.895	1.895	1.914	1.909	1.904
0.000	0.000	-0.005	0.000	0.000	-0.005	0.000	2.676	1.895	1.895	1.895	1.914	1.909	1.909
-0.005	-0.005	-0.005	0.000	0.000	-0.005	0.000	2.676	1.890	1.890	1.890	1.914	1.909	1.904
-0.005	0.010	-0.005	0.000	-0.005	-0.010	0.000	2.681	1.890	1.890	1.890	1.909	1.904	1.904
-0.005	-0.005	0.000	-0.005	-0.010	-0.010	0.000	2.651	1.885	1.885	1.885	1.904	1.899	1.899
-0.015	-0.005	-0.005	-0.005	-0.005	-0.034	0.000	2.769	1.895	1.885	1.885	1.904	1.899	1.895
-0.015	-0.005	-0.005	-0.005	-0.005	0.000	0.000	2.651	1.885	1.885	1.880	1.904	1.899	1.904
-0.010	-0.015	-0.005	-0.005	0.000	0.000	0.000	2.646	1.880	1.880	1.880	1.899	1.899	1.904
0.005	-0.010	0.000	-0.005	-0.005	0.005	0.000	2.632	1.880	1.885	1.885	1.899	1.899	1.904
-0.015	-0.005	-0.005	-0.005	0.000	-0.005	0.000	2.681	1.880	1.885	1.885	1.904	1.899	1.899
0.000	-0.005	-0.005	-0.005	0.005	-0.005	0.000	2.720	1.895	1.890	1.885	1.904	1.904	1.904
-0.005	-0.010	-0.005	-0.005	-0.005	-0.005	0.000	2.681	1.899	1.890	1.885	1.904	1.899	1.899
0.005	0.000	-0.005	0.000	-0.005	-0.015	0.000	2.705	1.904	1.899	1.890	1.909	1.904	1.899
0.010	0.005	-0.010	0.000	0.005	-0.010	0.000	2.690	1.904	1.904	1.895	1.909	1.904	1.909
-0.010	-0.005	-0.005	0.000	0.000	0.005	0.000	2.725	1.904	1.899	1.895	1.914	1.909	1.909
0.005	-0.005	-0.005	0.000	0.000	0.005	0.000	2.710	1.909	1.904	1.895	1.914	1.909	1.909
-0.005	-0.010	0.000	0.000	-0.005	0.005	0.000	2.617	1.914	1.899	1.899	1.914	1.904	1.909
0.000	-0.005	0.000	0.000	-0.010	-0.010	0.000	2.637	1.904	1.904	1.895	1.914	1.904	1.904
-0.005	-0.010	-0.005	0.000	-0.005	0.000	0.000	2.725	1.904	1.899	1.895	1.914	1.904	1.904
0.005	-0.010	-0.010	0.000	-0.005	-0.020	0.000	2.622	1.890	1.899	1.895	1.909	1.909	1.904
0.000	-0.010	-0.005	-0.005	0.000	0.015	0.000	2.651	1.885	1.890	1.890	1.909	1.904	1.909
-0.005	-0.034	0.000	-0.005	0.000	0.000	0.000	2.671	1.885	1.885	1.890	1.909	1.904	1.899
0.000	-0.039	0.000	-0.005	0.000	0.005	0.000	2.686	1.890	1.880	1.890	1.909	1.904	1.904
0.000	-0.039	-0.005	-0.005	-0.005	-0.010	0.000	2.661	1.890	1.885	1.885	1.904	1.899	1.899
0.005	-0.024	0.000	-0.005	-0.010	-0.010	0.000	2.700	1.890	1.885	1.885	1.904	1.899	1.899
-0.010	-0.020	0.000	-0.005	0.005	0.010	0.000	2.676	1.890	1.885	1.885	1.904	1.904	1.904
-0.005	-0.010	0.000	-0.005	0.005	-0.015	0.000	2.695	1.895	1.890	1.890	1.904	1.899	1.899
0.000	-0.005	-0.005	-0.005	0.000	-0.005	-0.005	2.695	1.895	1.895	1.890	1.904	1.904	1.909
-0.005	0.000	0.000	0.000	-0.005	0.005	0.000	2.661	1.899	1.899	1.895	1.909	1.904	1.909
0.000	0.000	-0.005	0.000	0.005	0.005	0.000	2.695	1.904	1.899	1.895	1.909	1.909	1.909
-0.005	0.015	-0.005	0.000	0.005	0.000	0.000	2.671	1.899	1.904	1.899	1.914	1.909	1.909
-0.005	0.005	-0.005	0.000	-0.005	-0.005	0.000	2.666	1.899	1.899	1.895	1.914	1.909	1.904
-0.010	0.010	0.000	-0.005	-0.005	-0.005	0.000	2.705	1.899	1.899	1.899	1.914	1.904	1.904
-0.005	0.024	0.000	0.000	-0.005	0.000	0.000	2.671	1.895	1.899	1.899	1.914	1.909	1.909
-0.005	0.020	-0.005	0.000	-0.005	-0.005	0.000	2.671	1.895	1.899	1.895	1.914	1.909	1.909
0.005	-0.005	-0.005	0.000	-0.005	-0.024	0.000	2.681	1.895	1.890	1.895	1.914	1.909	1.899
0.000	-0.015	0.000	0.000	0.005	-0.015	0.000	2.705	1.890	1.885	1.890	1.909	1.909	1.904
-0.005	-0.015	0.000	-0.005	0.005	-0.020	-0.005	2.656	1.885	1.885	1.885	1.909	1.909	1.904
-0.010	0.000	0.000	-0.005	0.005	0.010	0.000	2.700	1.890	1.885	1.885	1.904	1.904	1.909
-0.010	-0.010	-0.005	-0.005	0.005	0.010	0.000	2.686	1.890	1.885	1.885	1.904	1.904	1.909
-0.010	0.000	-0.005	-0.005	-0.005	-0.020	0.000	2.690	1.895	1.890	1.885	1.899	1.899	1.899
-0.005	0.000	-0.005	-0.005	-0.005	-0.015	0.000	2.661	1.890	1.890	1.885	1.904	1.899	1.899
0.010	-0.005	-0.005	-0.005	-0.005	0.005	0.000	2.676	1.895	1.890	1.885	1.904	1.899	1.904
0.005	-0.015	-0.005	-0.005	-0.005	0.005	0.000	2.686	1.899	1.890	1.890	1.904	1.899	1.904
0.010	-0.005	-0.005	-0.005	-0.005	0.000	0.000	2.656	1.895	1.895	1.890	1.904	1.899	1.899
-0.005	-0.005	0.000	-0.005	-0.010	0.005	0.000	2.788	1.909	1.899	1.895	1.909	1.904	1.904
0.005	0.005	-0.005	0.000	-0.015	-0.005	0.000	2.788	1.924	1.909	1.899	1.914	1.904	1.904
0.005	0.010	-0.005	0.000	-0.010	-0.010	0.000	2.651	1.909	1.909	1.904	1.914	1.904	1.904
0.000	0.000	-0.005	0.000	-0.010	-0.015	0.000	2.725	1.904	1.904	1.899	1.914	1.904	1.904
-0.010	-0.005	0.000	0.000	-0.010	-0.005	0.000	2.686	1.899	1.904	1.899	1.919	1.909	1.904
-0.010	-0.005	-0.005	0.000	-0.005	0.010	0.000	2.710	1.885	1.895	1.899	1.919	1.909	1.909
-0.005	0.010	-0.005	0.000	0.005	0.000	-0.005	2.676	1.890	1.899	1.899	1.914	1.914	1.909
0.000	0.000	0.000	-0.005	0.005	-0.010	0.000	2.720	1.890	1.890	1.895	1.914	1.909	1.909
0.000	0.020	-0.005	0.000	0.000	0.000	0.000	2.661	1.890	1.890	1.895	1.909	1.904	1.909
-0.005	0.005	-0.010	-0.005	0.000	0.005	0.000	2.642	1.885	1.885	1.890	1.909	1.909	1.909
0.000	0.000	0.005	-0.005	0.000	0.000	0.000	2.729	1.895	1.885	1.890	1.909	1.904	1.904
-0.005	0.005	0.000	-0.005	-0.005	0.010	0.000	2.725	1.885	1.885	1.885	1.904	1.904	1.909
-0.005	0.010	0.000	-0.005	0.005	0.000	0.000	2.734	1.895	1.890	1.885	1.904	1.904	1.909
-0.005	0.000	-0.005	-0.005	-0.005	-0.024	0.000	2.720	1.899	1.890	1.890	1.904	1.904	1.899
0.000	0.000	-0.010	-0.005	-0.005	-0.005	0.000	2.617	1.890	1.890	1.885	1.904	1.899	1.904
-0.005	0.005	-0.005	-0.005	-0.005	-0.005	0.000	2.637	1.890	1.895	1.890	1.909	1.904	1.904
-0.005	0.005	0.000	-0.005	0.000	-0.010	0.000	2.681	1.890	1.890	1.890	1.909	1.904	1.904
-0.005	0.000	-0.005	-0.005	0.000	-0.029	0.000	2.671	1.890	1.895	1.890	1.909	1.904	1.899
-0.005	0.000	0.000	-0.005	-0.005	-0.010	0.000	2.671	1.895	1.890	1.890	1.909	1.904	1.909
0.000	0.005	-0.005	0.000	-0.005	-0.005	0.000	2.686	1.895	1.895	1.890	1.909	1.904	1.904
0.000	0.000	-0.005	0.000	-0.005	0.005	0.000	2.661	1.890	1.895	1.890	1.909	1.904	1.909
-0.010	-0.020	0.000	0.000	-0.005	0.000	0.000	2.695	1.895	1.890	1.890	1.909	1.904	1.909
0.000	-0.010	0.000	0.000	-0.005	-0.020	0.000	2.695	1.904	1.890	1.890	1.909	1.904	1.899
-0.005	-0.010	0.000	0.000	-0.005	-0.015	0.000	2.690	1.895	1.890	1.890	1.909	1.904	1.904
-0.005	-0.010	0.000	-0.005	-0.005	0.010	0.000	2.690	1.895	1.890	1.885	1.904	1.904	1.909
-0.005	-0.020	0.000	0.000	0.000	-0.005	0.000	2.666	1.890	1.890	1.890	1.904	1.904	1.904
-0.005	-0.010	-0.005	-0.005	-0.005	0.000	0.000	2.686	1.890	1.890	1.885	1.904	1.899	1.904
-0.005	-0.034	0.000	-0.005	-0.005	0.005	0.000	2.690	1.895	1.885	1.885	1.904	1.899	1.904
0.000	-0.024	0.000	-0.005	0.000	0.010	0.000	2.676	1.890	1.890	1.885	1.904	1.899	1.899
0.005	-0.029	0.000	-0.005	0.005	-0.020	0.000	2.695	1.895	1.890	1.885	1.904	1.899	1.895
0.000	-0.010	0.000	-0.005	0.005	0.015	-0.005	2.676	1.895	1.895	1.885	1.904	1.899	1.904
-0.005	0.000	0.000	-0.005	0.000	0.000	-0.005	2.695	1.890	1.895	1.890	1.904	1.899	1.899
0.005	0.000	-0.005	-0.005	0.000	0.005	0.000	2.676	1.895	1.895	1.890	1.909	1.904	1.904
-0.005	-0.005	-0.005	0.000	0.005	0.000	0.000	2.671	1.895	1.895	1.895	1.909	1.904	1.904
0.000	0.010	0.000	-0.005	0.000	-0.005	0.000	2.695	1.899	1.904	1.899	1.914	1.904	1.904
0.000	0.005	0.000	0.000	0.000	0.005	0.000	2.676	1.899	1.899	1.895	1.914	1.904	1.909
-0.015	0.005	0.000	0.000	-0.005	0.000	-0.005	2.705	1.895	1.899	1.895	1.914	1.909	1.904
-0.005	0.010	-0.005	0.000	0.000	-0.005	-0.005	2.676	1.895	1.895	1.895	1.914	1.909	1.904
-0.005	0.000	-0.005	0.000	0.000	0.000	0.000	2.686	1.899	1.895	1.895	1.914	1.909	1.909
0.005	0.005	0.000	0.000	-0.005	-0.005	0.000	2.661	1.895	1.895	1.895	1.914	1.904	1.904
0.000	0.000	-0.005	0.000	0.000	-0.010	0.000	2.754	1.899	1.890	1.890	1.909	1.904	1.904
-0.005	-0.010	0.000	0.000	0.000	-0.005	0.000	2.637	1.890	1.890	1.890	1.909	1.904	1.904
-0.005	0.005	-0.005	0.000	-0.010	-0.020	0.000	2.642	1.885	1.890	1.890	1.904	1.899	1.895
-0.005	0.000	0.000	-0.005	-0.005	0.000	0.000	2.656	1.880	1.885	1.885	1.904	1.904	1.904
-0.010	-0.005	0.000	-0.005	-0.005	0.000	0.000	2.681	1.885	1.880	1.885	1.904	1.899	1.904
0.000	-0.010	0.005	-0.005	-0.010	0.000	0.000	2.622	1.880	1.880	1.880	1.904	1.899	1.904
-0.005	-0.010	0.000	-0.005	0.000	-0.005	0.000	2.686	1.890	1.885	1.880	1.904	1.899	1.899
-0.005	-0.005	-0.005	-0.005	-0.005	-0.015	0.000	2.720	1.895	1.890	1.880	1.899	1.899	1.899
0.000	-0.005	-0.005	-0.005	-0.010	-0.010	0.000	2.656	1.895	1.890	1.885	1.904	1.895	1.899
-0.010	0.005	0.000	-0.005	-0.005	-0.005	0.000	2.710	1.899	1.895	1.890	1.904	1.899	1.899
-0.010	0.000	-0.005	-0.005	0.000	0.015	0.000	2.720	1.904	1.899	1.890	1.909	1.904	1.909
-0.005	0.000	-0.010	0.000	-0.005	-0.005	0.000	2.725	1.909	1.899	1.890	1.909	1.904	1.904
-0.005	-0.005	-0.005	-0.005	-0.010	0.005	0.000	2.715	1.909	1.899	1.895	1.909	1.904	1.904
0.000	0.000	-0.005	0.000	-0.010	-0.005	0.000	2.725	1.914	1.904	1.895	1.909	1.904	1.904
0.000	0.000	-0.005	0.000	-0.010	0.000	0.000	2.632	1.895	1.904	1.899	1.914	1.904	1.904
0.000	-0.005	0.000	0.000	-0.005	-0.034	0.000	2.632	1.890	1.899	1.899	1.914	1.909	1.895
0.000	0.000	0.000	0.000	-0.005	0.005	0.000	2.651	1.890	1.895	1.899	1.914	1.909	1.909
0.000	0.005	-0.005	0.000	0.000	0.010	0.000	2.690	1.890	1.890	1.895	1.914	1.909	1.909
-0.005	-0.024	0.000	0.000	-0.005	0.010	-0.005	2.651	1.885	1.880	1.890	1.909	1.909	1.909
0.005	-0.024	-0.005	0.000	-0.005	-0.005	0.000	2.681	1.885	1.880	1.885	1.904	1.904	1.899
-0.010	-0.024	-0.005	-0.005	0.000	-0.005	0.000	2.671	1.880	1.875	1.885	1.904	1.899	1.899
-0.010	-0.020	0.000	-0.005	0.005	-0.010	0.000	2.666	1.880	1.880	1.880	1.904	1.904	1.899
-0.005	-0.015	0.000	-0.005	0.000	0.000	0.000	2.705	1.890	1.880	1.880	1.899	1.899	1.899
0.000	-0.010	-0.005	-0.005	0.005	0.005	0.000	2.666	1.890	1.885	1.880	1.899	1.904	1.904
-0.010	0.000	0.000	-0.005	0.000	0.000	0.000	2.700	1.895	1.890	1.885	1.904	1.899	1.904
-0.005	0.020	-0.005	-0.005	-0.005	0.000	0.000	2.686	1.895	1.899	1.890	1.904	1.899	1.899
-0.005	0.010	-0.005	0.000	0.000	-0.015	0.000	2.661	1.895	1.899	1.890	1.904	1.904	1.899
-0.010	0.010	-0.005	-0.005	0.000	0.005	0.000	2.700	1.904	1.899	1.895	1.909	1.904	1.909
0.000	0.015	-0.005	0.000	0.005	0.005	0.000	2.700	1.904	1.899	1.895	1.914	1.904	1.909
-0.005	0.015	0.000	0.000	0.000	-0.015	0.000	2.695	1.909	1.904	1.895	1.914	1.909	1.904
-0.005	0.010	0.000	0.000	-0.010	-0.005	0.000	2.671	1.899	1.899	1.895	1.914	1.904	1.904
0.000	0.000	-0.010	0.005	-0.005	-0.020	0.000	2.695	1.904	1.895	1.895	1.914	1.909	1.904
-0.005	-0.020	0.000	0.000	-0.005	-0.005	0.000	2.700	1.899	1.895	1.895	1.914	1.909	1.904
-0.005	-0.015	-0.005	0.000	-0.005	0.000	0.000	2.690	1.895	1.895	1.895	1.909	1.909	1.909
0.000	-0.005	-0.005	0.000	-0.005	0.005	0.000	2.690	1.895	1.895	1.890	1.909	1.904	1.909
0.000	-0.015	0.000	-0.005	-0.005	0.000	0.000	2.676	1.895	1.890	1.885	1.909	1.904	1.904
-0.005	-0.010	-0.005	0.000	-0.005	0.005	0.000	2.656	1.890	1.890	1.885	1.904	1.904	1.904
0.000	-0.010	0.000	0.000	0.000	0.005	0.000	2.676	1.885	1.885	1.890	1.904	1.899	1.904
-0.005	-0.010	0.000	-0.005	-0.010	-0.020	0.000	2.686	1.890	1.885	1.885	1.904	1.899	1.895
0.000	-0.015	0.000	-0.005	-0.010	-0.010	0.000	2.646	1.890	1.885	1.885	1.904	1.899	1.899
0.000	-0.010	0.000	-0.005	-0.005	0.010	0.000	2.764	1.899	1.890	1.885	1.904	1.904	1.904
-0.005	-0.005	0.005	-0.005	0.000	0.005	0.000	2.646	1.895	1.895	1.890	1.909	1.904	1.904
0.000	-0.005	0.005	-0.005	-0.010	0.000	0.000	2.661	1.895	1.895	1.890	1.904	1.904	1.904
-0.005	0.015	0.000	0.000	-0.005	-0.005	0.000	2.642	1.890	1.899	1.895	1.914	1.904	1.904
-0.005	0.005	0.000	-0.005	0.000	-0.020	0.000	2.686	1.899	1.899	1.895	1.914	1.909	1.904
-0.005	0.010	-0.005	0.000	-0.005	-0.005	0.000	2.642	1.890	1.895	1.895	1.914	1.909	1.909
0.005	-0.010	-0.010	0.000	-0.005	0.000	0.000	2.666	1.895	1.895	1.890	1.914	1.909	1.909
0.000	-0.005	-0.005	0.000	0.005	-0.010	0.000	2.749	1.904	1.895	1.895	1.914	1.909	1.909
0.000	0.000	-0.010	0.000	0.000	0.000	0.000	2.671	1.899	1.895	1.890	1.914	1.909	1.909
0.005	-0.005	-0.010	0.000	-0.005	0.000	0.000	2.651	1.899	1.895	1.890	1.909	1.909	1.909
-0.010	-0.005	0.000	0.000	-0.005	0.000	0.000	2.725	1.895	1.895	1.890	1.909	1.904	1.909
0.000	-0.010	0.000	0.000	-0.010	-0.005	0.000	2.627	1.890	1.890	1.890	1.904	1.904	1.904
-0.005	-0.010	-0.005	-0.005	-0.005	-0.010	0.000	2.642	1.885	1.885	1.885	1.904	1.899	1.899
0.000	-0.010	0.000	-0.005	-0.005	0.010	0.000	2.729	1.895	1.890	1.885	1.904	1.904	1.904
-0.010	0.000	-0.005	-0.005	0.000	0.000	0.000	2.651	1.885	1.890	1.885	1.904	1.904	1.904
0.000	0.000	0.000	-0.005	0.000	-0.005	0.000	2.642	1.885	1.890	1.885	1.904	1.899	1.904
-0.005	-0.005	0.000	-0.005	0.005	0.005	0.000	2.690	1.890	1.890	1.885	1.904	1.904	1.904
-0.005	0.005	-0.005	-0.005	-0.005	0.000	0.000	2.690	1.895	1.890	1.885	1.904	1.899	1.904
-0.005	-0.005	0.000	-0.005	0.005	0.000	0.000	2.700	1.895	1.890	1.885	1.904	1.904	1.899
0.000	0.000	0.000	-0.005	0.000	-0.005	0.000	2.695	1.899	1.895	1.890	1.909	1.899	1.899
0.000	0.015	-0.005	0.000	0.000	-0.024	0.000	2.700	1.899	1.904	1.895	1.909	1.904	1.899
-0.005	0.020	0.005	-0.005	-0.005	0.000	0.000	2.695	1.904	1.904	1.895	1.914	1.904	1.904
0.000	0.015	0.000	0.000	-0.005	0.000	0.000	2.671	1.899	1.899	1.895	1.914	1.904	1.909
-0.005	-0.005	-0.005	0.000	-0.005	-0.005	0.000	2.666	1.895	1.895	1.895	1.914	1.909	1.909
-0.005	-0.015	-0.005	0.000	-0.005	0.005	0.000	2.681	1.895	1.890	1.895	1.914	1.909	1.909
-0.010	0.005	-0.005	0.000	0.000	-0.005	0.000	2.676	1.890	1.890	1.890	1.914	1.909	1.904
-0.005	-0.005	0.000	0.000	0.000	-0.005	0.000	2.666	1.895	1.890	1.890	1.909	1.909	1.904
-0.010	-0.010	-0.005	0.000	0.000	0.000	0.000	2.676	1.890	1.890	1.890	1.909	1.904	1.909
0.000	0.005	-0.005	0.000	-0.005	0.000	0.000	2.690	1.890	1.890	1.890	1.904	1.904	1.904
-0.005	-0.020	0.000	-0.005	0.005	-0.010	0.000	2.671	1.890	1.880	1.885	1.904	1.904	1.904
-0.005	-0.010	-0.005	-0.005	-0.005	0.005	0.000	2.695	1.890	1.890	1.885	1.904	1.899	1.904
0.005	-0.015	-0.005	-0.005	-0.005	-0.005	0.000	2.671	1.890	1.890	1.885	1.899	1.895	1.899
0.000	-0.005	-0.005	-0.005	-0.010	-0.015	0.000	2.666	1.885	1.890	1.885	1.899	1.895	1.895
-0.005	-0.010	0.000	-0.005	-0.005	0.005	0.000	2.676	1.890	1.890	1.885	1.904	1.899	1.904
-0.005	-0.010	0.000	-0.005	-0.005	0.000	0.000	2.661	1.885	1.885	1.885	1.904	1.899	1.899
0.000	-0.015	0.000	-0.005	0.000	0.000	-0.005	2.690	1.890	1.890	1.885	1.904	1.904	1.904
0.005	-0.005	0.000	-0.005	-0.005	-0.005	0.000	2.671	1.895	1.895	1.890	1.909	1.899	1.904
-0.005	0.010	0.000	-0.005	-0.005	-0.005	0.000	2.686	1.895	1.899	1.890	1.909	1.904	1.899
0.000	0.000	-0.005	0.000	-0.010	0.000	0.000	2.676	1.899	1.895	1.890	1.909	1.904	1.904
0.000	0.010	-0.005	-0.005	-0.010	0.005	0.000	2.661	1.895	1.899	1.895	1.909	1.904	1.904
-0.005	0.015	-0.010	0.000	-0.005	-0.005	0.000	2.778	1.904	1.899	1.895	1.909	1.904	1.904
0.000	0.024	-0.005	-0.005	-0.005	0.000	0.000	2.642	1.899	1.899	1.899	1.914	1.904	1.904
-0.005	-0.005	-0.005	0.000	-0.005	-0.010	0.000	2.651	1.890	1.890	1.895	1.909	1.904	1.904
-0.010	-0.005	-0.005	0.000	-0.005	0.000	0.000	2.642	1.885	1.885	1.890	1.909	1.909	1.909
-0.010	0.015	-0.005	0.000	0.000	0.005	0.000	2.686	1.890	1.890	1.890	1.909	1.904	1.909
0.000	0.010	-0.005	-0.005	-0.005	0.005	0.000	2.700	1.890	1.885	1.885	1.904	1.904	1.904
-0.005	0.000	0.000	-0.005	0.000	0.000	0.000	2.686	1.890	1.885	1.885	1.904	1.899	1.899
-0.005	0.000	0.000	-0.005	-0.005	0.005	0.000	2.715	1.895	1.885	1.885	1.904	1.899	1.899
-0.005	-0.010	0.000	0.000	0.000	0.000	0.000	2.681	1.895	1.885	1.885	1.904	1.904	1.899
-0.005	-0.005	0.000	-0.005	-0.005	-0.005	0.000	2.734	1.904	1.890	1.885	1.904	1.899	1.899
0.000	-0.005	-0.005	-0.005	-0.005	-0.010	0.000	2.710	1.904	1.890	1.885	1.904	1.899	1.895
-0.005	-0.010	-0.005	-0.005	0.000	0.000	0.000	2.715	1.904	1.890	1.885	1.904	1.904	1.899
0.000	-0.005	-0.005	-0.005	0.000	0.005	0.000	2.754	1.909	1.904	1.890	1.904	1.904	1.899
-0.010	0.000	0.000	-0.005	-0.005	-0.005	0.000	2.705	1.909	1.904	1.895	1.909	1.904	1.899
0.005	0.000	0.000	-0.005	-0.005	-0.005	0.000	2.651	1.904	1.904	1.899	1.914	1.904	1.899
-0.005	0.000	0.000	0.000	0.005	0.000	0.000	2.637	1.895	1.904	1.899	1.914	1.909	1.904
-0.005	0.005	-0.005	0.000	-0.005	0.005	0.000	2.695	1.899	1.904	1.899	1.914	1.909	1.909
0.000	-0.005	-0.005	0.000	0.000	0.000	0.000	2.695	1.895	1.899	1.899	1.919	1.909	1.909
-0.015	0.005	-0.005	0.000	-0.005	-0.005	0.000	2.671	1.890	1.899	1.899	1.914	1.909	1.909
0.000	0.005	-0.005	0.000	-0.010	-0.020	0.000	2.686	1.899	1.899	1.895	1.914	1.909	1.899
0.000	0.000	-0.005	0.000	-0.005	0.005	0.000	2.686	1.890	1.895	1.895	1.914	1.909	1.909
0.005	-0.005	-0.005	0.000	-0.005	0.005	0.000	2.671	1.895	1.890	1.890	1.914	1.904	1.909
0.005	-0.005	0.000	-0.005	-0.005	0.005	0.000	2.676	1.890	1.890	1.890	1.909	1.909	1.904
-0.005	-0.005	-0.005	-0.005	0.000	-0.024	0.000	2.666	1.890	1.885	1.890	1.909	1.904	1.899
-0.010	-0.010	0.000	-0.005	0.000	0.000	0.000	2.666	1.885	1.885	1.885	1.909	1.909	1.904
0.000	-0.015	-0.005	-0.005	0.000	0.000	0.000	2.700	1.895	1.885	1.885	1.904	1.904	1.909
0.000	-0.010	-0.005	-0.005	0.005	-0.010	0.000	2.671	1.890	1.890	1.885	1.904	1.904	1.904
-0.005	0.000	0.005	-0.010	0.000	0.005	0.000	2.676	1.895	1.895	1.890	1.904	1.904	1.904
0.000	-0.015	0.000	-0.005	0.005	-0.005	0.000	2.676	1.890	1.890	1.890	1.904	1.904	1.904
-0.005	-0.010	0.000	-0.005	0.005	0.000	0.000	2.690	1.899	1.895	1.890	1.909	1.904	1.909
-0.005	-0.005	-0.005	-0.005	0.015	-0.005	0.000	2.690	1.899	1.899	1.895	1.909	1.909	1.909
0.000	0.000	0.000	-0.005	0.000	-0.015	0.000	2.705	1.904	1.899	1.899	1.914	1.904	1.904
0.005	0.005	0.000	-0.005	0.010	-0.010	0.000	2.661	1.899	1.904	1.899	1.914	1.909	1.909
-0.005	-0.005	-0.005	0.000	0.015	-0.015	0.000	2.676	1.895	1.899	1.899	1.914	1.909	1.909
-0.005	-0.005	0.000	0.000	0.015	-0.024	0.000	2.686	1.895	1.895	1.895	1.914	1.909	1.904
-0.005	-0.005	-0.005	0.000	0.020	-0.005	0.000	2.681	1.895	1.895	1.895	1.909	1.909	1.909
-0.010	-0.005	-0.005	0.000	0.020	-0.010	0.000	2.666	1.895	1.895	1.895	1.914	1.909	1.909
-0.005	-0.005	-0.010	0.000	0.015	-0.015	0.000	2.681	1.890	1.885	1.890	1.909	1.904	1.909
-0.005	-0.024	-0.005	0.000	0.015	-0.010	0.000	2.681	1.895	1.880	1.885	1.909	1.904	1.904
-0.005	-0.034	-0.005	0.000	0.005	-0.010	0.000	2.656	1.885	1.880	1.880	1.904	1.899	1.909
-0.005	-0.029	0.000	-0.005	0.005	0.000	-0.005	2.646	1.885	1.880	1.880	1.899	1.899	1.909
-0.010	-0.024	-0.005	-0.005	0.005	0.005	0.000	2.783	1.885	1.880	1.880	1.899	1.899	1.904
-0.005	-0.005	0.005	-0.005	-0.005	-0.015	0.000	2.661	1.885	1.890	1.885	1.904	1.895	1.899
0.000	0.005	0.000	-0.005	-0.010	0.015	0.000	2.744	1.899	1.895	1.885	1.904	1.895	1.904
-0.010	0.000	-0.005	-0.005	-0.015	0.010	-0.005	2.681	1.895	1.895	1.890	1.904	1.895	1.904
-0.005	0.005	-0.005	-0.005	-0.020	0.010	0.000	2.617	1.890	1.895	1.890	1.904	1.895	1.899
-0.005	-0.005	-0.005	-0.005	-0.024	0.010	0.000	2.695	1.895	1.890	1.890	1.909	1.895	1.899
-0.005	-0.015	-0.005	-0.005	-0.020	0.000	0.000	2.715	1.899	1.895	1.895	1.909	1.904	1.899
0.000	-0.005	0.000	0.000	-0.020	0.005	0.000	2.671	1.899	1.899	1.895	1.914	1.904	1.899
0.005	0.005	-0.005	0.000	-0.020	0.000	0.000	2.710	1.904	1.904	1.895	1.914	1.904	1.899
-0.005	0.000	-0.005	0.000	-0.020	-0.005	0.000	2.710	1.899	1.899	1.895	1.914	1.904	1.899
-0.005	-0.010	-0.005	0.000	-0.020	0.000	-0.005	2.622	1.895	1.895	1.895	1.914	1.904	1.904
0.000	-0.005	-0.005	0.000	-0.020	0.015	-0.005	2.754	1.904	1.895	1.895	1.914	1.904	1.909
-0.005	-0.005	-0.005	0.000	-0.015	0.000	0.000	2.627	1.904	1.899	1.895	1.914	1.904	1.904
-0.005	0.000	-0.010	0.000	-0.010	0.000	0.000	2.710	1.895	1.895	1.890	1.909	1.909	1.904
-0.005	0.005	-0.005	0.000	-0.015	0.005	0.000	2.646	1.890	1.895	1.890	1.909	1.904	1.904
-0.005	-0.005	-0.005	0.000	-0.010	-0.010	0.000	2.676	1.890	1.890	1.890	1.909	1.904	1.899
-0.005	0.005	-0.005	-0.005	-0.005	0.005	0.000	2.690	1.890	1.890	1.890	1.909	1.904	1.904
-0.005	0.000	0.000	-0.005	-0.020	-0.005	0.000	2.700	1.895	1.890	1.890	1.909	1.899	1.904
-0.005	0.000	-0.005	-0.005	-0.015	-0.010	0.000	2.700	1.899	1.890	1.890	1.909	1.904	1.899
-0.005	-0.010	-0.005	-0.005	-0.005	0.010	0.000	2.700	1.899	1.890	1.885	1.909	1.904	1.909
-0.005	-0.010	0.000	-0.005	0.000	0.010	0.000	2.710	1.899	1.895	1.890	1.909	1.904	1.904
0.000	0.000	0.000	-0.005	-0.010	0.005	0.000	2.681	1.904	1.899	1.895	1.909	1.904	1.909
-0.005	0.000	0.000	-0.005	-0.010	0.010	0.000	2.676	1.895	1.899	1.895	1.909	1.904	1.909
0.000	0.005	-0.005	0.000	-0.005	-0.010	0.000	2.690	1.904	1.904	1.899	1.914	1.909	1.904
-0.005	-0.005	-0.005	0.000	-0.005	-0.005	0.000	2.666	1.899	1.899	1.895	1.914	1.909	1.909
0.005	-0.005	-0.005	0.000	0.000	0.000	0.000	2.700	1.904	1.899	1.899	1.914	1.909	1.909
-0.005	0.005	-0.005	0.000	0.000	-0.005	0.000	2.676	1.899	1.899	1.899	1.919	1.909	1.909
-0.005	0.000	-0.005	0.000	0.005	0.005	0.000	2.681	1.899	1.899	1.895	1.919	1.914	1.914
-0.010	0.010	-0.005	0.000	0.010	-0.005	0.000	2.695	1.895	1.899	1.899	1.914	1.909	1.909
-0.005	0.020	-0.005	0.000	0.000	0.000	0.000	2.690	1.895	1.899	1.895	1.914	1.909	1.909
0.010	0.020	0.000	0.000	0.000	0.005	-0.005	2.666	1.904	1.899	1.899	1.909	1.909	1.909
0.000	-0.005	-0.005	0.000	0.010	-0.005	0.000	2.661	1.895	1.890	1.890	1.909	1.909	1.904
-0.010	0.000	-0.005	-0.005	0.010	-0.005	0.000	2.705	1.895	1.890	1.890	1.909	1.904	1.909
0.000	0.000	-0.005	-0.005	0.010	-0.005	0.000	2.671	1.890	1.890	1.890	1.909	1.904	1.904
0.000	0.000	-0.005	-0.005	0.020	-0.010	0.000	2.681	1.895	1.890	1.890	1.909	1.909	1.909
-0.005	0.010	0.000	-0.005	0.015	0.005	0.000	2.690	1.890	1.895	1.890	1.909	1.909	1.909
-0.005	0.000	0.000	-0.005	0.000	-0.005	0.000	2.681	1.890	1.890	1.890	1.909	1.904	1.909
0.000	-0.005	0.005	-0.005	0.000	-0.015	0.000	2.690	1.895	1.890	1.890	1.909	1.904	1.904
0.000	0.000	-0.005	-0.005	0.010	-0.005	0.000	2.656	1.899	1.895	1.890	1.909	1.909	1.904
0.000	0.000	0.000	-0.005	0.000	-0.010	0.000	2.651	1.909	1.899	1.895	1.914	1.904	1.909
-0.005	0.005	-0.010	0.000	-0.005	0.010	0.000	2.681	1.899	1.904	1.895	1.914	1.904	1.909
0.000	0.005	-0.005	0.000	-0.015	0.000	0.000	2.651	1.899	1.904	1.899	1.919	1.904	1.909
0.000	0.000	-0.005	0.000	-0.015	-0.024	0.000	2.715	1.890	1.899	1.899	1.919	1.909	1.899
0.000	0.000	-0.005	0.000	-0.024	-0.010	0.000	2.681	1.895	1.895	1.895	1.914	1.904	1.904
0.000	0.000	-0.005	0.000	-0.020	-0.015	0.000	2.612	1.885	1.895	1.895	1.914	1.909	1.904
-0.005	0.005	0.005	0.000	-0.010	-0.024	0.000	2.671	1.885	1.890	1.895	1.914	1.909	1.904
-0.010	-0.005	-0.005	0.000	-0.005	-0.020	0.000	2.739	1.890	1.885	1.885	1.909	1.909	1.909
-0.005	-0.020	-0.005	0.000	0.000	-0.024	-0.005	2.695	1.890	1.880	1.885	1.909	1.904	1.904
-0.005	-0.015	0.000	0.000	-0.015	-0.015	0.000	2.612	1.885	1.880	1.880	1.904	1.904	1.904
0.000	-0.015	0.000	-0.005	-0.005	0.005	0.000	2.729	1.895	1.885	1.885	1.904	1.904	1.909
-0.005	-0.005	0.000	-0.005	-0.010	0.005	0.000	2.622	1.885	1.890	1.885	1.899	1.899	1.904
-0.010	-0.015	0.000	-0.005	-0.005	0.005	0.000	2.646	1.885	1.885	1.880	1.904	1.899	1.904
0.000	-0.020	0.000	-0.005	0.000	0.005	0.000	2.725	1.899	1.885	1.880	1.899	1.899	1.904
-0.005	-0.029	0.005	-0.005	0.010	0.000	0.000	2.676	1.895	1.885	1.885	1.899	1.904	1.904
0.000	-0.029	0.000	-0.005	-0.015	0.005	0.000	2.651	1.895	1.890	1.885	1.904	1.895	1.904
-0.010	0.000	0.000	-0.005	-0.010	0.000	0.000	2.705	1.899	1.899	1.885	1.909	1.899	1.899
0.005	-0.010	0.000	-0.005	-0.010	-0.005	0.000	2.695	1.904	1.899	1.895	1.909	1.899	1.899
0.000	0.000	0.000	0.000	0.020	-0.005	0.000	2.666	1.899	1.904	1.895	1.909	1.909	1.909
-0.005	-0.005	-0.005	0.000	0.020	0.000	0.000	2.690	1.899	1.899	1.895	1.914	1.909	1.909
0.005	0.005	-0.005	0.000	0.005	0.000	0.000	2.686	1.899	1.904	1.899	1.914	1.904	1.909
-0.005	0.005	-0.005	0.000	-0.005	-0.020	0.000	2.705	1.904	1.899	1.895	1.914	1.904	1.899
-0.010	0.010	-0.005	0.000	0.000	0.020	-0.005	2.700	1.899	1.899	1.899	1.914	1.904	1.909
-0.010	0.005	-0.005	0.000	0.000	0.015	0.000	2.671	1.895	1.899	1.895	1.914	1.904	1.909
-0.005	0.000	0.000	0.000	0.005	-0.005	0.000	2.700	1.899	1.895	1.895	1.914	1.909	1.904
0.005	0.000	-0.005	0.000	0.005	0.000	0.000	2.666	1.895	1.895	1.895	1.909	1.904	1.904
-0.005	-0.015	-0.005	-0.005	0.000	0.010	0.000	2.666	1.890	1.885	1.890	1.909	1.904	1.904
-0.005	0.000	-0.005	-0.005	0.000	0.005	0.000	2.671	1.895	1.890	1.885	1.909	1.904	1.904
0.000	0.000	-0.005	-0.005	0.000	0.010	0.000	2.676	1.895	1.890	1.890	1.909	1.904	1.904
-0.005	-0.010	0.000	-0.005	-0.010	-0.015	0.000	2.676	1.890	1.890	1.885	1.904	1.899	1.895
-0.005	-0.005	0.000	-0.005	-0.005	0.010	0.000	2.695	1.895	1.890	1.890	1.909	1.904	1.909
-0.005	-0.005	-0.005	-0.005	-0.005	0.005	0.000	2.690	1.899	1.895	1.890	1.909	1.899	1.904
0.005	0.020	0.000	-0.005	0.005	-0.010	0.000	2.700	1.904	1.904	1.895	1.909	1.904	1.899
-0.005	0.015	-0.005	0.000	0.000	-0.005	0.000	2.705	1.909	1.904	1.895	1.914	1.909	1.904
-0.005	0.015	-0.005	-0.005	-0.005	0.005	-0.005	2.671	1.904	1.904	1.899	1.914	1.904	1.909
0.000	0.010	0.000	0.000	-0.005	-0.010	0.000	2.686	1.904	1.904	1.904	1.914	1.909	1.909
-0.010	0.010	-0.005	0.000	-0.005	0.005	0.000	2.686	1.899	1.904	1.904	1.919	1.909	1.909
-0.005	0.020	-0.005	0.000	-0.010	0.005	0.000	2.681	1.904	1.904	1.904	1.919	1.909	1.909
0.000	0.015	-0.005	0.000	-0.005	-0.015	0.000	2.681	1.904	1.904	1.904	1.919	1.909	1.909
-0.005	-0.005	0.000	0.000	-0.005	-0.005	0.000	2.671	1.899	1.890	1.899	1.919	1.909	1.909
-0.005	-0.005	-0.005	0.000	0.000	0.010	0.000	2.778	1.909	1.895	1.895	1.914	1.914	1.914
-0.005	-0.005	0.000	-0.005	0.000	0.005	0.000	2.646	1.899	1.895	1.895	1.914	1.914	1.909
-0.005	-0.010	0.000	0.000	-0.005	0.005	0.000	2.637	1.890	1.890	1.890	1.909	1.909	1.909
0.000	-0.020	0.000	0.000	-0.015	-0.024	0.000	2.646	1.885	1.885	1.890	1.909	1.904	1.899
-0.010	-0.010	0.000	-0.005	-0.020	0.000	0.000	2.686	1.890	1.885	1.890	1.909	1.899	1.904
0.000	-0.010	0.000	-0.005	-0.015	-0.020	-0.005	2.734	1.899	1.890	1.885	1.909	1.904	1.899
0.000	-0.005	-0.005	-0.005	0.000	-0.010	0.000	2.695	1.899	1.895	1.885	1.909	1.909	1.904
0.000	-0.005	0.000	-0.005	0.005	-0.015	0.000	2.754	1.909	1.899	1.890	1.909	1.909	1.904
0.005	-0.005	-0.005	-0.005	-0.010	-0.020	0.000	2.695	1.909	1.904	1.895	1.909	1.904	1.904
-0.005	-0.005	0.000	-0.005	0.000	-0.020	0.000	2.754	1.909	1.904	1.899	1.914	1.909	1.904
-0.005	0.000	0.000	-0.005	0.015	-0.005	0.000	2.725	1.919	1.909	1.899	1.919	1.914	1.914
0.000	0.005	-0.005	-0.005	0.015	0.000	0.000	2.632	1.914	1.909	1.904	1.919	1.914	1.914
0.000	0.000	-0.010	0.000	0.015	0.005	-0.005	2.651	1.904	1.909	1.904	1.919	1.914	1.919
-0.010	-0.010	-0.005	-0.005	0.010	0.010	0.000	2.725	1.909	1.904	1.904	1.919	1.914	1.914
-0.005	-0.010	-0.005	0.000	0.005	0.015	0.000	2.637	1.904	1.904	1.904	1.919	1.914	1.919
-0.005	-0.020	-0.005	0.005	0.020	0.010	0.000	2.642	1.895	1.899	1.904	1.919	1.919	1.919
-0.005	-0.010	0.000	0.000	0.039	-0.010	0.000	2.676	1.895	1.899	1.899	1.919	1.919	1.914
-0.005	0.005	0.000	-0.005	0.015	0.005	0.000	2.700	1.895	1.899	1.899	1.919	1.914	1.914
-0.005	-0.005	0.000	0.000	0.000	-0.010	0.000	2.681	1.895	1.895	1.899	1.914	1.909	1.909
-0.005	0.005	-0.005	-0.005	0.005	-0.005	0.000	2.695	1.895	1.895	1.895	1.914	1.909	1.904
-0.010	-0.005	-0.005	-0.005	0.000	-0.034	0.000	2.700	1.899	1.895	1.895	1.909	1.904	1.899
-0.010	-0.015	-0.005	-0.005	-0.015	-0.020	0.000	2.666	1.895	1.890	1.890	1.909	1.904	1.904
-0.010	-0.010	-0.005	-0.005	-0.015	-0.010	0.000	2.700	1.899	1.890	1.890	1.909	1.904	1.904
-0.010	-0.005	-0.005	-0.005	-0.010	-0.005	0.000	2.671	1.895	1.895	1.890	1.909	1.904	1.909
-0.005	0.000	-0.005	-0.005	-0.059	0.010	0.000	2.681	1.899	1.895	1.895	1.909	1.895	1.904
0.000	-0.005	-0.005	-0.005	-0.054	0.010	0.000	2.705	1.904	1.895	1.895	1.909	1.899	1.909
0.000	-0.024	0.000	0.000	-0.024	0.005	0.000	2.666	1.904	1.895	1.895	1.914	1.914	1.909
0.000	-0.015	0.000	-0.005	-0.029	0.010	0.000	2.700	1.909	1.904	1.899	1.914	1.909	1.909
0.000	-0.010	0.000	-0.005	-0.049	0.005	0.000	2.676	1.904	1.904	1.899	1.914	1.904	1.909
-0.010	-0.010	-0.005	0.000	-0.068	0.000	-0.005	2.676	1.904	1.904	1.899	1.919	1.899	1.899
-0.005	-0.005	-0.005	0.000	-0.054	-0.005	0.000	2.690	1.904	1.909	1.899	1.919	1.909	1.904
0.005	-0.005	0.000	0.000	0.005	0.015	0.000	2.676	1.904	1.904	1.904	1.919	1.929	1.919
0.000	0.000	-0.005	0.000	0.054	0.020	0.000	2.700	1.899	1.904	1.904	1.924	1.938	1.929
-0.010	-0.005	-0.005	0.000	0.088	0.015	0.000	2.676	1.899	1.899	1.899	1.924	1.943	1.929
-0.005	-0.010	0.000	0.000	0.063	-0.005	0.000	2.671	1.899	1.899	1.895	1.919	1.929	1.919
0.000	-0.010	-0.005	0.000	0.034	0.005	0.000	2.686	1.899	1.895	1.895	1.914	1.914	1.919
-0.005	-0.010	-0.005	0.000	0.054	-0.005	0.000	2.671	1.895	1.890	1.895	1.914	1.914	1.919
0.000	-0.005	0.000	-0.005	0.049	0.000	0.000	2.676	1.899	1.895	1.895	1.909	1.909	1.914
0.000	-0.005	0.000	-0.005	0.015	-0.015	0.000	2.681	1.899	1.895	1.890	1.909	1.899	1.909
-0.005	-0.010	0.000	-0.010	-0.015	-0.020	0.000	2.661	1.895	1.890	1.890	1.909	1.890	1.904
0.000	-0.005	0.000	-0.005	-0.015	-0.024	0.000	2.651	1.904	1.895	1.895	1.909	1.895	1.904
0.005	0.005	-0.005	-0.005	-0.044	-0.029	0.000	2.783	1.904	1.899	1.895	1.909	1.890	1.895
-0.005	0.000	0.000	-0.005	-0.054	-0.010	0.000	2.651	1.895	1.899	1.895	1.914	1.895	1.904
0.000	0.010	-0.005	-0.005	-0.083	-0.010	0.000	2.739	1.899	1.904	1.899	1.914	1.890	1.899
0.000	0.005	0.000	-0.005	-0.088	-0.005	0.000	2.690	1.904	1.904	1.899	1.919	1.899	1.899
0.000	0.010	-0.005	0.000	-0.039	-0.010	0.000	2.734	1.909	1.904	1.904	1.919	1.914	1.904
-0.005	0.024	-0.005	0.000	-0.005	-0.015	0.000	2.676	1.899	1.909	1.904	1.919	1.924	1.909
-0.010	0.020	-0.005	0.000	-0.005	0.010	0.000	2.720	1.904	1.904	1.904	1.919	1.924	1.919
-0.005	0.024	-0.005	0.005	0.010	0.015	0.000	2.686	1.899	1.909	1.904	1.924	1.924	1.924
0.000	0.024	-0.005	0.000	0.039	0.000	0.000	2.729	1.899	1.904	1.899	1.919	1.929	1.924
-0.005	0.005	-0.005	0.000	0.039	0.024	0.000	2.739	1.904	1.895	1.899	1.919	1.924	1.929
0.005	0.010	-0.005	0.000	0.024	0.024	0.000	2.627	1.895	1.895	1.899	1.919	1.919	1.924
-0.005	-0.005	-0.005	-0.005	0.054	0.005	0.000	2.725	1.895	1.890	1.890	1.914	1.919	1.919
-0.010	-0.005	0.000	0.000	0.020	0.005	0.000	2.686	1.899	1.890	1.890	1.909	1.904	1.914
-0.010	-0.015	0.000	-0.005	0.010	0.010	0.000	2.686	1.895	1.890	1.890	1.909	1.904	1.914
0.000	-0.010	-0.005	-0.005	0.029	-0.010	0.000	2.637	1.890	1.890	1.890	1.909	1.909	1.904
0.000	-0.015	0.000	-0.005	-0.010	-0.005	0.000	2.681	1.895	1.885	1.890	1.904	1.895	1.904
-0.005	-0.005	0.000	-0.005	-0.024	0.010	0.000	2.705	1.895	1.895	1.890	1.909	1.895	1.904
-0.005	0.000	-0.005	-0.005	-0.015	0.005	0.000	2.695	1.899	1.895	1.890	1.909	1.904	1.904
0.000	-0.010	0.000	-0.005	0.063	-0.005	0.000	2.690	1.899	1.899	1.895	1.914	1.929	1.909
0.000	-0.015	-0.005	-0.005	0.088	-0.010	0.000	2.671	1.904	1.895	1.895	1.919	1.929	1.914
0.000	-0.010	0.000	-0.005	0.044	-0.015	0.000	2.690	1.904	1.899	1.895	1.914	1.914	1.909
-0.010	0.015	0.000	-0.005	-0.010	-0.024	-0.005	2.690	1.904	1.909	1.899	1.914	1.895	1.904
0.000	0.015	-0.005	0.000	-0.034	-0.049	0.000	2.690	1.904	1.904	1.899	1.914	1.895	1.895
0.000	0.010	-0.010	0.000	-0.024	-0.020	0.000	2.695	1.904	1.904	1.899	1.914	1.904	1.904
-0.010	0.005	-0.005	-0.005	-0.044	-0.005	0.000	2.700	1.904	1.899	1.899	1.914	1.899	1.909
0.000	0.000	-0.005	0.000	-0.054	-0.005	0.000	2.676	1.895	1.895	1.895	1.914	1.899	1.904
-0.010	0.000	-0.005	0.000	-0.024	0.005	0.000	2.671	1.890	1.895	1.895	1.914	1.909	1.909
-0.005	-0.005	0.000	-0.005	0.005	0.005	0.000	2.676	1.890	1.890	1.890	1.914	1.919	1.909
0.000	-0.005	0.000	0.000	0.000	0.000	0.000	2.661	1.890	1.890	1.890	1.909	1.909	1.909
-0.010	-0.010	-0.005	0.000	-0.010	-0.010	0.000	2.690	1.890	1.890	1.890	1.904	1.904	1.904
-0.005	-0.005	-0.005	-0.005	-0.005	-0.015	0.000	2.681	1.895	1.890	1.885	1.904	1.904	1.904
0.000	-0.020	-0.005	-0.005	0.015	-0.015	0.000	2.666	1.895	1.885	1.890	1.909	1.909	1.904
0.000	-0.020	0.000	-0.005	0.015	-0.020	0.000	2.661	1.895	1.890	1.890	1.904	1.904	1.904
0.005	-0.015	-0.005	-0.005	-0.005	-0.005	0.000	2.666	1.890	1.890	1.890	1.904	1.904	1.909
0.000	-0.005	-0.005	-0.005	-0.015	0.015	0.000	2.676	1.895	1.895	1.890	1.909	1.899	1.909
-0.005	-0.005	0.000	-0.005	-0.015	0.015	0.000	2.686	1.899	1.899	1.890	1.909	1.904	1.909
0.000	-0.020	0.000	0.000	-0.010	-0.005	0.000	2.676	1.895	1.895	1.895	1.909	1.909	1.904
-0.005	-0.005	-0.005	0.000	0.024	0.024	0.000	2.681	1.895	1.899	1.895	1.914	1.914	1.919
-0.010	-0.005	0.000	0.000	-0.005	0.010	0.000	2.656	1.899	1.899	1.895	1.914	1.904	1.909
-0.010	0.005	-0.005	0.000	-0.034	0.020	0.000	2.642	1.909	1.904	1.895	1.914	1.899	1.909
0.000	0.005	0.000	0.000	-0.059	0.015	0.000	2.690	1.904	1.904	1.899	1.914	1.895	1.904
-0.005	-0.005	0.000	0.000	-0.034	0.015	-0.005	2.651	1.895	1.899	1.895	1.914	1.904	1.904
-0.005	-0.005	-0.005	0.000	-0.010	-0.005	0.000	2.729	1.890	1.895	1.895	1.909	1.909	1.899
0.000	-0.010	0.000	0.000	-0.005	-0.005	0.000	2.676	1.890	1.890	1.890	1.909	1.909	1.904
-0.010	0.005	-0.005	0.000	-0.010	-0.005	0.000	2.637	1.880	1.890	1.890	1.909	1.904	1.904
-0.010	-0.010	0.000	-0.005	0.005	-0.005	0.000	2.646	1.880	1.885	1.890	1.909	1.909	1.904
0.000	0.000	-0.005	-0.005	0.000	-0.005	0.000	2.705	1.890	1.885	1.885	1.904	1.904	1.904
0.010	-0.005	-0.005	-0.005	0.000	-0.005	0.000	2.676	1.890	1.885	1.885	1.904	1.904	1.904
0.005	-0.005	-0.005	-0.005	0.000	-0.015	0.000	2.637	1.890	1.885	1.885	1.904	1.904	1.904
0.000	-0.005	-0.005	-0.005	0.000	-0.015	0.000	2.734	1.895	1.885	1.885	1.904	1.904	1.904
0.010	0.005	0.000	-0.005	0.000	0.000	0.000	2.617	1.890	1.890	1.885	1.904	1.899	1.909
-0.005	0.005	-0.005	0.000	-0.005	-0.024	0.000	2.734	1.895	1.895	1.890	1.904	1.899	1.899
-0.005	0.010	-0.005	-0.005	0.000	-0.005	0.000	2.729	1.909	1.899	1.895	1.909	1.904	1.904
-0.010	0.005	0.000	-0.005	-0.005	-0.005	0.000	2.646	1.895	1.895	1.895	1.909	1.904	1.904
-0.010	0.005	0.000	-0.005	0.000	-0.029	0.000	2.642	1.895	1.895	1.895	1.909	1.904	1.899
-0.005	0.005	-0.005	0.000	-0.010	0.000	0.000	2.705	1.899	1.895	1.895	1.914	1.904	1.909
-0.005	0.005	-0.005	0.000	0.000	0.010	0.000	2.695	1.895	1.895	1.895	1.914	1.909	1.909
0.000	-0.005	-0.010	0.000	0.000	0.000	0.000	2.676	1.895	1.890	1.895	1.909	1.904	1.909
-0.005	-0.010	-0.005	0.000	-0.005	-0.005	0.000	2.695	1.895	1.890	1.890	1.914	1.904	1.904
-0.005	-0.015	-0.005	0.000	-0.005	0.000	0.000	2.686	1.895	1.890	1.890	1.909	1.904	1.904
-0.010	-0.024	-0.005	0.000	-0.005	0.005	0.000	2.676	1.895	1.885	1.885	1.904	1.904	1.904
-0.010	-0.015	-0.005	-0.005	0.000	0.005	0.000	2.690	1.895	1.885	1.885	1.904	1.904	1.904
0.000	-0.024	0.000	-0.005	-0.005	-0.024	0.000	2.661	1.895	1.890	1.885	1.904	1.899	1.895
0.000	-0.005	-0.005	0.000	-0.005	0.000	0.000	2.666	1.890	1.890	1.885	1.904	1.899	1.904
0.000	-0.015	-0.005	-0.005	-0.005	0.000	0.000	2.686	1.890	1.890	1.885	1.904	1.899	1.904
0.000	-0.015	-0.005	-0.005	-0.005	-0.010	0.000	2.666	1.890	1.885	1.885	1.904	1.899	1.899
-0.005	-0.005	0.000	-0.005	0.005	-0.005	0.000	2.671	1.895	1.890	1.885	1.904	1.904	1.899
0.000	-0.039	0.005	-0.005	0.000	0.000	0.000	2.666	1.890	1.885	1.885	1.904	1.899	1.904
0.000	-0.020	-0.005	-0.005	0.005	-0.010	0.000	2.686	1.895	1.890	1.890	1.909	1.904	1.899
0.005	-0.015	-0.005	-0.005	0.005	-0.005	0.000	2.656	1.899	1.899	1.890	1.909	1.904	1.904
-0.005	-0.010	0.000	-0.005	0.000	0.005	0.000	2.705	1.899	1.899	1.895	1.909	1.904	1.904
0.000	-0.010	-0.005	0.000	-0.005	0.000	0.000	2.666	1.895	1.899	1.895	1.909	1.904	1.909
-0.010	0.020	-0.005	0.000	-0.005	-0.020	0.000	2.690	1.895	1.904	1.895	1.909	1.904	1.904
-0.005	0.024	-0.005	0.000	0.000	0.000	0.000	2.666	1.895	1.904	1.899	1.914	1.909	1.909
-0.010	0.020	-0.005	0.000	0.000	0.005	0.000	2.671	1.895	1.899	1.895	1.914	1.909	1.909
-0.010	0.015	0.000	0.000	-0.010	0.005	0.000	2.661	1.890	1.895	1.895	1.909	1.904	1.909
-0.005	0.015	-0.005	-0.005	-0.005	-0.010	0.000	2.671	1.890	1.890	1.890	1.909	1.904	1.899
-0.010	0.015	0.000	0.000	-0.005	0.000	0.000	2.686	1.885	1.890	1.890	1.909	1.904	1.904
-0.010	0.010	0.000	-0.005	-0.015	-0.005	0.000	2.622	1.885	1.885	1.885	1.904	1.899	1.899
-0.005	0.000	0.000	-0.005	-0.005	-0.015	0.000	2.642	1.895	1.885	1.885	1.904	1.904	1.895
-0.005	-0.010	0.005	-0.005	0.000	0.000	0.000	2.666	1.885	1.880	1.885	1.904	1.899	1.904
0.010	-0.015	0.000	-0.005	0.000	0.000	0.000	2.646	1.890	1.880	1.885	1.904	1.899	1.904
-0.005	-0.015	0.000	-0.005	-0.010	0.000	0.000	2.734	1.885	1.880	1.880	1.899	1.895	1.899
-0.005	-0.015	0.005	-0.005	-0.010	0.000	0.000	2.666	1.890	1.885	1.885	1.899	1.899	1.899
-0.005	-0.010	0.000	-0.005	-0.005	0.000	0.000	2.710	1.895	1.890	1.880	1.904	1.899	1.904
-0.005	-0.010	0.000	-0.005	0.000	-0.015	0.000	2.676	1.895	1.890	1.885	1.904	1.899	1.899
-0.005	-0.005	-0.005	0.000	-0.010	-0.020	0.000	2.729	1.904	1.895	1.885	1.904	1.899	1.899
-0.005	-0.015	0.000	0.000	-0.010	-0.005	0.000	2.690	1.899	1.895	1.890	1.909	1.899	1.899
0.005	-0.015	0.000	0.000	0.000	0.005	0.000	2.734	1.899	1.895	1.890	1.909	1.904	1.909
0.000	-0.024	-0.005	0.000	0.005	0.010	0.000	2.715	1.899	1.895	1.895	1.909	1.904	1.909
0.000	-0.015	0.000	0.000	-0.005	0.005	0.000	2.715	1.904	1.899	1.890	1.909	1.904	1.904
0.000	-0.010	-0.005	0.000	0.005	0.005	0.000	2.656	1.895	1.895	1.895	1.909	1.904	1.909
0.010	-0.010	0.000	0.000	0.000	0.000	0.000	2.710	1.904	1.899	1.895	1.909	1.904	1.904
0.000	-0.005	0.005	0.000	-0.005	-0.010	0.000	2.642	1.890	1.899	1.895	1.909	1.899	1.899
-0.005	0.005	-0.015	0.000	-0.010	0.000	0.000	2.642	1.880	1.890	1.890	1.904	1.899	1.899
0.000	-0.005	-0.010	-0.005	-0.005	-0.010	0.000	2.656	1.880	1.885	1.885	1.904	1.899	1.899
0.000	-0.005	0.000	-0.005	-0.020	-0.005	0.000	2.681	1.880	1.885	1.885	1.904	1.899	1.899
0.000	-0.005	-0.005	-0.005	-0.005	0.010	0.000	2.656	1.885	1.885	1.885	1.904	1.904	1.904
0.000	-0.005	-0.005	-0.005	-0.010	-0.010	0.000	2.681	1.890	1.885	1.880	1.904	1.895	1.895
-0.005	-0.005	0.000	-0.005	-0.005	0.000	-0.005	2.661	1.890	1.885	1.885	1.904	1.899	1.899
0.000	-0.005	0.000	-0.005	0.005	-0.005	0.000	2.661	1.885	1.880	1.885	1.904	1.904	1.899
-0.005	-0.015	0.000	-0.005	0.000	0.000	0.000	2.681	1.890	1.885	1.885	1.904	1.899	1.904
0.000	-0.005	-0.005	-0.005	0.015	0.005	-0.005	2.666	1.895	1.890	1.885	1.904	1.909	1.904
-0.005	-0.010	-0.005	0.000	0.010	0.005	0.000	2.666	1.890	1.890	1.885	1.904	1.904	1.904
-0.010	0.024	0.000	0.000	0.005	-0.010	0.000	2.686	1.899	1.904	1.890	1.904	1.904	1.899
-0.005	0.024	0.000	0.000	0.005	0.005	-0.005	2.661	1.895	1.899	1.895	1.909	1.904	1.904
0.000	0.015	0.000	0.000	0.000	-0.020	0.000	2.695	1.899	1.899	1.895	1.909	1.904	1.899
-0.005	0.010	-0.010	0.000	0.000	0.005	0.000	2.690	1.895	1.895	1.890	1.909	1.904	1.909
0.000	0.015	0.000	0.000	-0.005	0.005	0.000	2.661	1.895	1.895	1.895	1.909	1.904	1.909
-0.010	0.015	-0.005	0.000	0.005	0.005	0.000	2.666	1.885	1.890	1.890	1.909	1.904	1.904
-0.005	0.010	0.000	0.005	0.000	0.010	0.000	2.661	1.890	1.890	1.890	1.904	1.899	1.899
0.000	0.024	0.000	-0.005	-0.010	0.005	-0.005	2.666	1.890	1.890	1.885	1.904	1.899	1.899
0.005	0.024	0.000	0.000	-0.015	0.005	0.000	2.676	1.890	1.890	1.885	1.904	1.895	1.899
0.000	0.015	0.005	-0.005	-0.020	0.000	0.000	2.695	1.890	1.885	1.885	1.904	1.895	1.895
0.005	-0.015	0.010	-0.005	-0.039	-0.020	0.000	2.690	1.890	1.875	1.880	1.904	1.890	1.890
-0.005	-0.034	0.000	-0.005	-0.010	0.000	0.000	2.671	1.885	1.875	1.875	1.899	1.904	1.899
-0.005	-0.059	-0.010	-0.005	0.005	0.000	0.000	2.676	1.885	1.870	1.875	1.899	1.904	1.899
-0.015	-0.063	-0.010	-0.005	0.015	-0.029	0.000	2.686	1.890	1.875	1.875	1.899	1.904	1.895
-0.020	-0.044	0.000	-0.005	0.024	0.005	-0.005	2.661	1.890	1.885	1.880	1.899	1.904	1.904
-0.005	-0.020	0.000	-0.005	0.024	0.000	0.000	2.646	1.895	1.895	1.885	1.904	1.904	1.909
-0.005	-0.005	-0.005	0.000	0.024	-0.010	0.000	2.778	1.909	1.904	1.890	1.904	1.904	1.904
-0.005	0.000	-0.005	-0.005	0.015	-0.005	0.000	2.656	1.904	1.899	1.895	1.904	1.895	1.904
0.000	0.010	0.000	-0.005	-0.005	0.000	0.000	2.729	1.904	1.904	1.895	1.909	1.895	1.899
0.000	0.010	0.000	0.000	-0.024	0.005	0.000	2.681	1.904	1.904	1.899	1.909	1.895	1.899
-0.010	0.005	-0.005	0.000	-0.034	-0.005	0.000	2.681	1.904	1.904	1.895	1.914	1.895	1.895
0.000	0.005	0.005	0.000	-0.029	0.000	0.000	2.661	1.899	1.899	1.899	1.914	1.899	1.895
-0.005	0.010	-0.005	0.000	-0.010	0.005	0.000	2.739	1.899	1.895	1.895	1.914	1.904	1.904
-0.005	0.000	0.000	0.000	0.010	-0.010	0.000	2.686	1.895	1.890	1.895	1.909	1.909	1.899
0.005	-0.010	0.000	0.000	0.015	-0.024	0.000	2.607	1.880	1.890	1.890	1.909	1.909	1.899
-0.005	-0.010	0.000	-0.005	0.000	0.010	0.000	2.720	1.890	1.885	1.890	1.909	1.904	1.909
0.000	-0.010	-0.005	-0.005	0.000	0.005	0.000	2.622	1.880	1.885	1.885	1.904	1.904	1.904
0.005	0.000	-0.005	-0.005	-0.005	-0.005	0.000	2.725	1.880	1.885	1.885	1.904	1.899	1.904
0.005	0.005	0.000	-0.005	-0.005	-0.010	0.000	2.627	1.885	1.885	1.885	1.904	1.899	1.899
0.005	0.020	-0.005	-0.005	0.005	0.005	0.000	2.744	1.895	1.890	1.890	1.904	1.904	1.904
0.005	0.015	0.000	-0.005	0.000	-0.005	0.000	2.642	1.890	1.895	1.890	1.909	1.904	1.904
-0.005	0.024	-0.005	-0.005	0.005	0.000	0.000	2.671	1.895	1.890	1.890	1.909	1.904	1.909
-0.005	0.010	0.000	-0.005	0.005	-0.005	0.000	2.700	1.895	1.895	1.890	1.909	1.909	1.904
0.000	-0.020	-0.005	-0.005	0.005	-0.005	0.000	2.695	1.899	1.885	1.890	1.909	1.904	1.904
-0.005	-0.015	-0.005	0.000	0.005	0.000	0.000	2.690	1.899	1.890	1.890	1.909	1.904	1.909
-0.005	-0.005	-0.010	0.000	0.005	-0.010	0.000	2.695	1.895	1.895	1.890	1.909	1.904	1.904
0.000	-0.005	-0.005	0.005	0.000	0.005	0.000	2.690	1.899	1.899	1.890	1.909	1.904	1.904
-0.005	0.000	-0.005	0.005	0.005	-0.015	0.000	2.690	1.899	1.895	1.890	1.909	1.904	1.904
0.000	0.005	-0.005	0.000	0.005	-0.020	0.000	2.676	1.895	1.895	1.890	1.909	1.904	1.899
-0.010	0.000	-0.005	0.000	-0.010	-0.005	0.000	2.676	1.895	1.895	1.890	1.904	1.895	1.904
0.000	0.000	-0.005	-0.005	-0.029	-0.010	0.000	2.661	1.890	1.890	1.890	1.904	1.895	1.899
-0.005	-0.010	0.000	-0.005	0.000	-0.015	0.000	2.681	1.885	1.885	1.885	1.904	1.899	1.895
-0.005	-0.010	0.000	-0.005	-0.005	0.000	0.000	2.666	1.890	1.880	1.885	1.904	1.895	1.904
-0.015	-0.024	0.000	-0.005	-0.039	0.005	0.000	2.686	1.885	1.880	1.880	1.904	1.890	1.899
0.005	-0.020	0.000	-0.005	-0.049	0.005	0.000	2.671	1.890	1.885	1.885	1.904	1.890	1.895
-0.005	-0.010	-0.005	-0.010	-0.044	0.000	0.000	2.690	1.890	1.890	1.885	1.904	1.895	1.895
-0.005	-0.015	-0.005	-0.005	-0.034	0.000	0.000	2.671	1.890	1.885	1.885	1.904	1.899	1.899
0.005	-0.010	-0.005	-0.005	-0.010	-0.005	0.000	2.661	1.890	1.895	1.885	1.904	1.909	1.899
0.000	0.000	0.000	0.000	-0.005	0.000	0.000	2.690	1.895	1.899	1.890	1.909	1.909	1.909
0.000	0.005	-0.005	-0.005	0.020	-0.005	0.000	2.671	1.895	1.899	1.890	1.909	1.914	1.909
-0.005	0.000	0.000	-0.005	0.054	0.000	0.000	2.700	1.895	1.895	1.895	1.914	1.924	1.914
-0.005	-0.005	0.000	0.000	0.034	-0.005	0.000	2.695	1.899	1.895	1.895	1.914	1.909	1.914
0.000	0.000	-0.005	0.000	0.054	-0.010	0.000	2.676	1.899	1.895	1.895	1.914	1.914	1.909
0.005	0.005	0.000	0.005	0.015	0.010	0.000	2.676	1.895	1.895	1.895	1.909	1.904	1.914
0.000	0.000	-0.010	0.000	0.015	-0.005	0.000	2.646	1.895	1.895	1.890	1.909	1.904	1.904
-0.005	-0.005	-0.005	0.000	0.000	0.010	0.000	2.637	1.890	1.890	1.890	1.909	1.899	1.909
-0.005	-0.005	-0.005	0.000	-0.015	0.010	-0.005	2.778	1.899	1.890	1.885	1.904	1.895	1.899
-0.010	-0.015	-0.010	-0.005	-0.029	0.000	0.000	2.642	1.885	1.885	1.885	1.899	1.890	1.899
0.000	-0.010	0.000	-0.005	-0.020	0.000	0.000	2.725	1.895	1.885	1.885	1.899	1.895	1.895
0.000	-0.010	0.000	-0.005	-0.010	-0.005	0.000	2.671	1.895	1.890	1.885	1.904	1.899	1.895
-0.010	0.000	-0.005	-0.005	0.000	-0.034	0.000	2.725	1.895	1.890	1.885	1.899	1.899	1.890
-0.005	0.000	-0.005	0.000	0.000	0.000	0.000	2.676	1.890	1.890	1.885	1.904	1.899	1.899
-0.005	-0.005	-0.005	-0.005	0.010	0.000	0.000	2.720	1.895	1.890	1.890	1.904	1.904	1.899
-0.010	-0.005	-0.005	0.000	0.005	-0.034	-0.005	2.681	1.895	1.890	1.890	1.904	1.899	1.895
-0.005	-0.005	-0.005	-0.005	-0.005	-0.010	0.000	2.710	1.899	1.895	1.890	1.909	1.899	1.904
-0.010	0.000	-0.005	-0.005	-0.005	-0.005	0.000	2.734	1.909	1.899	1.895	1.914	1.904	1.904
-0.010	-0.005	-0.005	0.000	-0.005	0.005	0.000	2.617	1.895	1.899	1.895	1.914	1.909	1.909
0.005	-0.005	-0.005	0.000	0.015	0.010	0.000	2.637	1.895	1.899	1.895	1.914	1.914	1.909
-0.005	-0.005	0.000	0.015	0.024	0.000	0.000	2.627	1.904	1.899	1.899	1.919	1.914	1.909
-0.005	-0.010	0.000	0.005	0.024	0.015	0.000	2.715	1.895	1.899	1.899	1.914	1.914	1.919
-0.010	-0.005	0.000	-0.005	0.000	0.015	0.000	2.627	1.885	1.895	1.895	1.909	1.909	1.909
-0.005	0.000	-0.005	-0.005	0.015	-0.015	0.000	2.695	1.890	1.890	1.895	1.909	1.909	1.904
-0.005	0.015	-0.005	-0.005	0.010	-0.005	0.000	2.695	1.890	1.895	1.895	1.909	1.904	1.904
0.000	0.005	0.000	0.005	0.034	-0.015	0.000	2.681	1.895	1.890	1.890	1.914	1.914	1.904
-0.005	0.000	-0.005	-0.005	0.015	-0.029	0.000	2.686	1.890	1.885	1.885	1.904	1.899	1.899
-0.005	-0.005	-0.005	-0.010	-0.024	-0.029	0.000	2.686	1.885	1.885	1.885	1.904	1.890	1.895
0.010	0.000	-0.005	-0.005	-0.029	-0.020	0.000	2.695	1.890	1.885	1.885	1.899	1.895	1.895
0.000	-0.024	-0.005	-0.005	-0.044	-0.024	0.000	2.681	1.890	1.880	1.885	1.899	1.885	1.895
0.000	-0.024	0.000	-0.010	-0.044	-0.015	0.000	2.666	1.885	1.880	1.885	1.904	1.890	1.895
-0.005	-0.015	0.000	-0.005	-0.083	-0.024	0.000	2.676	1.890	1.885	1.880	1.899	1.885	1.890
-0.005	-0.005	-0.005	0.000	-0.078	-0.005	0.000	2.666	1.890	1.895	1.885	1.904	1.890	1.895
0.005	0.000	-0.005	-0.005	-0.044	0.000	0.000	2.690	1.895	1.890	1.890	1.904	1.904	1.904
-0.005	0.005	0.000	-0.005	-0.010	0.010	0.000	2.681	1.895	1.895	1.895	1.909	1.914	1.909
0.000	0.005	-0.005	0.000	0.015	0.020	0.000	2.666	1.895	1.899	1.895	1.914	1.919	1.914
-0.005	0.015	-0.005	0.000	0.049	0.010	0.000	2.681	1.895	1.899	1.895	1.914	1.924	1.914
0.000	-0.015	-0.005	0.010	0.039	0.005	0.000	2.690	1.899	1.890	1.895	1.914	1.919	1.919
-0.005	-0.010	0.000	0.010	0.044	0.005	0.000	2.676	1.899	1.895	1.890	1.914	1.919	1.914
-0.005	-0.015	-0.005	0.015	0.044	0.024	0.000	2.666	1.895	1.890	1.890	1.914	1.919	1.924
0.000	0.015	-0.005	0.010	0.034	0.015	0.000	2.686	1.899	1.904	1.895	1.909	1.909	1.914
-0.015	0.015	-0.005	0.000	0.010	0.020	0.000	2.695	1.895	1.895	1.890	1.904	1.895	1.909
-0.005	0.005	0.000	-0.010	0.000	-0.010	0.000	2.686	1.895	1.890	1.890	1.899	1.895	1.899
-0.010	-0.005	-0.005	-0.005	-0.005	0.000	-0.005	2.686	1.890	1.890	1.890	1.899	1.895	1.899
-0.005	0.000	0.000	0.000	0.000	0.005	0.000	2.671	1.895	1.890	1.890	1.904	1.895	1.899
-0.005	-0.010	0.000	-0.005	0.000	0.005	0.000	2.681	1.885	1.885	1.885	1.899	1.895	1.895
0.005	-0.005	-0.005	0.000	-0.005	0.000	-0.005	2.661	1.895	1.885	1.885	1.904	1.899	1.895
0.000	-0.005	0.000	-0.005	0.005	-0.015	0.000	2.783	1.904	1.890	1.885	1.904	1.899	1.895
0.005	0.005	0.000	0.005	-0.010	0.000	0.000	2.778	1.909	1.899	1.890	1.909	1.899	1.899
-0.005	0.000	0.000	0.000	-0.005	0.000	0.000	2.646	1.904	1.899	1.895	1.909	1.904	1.899
-0.010	-0.005	-0.005	0.010	-0.010	-0.005	0.000	2.646	1.895	1.899	1.895	1.914	1.904	1.899
0.000	0.005	-0.005	0.005	-0.015	0.000	0.000	2.681	1.904	1.904	1.899	1.914	1.904	1.904
0.000	0.015	-0.005	0.000	-0.010	-0.015	0.000	2.734	1.909	1.909	1.899	1.914	1.904	1.904
0.005	0.015	-0.005	-0.005	-0.010	-0.005	0.000	2.686	1.904	1.904	1.899	1.914	1.909	1.904
0.000	0.005	0.000	-0.005	-0.020	-0.005	0.000	2.651	1.909	1.904	1.899	1.914	1.909	1.909
-0.010	0.005	-0.005	-0.005	-0.020	-0.005	0.000	2.661	1.899	1.899	1.899	1.914	1.904	1.909
-0.005	-0.005	-0.005	0.015	-0.015	0.000	0.000	2.729	1.904	1.899	1.899	1.919	1.909	1.909
0.005	-0.010	0.000	0.029	0.000	-0.005	0.000	2.705	1.904	1.899	1.899	1.924	1.914	1.909
-0.015	-0.010	0.000	0.015	0.010	0.000	0.000	2.739	1.904	1.895	1.895	1.914	1.914	1.909
-0.005	-0.015	0.000	-0.005	0.005	-0.015	0.000	2.720	1.904	1.895	1.890	1.909	1.909	1.904
-0.005	0.005	-0.005	-0.015	0.005	-0.005	0.000	2.720	1.904	1.904	1.895	1.904	1.904	1.909
-0.005	-0.005	-0.005	-0.010	0.000	0.000	-0.005	2.710	1.909	1.899	1.895	1.909	1.904	1.909
0.000	-0.005	-0.005	-0.005	-0.005	-0.010	0.000	2.627	1.895	1.899	1.895	1.909	1.904	1.904
0.000	-0.010	-0.005	0.005	-0.005	-0.029	0.000	2.666	1.895	1.899	1.895	1.914	1.904	1.899
-0.005	0.000	-0.005	0.010	-0.005	0.000	0.000	2.676	1.890	1.895	1.899	1.914	1.909	1.909
-0.005	0.005	-0.005	0.000	0.000	0.010	0.000	2.690	1.895	1.899	1.895	1.914	1.909	1.914
0.000	0.000	-0.005	0.000	0.000	0.005	0.000	2.695	1.904	1.899	1.895	1.919	1.914	1.909
0.005	-0.005	0.000	0.010	0.000	-0.020	0.000	2.690	1.899	1.904	1.904	1.919	1.914	1.909
-0.005	0.005	0.000	0.015	-0.005	-0.015	0.000	2.695	1.899	1.904	1.899	1.924	1.914	1.909
0.000	0.005	-0.010	0.020	0.000	0.005	0.000	2.695	1.904	1.904	1.899	1.924	1.914	1.919
-0.010	0.005	-0.005	0.020	-0.005	0.005	0.000	2.695	1.904	1.904	1.899	1.924	1.919	1.919
-0.015	0.005	-0.005	0.015	-0.005	0.005	0.000	2.671	1.899	1.904	1.899	1.919	1.919	1.919
-0.010	0.010	-0.005	0.005	-0.005	0.005	0.000	2.676	1.899	1.899	1.899	1.914	1.914	1.919
0.000	0.005	0.000	-0.005	0.000	0.000	0.000	2.681	1.899	1.899	1.899	1.914	1.909	1.914
0.005	0.005	0.000	0.000	-0.005	-0.024	-0.005	2.705	1.904	1.899	1.899	1.914	1.909	1.904
-0.005	0.000	0.005	0.000	-0.005	0.000	0.000	2.671	1.890	1.890	1.895	1.909	1.909	1.914
-0.005	-0.024	-0.005	0.005	-0.005	0.000	0.000	2.671	1.890	1.885	1.890	1.909	1.909	1.909
-0.005	-0.024	-0.005	-0.005	-0.005	0.000	0.000	2.690	1.890	1.885	1.885	1.909	1.909	1.909
-0.005	-0.020	-0.005	-0.005	-0.010	-0.020	0.000	2.676	1.895	1.890	1.885	1.904	1.904	1.904
0.000	-0.010	0.000	0.000	-0.020	0.010	0.000	2.681	1.895	1.895	1.890	1.904	1.904	1.909
0.005	-0.005	-0.005	0.015	-0.015	0.000	0.000	2.666	1.899	1.895	1.890	1.909	1.904	1.909
0.000	0.015	0.000	0.020	-0.010	0.000	0.000	2.690	1.899	1.899	1.895	1.914	1.904	1.904
0.000	0.005	-0.005	0.020	-0.010	0.000	0.000	2.681	1.899	1.899	1.895	1.914	1.909	1.904
-0.005	-0.005	-0.005	0.005	0.000	-0.024	0.000	2.695	1.899	1.895	1.895	1.909	1.909	1.904
-0.015	-0.005	-0.005	-0.015	0.000	0.005	0.000	2.676	1.899	1.899	1.895	1.909	1.909	1.914
-0.005	-0.010	-0.005	-0.034	-0.005	0.005	0.000	2.681	1.904	1.899	1.895	1.904	1.904	1.909
-0.010	-0.005	0.000	-0.034	-0.024	0.000	0.000	2.651	1.899	1.899	1.899	1.904	1.899	1.909
0.000	0.000	0.005	-0.034	-0.005	-0.005	0.000	2.651	1.899	1.899	1.895	1.909	1.909	1.904
0.005	0.015	-0.005	-0.024	0.010	0.000	0.000	2.778	1.909	1.904	1.899	1.914	1.914	1.909
-0.015	-0.020	-0.005	-0.015	0.015	0.000	-0.005	2.646	1.895	1.895	1.895	1.914	1.914	1.914
-0.005	0.005	-0.005	-0.020	0.029	0.000	0.000	2.734	1.904	1.899	1.895	1.914	1.914	1.909
0.000	-0.005	-0.005	-0.029	0.039	-0.024	0.000	2.671	1.899	1.899	1.895	1.909	1.914	1.904
0.000	-0.005	-0.005	-0.034	0.034	-0.010	0.000	2.729	1.904	1.895	1.895	1.909	1.909	1.909
0.000	-0.015	0.000	-0.020	0.000	0.000	0.000	2.651	1.899	1.895	1.890	1.909	1.899	1.909
-0.005	-0.005	-0.005	-0.015	-0.005	0.005	0.000	2.715	1.899	1.895	1.895	1.909	1.899	1.904
0.005	0.005	-0.005	-0.015	-0.015	0.000	0.000	2.671	1.904	1.899	1.895	1.914	1.899	1.904
-0.005	0.005	-0.005	-0.015	-0.010	-0.005	0.000	2.710	1.899	1.899	1.895	1.909	1.904	1.904
0.000	-0.005	0.000	-0.005	-0.005	0.000	-0.005	2.725	1.904	1.899	1.895	1.919	1.904	1.904
-0.005	-0.005	-0.005	-0.005	-0.005	0.000	0.000	2.651	1.899	1.899	1.899	1.914	1.909	1.904
-0.005	-0.010	0.000	-0.020	-0.015	-0.005	0.000	2.725	1.909	1.899	1.899	1.914	1.909	1.904
0.005	-0.005	-0.005	0.015	-0.005	0.000	0.000	2.715	1.914	1.904	1.904	1.929	1.914	1.914
0.005	0.010	0.000	0.010	-0.005	0.000	-0.005	2.754	1.919	1.914	1.904	1.929	1.919	1.914
0.010	0.024	-0.005	0.029	-0.010	-0.010	0.000	2.656	1.909	1.914	1.909	1.929	1.919	1.914
0.005	0.015	-0.005	0.024	0.005	0.000	0.000	2.690	1.909	1.909	1.909	1.934	1.924	1.919
-0.020	-0.005	-0.005	0.024	0.005	-0.005	0.000	2.705	1.904	1.904	1.904	1.929	1.924	1.919
0.000	-0.015	0.000	0.024	0.000	0.010	0.000	2.661	1.899	1.899	1.904	1.929	1.924	1.924
-0.010	-0.039	-0.005	0.010	-0.010	-0.005	0.000	2.700	1.899	1.890	1.895	1.919	1.914	1.919
-0.010	-0.044	-0.010	0.020	-0.020	0.005	0.000	2.661	1.890	1.890	1.895	1.919	1.914	1.919
-0.005	-0.020	-0.010	0.034	-0.024	0.005	0.000	2.690	1.895	1.895	1.895	1.919	1.909	1.914
-0.005	0.000	-0.005	0.024	-0.020	-0.010	0.000	2.671	1.895	1.899	1.890	1.914	1.909	1.909
0.010	-0.005	0.000	0.024	-0.039	0.000	0.000	2.671	1.899	1.899	1.890	1.914	1.904	1.909
-0.005	-0.015	-0.005	0.020	-0.049	-0.024	0.000	2.690	1.895	1.890	1.890	1.909	1.904	1.899
-0.005	-0.015	0.000	0.020	-0.039	0.000	0.000	2.695	1.899	1.895	1.895	1.909	1.909	1.909
-0.005	0.010	-0.010	0.029	0.015	-0.005	0.000	2.686	1.899	1.899	1.895	1.914	1.919	1.914
0.005	0.015	0.000	0.020	0.015	-0.010	0.000	2.676	1.904	1.904	1.895	1.914	1.919	1.909
0.010	0.020	0.000	0.010	0.024	-0.024	0.000	2.686	1.909	1.909	1.899	1.914	1.919	1.909
-0.005	0.010	0.000	0.015	0.024	-0.010	0.000	2.690	1.904	1.904	1.904	1.914	1.914	1.919
-0.005	0.010	-0.010	0.015	0.015	-0.039	0.000	2.695	1.909	1.904	1.899	1.919	1.914	1.914
-0.005	0.010	-0.005	0.020	0.020	-0.005	0.000	2.690	1.914	1.909	1.904	1.924	1.914	1.919
0.000	0.010	-0.005	0.024	0.000	0.000	0.000	2.676	1.909	1.909	1.904	1.924	1.914	1.919
-0.010	0.010	-0.005	0.029	-0.005	-0.005	0.000	2.690	1.904	1.909	1.904	1.924	1.914	1.919
-0.005	0.020	-0.005	0.024	-0.015	0.010	0.000	2.695	1.909	1.909	1.909	1.924	1.909	1.919
-0.005	0.015	0.000	-0.020	-0.024	-0.015	0.000	2.690	1.909	1.904	1.904	1.909	1.904	1.909
-0.005	0.015	-0.005	-0.020	-0.034	0.029	0.000	2.681	1.904	1.909	1.904	1.909	1.904	1.919
-0.010	0.000	-0.005	-0.015	-0.073	0.029	0.000	2.671	1.904	1.899	1.899	1.914	1.895	1.909
-0.005	-0.034	0.000	-0.044	-0.059	0.024	0.000	2.686	1.899	1.885	1.895	1.904	1.899	1.904
0.000	-0.039	-0.005	-0.020	-0.015	-0.010	0.000	2.661	1.895	1.885	1.890	1.909	1.909	1.899
0.000	-0.024	0.000	-0.005	-0.020	-0.005	0.000	2.637	1.895	1.890	1.890	1.914	1.909	1.899
-0.005	-0.020	0.000	0.010	-0.005	0.005	0.000	2.778	1.899	1.895	1.890	1.919	1.914	1.909
0.000	-0.020	0.000	0.029	0.000	0.000	0.000	2.651	1.899	1.895	1.890	1.919	1.919	1.909
-0.005	-0.024	0.000	0.020	0.000	-0.015	0.000	2.729	1.904	1.895	1.890	1.914	1.914	1.909
0.000	-0.015	-0.005	0.010	0.059	-0.010	0.000	2.676	1.909	1.904	1.895	1.914	1.934	1.914
0.010	-0.010	-0.005	0.005	0.034	-0.010	0.000	2.725	1.914	1.909	1.899	1.914	1.919	1.919
0.000	0.000	-0.005	-0.005	-0.015	-0.010	0.000	2.686	1.909	1.909	1.899	1.914	1.899	1.914
-0.005	0.005	-0.005	0.015	0.010	-0.015	0.000	2.725	1.914	1.914	1.904	1.919	1.919	1.914
-0.005	-0.005	-0.005	-0.010	0.107	0.000	0.000	2.695	1.909	1.909	1.909	1.919	1.943	1.924
-0.005	0.000	0.000	-0.015	0.132	0.029	0.000	2.739	1.914	1.909	1.909	1.919	1.943	1.938
0.005	0.000	-0.005	-0.024	0.103	0.020	0.000	2.744	1.924	1.914	1.909	1.919	1.924	1.929
-0.005	0.010	0.000	-0.010	0.020	0.000	0.000	2.729	1.919	1.914	1.909	1.924	1.899	1.919
-0.010	-0.010	-0.005	-0.024	-0.015	0.015	0.000	2.622	1.904	1.909	1.909	1.919	1.895	1.914
-0.015	-0.005	-0.005	-0.020	-0.015	-0.005	0.000	2.725	1.909	1.909	1.909	1.924	1.899	1.904
-0.005	-0.005	-0.005	-0.005	0.015	-0.005	0.000	2.720	1.899	1.909	1.904	1.924	1.914	1.909
-0.005	0.015	-0.005	-0.005	0.024	-0.015	0.000	2.651	1.890	1.904	1.904	1.924	1.914	1.904
0.000	0.024	0.000	-0.020	0.015	-0.029	0.000	2.695	1.899	1.904	1.904	1.924	1.909	1.904
-0.010	0.020	0.000	-0.020	0.010	-0.029	0.000	2.705	1.899	1.899	1.904	1.919	1.914	1.904
0.000	0.020	-0.005	-0.024	0.010	-0.044	0.000	2.686	1.895	1.899	1.899	1.919	1.914	1.904
-0.005	-0.024	0.000	-0.024	-0.034	-0.044	0.000	2.695	1.895	1.885	1.890	1.914	1.899	1.899
-0.010	-0.029	-0.005	-0.029	-0.073	-0.015	0.000	2.686	1.899	1.885	1.890	1.914	1.890	1.904
0.000	-0.015	-0.005	-0.015	-0.078	-0.024	0.000	2.686	1.899	1.895	1.895	1.914	1.895	1.899
0.005	0.000	-0.005	-0.010	-0.063	-0.020	0.000	2.700	1.904	1.904	1.895	1.914	1.904	1.904
0.005	0.010	-0.005	-0.010	-0.049	0.010	0.000	2.671	1.904	1.909	1.904	1.919	1.914	1.919
0.000	0.005	0.000	-0.020	-0.039	0.020	0.000	2.681	1.904	1.909	1.904	1.919	1.919	1.919
0.000	0.005	0.005	0.000	-0.024	0.015	0.000	2.690	1.909	1.904	1.904	1.929	1.924	1.919
-0.010	0.000	-0.005	0.024	-0.020	0.020	0.000	2.700	1.899	1.899	1.904	1.929	1.929	1.924
-0.005	-0.005	-0.005	0.020	-0.015	0.005	0.000	2.690	1.904	1.904	1.899	1.929	1.924	1.924
-0.005	0.020	0.000	0.000	-0.010	0.024	0.000	2.671	1.904	1.909	1.899	1.919	1.924	1.929
-0.010	0.024	0.000	0.000	-0.010	0.010	0.000	2.700	1.904	1.904	1.904	1.924	1.919	1.919
-0.005	0.010	0.000	0.010	-0.005	0.010	0.000	2.705	1.909	1.904	1.899	1.924	1.924	1.924
-0.010	0.010	-0.005	-0.005	0.000	0.015	0.000	2.681	1.904	1.899	1.895	1.914	1.919	1.919
0.005	0.010	-0.005	-0.015	0.000	-0.005	0.000	2.656	1.899	1.899	1.895	1.909	1.914	1.909
0.000	0.000	0.000	-0.015	0.000	-0.010	-0.005	2.695	1.904	1.895	1.895	1.914	1.909	1.909
-0.005	-0.005	0.000	-0.015	-0.010	0.000	0.000	2.695	1.904	1.895	1.895	1.909	1.904	1.914
-0.005	0.000	-0.005	-0.020	-0.015	-0.029	0.000	2.700	1.904	1.899	1.895	1.909	1.904	1.899
-0.005	-0.005	0.005	-0.015	-0.005	-0.020	0.000	2.695	1.899	1.899	1.895	1.914	1.909	1.909
-0.005	-0.005	-0.010	-0.010	0.005	0.010	0.000	2.676	1.899	1.899	1.890	1.914	1.909	1.914
0.000	-0.015	-0.005	-0.015	-0.005	0.010	0.000	2.695	1.899	1.895	1.895	1.914	1.909	1.914
-0.010	-0.010	-0.005	-0.015	0.000	0.010	0.000	2.637	1.895	1.899	1.895	1.914	1.914	1.914
-0.015	-0.010	-0.005	-0.005	0.000	0.005	0.000	2.646	1.899	1.899	1.899	1.919	1.914	1.914
0.000	0.000	-0.005	-0.005	-0.005	-0.005	0.000	2.778	1.890	1.904	1.899	1.919	1.914	1.914
-0.010	-0.005	-0.010	-0.015	-0.005	-0.010	0.000	2.651	1.890	1.895	1.899	1.914	1.909	1.914
-0.005	0.010	-0.010	-0.010	-0.005	-0.010	0.000	2.734	1.904	1.899	1.899	1.919	1.909	1.909
0.000	0.010	-0.005	-0.005	-0.010	-0.005	0.000	2.681	1.909	1.904	1.899	1.919	1.914	1.914
-0.005	0.005	0.000	-0.015	-0.005	-0.005	0.000	2.715	1.909	1.904	1.899	1.914	1.909	1.914
-0.005	0.005	-0.005	-0.010	-0.010	-0.010	0.000	2.666	1.904	1.904	1.899	1.919	1.909	1.909
0.000	0.005	-0.005	-0.020	-0.005	-0.010	0.000	2.720	1.904	1.899	1.895	1.914	1.909	1.909
0.010	0.015	-0.005	-0.015	-0.005	-0.005	-0.005	2.671	1.904	1.904	1.899	1.914	1.909	1.909
0.010	-0.015	0.005	-0.005	-0.005	-0.005	-0.005	2.622	1.895	1.895	1.899	1.914	1.909	1.909
0.000	-0.015	0.000	-0.005	0.000	0.000	0.000	2.710	1.890	1.895	1.895	1.914	1.909	1.914
0.000	0.000	0.000	0.000	0.005	0.000	0.000	2.637	1.890	1.895	1.895	1.919	1.914	1.914
0.000	0.005	-0.005	0.015	0.005	0.000	0.000	2.715	1.895	1.895	1.895	1.919	1.914	1.914
-0.005	0.000	-0.005	0.005	0.005	-0.010	0.000	2.715	1.899	1.895	1.890	1.914	1.909	1.909
-0.005	-0.005	-0.005	-0.005	0.005	-0.020	0.000	2.734	1.895	1.895	1.890	1.909	1.909	1.909
-0.010	-0.034	-0.005	0.015	0.005	0.000	0.000	2.651	1.890	1.885	1.890	1.914	1.909	1.914
-0.005	-0.054	-0.005	0.005	0.005	-0.005	0.000	2.676	1.895	1.885	1.890	1.909	1.914	1.914
-0.005	-0.029	0.000	0.000	0.000	-0.005	0.000	2.690	1.904	1.895	1.895	1.914	1.909	1.914
0.005	-0.005	0.000	0.005	0.005	0.000	-0.005	2.671	1.904	1.909	1.899	1.914	1.914	1.914
-0.005	0.005	-0.005	0.005	0.005	0.000	0.000	2.690	1.909	1.909	1.899	1.919	1.914	1.914
-0.010	-0.015	-0.010	0.010	0.015	-0.020	0.000	2.681	1.904	1.899	1.899	1.919	1.914	1.909
-0.005	-0.010	-0.005	0.010	0.000	-0.005	0.000	2.695	1.904	1.899	1.899	1.919	1.909	1.909
-0.015	0.005	-0.005	0.000	0.000	0.000	0.000	2.695	1.904	1.904	1.899	1.914	1.909	1.914
-0.010	0.000	0.000	-0.005	0.000	0.000	0.000	2.690	1.904	1.904	1.899	1.914	1.909	1.909
0.000	0.000	0.000	-0.024	0.005	0.005	0.000	2.686	1.899	1.899	1.899	1.909	1.909	1.914
-0.005	-0.010	0.005	-0.024	0.000	-0.005	0.000	2.671	1.899	1.895	1.895	1.909	1.904	1.904
-0.005	-0.015	0.000	-0.024	0.005	0.000	0.000	2.686	1.899	1.895	1.895	1.909	1.909	1.909
0.000	-0.010	-0.005	-0.015	0.005	0.005	0.000	2.671	1.895	1.899	1.895	1.914	1.904	1.909
-0.005	-0.010	0.000	-0.015	-0.005	-0.005	0.000	2.681	1.899	1.895	1.890	1.909	1.904	1.904
-0.005	-0.015	-0.005	-0.020	-0.010	0.000	0.000	2.695	1.895	1.895	1.895	1.909	1.899	1.904
-0.010	-0.010	-0.005	-0.010	-0.010	0.010	0.000	2.690	1.895	1.899	1.895	1.914	1.904	1.909
-0.015	-0.010	-0.005	-0.015	-0.020	-0.010	0.000	2.700	1.895	1.895	1.895	1.909	1.904	1.899
-0.005	-0.015	0.000	-0.020	-0.015	-0.005	0.000	2.666	1.899	1.895	1.895	1.909	1.909	1.904
0.000	-0.015	-0.005	-0.005	-0.010	0.005	0.000	2.666	1.899	1.899	1.895	1.919	1.914	1.909
-0.005	-0.010	-0.005	-0.005	-0.005	-0.005	0.000	2.700	1.904	1.904	1.899	1.914	1.914	1.909
-0.005	0.005	-0.005	-0.024	0.000	-0.015	0.000	2.700	1.904	1.904	1.899	1.914	1.914	1.909
-0.005	0.005	-0.005	-0.020	-0.005	-0.010	0.000	2.695	1.909	1.909	1.899	1.914	1.909	1.909
0.000	0.024	0.000	-0.015	-0.005	-0.010	0.000	2.671	1.904	1.909	1.904	1.919	1.914	1.909
0.000	0.034	-0.005	-0.015	-0.005	-0.010	0.000	2.681	1.904	1.909	1.904	1.919	1.914	1.909
-0.010	0.015	-0.010	-0.010	-0.015	-0.005	0.000	2.661	1.895	1.899	1.899	1.919	1.909	1.914
-0.005	0.000	-0.005	-0.010	-0.010	0.005	0.000	2.642	1.890	1.890	1.899	1.919	1.909	1.914
-0.005	0.005	-0.005	-0.015	-0.005	-0.005	0.000	2.783	1.904	1.890	1.895	1.914	1.909	1.909
-0.005	-0.015	0.000	-0.024	0.000	0.005	0.000	2.651	1.899	1.890	1.890	1.909	1.914	1.914
-0.005	-0.024	-0.005	0.020	0.005	0.005	0.000	2.715	1.899	1.885	1.890	1.919	1.914	1.914
-0.005	-0.015	-0.005	0.000	0.000	0.000	0.000	2.661	1.899	1.890	1.890	1.909	1.914	1.909
0.005	-0.005	0.000	-0.005	-0.020	-0.010	0.000	2.627	1.895	1.895	1.890	1.909	1.899	1.904
0.000	-0.015	-0.005	-0.024	-0.015	-0.020	0.000	2.681	1.895	1.890	1.890	1.904	1.904	1.899
-0.005	0.005	-0.005	-0.020	-0.020	-0.005	0.000	2.710	1.895	1.899	1.895	1.904	1.904	1.904
0.010	0.005	-0.010	-0.029	-0.044	-0.005	-0.005	2.671	1.904	1.899	1.895	1.904	1.895	1.904
0.000	-0.005	0.000	-0.029	-0.054	0.005	0.000	2.612	1.890	1.899	1.895	1.909	1.899	1.904
0.005	0.000	0.000	-0.024	-0.034	-0.015	0.000	2.725	1.904	1.899	1.899	1.914	1.909	1.899
0.000	-0.005	-0.005	-0.015	0.020	-0.005	0.000	2.715	1.904	1.899	1.899	1.919	1.924	1.909
-0.010	-0.005	0.000	-0.010	0.063	0.000	-0.005	2.642	1.899	1.899	1.899	1.924	1.934	1.919
-0.010	0.020	-0.005	-0.015	0.044	-0.029	0.000	2.720	1.904	1.904	1.899	1.919	1.919	1.914
-0.015	0.024	-0.005	0.000	-0.020	-0.005	0.000	2.720	1.909	1.904	1.899	1.924	1.904	1.914
-0.010	-0.005	-0.005	-0.005	-0.024	0.000	0.000	2.646	1.899	1.895	1.899	1.919	1.909	1.914
0.000	-0.020	-0.005	-0.015	0.034	-0.020	0.000	2.681	1.904	1.890	1.895	1.919	1.924	1.914
0.000	-0.015	-0.005	0.005	0.054	0.005	0.000	2.686	1.899	1.895	1.895	1.919	1.929	1.919
0.000	-0.020	0.000	0.000	0.044	0.005	0.000	2.690	1.895	1.890	1.890	1.914	1.919	1.924
0.000	-0.024	-0.005	0.010	0.059	-0.015	0.000	2.690	1.899	1.890	1.890	1.914	1.914	1.909
0.005	-0.024	-0.005	0.015	0.034	0.010	0.000	2.690	1.899	1.890	1.890	1.914	1.909	1.919
-0.010	0.044	0.000	0.010	-0.005	0.005	0.000	2.686	1.899	1.914	1.895	1.909	1.899	1.909
0.000	0.039	-0.005	0.015	-0.010	-0.015	0.000	2.661	1.899	1.904	1.899	1.914	1.899	1.904
-0.005	0.000	0.000	0.020	0.015	0.020	0.000	2.690	1.895	1.895	1.895	1.914	1.909	1.914
0.005	-0.005	-0.010	0.024	-0.024	0.015	0.000	2.686	1.899	1.895	1.895	1.914	1.899	1.909
0.010	-0.005	-0.005	0.029	-0.044	-0.005	0.000	2.671	1.904	1.899	1.895	1.919	1.899	1.899
-0.005	-0.005	-0.005	0.039	-0.020	0.000	0.000	2.690	1.904	1.899	1.899	1.919	1.909	1.909
-0.005	0.000	-0.005	0.034	-0.020	-0.024	0.000	2.700	1.904	1.899	1.899	1.919	1.909	1.909
-0.005	0.000	-0.005	0.024	-0.044	0.000	0.000	2.676	1.899	1.904	1.899	1.919	1.904	1.909
-0.005	0.000	-0.005	0.020	-0.063	0.010	0.000	2.695	1.904	1.904	1.899	1.914	1.904	1.909
