0.000	-0.005	0.000	-0.020	-0.015	0.010	0.029	1.792	1.855	1.401	1.284	1.196	1.206	1.211
0.000	-0.015	0.000	-0.024	0.000	0.010	0.029	1.812	1.670	1.479	1.333	1.240	1.211	1.211
0.000	-0.015	0.000	-0.024	0.005	-0.020	0.034	1.782	1.538	1.499	1.382	1.279	1.230	1.206
0.005	-0.005	0.000	-0.015	0.005	0.005	0.029	1.763	1.440	1.489	1.406	1.323	1.255	1.226
0.015	-0.015	0.000	-0.010	-0.005	0.000	0.029	1.738	1.367	1.455	1.421	1.357	1.274	1.235
0.005	-0.029	0.000	0.005	0.000	-0.005	0.034	1.738	1.304	1.411	1.421	1.382	1.304	1.250
0.000	-0.010	0.000	0.010	0.000	0.005	0.029	1.787	1.279	1.377	1.411	1.401	1.328	1.274
-0.005	0.005	-0.005	0.015	0.005	0.005	0.034	1.782	1.255	1.353	1.396	1.401	1.353	1.294
-0.010	0.005	-0.010	0.015	0.000	-0.010	0.034	1.748	1.235	1.323	1.377	1.401	1.367	1.309
-0.005	0.015	-0.005	0.010	0.005	0.000	0.029	1.768	1.226	1.294	1.353	1.396	1.372	1.328
-0.010	0.000	-0.005	0.015	0.000	0.010	0.034	1.797	1.230	1.274	1.333	1.387	1.372	1.343
-0.010	0.000	-0.005	0.015	-0.005	0.005	0.034	1.772	1.226	1.260	1.313	1.372	1.372	1.353
0.000	-0.005	-0.010	0.010	0.005	0.000	0.034	1.787	1.230	1.250	1.299	1.357	1.367	1.353
0.000	-0.005	-0.010	0.015	0.005	0.005	0.034	1.792	1.230	1.245	1.279	1.343	1.362	1.353
0.005	-0.005	-0.005	0.010	-0.005	0.000	0.029	1.753	1.221	1.240	1.270	1.323	1.348	1.353
0.005	-0.010	0.000	0.010	-0.005	0.005	0.034	1.797	1.230	1.235	1.265	1.313	1.338	1.348
0.000	0.000	0.000	0.005	-0.005	-0.005	0.034	1.777	1.226	1.235	1.250	1.299	1.323	1.338
0.000	0.010	0.005	0.000	0.000	-0.010	0.034	1.729	1.216	1.235	1.245	1.289	1.318	1.333
0.000	0.010	0.005	0.000	0.000	-0.015	0.034	1.787	1.216	1.230	1.245	1.279	1.304	1.318
-0.005	0.010	0.010	-0.005	-0.005	0.005	0.029	1.807	1.221	1.226	1.240	1.274	1.294	1.318
-0.005	0.005	0.005	-0.005	0.000	0.010	0.034	1.733	1.216	1.226	1.235	1.265	1.289	1.309
-0.005	0.010	0.005	-0.005	0.010	-0.015	0.029	1.777	1.216	1.221	1.230	1.260	1.279	1.294
-0.010	0.024	0.000	-0.005	0.005	-0.005	0.034	1.792	1.216	1.221	1.230	1.255	1.270	1.294
-0.010	0.020	-0.005	-0.005	0.015	0.015	0.029	1.807	1.226	1.221	1.226	1.255	1.270	1.289
-0.010	0.024	-0.005	-0.005	-0.005	-0.015	0.029	1.807	1.226	1.226	1.221	1.250	1.255	1.270
-0.010	0.029	-0.005	0.005	-0.010	0.000	0.029	1.733	1.211	1.221	1.226	1.245	1.255	1.270
-0.015	0.034	-0.005	0.005	-0.005	0.005	0.029	1.782	1.216	1.221	1.226	1.245	1.250	1.265
-0.020	0.024	-0.010	0.005	0.000	0.005	0.029	1.802	1.216	1.221	1.221	1.245	1.245	1.260
-0.010	0.010	0.000	0.005	-0.005	0.000	0.029	1.768	1.211	1.216	1.221	1.245	1.245	1.250
-0.010	0.005	-0.005	0.005	-0.010	-0.020	0.029	1.797	1.216	1.211	1.216	1.240	1.240	1.245
-0.010	-0.005	0.000	0.010	0.000	0.005	0.034	1.758	1.211	1.206	1.216	1.240	1.245	1.250
-0.005	-0.010	0.000	0.005	-0.005	-0.005	0.034	1.792	1.206	1.201	1.211	1.235	1.240	1.245
0.005	-0.010	0.000	0.005	0.005	0.000	0.034	1.758	1.201	1.201	1.211	1.235	1.240	1.240
0.010	-0.020	0.000	0.010	0.005	0.000	0.034	1.748	1.196	1.196	1.211	1.230	1.235	1.240
0.020	-0.024	0.005	0.005	0.005	-0.010	0.034	1.768	1.201	1.201	1.206	1.230	1.230	1.235
0.020	-0.024	0.000	0.005	0.000	-0.005	0.034	1.777	1.196	1.196	1.201	1.226	1.230	1.230
0.015	-0.015	0.005	0.005	-0.005	-0.005	0.034	1.753	1.187	1.196	1.201	1.221	1.226	1.230
0.000	-0.005	0.000	-0.005	-0.005	-0.024	0.029	1.768	1.187	1.196	1.196	1.221	1.221	1.221
0.005	0.000	0.000	0.000	-0.005	0.000	0.034	1.782	1.187	1.196	1.196	1.216	1.221	1.226
-0.005	-0.010	-0.005	-0.005	0.000	0.005	0.034	1.768	1.182	1.187	1.191	1.211	1.221	1.226
-0.005	-0.010	-0.005	0.000	0.005	-0.005	0.029	1.797	1.187	1.187	1.191	1.216	1.216	1.216
-0.005	0.000	-0.005	-0.005	0.005	0.005	0.029	1.807	1.191	1.191	1.191	1.211	1.216	1.221
-0.010	0.010	-0.005	-0.005	-0.005	0.005	0.034	1.782	1.187	1.191	1.191	1.211	1.211	1.216
-0.015	0.005	-0.015	0.000	0.005	-0.005	0.034	1.782	1.187	1.187	1.187	1.211	1.211	1.211
-0.005	0.010	-0.005	0.000	-0.010	0.005	0.034	1.792	1.191	1.187	1.191	1.211	1.206	1.211
-0.010	0.005	-0.005	0.000	-0.005	-0.010	0.034	1.763	1.182	1.187	1.191	1.211	1.211	1.201
0.005	0.010	-0.005	-0.005	0.005	0.005	0.034	1.787	1.182	1.187	1.191	1.211	1.211	1.211
0.000	0.000	-0.005	0.000	0.005	0.000	0.029	1.797	1.182	1.177	1.187	1.206	1.206	1.211
0.000	-0.010	-0.005	-0.005	0.010	0.000	0.029	1.797	1.182	1.177	1.187	1.206	1.206	1.206
0.015	-0.010	0.005	0.000	0.000	-0.005	0.029	1.787	1.182	1.177	1.182	1.206	1.206	1.201
0.010	-0.020	0.010	-0.005	0.010	-0.005	0.029	1.748	1.177	1.177	1.182	1.201	1.201	1.201
0.010	-0.010	0.005	-0.005	0.000	-0.005	0.034	1.807	1.177	1.177	1.177	1.201	1.201	1.201
0.010	-0.010	0.010	0.000	-0.010	0.000	0.029	1.787	1.177	1.177	1.177	1.201	1.196	1.196
0.015	-0.010	0.005	0.000	0.000	0.000	0.029	1.782	1.172	1.177	1.177	1.201	1.196	1.196
0.010	0.000	0.000	0.010	-0.005	-0.015	0.029	1.782	1.162	1.172	1.177	1.196	1.196	1.191
0.005	0.010	0.005	0.005	0.000	0.005	0.029	1.802	1.162	1.172	1.172	1.196	1.196	1.201
-0.010	0.010	0.000	0.005	-0.010	0.000	0.029	1.797	1.162	1.167	1.172	1.196	1.191	1.191
-0.005	0.015	0.000	0.010	-0.010	0.000	0.029	1.772	1.162	1.167	1.172	1.191	1.191	1.191
-0.010	0.024	-0.005	0.005	0.000	-0.005	0.029	1.748	1.157	1.167	1.167	1.191	1.191	1.191
-0.015	0.020	-0.005	-0.005	0.010	0.000	0.029	1.812	1.157	1.162	1.167	1.187	1.196	1.191
-0.005	0.005	-0.005	-0.005	-0.005	0.010	0.029	1.807	1.162	1.157	1.162	1.187	1.187	1.191
-0.005	0.005	-0.005	0.000	-0.005	0.010	0.034	1.709	1.152	1.157	1.162	1.182	1.187	1.187
0.000	0.015	-0.005	0.000	0.000	0.005	0.029	1.792	1.157	1.162	1.162	1.187	1.182	1.187
-0.010	-0.005	-0.005	-0.005	0.000	-0.005	0.034	1.812	1.162	1.152	1.162	1.182	1.182	1.182
0.005	0.000	-0.005	-0.005	-0.015	0.005	0.029	1.777	1.162	1.157	1.157	1.182	1.177	1.182
0.000	0.015	-0.005	0.005	-0.020	-0.020	0.029	1.763	1.152	1.157	1.162	1.182	1.177	1.172
0.005	0.010	-0.005	0.005	-0.010	-0.015	0.034	1.782	1.152	1.152	1.157	1.177	1.177	1.172
-0.005	-0.010	-0.005	0.005	0.010	-0.015	0.029	1.802	1.152	1.147	1.152	1.177	1.182	1.177
0.010	-0.010	0.000	-0.005	0.015	0.005	0.034	1.782	1.157	1.152	1.152	1.172	1.182	1.182
0.010	-0.010	-0.005	-0.005	0.034	-0.015	0.034	1.782	1.152	1.147	1.152	1.172	1.182	1.177
0.005	-0.005	0.000	-0.010	0.029	0.000	0.029	1.797	1.152	1.147	1.152	1.172	1.177	1.182
0.000	-0.005	0.000	-0.005	0.005	0.005	0.034	1.787	1.147	1.152	1.147	1.172	1.167	1.177
0.005	0.015	0.005	-0.005	0.000	0.005	0.029	1.802	1.152	1.152	1.152	1.172	1.167	1.172
-0.010	0.010	0.010	0.005	-0.005	0.015	0.029	1.826	1.152	1.152	1.152	1.177	1.167	1.172
0.000	0.010	-0.005	0.010	0.000	0.010	0.034	1.719	1.143	1.152	1.147	1.172	1.172	1.167
0.000	0.015	0.000	0.015	0.005	0.000	0.034	1.812	1.147	1.147	1.152	1.172	1.167	1.167
0.000	0.005	-0.005	0.020	0.000	-0.005	0.034	1.748	1.143	1.143	1.147	1.172	1.172	1.167
-0.005	0.015	-0.005	0.024	-0.005	0.010	0.034	1.758	1.143	1.147	1.147	1.172	1.167	1.167
-0.005	0.005	-0.005	0.005	-0.005	0.010	0.029	1.758	1.138	1.138	1.143	1.167	1.167	1.167
-0.005	-0.005	0.000	-0.005	0.010	-0.005	0.034	1.807	1.138	1.133	1.143	1.157	1.167	1.162
0.000	-0.005	0.000	-0.024	0.005	0.010	0.029	1.792	1.143	1.133	1.138	1.157	1.162	1.162
0.005	-0.015	0.000	-0.020	-0.005	0.005	0.034	1.748	1.138	1.138	1.138	1.157	1.152	1.157
0.010	-0.020	0.000	-0.020	-0.005	0.010	0.034	1.763	1.138	1.133	1.138	1.157	1.152	1.157
0.000	-0.015	0.000	-0.020	-0.005	0.000	0.029	1.797	1.138	1.133	1.138	1.157	1.152	1.152
0.000	-0.020	0.000	-0.024	0.000	0.000	0.034	1.816	1.143	1.133	1.133	1.152	1.152	1.152
0.005	-0.015	0.000	-0.024	0.005	-0.005	0.029	1.782	1.143	1.138	1.138	1.152	1.152	1.152
0.000	-0.029	-0.005	-0.029	-0.005	0.000	0.029	1.797	1.138	1.128	1.133	1.152	1.147	1.147
0.005	-0.024	0.000	-0.020	-0.005	-0.005	0.029	1.763	1.138	1.138	1.133	1.152	1.147	1.147
0.000	-0.010	0.010	-0.015	-0.010	-0.024	0.029	1.768	1.138	1.143	1.138	1.152	1.147	1.138
-0.005	-0.005	0.010	-0.005	-0.005	-0.005	0.029	1.753	1.123	1.138	1.138	1.157	1.152	1.147
-0.010	0.005	0.005	0.000	-0.010	-0.010	0.029	1.797	1.123	1.133	1.138	1.157	1.152	1.147
-0.010	0.015	-0.005	0.000	-0.015	-0.015	0.029	1.792	1.128	1.133	1.133	1.157	1.147	1.143
-0.015	0.010	-0.010	0.005	-0.039	-0.015	0.034	1.768	1.133	1.133	1.133	1.157	1.147	1.147
-0.010	0.010	-0.005	0.005	-0.020	-0.010	0.029	1.782	1.133	1.133	1.133	1.152	1.152	1.152
-0.020	0.005	0.000	0.005	-0.010	0.010	0.034	1.797	1.128	1.128	1.133	1.152	1.152	1.152
-0.005	0.010	0.005	0.000	-0.015	0.010	0.029	1.763	1.133	1.133	1.133	1.152	1.152	1.152
-0.005	-0.005	-0.005	0.000	-0.005	0.005	0.029	1.768	1.123	1.128	1.133	1.147	1.152	1.152
-0.005	0.000	-0.005	0.000	0.010	-0.020	0.034	1.777	1.128	1.123	1.128	1.152	1.152	1.143
0.005	-0.005	0.000	0.000	0.034	0.010	0.029	1.797	1.133	1.123	1.128	1.152	1.157	1.157
0.005	-0.005	0.000	0.005	0.029	0.015	0.034	1.738	1.123	1.123	1.128	1.147	1.152	1.152
0.005	-0.010	0.005	-0.005	0.049	0.010	0.034	1.772	1.128	1.123	1.123	1.147	1.157	1.152
0.010	-0.005	0.000	-0.005	0.034	-0.010	0.034	1.782	1.128	1.123	1.123	1.143	1.147	1.147
0.015	-0.005	-0.005	-0.005	0.005	0.015	0.034	1.792	1.128	1.123	1.123	1.143	1.138	1.147
0.005	-0.005	-0.005	0.000	0.020	0.005	0.034	1.758	1.118	1.118	1.118	1.143	1.138	1.143
0.010	0.000	-0.005	0.000	-0.010	0.020	0.034	1.802	1.123	1.123	1.118	1.143	1.133	1.143
-0.010	0.000	-0.005	0.005	-0.029	0.015	0.029	1.772	1.118	1.118	1.118	1.143	1.128	1.133
0.000	0.010	-0.005	0.005	-0.020	-0.015	0.034	1.772	1.118	1.123	1.123	1.138	1.128	1.128
-0.005	0.010	0.000	0.005	-0.010	0.000	0.034	1.807	1.118	1.118	1.123	1.143	1.133	1.128
-0.015	0.010	0.000	0.010	-0.010	-0.005	0.034	1.753	1.113	1.118	1.118	1.143	1.138	1.128
-0.010	0.005	0.000	0.010	0.010	-0.005	0.029	1.782	1.113	1.118	1.118	1.143	1.143	1.133
-0.005	0.005	-0.005	0.010	-0.005	-0.010	0.034	1.787	1.118	1.113	1.118	1.138	1.138	1.133
-0.010	0.010	-0.005	0.010	0.000	-0.029	0.034	1.777	1.113	1.118	1.113	1.138	1.138	1.128
-0.005	-0.005	-0.005	0.010	-0.005	0.000	0.029	1.743	1.113	1.113	1.113	1.133	1.138	1.133
-0.005	-0.015	0.000	0.010	-0.005	0.005	0.029	1.777	1.113	1.108	1.113	1.133	1.133	1.133
-0.005	-0.029	0.005	0.000	-0.005	-0.005	0.029	1.772	1.113	1.104	1.113	1.133	1.133	1.133
-0.005	-0.024	0.010	0.000	0.000	-0.005	0.029	1.758	1.113	1.108	1.113	1.128	1.133	1.133
-0.005	-0.020	0.010	0.000	0.000	0.000	0.029	1.797	1.113	1.108	1.113	1.128	1.128	1.133
0.000	-0.029	0.005	0.000	-0.010	0.000	0.029	1.768	1.113	1.108	1.108	1.128	1.128	1.128
0.000	-0.020	0.005	-0.005	-0.010	0.005	0.034	1.787	1.113	1.108	1.108	1.128	1.123	1.128
0.000	-0.015	0.005	-0.005	-0.010	0.010	0.029	1.797	1.113	1.113	1.108	1.128	1.123	1.123
0.000	-0.010	0.005	-0.005	-0.010	-0.005	0.034	1.777	1.108	1.108	1.108	1.128	1.118	1.118
0.000	0.005	0.005	0.000	-0.015	0.000	0.029	1.763	1.113	1.113	1.108	1.128	1.118	1.123
0.000	0.015	-0.005	0.000	-0.005	-0.005	0.029	1.787	1.108	1.113	1.108	1.128	1.128	1.118
0.000	0.015	0.000	0.005	0.000	-0.020	0.029	1.797	1.113	1.113	1.108	1.133	1.128	1.118
-0.005	0.015	0.000	-0.005	-0.005	0.005	0.029	1.787	1.113	1.113	1.108	1.128	1.123	1.123
-0.010	0.010	-0.005	0.000	0.020	0.005	0.034	1.802	1.108	1.108	1.108	1.133	1.133	1.123
-0.010	0.020	-0.005	0.000	0.024	-0.024	0.034	1.782	1.113	1.113	1.108	1.128	1.128	1.118
-0.005	0.020	-0.005	0.000	0.015	0.005	0.029	1.782	1.113	1.113	1.108	1.128	1.128	1.128
-0.010	0.010	-0.005	0.005	0.020	0.005	0.034	1.753	1.108	1.108	1.108	1.128	1.133	1.128
-0.005	0.000	-0.005	0.000	0.010	0.000	0.034	1.787	1.108	1.104	1.108	1.128	1.123	1.123
0.015	-0.005	0.000	0.010	-0.005	-0.015	0.034	1.714	1.104	1.104	1.108	1.128	1.123	1.118
0.010	-0.010	0.000	0.000	-0.010	0.020	0.034	1.777	1.104	1.099	1.104	1.128	1.118	1.128
0.000	-0.010	-0.005	0.000	-0.020	0.015	0.029	1.763	1.104	1.099	1.104	1.123	1.118	1.118
0.015	-0.015	0.000	-0.005	-0.010	0.010	0.034	1.748	1.099	1.099	1.099	1.118	1.123	1.118
0.010	-0.010	0.000	-0.005	0.005	-0.020	0.034	1.797	1.104	1.099	1.099	1.118	1.123	1.108
0.010	-0.015	0.005	-0.005	0.005	0.005	0.034	1.797	1.104	1.099	1.104	1.123	1.123	1.118
0.005	0.000	0.015	0.000	0.015	-0.005	0.029	1.802	1.104	1.099	1.104	1.123	1.123	1.118
0.005	0.000	0.010	0.000	0.015	0.010	0.029	1.777	1.113	1.104	1.099	1.118	1.118	1.118
0.000	0.024	0.000	0.000	0.005	-0.005	0.029	1.743	1.104	1.113	1.104	1.118	1.118	1.118
-0.005	0.024	0.005	0.000	0.000	-0.010	0.029	1.768	1.099	1.108	1.104	1.118	1.113	1.113
-0.015	0.039	0.000	-0.005	-0.005	-0.005	0.029	1.787	1.099	1.104	1.104	1.118	1.113	1.113
-0.020	0.024	0.000	-0.005	-0.010	-0.005	0.034	1.763	1.094	1.099	1.099	1.118	1.113	1.108
-0.020	0.020	-0.005	0.000	-0.010	0.000	0.029	1.792	1.099	1.094	1.099	1.118	1.113	1.113
-0.010	0.020	-0.010	0.000	-0.024	-0.010	0.034	1.792	1.104	1.094	1.099	1.118	1.108	1.108
-0.015	0.000	0.000	0.000	-0.029	-0.005	0.029	1.787	1.099	1.094	1.094	1.118	1.108	1.108
-0.005	0.005	-0.005	-0.005	-0.020	0.005	0.029	1.724	1.094	1.094	1.094	1.118	1.118	1.118
-0.010	0.010	-0.005	-0.005	0.000	0.000	0.029	1.772	1.094	1.094	1.094	1.113	1.118	1.113
0.000	0.000	0.000	-0.005	0.005	-0.020	0.034	1.787	1.099	1.094	1.094	1.113	1.113	1.108
0.005	-0.005	0.000	0.000	0.005	0.015	0.034	1.792	1.104	1.094	1.094	1.118	1.113	1.118
0.010	-0.015	0.005	0.010	0.000	0.000	0.034	1.768	1.099	1.094	1.094	1.118	1.113	1.113
0.015	-0.020	0.005	0.010	0.005	0.010	0.034	1.787	1.099	1.094	1.094	1.113	1.113	1.113
0.010	-0.015	0.010	0.005	0.010	-0.015	0.034	1.802	1.104	1.094	1.094	1.113	1.113	1.108
0.005	-0.024	0.005	0.005	0.005	0.005	0.034	1.729	1.094	1.094	1.094	1.108	1.113	1.113
0.005	-0.020	0.010	0.000	0.005	-0.020	0.034	1.777	1.094	1.094	1.094	1.108	1.108	1.104
0.005	-0.015	0.000	-0.005	-0.005	0.015	0.034	1.753	1.094	1.094	1.089	1.108	1.108	1.113
-0.005	-0.005	0.000	-0.005	-0.005	-0.010	0.034	1.792	1.094	1.094	1.089	1.108	1.104	1.104
-0.010	0.010	-0.005	-0.010	-0.005	0.015	0.029	1.812	1.099	1.094	1.094	1.108	1.104	1.108
-0.015	0.005	0.000	-0.010	-0.005	-0.020	0.034	1.782	1.099	1.094	1.094	1.108	1.104	1.094
-0.024	0.024	-0.010	-0.005	0.000	0.005	0.034	1.743	1.094	1.099	1.094	1.108	1.108	1.104
-0.020	0.015	-0.005	-0.005	0.000	-0.010	0.034	1.753	1.094	1.094	1.094	1.113	1.108	1.099
-0.020	0.020	-0.010	-0.005	0.010	0.005	0.029	1.802	1.094	1.094	1.094	1.113	1.108	1.108
-0.010	0.010	-0.005	0.000	0.005	0.005	0.034	1.782	1.099	1.089	1.094	1.113	1.108	1.104
-0.015	0.005	-0.005	0.010	0.000	0.000	0.029	1.748	1.099	1.094	1.094	1.113	1.108	1.099
-0.010	0.000	0.000	0.010	0.000	0.005	0.034	1.792	1.094	1.094	1.094	1.113	1.108	1.108
0.000	-0.005	-0.005	0.000	0.000	0.010	0.029	1.797	1.104	1.089	1.094	1.113	1.108	1.104
-0.005	-0.010	0.000	0.005	0.000	-0.005	0.029	1.724	1.099	1.094	1.094	1.108	1.108	1.099
0.015	-0.020	0.005	0.000	-0.005	-0.005	0.029	1.777	1.099	1.089	1.094	1.108	1.108	1.104
0.010	-0.010	0.000	0.000	0.000	0.000	0.034	1.792	1.099	1.089	1.094	1.108	1.108	1.104
0.020	-0.015	0.010	0.005	-0.015	0.000	0.034	1.758	1.099	1.094	1.094	1.108	1.104	1.104
0.010	-0.020	0.005	0.000	0.005	-0.010	0.029	1.772	1.094	1.089	1.094	1.108	1.108	1.099
0.020	-0.015	0.005	-0.005	0.010	0.005	0.029	1.802	1.099	1.094	1.089	1.108	1.108	1.104
0.020	-0.010	0.005	-0.010	-0.005	0.015	0.029	1.768	1.094	1.094	1.094	1.104	1.104	1.108
0.005	0.000	-0.005	-0.010	0.000	-0.020	0.029	1.802	1.094	1.094	1.089	1.108	1.104	1.099
0.010	0.005	0.000	0.000	0.005	0.005	0.029	1.792	1.094	1.094	1.089	1.113	1.108	1.104
0.005	0.005	-0.005	0.015	0.000	0.000	0.034	1.797	1.094	1.094	1.094	1.118	1.104	1.104
0.005	0.005	-0.005	0.015	-0.005	0.000	0.029	1.748	1.094	1.094	1.094	1.113	1.104	1.104
-0.010	0.010	-0.010	0.000	-0.005	0.000	0.029	1.802	1.094	1.094	1.094	1.108	1.104	1.104
-0.010	0.015	-0.010	0.000	-0.005	0.000	0.029	1.792	1.094	1.094	1.089	1.108	1.104	1.099
0.005	0.005	-0.005	-0.005	-0.005	0.000	0.034	1.768	1.094	1.094	1.094	1.108	1.108	1.104
-0.005	0.000	-0.010	-0.005	-0.005	-0.005	0.034	1.792	1.094	1.089	1.094	1.104	1.099	1.104
0.005	0.005	-0.005	-0.010	-0.005	-0.010	0.034	1.792	1.094	1.089	1.094	1.108	1.099	1.099
0.005	0.000	0.000	-0.005	0.000	-0.029	0.034	1.729	1.089	1.089	1.089	1.108	1.104	1.094
0.000	-0.015	-0.005	-0.010	0.005	-0.024	0.034	1.748	1.084	1.079	1.089	1.108	1.104	1.094
0.010	-0.015	-0.005	-0.010	0.015	-0.015	0.034	1.797	1.089	1.079	1.084	1.108	1.108	1.104
0.000	-0.015	-0.005	-0.005	0.015	-0.010	0.029	1.792	1.089	1.084	1.084	1.104	1.108	1.104
0.010	-0.015	0.000	0.000	0.005	-0.020	0.029	1.792	1.094	1.089	1.084	1.104	1.099	1.099
0.005	-0.029	0.005	0.000	0.005	0.005	0.029	1.768	1.089	1.084	1.084	1.104	1.104	1.104
0.005	-0.024	0.005	0.000	-0.005	0.000	0.034	1.812	1.089	1.084	1.089	1.099	1.099	1.104
0.000	-0.010	0.000	0.000	0.000	0.005	0.034	1.772	1.094	1.089	1.089	1.104	1.099	1.099
-0.005	-0.005	0.005	0.005	-0.005	0.010	0.029	1.763	1.089	1.089	1.089	1.104	1.099	1.099
-0.005	0.000	0.000	0.005	0.000	-0.010	0.029	1.772	1.089	1.089	1.089	1.104	1.099	1.094
0.000	0.005	0.000	0.005	0.005	0.010	0.029	1.758	1.089	1.089	1.089	1.104	1.104	1.104
-0.010	0.010	-0.010	0.010	0.000	0.010	0.029	1.792	1.084	1.089	1.089	1.104	1.099	1.099
0.000	0.010	-0.010	0.010	-0.010	0.020	0.034	1.787	1.089	1.089	1.089	1.108	1.099	1.099
0.000	0.005	-0.010	0.010	-0.010	0.015	0.029	1.792	1.089	1.089	1.084	1.104	1.099	1.099
0.000	0.010	-0.005	0.010	0.000	0.010	0.029	1.807	1.094	1.089	1.089	1.104	1.104	1.099
-0.005	0.015	-0.005	0.005	-0.010	0.015	0.029	1.792	1.094	1.089	1.089	1.104	1.099	1.099
-0.005	0.005	-0.005	0.010	-0.010	0.005	0.034	1.772	1.089	1.089	1.089	1.104	1.099	1.094
0.005	0.010	0.000	0.000	-0.005	-0.005	0.029	1.797	1.094	1.089	1.089	1.104	1.099	1.094
0.000	0.005	0.000	0.000	0.010	0.005	0.029	1.792	1.094	1.089	1.089	1.104	1.104	1.099
-0.005	-0.005	0.000	-0.005	0.010	0.005	0.034	1.753	1.084	1.084	1.084	1.104	1.104	1.099
0.000	-0.010	0.005	-0.010	0.000	0.000	0.034	1.807	1.089	1.084	1.084	1.104	1.094	1.094
-0.005	-0.010	0.005	-0.010	-0.005	0.005	0.034	1.777	1.084	1.084	1.084	1.099	1.094	1.094
0.010	-0.010	0.005	-0.010	-0.015	0.000	0.034	1.758	1.089	1.084	1.084	1.099	1.094	1.094
0.000	0.015	0.005	-0.005	-0.010	-0.020	0.034	1.797	1.084	1.089	1.084	1.099	1.094	1.089
-0.005	0.020	0.005	0.000	0.005	0.005	0.029	1.797	1.089	1.084	1.084	1.104	1.099	1.099
-0.005	-0.010	0.000	0.000	0.005	0.010	0.034	1.787	1.089	1.084	1.084	1.104	1.099	1.094
-0.015	-0.010	-0.005	0.010	-0.005	0.005	0.034	1.782	1.089	1.084	1.079	1.104	1.099	1.099
-0.005	0.005	-0.010	0.015	0.005	0.005	0.034	1.787	1.089	1.084	1.084	1.104	1.099	1.099
-0.010	0.000	-0.010	0.015	-0.024	-0.010	0.029	1.792	1.089	1.084	1.084	1.104	1.089	1.094
-0.015	0.015	-0.010	0.010	0.000	-0.010	0.034	1.787	1.089	1.089	1.089	1.104	1.099	1.094
-0.005	0.010	-0.005	0.005	0.000	0.000	0.034	1.816	1.094	1.089	1.089	1.104	1.099	1.094
-0.005	-0.005	-0.005	0.010	-0.005	0.005	0.034	1.743	1.089	1.089	1.084	1.104	1.099	1.094
0.005	-0.005	-0.005	0.005	0.010	-0.010	0.029	1.802	1.094	1.084	1.089	1.099	1.104	1.094
0.005	0.000	0.000	0.005	0.000	-0.010	0.029	1.792	1.089	1.089	1.089	1.104	1.099	1.094
0.005	-0.024	0.005	0.000	0.000	-0.020	0.029	1.812	1.094	1.079	1.084	1.104	1.099	1.094
0.005	-0.005	0.005	-0.005	0.000	-0.005	0.029	1.748	1.099	1.089	1.089	1.099	1.099	1.094
0.000	-0.015	0.000	-0.005	0.010	-0.005	0.029	1.797	1.089	1.084	1.084	1.099	1.099	1.099
0.005	-0.024	0.005	-0.010	0.005	0.005	0.029	1.792	1.094	1.084	1.084	1.099	1.094	1.099
0.000	-0.020	0.005	-0.005	-0.005	-0.015	0.034	1.782	1.094	1.089	1.084	1.104	1.094	1.089
0.005	-0.010	0.005	-0.005	-0.010	-0.010	0.029	1.753	1.084	1.089	1.084	1.099	1.094	1.089
0.000	0.015	0.005	-0.005	0.015	0.015	0.029	1.797	1.089	1.094	1.089	1.104	1.104	1.099
0.005	0.010	0.005	-0.010	0.010	0.020	0.034	1.782	1.089	1.089	1.089	1.104	1.099	1.099
-0.005	0.024	-0.005	-0.005	0.005	0.005	0.029	1.768	1.084	1.094	1.089	1.104	1.099	1.094
-0.015	0.020	-0.005	-0.005	0.000	0.005	0.034	1.753	1.074	1.084	1.089	1.104	1.094	1.094
-0.005	0.029	-0.005	-0.005	0.000	-0.020	0.029	1.792	1.084	1.084	1.084	1.104	1.094	1.089
-0.015	0.015	-0.005	-0.005	0.000	0.005	0.029	1.792	1.084	1.079	1.084	1.108	1.099	1.094
0.000	0.015	-0.020	0.000	-0.010	0.010	0.034	1.758	1.084	1.084	1.079	1.104	1.099	1.099
0.005	0.015	-0.010	0.000	-0.010	0.000	0.034	1.758	1.084	1.084	1.084	1.104	1.099	1.094
-0.005	0.005	0.000	0.000	0.005	0.005	0.029	1.797	1.089	1.079	1.084	1.104	1.099	1.094
0.010	0.000	0.000	0.000	-0.005	-0.010	0.034	1.758	1.089	1.079	1.084	1.099	1.099	1.094
0.005	-0.010	0.000	0.000	-0.005	-0.010	0.034	1.768	1.079	1.074	1.079	1.099	1.099	1.094
0.005	-0.015	0.005	0.000	0.000	-0.015	0.029	1.797	1.089	1.074	1.079	1.099	1.099	1.089
0.010	-0.020	0.005	-0.005	0.010	0.005	0.034	1.797	1.094	1.079	1.079	1.094	1.099	1.094
0.015	-0.005	0.000	-0.005	-0.005	-0.015	0.029	1.758	1.089	1.084	1.079	1.094	1.094	1.094
0.015	-0.015	0.005	-0.005	0.010	0.000	0.034	1.812	1.089	1.079	1.079	1.099	1.099	1.094
0.010	-0.020	0.000	0.000	0.024	0.000	0.029	1.743	1.084	1.079	1.079	1.099	1.099	1.099
0.015	-0.010	0.000	0.000	0.010	0.010	0.029	1.802	1.089	1.084	1.079	1.099	1.094	1.094
0.005	-0.005	0.000	-0.005	-0.015	0.010	0.029	1.797	1.089	1.084	1.079	1.099	1.084	1.089
0.005	0.000	-0.005	0.000	-0.029	0.010	0.034	1.748	1.089	1.089	1.079	1.099	1.089	1.089
0.000	0.000	-0.005	0.000	-0.005	-0.005	0.034	1.719	1.079	1.084	1.084	1.099	1.094	1.089
0.000	0.015	-0.010	0.005	-0.010	-0.010	0.034	1.792	1.079	1.084	1.084	1.104	1.094	1.084
-0.015	0.010	-0.010	0.005	-0.010	0.000	0.029	1.802	1.084	1.084	1.084	1.104	1.094	1.089
-0.010	0.005	-0.005	0.005	-0.015	0.005	0.034	1.719	1.079	1.079	1.084	1.099	1.099	1.089
-0.005	-0.005	-0.005	0.015	-0.005	0.000	0.034	1.792	1.084	1.074	1.079	1.104	1.099	1.094
-0.010	-0.015	0.000	0.005	0.010	0.005	0.034	1.787	1.084	1.074	1.079	1.099	1.099	1.094
-0.005	-0.010	0.000	0.000	0.005	0.000	0.034	1.787	1.089	1.079	1.079	1.099	1.099	1.094
-0.005	-0.029	0.000	-0.005	0.005	0.005	0.034	1.772	1.084	1.074	1.074	1.094	1.094	1.094
-0.005	-0.015	0.000	-0.005	0.005	0.005	0.029	1.802	1.084	1.079	1.079	1.094	1.094	1.094
0.000	-0.010	0.005	-0.010	0.005	0.005	0.034	1.802	1.094	1.084	1.079	1.094	1.094	1.089
0.005	-0.020	0.010	-0.005	0.000	0.005	0.029	1.748	1.084	1.079	1.079	1.094	1.094	1.094
0.010	-0.020	0.005	-0.005	0.005	-0.010	0.029	1.777	1.084	1.079	1.079	1.094	1.089	1.084
0.010	-0.020	0.000	0.000	0.005	0.005	0.029	1.792	1.089	1.079	1.079	1.099	1.094	1.094
0.005	-0.005	0.000	0.000	0.005	0.005	0.034	1.724	1.084	1.084	1.079	1.094	1.094	1.094
0.005	0.000	0.005	-0.005	0.005	0.010	0.029	1.787	1.084	1.084	1.084	1.099	1.094	1.094
0.005	-0.010	0.005	0.000	0.000	-0.005	0.029	1.802	1.089	1.079	1.084	1.099	1.094	1.084
-0.005	-0.005	0.000	-0.005	0.000	0.015	0.034	1.763	1.079	1.084	1.084	1.094	1.094	1.094
-0.010	0.005	0.005	-0.010	-0.005	0.015	0.029	1.807	1.084	1.084	1.079	1.094	1.094	1.094
-0.005	0.015	-0.005	-0.015	0.000	-0.010	0.034	1.787	1.084	1.084	1.084	1.094	1.094	1.089
-0.010	0.010	-0.005	-0.015	-0.010	0.000	0.034	1.812	1.089	1.084	1.079	1.099	1.094	1.089
-0.010	0.015	-0.005	-0.005	-0.010	0.020	0.029	1.748	1.084	1.084	1.084	1.099	1.094	1.094
0.000	0.020	-0.010	-0.005	-0.015	0.005	0.034	1.782	1.089	1.089	1.084	1.099	1.094	1.089
0.005	0.005	-0.015	-0.010	-0.020	-0.010	0.034	1.768	1.084	1.079	1.079	1.099	1.089	1.084
0.000	0.015	-0.005	-0.020	-0.020	-0.015	0.034	1.816	1.089	1.084	1.084	1.094	1.089	1.079
0.005	0.024	0.000	-0.015	-0.024	-0.034	0.034	1.777	1.084	1.084	1.084	1.099	1.089	1.084
0.010	0.020	0.005	-0.005	-0.005	-0.024	0.029	1.797	1.084	1.079	1.084	1.104	1.099	1.084
0.010	-0.005	0.005	-0.005	0.029	-0.039	0.034	1.826	1.089	1.079	1.084	1.104	1.108	1.089
0.010	0.010	0.005	-0.005	0.015	-0.039	0.029	1.777	1.084	1.084	1.084	1.099	1.099	1.089
0.005	0.000	0.010	-0.010	0.029	-0.029	0.034	1.797	1.084	1.074	1.084	1.099	1.104	1.094
0.005	-0.010	0.010	-0.005	0.010	-0.020	0.034	1.772	1.084	1.079	1.079	1.099	1.099	1.094
0.005	-0.005	0.000	-0.005	-0.010	-0.015	0.034	1.763	1.079	1.079	1.079	1.094	1.094	1.099
-0.005	0.000	0.000	0.000	-0.024	0.010	0.029	1.792	1.079	1.079	1.079	1.099	1.089	1.099
-0.005	-0.005	0.000	0.005	0.005	0.039	0.034	1.792	1.084	1.079	1.074	1.099	1.099	1.104
-0.015	-0.005	-0.005	0.005	0.054	0.024	0.029	1.792	1.084	1.079	1.074	1.099	1.113	1.104
-0.005	0.005	-0.005	0.010	0.049	0.020	0.034	1.743	1.084	1.084	1.079	1.099	1.104	1.104
-0.015	0.005	-0.010	0.005	0.024	-0.020	0.029	1.787	1.074	1.079	1.079	1.099	1.094	1.089
-0.010	0.005	0.000	0.010	0.015	-0.005	0.034	1.753	1.079	1.079	1.079	1.099	1.094	1.089
-0.015	0.010	-0.005	0.015	0.005	-0.015	0.029	1.768	1.074	1.079	1.079	1.099	1.089	1.089
-0.005	0.005	-0.010	0.015	0.000	-0.010	0.029	1.787	1.084	1.074	1.074	1.099	1.089	1.089
-0.010	-0.010	-0.005	0.020	-0.020	-0.005	0.029	1.802	1.084	1.069	1.074	1.099	1.089	1.089
-0.010	-0.015	0.000	0.020	0.000	-0.005	0.029	1.777	1.084	1.074	1.074	1.094	1.094	1.089
-0.005	-0.005	0.000	0.015	0.000	-0.005	0.029	1.763	1.079	1.079	1.079	1.094	1.094	1.089
-0.005	-0.015	0.000	0.010	0.000	-0.005	0.034	1.797	1.079	1.074	1.074	1.094	1.094	1.089
-0.005	-0.024	0.010	0.015	-0.010	-0.005	0.029	1.787	1.084	1.074	1.074	1.094	1.089	1.089
-0.005	-0.020	0.005	0.005	-0.005	-0.005	0.034	1.777	1.079	1.074	1.074	1.089	1.089	1.089
0.005	-0.010	0.005	0.000	0.005	0.010	0.034	1.782	1.084	1.079	1.074	1.089	1.089	1.089
-0.005	-0.015	0.005	-0.005	-0.005	0.010	0.034	1.816	1.089	1.079	1.074	1.094	1.089	1.089
0.005	-0.005	0.010	0.000	-0.005	0.010	0.029	1.787	1.089	1.084	1.079	1.094	1.084	1.089
0.005	0.000	0.000	0.000	-0.024	0.015	0.029	1.787	1.089	1.084	1.079	1.094	1.079	1.084
-0.005	0.005	0.005	0.010	-0.010	0.010	0.034	1.753	1.079	1.084	1.079	1.094	1.089	1.084
-0.005	0.015	0.000	0.015	-0.015	0.005	0.034	1.782	1.079	1.084	1.084	1.099	1.089	1.089
-0.010	0.015	0.000	0.005	-0.005	0.000	0.034	1.797	1.084	1.084	1.079	1.099	1.094	1.084
-0.015	0.020	-0.005	0.005	0.015	0.000	0.034	1.812	1.084	1.084	1.084	1.099	1.094	1.084
-0.010	0.015	-0.005	0.010	-0.015	0.015	0.034	1.772	1.084	1.084	1.079	1.099	1.089	1.089
-0.005	0.015	-0.010	0.010	-0.020	0.010	0.034	1.787	1.084	1.084	1.084	1.099	1.089	1.089
-0.005	0.015	0.000	0.010	0.000	0.005	0.034	1.772	1.084	1.084	1.084	1.099	1.094	1.089
0.000	0.000	-0.005	0.005	0.000	0.005	0.034	1.733	1.079	1.079	1.079	1.099	1.099	1.089
0.005	0.000	-0.005	0.000	-0.005	0.000	0.034	1.807	1.084	1.079	1.079	1.094	1.094	1.089
0.010	0.005	0.000	0.000	-0.015	0.010	0.034	1.792	1.089	1.079	1.079	1.094	1.094	1.089
0.020	-0.029	0.005	0.000	-0.010	0.015	0.029	1.812	1.089	1.074	1.079	1.094	1.094	1.089
0.020	-0.029	0.000	-0.005	-0.015	0.015	0.034	1.733	1.084	1.074	1.074	1.094	1.094	1.089
0.029	-0.039	0.010	0.000	-0.010	-0.005	0.034	1.753	1.079	1.074	1.074	1.094	1.094	1.084
0.015	-0.020	0.005	0.005	-0.005	0.000	0.029	1.787	1.079	1.074	1.079	1.099	1.094	1.089
0.005	-0.029	0.000	0.000	-0.005	0.000	0.034	1.802	1.074	1.074	1.074	1.094	1.089	1.089
-0.005	-0.015	0.000	-0.005	-0.010	0.005	0.034	1.807	1.079	1.079	1.074	1.094	1.089	1.089
-0.020	0.010	-0.005	0.000	-0.010	-0.015	0.034	1.753	1.069	1.084	1.074	1.094	1.089	1.079
-0.015	0.020	0.000	-0.005	-0.005	0.000	0.029	1.733	1.069	1.079	1.079	1.094	1.089	1.089
-0.029	0.020	-0.005	-0.005	-0.010	-0.010	0.034	1.753	1.069	1.079	1.074	1.094	1.089	1.084
-0.024	0.015	-0.005	-0.005	-0.010	-0.020	0.029	1.763	1.069	1.074	1.074	1.094	1.089	1.079
-0.024	0.015	-0.005	0.005	0.015	-0.010	0.029	1.807	1.074	1.074	1.074	1.094	1.094	1.089
-0.020	0.020	-0.005	0.000	0.024	-0.015	0.029	1.797	1.084	1.079	1.074	1.094	1.094	1.089
-0.015	-0.010	-0.005	0.000	0.020	-0.024	0.029	1.797	1.089	1.069	1.074	1.094	1.094	1.084
-0.015	-0.010	0.000	-0.010	0.010	0.000	0.034	1.743	1.084	1.074	1.074	1.089	1.089	1.094
-0.010	-0.005	-0.005	-0.005	-0.005	-0.010	0.029	1.772	1.084	1.074	1.074	1.089	1.084	1.089
0.005	0.000	0.000	-0.005	0.015	0.000	0.034	1.763	1.089	1.079	1.074	1.094	1.089	1.094
0.010	-0.005	0.010	-0.005	0.005	0.005	0.034	1.797	1.084	1.079	1.079	1.094	1.084	1.089
0.015	-0.015	0.005	-0.010	0.005	0.005	0.029	1.807	1.089	1.079	1.074	1.094	1.089	1.089
0.020	-0.020	0.005	0.000	-0.010	-0.005	0.034	1.758	1.084	1.079	1.079	1.094	1.084	1.084
0.020	-0.015	0.005	-0.005	-0.015	0.005	0.034	1.772	1.084	1.079	1.079	1.094	1.084	1.089
0.015	-0.015	-0.005	-0.005	-0.005	0.000	0.029	1.797	1.079	1.079	1.074	1.094	1.089	1.084
0.015	-0.010	0.000	0.005	-0.005	0.020	0.034	1.729	1.074	1.079	1.079	1.094	1.094	1.089
0.015	0.000	0.000	0.005	0.015	-0.005	0.034	1.772	1.079	1.079	1.074	1.094	1.094	1.084
0.010	0.000	-0.005	0.000	0.005	0.015	0.034	1.802	1.079	1.074	1.079	1.094	1.089	1.089
0.005	0.010	-0.005	0.000	0.000	0.015	0.034	1.763	1.079	1.079	1.079	1.094	1.089	1.089
0.005	0.015	-0.005	-0.010	-0.005	0.020	0.029	1.782	1.074	1.079	1.074	1.089	1.089	1.089
-0.005	0.010	-0.005	-0.020	0.000	0.015	0.034	1.768	1.074	1.074	1.074	1.089	1.089	1.084
0.000	0.015	-0.005	-0.010	-0.005	0.005	0.034	1.733	1.074	1.074	1.074	1.094	1.089	1.084
0.010	0.010	-0.005	-0.005	0.015	0.000	0.029	1.753	1.079	1.074	1.079	1.094	1.094	1.084
0.000	0.010	-0.005	-0.005	0.000	-0.005	0.034	1.772	1.074	1.074	1.079	1.094	1.089	1.084
0.010	0.000	-0.005	0.000	0.005	-0.010	0.029	1.802	1.079	1.069	1.074	1.094	1.089	1.084
0.005	-0.005	0.005	0.000	0.000	-0.005	0.029	1.758	1.084	1.074	1.074	1.094	1.094	1.084
0.005	-0.005	0.005	0.000	0.015	-0.015	0.034	1.782	1.079	1.074	1.074	1.094	1.094	1.084
0.000	-0.010	0.000	-0.005	-0.005	-0.024	0.034	1.782	1.079	1.074	1.074	1.094	1.084	1.079
0.010	-0.010	0.010	-0.005	0.000	-0.020	0.029	1.812	1.084	1.074	1.074	1.094	1.089	1.084
0.000	-0.015	0.010	0.005	0.015	-0.005	0.029	1.777	1.079	1.074	1.074	1.094	1.094	1.089
0.000	0.000	0.010	0.000	0.020	0.005	0.034	1.802	1.079	1.074	1.074	1.094	1.094	1.089
-0.005	-0.005	0.015	0.005	-0.005	-0.020	0.034	1.792	1.079	1.079	1.074	1.094	1.084	1.079
-0.010	0.000	0.005	0.015	-0.015	0.005	0.034	1.738	1.074	1.079	1.074	1.094	1.084	1.089
-0.010	0.010	0.010	0.010	-0.005	-0.005	0.034	1.763	1.074	1.079	1.074	1.094	1.089	1.089
-0.005	0.010	0.005	0.010	-0.010	0.000	0.034	1.802	1.079	1.079	1.074	1.094	1.089	1.089
-0.010	0.015	0.000	0.010	-0.020	-0.005	0.029	1.807	1.079	1.079	1.069	1.094	1.084	1.084
-0.015	0.024	-0.005	0.005	-0.020	-0.005	0.034	1.733	1.069	1.079	1.074	1.089	1.084	1.084
-0.015	0.020	-0.010	0.000	-0.024	0.000	0.034	1.792	1.074	1.074	1.074	1.089	1.084	1.084
-0.015	0.020	-0.005	-0.005	-0.010	-0.010	0.034	1.763	1.074	1.074	1.074	1.089	1.089	1.079
-0.010	0.015	0.000	0.005	-0.010	-0.005	0.029	1.729	1.074	1.074	1.079	1.089	1.089	1.084
0.000	0.015	-0.005	0.000	0.000	0.010	0.034	1.797	1.079	1.074	1.079	1.094	1.094	1.094
-0.005	0.005	-0.005	0.000	0.005	0.010	0.029	1.802	1.084	1.074	1.074	1.094	1.094	1.089
0.005	0.000	-0.005	-0.005	0.010	-0.010	0.029	1.758	1.079	1.069	1.074	1.089	1.089	1.084
0.005	-0.015	0.000	0.000	0.010	0.010	0.029	1.748	1.074	1.069	1.074	1.089	1.094	1.089
0.005	-0.020	0.000	-0.005	0.005	0.010	0.029	1.768	1.079	1.064	1.069	1.089	1.089	1.084
0.000	-0.020	0.000	0.000	0.010	-0.005	0.029	1.763	1.074	1.069	1.069	1.089	1.089	1.084
0.010	-0.020	0.005	-0.010	0.020	0.000	0.029	1.797	1.079	1.069	1.069	1.089	1.089	1.089
0.015	-0.015	0.000	-0.005	0.020	-0.029	0.029	1.768	1.079	1.074	1.069	1.089	1.084	1.074
0.010	-0.005	0.000	-0.005	0.015	0.000	0.034	1.738	1.074	1.074	1.069	1.089	1.089	1.084
0.010	-0.010	0.000	0.000	0.000	-0.010	0.029	1.782	1.079	1.074	1.069	1.089	1.079	1.079
0.000	-0.005	-0.005	-0.005	-0.010	0.010	0.029	1.753	1.074	1.074	1.069	1.089	1.079	1.084
0.000	0.000	-0.005	0.000	-0.010	-0.005	0.034	1.772	1.069	1.074	1.069	1.089	1.079	1.079
0.000	0.015	-0.010	0.005	0.005	0.005	0.034	1.714	1.064	1.079	1.074	1.089	1.084	1.084
-0.005	0.024	-0.010	0.000	0.010	0.005	0.029	1.807	1.069	1.079	1.074	1.089	1.089	1.084
-0.010	0.029	-0.005	0.000	0.000	0.015	0.029	1.797	1.074	1.074	1.074	1.089	1.084	1.084
-0.010	0.020	-0.010	0.000	0.000	0.000	0.034	1.768	1.074	1.074	1.074	1.089	1.084	1.084
-0.005	0.010	-0.010	-0.005	-0.005	0.000	0.034	1.797	1.079	1.074	1.074	1.094	1.084	1.079
-0.005	0.020	-0.005	0.000	-0.005	-0.005	0.034	1.787	1.079	1.079	1.074	1.094	1.089	1.079
0.000	0.005	0.000	-0.005	0.000	-0.015	0.034	1.777	1.079	1.074	1.074	1.094	1.084	1.074
-0.005	0.000	-0.005	-0.005	0.005	-0.024	0.034	1.772	1.074	1.069	1.074	1.089	1.089	1.079
-0.005	-0.010	0.000	-0.005	0.005	0.005	0.029	1.802	1.079	1.069	1.074	1.089	1.089	1.089
0.010	-0.010	0.005	-0.005	-0.005	0.000	0.034	1.758	1.079	1.069	1.074	1.089	1.084	1.084
-0.005	-0.015	0.005	-0.005	-0.005	0.005	0.029	1.753	1.074	1.069	1.074	1.089	1.084	1.084
0.000	-0.010	0.010	-0.005	0.005	0.005	0.029	1.787	1.079	1.069	1.074	1.089	1.089	1.084
-0.005	-0.015	0.005	-0.005	0.000	-0.005	0.029	1.797	1.079	1.069	1.069	1.089	1.084	1.079
0.005	-0.005	0.005	-0.005	0.000	0.000	0.029	1.763	1.079	1.074	1.069	1.089	1.084	1.079
0.010	0.000	0.000	-0.005	0.000	0.015	0.034	1.738	1.084	1.079	1.074	1.089	1.084	1.084
0.005	-0.005	0.000	-0.005	-0.010	0.005	0.029	1.812	1.079	1.074	1.074	1.089	1.084	1.079
0.000	0.005	-0.005	0.000	-0.005	0.005	0.029	1.772	1.074	1.074	1.074	1.094	1.084	1.079
-0.005	0.015	-0.005	0.005	0.000	0.005	0.034	1.787	1.079	1.079	1.074	1.094	1.089	1.084
-0.005	0.015	0.000	0.000	-0.005	-0.005	0.034	1.792	1.079	1.079	1.074	1.094	1.089	1.079
-0.010	0.010	0.000	0.010	-0.005	0.015	0.034	1.816	1.084	1.074	1.074	1.099	1.089	1.089
-0.005	0.005	-0.005	0.010	0.005	0.010	0.034	1.729	1.074	1.074	1.074	1.094	1.094	1.089
-0.015	-0.005	-0.010	0.000	0.000	-0.024	0.034	1.797	1.074	1.069	1.074	1.094	1.084	1.079
-0.010	-0.005	-0.005	0.000	-0.005	0.010	0.034	1.802	1.079	1.074	1.074	1.089	1.089	1.084
-0.005	-0.005	-0.005	0.000	-0.005	0.000	0.034	1.768	1.074	1.079	1.074	1.089	1.089	1.084
-0.010	-0.005	-0.005	0.000	0.000	0.000	0.029	1.748	1.069	1.074	1.074	1.089	1.089	1.089
0.000	-0.015	0.000	-0.005	0.005	0.005	0.034	1.743	1.069	1.069	1.069	1.089	1.089	1.089
0.005	-0.010	0.000	-0.010	0.005	0.000	0.029	1.792	1.074	1.069	1.069	1.089	1.084	1.084
0.015	-0.005	0.010	-0.005	0.000	0.000	0.034	1.816	1.084	1.074	1.074	1.089	1.084	1.084
0.005	-0.010	0.010	-0.005	0.000	-0.010	0.034	1.772	1.074	1.074	1.074	1.089	1.084	1.084
0.010	0.000	0.015	-0.005	0.005	-0.005	0.029	1.812	1.079	1.079	1.074	1.094	1.089	1.084
-0.005	-0.005	0.015	-0.005	0.005	0.000	0.034	1.797	1.074	1.074	1.074	1.094	1.084	1.084
0.005	0.000	0.005	0.000	0.000	0.000	0.029	1.802	1.079	1.079	1.074	1.094	1.084	1.084
0.000	0.010	0.000	-0.005	-0.005	-0.005	0.034	1.758	1.069	1.079	1.074	1.089	1.084	1.084
0.000	-0.015	0.000	0.005	0.000	-0.029	0.029	1.797	1.074	1.069	1.069	1.089	1.084	1.079
-0.010	0.000	0.000	0.005	-0.005	-0.005	0.029	1.812	1.079	1.074	1.069	1.089	1.084	1.084
-0.010	0.000	-0.005	0.005	-0.005	0.000	0.034	1.748	1.074	1.074	1.069	1.089	1.084	1.084
0.000	0.000	-0.015	0.005	-0.005	-0.005	0.029	1.729	1.074	1.074	1.069	1.089	1.089	1.084
-0.010	-0.010	-0.010	0.000	0.005	-0.010	0.034	1.792	1.074	1.069	1.069	1.089	1.089	1.079
-0.015	-0.005	-0.010	0.005	-0.010	-0.005	0.029	1.782	1.079	1.069	1.069	1.089	1.084	1.084
0.005	-0.005	-0.015	0.005	-0.005	-0.024	0.034	1.797	1.079	1.074	1.074	1.089	1.084	1.079
0.000	-0.005	-0.005	0.010	-0.005	0.015	0.029	1.797	1.079	1.074	1.074	1.094	1.089	1.089
-0.005	-0.005	0.000	0.005	-0.005	0.000	0.034	1.782	1.074	1.074	1.074	1.089	1.089	1.084
0.000	-0.005	0.000	-0.005	-0.010	0.020	0.034	1.797	1.079	1.074	1.074	1.089	1.084	1.084
0.005	-0.010	0.005	-0.010	-0.005	0.020	0.029	1.802	1.084	1.074	1.074	1.089	1.089	1.089
0.005	-0.024	0.010	-0.010	-0.005	-0.010	0.034	1.768	1.079	1.074	1.074	1.089	1.084	1.079
-0.005	-0.015	0.005	-0.005	0.010	-0.005	0.034	1.758	1.074	1.074	1.074	1.094	1.089	1.084
0.000	0.000	0.000	-0.005	0.010	0.000	0.034	1.792	1.079	1.079	1.074	1.094	1.089	1.084
-0.005	0.010	0.000	-0.005	0.010	0.010	0.034	1.802	1.079	1.079	1.074	1.094	1.089	1.084
-0.010	0.015	-0.005	-0.005	0.005	0.005	0.034	1.807	1.079	1.084	1.074	1.094	1.089	1.084
-0.010	0.015	-0.005	0.000	0.005	0.005	0.034	1.768	1.079	1.079	1.079	1.094	1.089	1.084
-0.010	0.020	0.000	0.005	0.000	0.000	0.034	1.802	1.079	1.079	1.074	1.094	1.089	1.084
-0.010	0.005	0.000	0.000	-0.005	-0.015	0.034	1.816	1.084	1.079	1.079	1.094	1.084	1.079
-0.010	0.015	-0.005	0.010	-0.005	-0.010	0.029	1.787	1.084	1.079	1.079	1.099	1.089	1.079
-0.015	0.015	0.000	0.010	0.005	-0.010	0.034	1.821	1.084	1.079	1.079	1.099	1.094	1.084
-0.010	0.020	-0.005	0.010	0.000	0.000	0.029	1.758	1.079	1.079	1.079	1.094	1.089	1.089
-0.015	0.010	-0.010	0.010	0.005	-0.005	0.029	1.802	1.079	1.074	1.079	1.094	1.094	1.089
0.000	0.010	-0.005	0.015	0.000	-0.005	0.029	1.782	1.084	1.079	1.074	1.094	1.094	1.089
0.005	-0.005	-0.005	0.010	-0.005	0.005	0.029	1.782	1.084	1.074	1.074	1.094	1.089	1.094
0.000	-0.005	0.005	0.000	0.000	0.005	0.029	1.787	1.084	1.074	1.079	1.094	1.089	1.089
0.010	-0.010	0.005	-0.005	-0.010	0.000	0.029	1.816	1.094	1.079	1.079	1.089	1.089	1.089
0.015	-0.020	0.000	-0.015	-0.010	-0.010	0.034	1.797	1.089	1.074	1.074	1.089	1.089	1.079
0.015	-0.010	0.005	-0.020	0.000	0.010	0.029	1.777	1.084	1.079	1.079	1.089	1.089	1.089
0.015	-0.015	0.000	-0.015	0.000	0.010	0.034	1.792	1.084	1.079	1.079	1.089	1.089	1.089
0.015	-0.010	-0.005	-0.015	0.000	0.005	0.029	1.797	1.084	1.079	1.074	1.094	1.089	1.084
0.010	0.000	-0.005	-0.005	0.000	0.005	0.029	1.792	1.074	1.079	1.079	1.094	1.089	1.084
0.000	0.000	-0.005	-0.005	0.005	0.000	0.029	1.763	1.074	1.079	1.079	1.094	1.089	1.084
-0.005	0.000	-0.005	0.000	-0.005	-0.005	0.034	1.772	1.069	1.074	1.079	1.094	1.089	1.084
0.000	0.015	-0.005	0.000	0.000	0.000	0.034	1.792	1.069	1.079	1.079	1.099	1.089	1.084
0.000	0.024	-0.010	0.000	0.000	-0.015	0.034	1.782	1.074	1.079	1.074	1.099	1.089	1.079
0.000	0.015	-0.005	0.005	-0.005	-0.005	0.029	1.782	1.079	1.074	1.074	1.099	1.094	1.084
-0.005	0.020	-0.015	0.000	0.005	0.005	0.034	1.763	1.069	1.074	1.074	1.094	1.094	1.094
-0.005	0.005	-0.010	0.010	0.000	0.005	0.034	1.777	1.074	1.069	1.074	1.094	1.094	1.089
-0.015	0.005	-0.010	0.000	0.000	0.010	0.029	1.777	1.079	1.069	1.069	1.094	1.089	1.089
0.005	0.005	-0.005	-0.005	0.000	0.005	0.034	1.797	1.084	1.074	1.074	1.089	1.089	1.089
-0.005	-0.015	0.000	0.000	0.000	0.000	0.029	1.772	1.074	1.069	1.074	1.089	1.089	1.084
0.005	-0.020	0.000	-0.005	0.000	-0.010	0.029	1.802	1.079	1.069	1.074	1.089	1.089	1.084
0.005	-0.029	0.005	-0.005	0.000	-0.015	0.029	1.797	1.079	1.069	1.069	1.089	1.089	1.084
0.005	-0.024	0.000	-0.005	-0.005	-0.034	0.029	1.797	1.084	1.069	1.069	1.089	1.084	1.074
0.005	-0.049	0.000	0.005	0.000	-0.029	0.029	1.738	1.074	1.064	1.069	1.089	1.084	1.079
0.005	-0.020	0.005	0.000	-0.005	-0.029	0.034	1.743	1.074	1.079	1.069	1.089	1.084	1.079
0.005	-0.010	-0.005	0.000	0.000	-0.005	0.029	1.807	1.074	1.074	1.069	1.089	1.084	1.089
0.000	-0.005	-0.005	0.000	0.005	0.000	0.029	1.807	1.079	1.074	1.074	1.089	1.089	1.089
-0.010	0.000	0.005	0.010	0.005	0.010	0.034	1.714	1.069	1.079	1.074	1.094	1.089	1.089
-0.005	0.024	0.000	0.010	0.000	0.010	0.029	1.777	1.074	1.079	1.079	1.094	1.089	1.084
-0.015	0.020	0.005	0.005	0.000	0.015	0.029	1.797	1.074	1.079	1.079	1.094	1.084	1.089
-0.015	0.005	0.005	0.010	0.000	0.020	0.034	1.758	1.074	1.074	1.074	1.094	1.089	1.089
-0.015	0.020	0.000	0.015	0.005	0.005	0.029	1.802	1.079	1.079	1.074	1.094	1.089	1.089
-0.010	0.010	0.005	0.015	0.005	-0.010	0.034	1.787	1.079	1.074	1.074	1.094	1.089	1.079
-0.005	0.005	0.000	0.010	-0.005	0.005	0.034	1.792	1.084	1.074	1.074	1.094	1.089	1.084
0.000	0.005	0.000	0.015	-0.005	-0.020	0.034	1.797	1.089	1.079	1.074	1.094	1.089	1.079
0.000	-0.015	0.000	0.005	-0.005	-0.005	0.034	1.792	1.084	1.074	1.074	1.094	1.089	1.084
0.005	-0.015	0.005	0.005	-0.005	-0.005	0.034	1.792	1.084	1.079	1.074	1.094	1.089	1.084
0.010	-0.020	0.005	0.000	-0.010	-0.010	0.034	1.753	1.079	1.074	1.074	1.089	1.084	1.084
0.015	-0.024	0.005	-0.005	-0.005	-0.005	0.029	1.802	1.084	1.074	1.074	1.089	1.084	1.084
0.010	-0.024	0.000	-0.005	0.000	0.005	0.034	1.807	1.084	1.074	1.074	1.094	1.089	1.084
0.015	-0.020	0.005	0.000	0.000	0.015	0.034	1.777	1.079	1.079	1.074	1.094	1.089	1.089
0.005	-0.010	0.000	0.010	0.005	0.015	0.034	1.792	1.084	1.079	1.074	1.094	1.089	1.089
0.015	-0.005	0.005	0.005	0.005	0.005	0.034	1.787	1.084	1.084	1.079	1.094	1.089	1.084
0.000	0.000	0.005	0.005	0.000	0.005	0.034	1.748	1.074	1.084	1.079	1.094	1.089	1.084
0.005	0.000	0.000	0.005	0.000	-0.005	0.034	1.787	1.074	1.079	1.074	1.089	1.089	1.084
0.000	0.000	-0.005	0.005	-0.005	0.010	0.034	1.782	1.074	1.079	1.074	1.094	1.089	1.084
-0.020	0.015	-0.005	0.010	-0.005	0.000	0.034	1.758	1.064	1.079	1.074	1.089	1.089	1.084
-0.020	0.010	-0.010	0.010	-0.005	0.010	0.029	1.787	1.074	1.074	1.074	1.094	1.089	1.084
-0.015	0.015	-0.005	0.000	-0.015	0.010	0.029	1.812	1.079	1.074	1.074	1.089	1.084	1.084
-0.015	0.029	-0.010	0.000	-0.010	-0.010	0.029	1.758	1.074	1.079	1.074	1.094	1.089	1.084
-0.010	0.015	-0.015	-0.005	-0.010	0.000	0.029	1.797	1.079	1.074	1.074	1.094	1.089	1.084
-0.015	0.010	-0.005	-0.005	-0.015	0.005	0.029	1.792	1.079	1.074	1.074	1.089	1.084	1.084
-0.005	0.020	0.000	0.000	0.005	0.005	0.029	1.816	1.084	1.079	1.079	1.094	1.094	1.084
-0.005	0.015	0.005	0.000	0.024	0.010	0.029	1.743	1.074	1.074	1.079	1.094	1.099	1.089
0.000	0.000	0.005	-0.010	0.024	-0.005	0.034	1.797	1.079	1.074	1.079	1.089	1.094	1.089
0.015	-0.010	0.010	-0.010	0.010	0.015	0.029	1.802	1.084	1.074	1.074	1.089	1.089	1.094
0.010	-0.005	0.005	-0.010	0.020	0.000	0.029	1.812	1.084	1.074	1.074	1.089	1.089	1.084
0.005	-0.010	-0.005	-0.010	0.024	0.010	0.034	1.782	1.084	1.074	1.069	1.089	1.089	1.089
-0.005	-0.005	0.000	-0.010	-0.020	0.000	0.029	1.787	1.084	1.074	1.074	1.089	1.079	1.084
0.000	0.005	0.000	-0.010	-0.029	-0.024	0.029	1.787	1.084	1.079	1.074	1.094	1.074	1.069
-0.010	0.000	0.000	-0.010	-0.010	-0.010	0.034	1.753	1.074	1.079	1.074	1.094	1.084	1.074
-0.015	0.010	-0.010	-0.005	0.034	-0.010	0.034	1.724	1.064	1.074	1.074	1.089	1.099	1.089
-0.015	0.010	-0.005	-0.005	0.059	-0.005	0.034	1.802	1.069	1.074	1.074	1.094	1.099	1.089
-0.010	0.024	-0.005	-0.005	-0.015	-0.020	0.034	1.807	1.079	1.079	1.074	1.094	1.079	1.084
-0.005	0.020	-0.005	0.005	-0.034	-0.020	0.029	1.807	1.084	1.079	1.079	1.094	1.079	1.079
-0.005	0.020	-0.005	0.000	-0.020	0.005	0.029	1.768	1.089	1.079	1.079	1.094	1.089	1.084
0.000	0.015	-0.005	0.005	-0.005	0.000	0.034	1.797	1.084	1.079	1.079	1.094	1.094	1.089
-0.005	-0.005	-0.005	0.000	0.024	0.010	0.034	1.797	1.084	1.074	1.079	1.094	1.099	1.094
-0.005	0.000	0.000	0.005	0.020	0.015	0.034	1.787	1.089	1.079	1.079	1.094	1.094	1.094
0.005	-0.020	0.000	0.005	0.005	-0.010	0.034	1.763	1.084	1.074	1.074	1.094	1.089	1.084
0.000	-0.015	0.005	0.000	-0.020	-0.005	0.034	1.797	1.079	1.074	1.079	1.094	1.084	1.084
0.000	-0.020	0.005	-0.005	-0.005	-0.020	0.034	1.743	1.079	1.074	1.074	1.094	1.089	1.079
0.000	-0.020	0.005	-0.005	-0.029	-0.010	0.034	1.724	1.074	1.074	1.074	1.089	1.084	1.079
0.024	-0.029	0.005	-0.005	-0.029	-0.024	0.034	1.777	1.079	1.069	1.074	1.089	1.079	1.074
0.010	-0.024	0.005	-0.010	-0.029	0.000	0.034	1.797	1.074	1.074	1.069	1.089	1.084	1.084
0.005	-0.005	0.005	0.000	-0.034	0.000	0.034	1.768	1.074	1.079	1.074	1.089	1.084	1.084
0.005	-0.005	-0.005	-0.005	-0.029	0.010	0.034	1.792	1.079	1.079	1.069	1.094	1.089	1.084
0.000	0.005	0.000	0.000	-0.005	0.005	0.029	1.802	1.074	1.079	1.074	1.094	1.094	1.084
0.000	0.000	-0.005	0.005	0.010	0.015	0.034	1.748	1.069	1.079	1.074	1.094	1.099	1.094
0.000	0.010	-0.005	0.000	0.054	0.010	0.034	1.792	1.079	1.079	1.074	1.094	1.104	1.094
0.000	0.000	-0.005	0.000	0.049	0.000	0.029	1.743	1.079	1.074	1.074	1.094	1.104	1.094
0.005	0.010	-0.005	0.005	0.083	0.015	0.034	1.797	1.084	1.079	1.074	1.094	1.108	1.104
0.000	0.005	-0.005	0.005	0.049	0.015	0.029	1.777	1.084	1.079	1.074	1.094	1.094	1.094
0.005	0.005	-0.005	0.000	0.020	0.005	0.034	1.802	1.084	1.079	1.079	1.094	1.084	1.094
0.000	0.000	-0.010	0.000	0.020	-0.005	0.029	1.792	1.089	1.079	1.074	1.094	1.084	1.084
0.005	-0.005	-0.005	0.000	-0.010	-0.015	0.034	1.763	1.084	1.079	1.074	1.089	1.079	1.079
0.000	0.000	-0.005	0.000	-0.034	-0.024	0.034	1.782	1.079	1.079	1.079	1.089	1.074	1.079
0.005	-0.020	0.005	-0.010	-0.024	0.010	0.034	1.807	1.084	1.074	1.079	1.094	1.079	1.084
0.005	-0.020	0.005	-0.005	-0.010	0.005	0.034	1.787	1.084	1.074	1.074	1.094	1.089	1.084
0.010	-0.020	0.005	-0.005	-0.010	0.005	0.034	1.763	1.084	1.079	1.079	1.094	1.089	1.084
0.015	0.000	0.005	-0.010	-0.010	-0.005	0.034	1.797	1.084	1.084	1.079	1.094	1.084	1.079
0.010	-0.010	0.010	-0.005	-0.034	-0.010	0.034	1.772	1.084	1.079	1.079	1.094	1.084	1.079
0.005	-0.005	0.005	0.010	-0.010	-0.024	0.034	1.792	1.079	1.079	1.074	1.099	1.089	1.079
0.000	0.000	0.000	0.005	-0.010	-0.005	0.034	1.797	1.079	1.079	1.074	1.099	1.094	1.089
-0.005	0.010	-0.005	0.005	0.010	0.000	0.034	1.797	1.079	1.079	1.079	1.094	1.099	1.089
0.000	0.015	-0.005	0.005	0.005	-0.015	0.034	1.753	1.079	1.079	1.079	1.094	1.094	1.089
0.000	0.010	-0.005	0.005	0.005	-0.010	0.034	1.753	1.069	1.079	1.079	1.094	1.094	1.089
-0.015	0.005	-0.005	0.005	-0.005	-0.005	0.034	1.777	1.074	1.074	1.074	1.094	1.089	1.089
0.005	0.005	-0.010	0.010	-0.024	-0.005	0.034	1.768	1.074	1.074	1.074	1.094	1.084	1.084
-0.005	0.005	-0.005	0.005	-0.020	-0.020	0.034	1.816	1.074	1.069	1.074	1.094	1.089	1.084
-0.005	-0.015	0.000	0.000	0.000	0.010	0.034	1.792	1.079	1.064	1.074	1.094	1.094	1.094
-0.005	-0.010	-0.005	0.010	-0.005	0.015	0.034	1.753	1.074	1.074	1.074	1.094	1.094	1.094
0.000	-0.015	-0.005	-0.005	0.010	0.020	0.034	1.797	1.084	1.074	1.074	1.089	1.094	1.094
0.000	-0.015	0.005	-0.010	0.015	0.000	0.034	1.807	1.089	1.074	1.074	1.089	1.094	1.089
0.000	-0.015	0.010	-0.005	0.020	-0.005	0.034	1.758	1.084	1.074	1.074	1.089	1.089	1.084
0.005	-0.015	0.005	-0.015	0.010	0.000	0.029	1.802	1.084	1.079	1.074	1.089	1.084	1.084
0.000	-0.029	0.005	-0.010	-0.010	0.020	0.034	1.787	1.079	1.074	1.074	1.089	1.084	1.089
0.000	-0.010	-0.005	-0.015	-0.010	0.005	0.029	1.807	1.084	1.079	1.074	1.089	1.079	1.084
-0.005	-0.015	-0.005	-0.010	0.000	-0.015	0.029	1.792	1.084	1.079	1.069	1.089	1.084	1.079
-0.005	-0.005	0.000	-0.015	0.010	-0.010	0.034	1.792	1.079	1.079	1.074	1.089	1.084	1.084
-0.010	0.000	0.000	-0.010	-0.005	0.010	0.029	1.787	1.074	1.079	1.074	1.094	1.084	1.084
-0.010	0.010	0.000	-0.005	-0.005	0.015	0.034	1.772	1.074	1.079	1.079	1.094	1.089	1.084
-0.015	0.024	0.000	0.000	-0.010	-0.015	0.034	1.792	1.074	1.084	1.079	1.094	1.084	1.079
-0.015	0.010	-0.005	0.005	-0.020	-0.034	0.029	1.787	1.074	1.074	1.079	1.099	1.084	1.074
-0.010	0.020	0.000	0.005	-0.005	-0.005	0.034	1.797	1.079	1.079	1.079	1.099	1.094	1.084
-0.010	0.020	0.000	0.005	0.000	0.024	0.034	1.797	1.079	1.079	1.079	1.099	1.094	1.094
-0.005	0.024	-0.005	0.000	0.015	0.010	0.034	1.753	1.084	1.079	1.079	1.099	1.099	1.094
-0.010	0.015	-0.005	0.000	0.015	0.005	0.034	1.753	1.079	1.074	1.074	1.094	1.094	1.089
0.000	0.005	-0.015	0.005	0.015	0.005	0.029	1.787	1.084	1.074	1.074	1.094	1.094	1.089
-0.010	-0.015	-0.010	0.000	-0.005	0.020	0.029	1.807	1.084	1.069	1.074	1.094	1.089	1.094
-0.005	-0.010	-0.005	0.000	-0.024	0.005	0.034	1.772	1.084	1.074	1.074	1.089	1.084	1.084
0.005	-0.020	0.000	-0.010	-0.034	0.000	0.029	1.743	1.079	1.069	1.074	1.089	1.079	1.084
0.000	-0.010	-0.005	-0.015	-0.024	-0.010	0.034	1.802	1.084	1.074	1.074	1.089	1.084	1.074
0.005	-0.005	0.005	-0.005	-0.005	0.005	0.034	1.816	1.089	1.079	1.079	1.094	1.089	1.084
-0.005	-0.010	0.010	-0.005	0.010	0.015	0.034	1.787	1.079	1.074	1.079	1.094	1.094	1.089
0.000	-0.005	0.005	-0.005	0.020	0.005	0.034	1.777	1.079	1.074	1.074	1.094	1.094	1.089
0.005	0.005	0.000	0.005	-0.005	-0.005	0.029	1.797	1.084	1.079	1.074	1.094	1.084	1.084
-0.005	0.010	0.005	-0.005	0.020	0.000	0.034	1.807	1.079	1.079	1.079	1.094	1.094	1.089
-0.005	0.015	0.005	-0.005	0.020	-0.010	0.034	1.826	1.084	1.084	1.079	1.094	1.094	1.084
-0.015	0.015	0.000	0.000	0.024	0.005	0.029	1.709	1.069	1.079	1.079	1.094	1.094	1.094
-0.005	0.010	-0.005	0.000	0.000	0.005	0.034	1.797	1.079	1.079	1.074	1.094	1.084	1.089
0.000	0.005	-0.005	0.005	-0.034	-0.015	0.029	1.792	1.084	1.074	1.074	1.094	1.079	1.084
-0.005	0.020	0.000	0.005	-0.020	0.029	0.029	1.748	1.079	1.084	1.079	1.094	1.089	1.094
0.000	0.015	-0.005	0.005	-0.005	0.029	0.029	1.797	1.079	1.079	1.079	1.094	1.094	1.094
0.000	0.000	-0.005	-0.005	0.020	0.010	0.029	1.772	1.079	1.074	1.074	1.094	1.099	1.089
0.000	-0.010	0.000	-0.005	0.015	0.005	0.029	1.748	1.074	1.069	1.074	1.094	1.094	1.089
-0.005	-0.015	0.000	-0.010	0.010	-0.010	0.029	1.787	1.079	1.069	1.074	1.094	1.089	1.084
0.005	-0.005	0.000	-0.010	0.015	0.015	0.029	1.733	1.074	1.074	1.074	1.089	1.094	1.094
0.000	-0.005	0.000	-0.005	0.029	0.020	0.029	1.797	1.074	1.074	1.074	1.094	1.094	1.094
0.005	-0.005	0.005	0.000	0.000	0.000	0.029	1.797	1.084	1.074	1.074	1.094	1.084	1.084
0.000	-0.029	0.005	-0.010	0.000	0.015	0.034	1.797	1.079	1.069	1.069	1.089	1.084	1.084
0.005	-0.020	0.000	0.000	-0.005	-0.020	0.029	1.709	1.069	1.074	1.069	1.089	1.084	1.074
0.005	-0.010	0.000	0.000	-0.005	-0.034	0.029	1.802	1.074	1.069	1.069	1.089	1.079	1.074
-0.005	0.000	-0.005	0.000	-0.049	-0.029	0.029	1.797	1.074	1.074	1.069	1.089	1.069	1.069
-0.005	0.024	0.005	0.005	-0.078	-0.029	0.034	1.787	1.069	1.084	1.074	1.089	1.069	1.069
-0.005	0.029	0.000	0.000	-0.083	-0.020	0.034	1.768	1.074	1.079	1.074	1.089	1.074	1.074
-0.005	0.020	-0.005	0.000	-0.039	-0.024	0.034	1.777	1.069	1.074	1.074	1.094	1.089	1.074
-0.005	0.029	-0.005	0.000	-0.005	-0.005	0.029	1.807	1.074	1.074	1.074	1.094	1.099	1.084
-0.005	0.020	-0.010	0.005	0.005	-0.005	0.034	1.768	1.079	1.074	1.074	1.094	1.099	1.089
-0.010	0.015	-0.005	0.000	0.059	-0.005	0.029	1.772	1.079	1.074	1.074	1.094	1.113	1.094
-0.020	0.020	-0.005	-0.005	0.137	0.010	0.034	1.807	1.079	1.074	1.074	1.094	1.123	1.108
0.005	0.010	-0.005	-0.005	0.068	-0.005	0.034	1.738	1.084	1.074	1.074	1.089	1.094	1.099
-0.005	0.000	0.005	0.000	0.034	-0.005	0.034	1.768	1.084	1.074	1.074	1.094	1.084	1.094
0.010	-0.015	0.000	0.000	0.020	-0.020	0.034	1.777	1.084	1.074	1.074	1.094	1.079	1.084
0.005	-0.015	0.005	-0.010	0.015	-0.024	0.029	1.797	1.084	1.074	1.074	1.089	1.084	1.084
0.024	-0.020	0.000	-0.010	0.029	-0.010	0.034	1.787	1.084	1.074	1.074	1.089	1.084	1.084
0.024	-0.010	0.005	-0.010	0.034	-0.015	0.029	1.812	1.089	1.079	1.074	1.094	1.089	1.079
0.020	-0.024	0.005	-0.010	-0.015	-0.015	0.034	1.743	1.074	1.074	1.074	1.089	1.074	1.079
0.020	-0.015	0.000	-0.005	-0.093	-0.015	0.034	1.709	1.074	1.074	1.074	1.089	1.055	1.069
0.005	-0.005	0.000	-0.005	-0.117	0.044	0.034	1.792	1.069	1.074	1.074	1.089	1.060	1.079
0.000	0.005	0.000	-0.005	-0.073	0.049	0.034	1.807	1.079	1.079	1.074	1.094	1.079	1.079
0.005	0.010	-0.005	0.000	-0.034	0.024	0.029	1.777	1.079	1.079	1.074	1.094	1.089	1.074
0.000	0.020	-0.005	0.000	-0.024	0.024	0.034	1.792	1.079	1.079	1.074	1.094	1.089	1.079
-0.010	0.005	-0.005	0.000	-0.005	0.015	0.029	1.802	1.079	1.074	1.074	1.094	1.094	1.079
-0.010	0.010	-0.005	0.010	-0.015	0.005	0.029	1.792	1.079	1.074	1.074	1.094	1.094	1.084
-0.020	0.000	-0.005	0.015	0.015	0.010	0.034	1.807	1.079	1.074	1.074	1.094	1.099	1.089
-0.020	-0.010	-0.005	0.005	0.020	0.005	0.029	1.772	1.079	1.069	1.074	1.094	1.099	1.089
-0.020	-0.024	-0.010	0.010	0.024	0.005	0.029	1.821	1.084	1.069	1.069	1.094	1.094	1.089
-0.005	-0.015	-0.005	0.010	0.044	0.020	0.029	1.763	1.079	1.074	1.074	1.094	1.099	1.099
0.000	-0.024	0.000	0.015	0.010	0.029	0.029	1.777	1.089	1.074	1.074	1.094	1.089	1.094
-0.005	-0.029	0.000	0.005	-0.073	0.015	0.029	1.787	1.089	1.079	1.074	1.089	1.064	1.079
0.005	-0.024	0.000	0.000	-0.063	-0.029	0.034	1.733	1.079	1.074	1.074	1.089	1.074	1.069
0.005	-0.029	0.005	0.005	-0.005	-0.005	0.029	1.797	1.079	1.074	1.074	1.094	1.094	1.079
0.000	-0.029	0.000	0.000	0.034	-0.010	0.029	1.792	1.079	1.079	1.074	1.094	1.104	1.084
0.000	-0.005	0.000	0.005	0.083	-0.010	0.034	1.729	1.069	1.079	1.074	1.094	1.108	1.094
-0.005	0.015	0.000	0.000	0.078	-0.020	0.029	1.777	1.074	1.079	1.074	1.094	1.104	1.089
-0.005	0.015	-0.005	0.000	0.034	-0.044	0.029	1.797	1.079	1.079	1.074	1.089	1.084	1.079
-0.005	0.005	0.000	0.000	0.015	-0.024	0.029	1.807	1.079	1.074	1.074	1.094	1.084	1.079
-0.005	0.005	0.000	0.010	0.020	-0.044	0.029	1.738	1.069	1.074	1.074	1.094	1.084	1.079
-0.005	0.010	0.000	0.000	0.024	-0.029	0.034	1.777	1.074	1.074	1.074	1.094	1.089	1.084
-0.005	0.020	0.000	0.000	-0.005	-0.044	0.034	1.797	1.079	1.079	1.074	1.094	1.079	1.074
0.000	0.029	-0.005	0.005	-0.034	-0.049	0.034	1.733	1.069	1.079	1.074	1.094	1.074	1.074
0.005	0.029	-0.005	0.005	-0.029	-0.010	0.034	1.797	1.069	1.074	1.074	1.094	1.079	1.089
-0.005	0.020	-0.005	0.005	-0.029	0.029	0.034	1.812	1.084	1.074	1.074	1.094	1.084	1.094
-0.005	0.020	-0.005	0.000	-0.010	0.049	0.029	1.831	1.089	1.079	1.074	1.094	1.094	1.099
-0.005	0.005	0.000	0.005	0.000	0.039	0.034	1.772	1.079	1.074	1.074	1.094	1.094	1.094
0.000	0.000	0.000	0.000	0.005	0.044	0.029	1.792	1.089	1.074	1.074	1.094	1.094	1.094
0.000	-0.015	0.000	-0.010	0.034	0.029	0.034	1.802	1.084	1.069	1.074	1.094	1.094	1.089
0.010	-0.024	0.010	0.000	0.005	0.015	0.034	1.777	1.084	1.074	1.074	1.094	1.089	1.084
0.005	-0.020	0.005	-0.005	0.010	0.015	0.034	1.753	1.079	1.074	1.074	1.089	1.089	1.084
0.000	-0.020	0.000	-0.005	0.015	0.005	0.029	1.802	1.079	1.074	1.074	1.089	1.089	1.084
0.010	-0.010	-0.005	-0.005	0.005	0.005	0.029	1.782	1.079	1.074	1.074	1.089	1.084	1.084
-0.005	-0.010	0.005	-0.005	0.000	-0.005	0.034	1.792	1.079	1.079	1.074	1.089	1.084	1.079
-0.005	0.005	0.010	0.005	-0.034	-0.020	0.029	1.743	1.079	1.079	1.079	1.094	1.074	1.069
-0.010	0.010	0.000	0.005	-0.044	0.000	0.034	1.797	1.074	1.074	1.079	1.094	1.074	1.079
-0.005	0.015	0.000	0.005	-0.015	0.005	0.029	1.797	1.079	1.079	1.074	1.094	1.094	1.079
-0.015	0.015	-0.005	0.010	0.000	0.005	0.034	1.758	1.074	1.074	1.074	1.094	1.094	1.084
-0.010	0.024	-0.005	0.010	0.005	-0.010	0.029	1.782	1.074	1.079	1.074	1.094	1.094	1.084
-0.015	0.010	-0.005	0.005	-0.010	0.010	0.029	1.797	1.074	1.069	1.074	1.094	1.089	1.089
-0.010	0.010	-0.010	0.010	-0.005	0.015	0.034	1.802	1.079	1.074	1.074	1.094	1.094	1.094
-0.010	0.010	-0.015	0.010	0.015	0.010	0.034	1.821	1.089	1.079	1.074	1.094	1.099	1.089
0.000	0.005	-0.010	0.005	0.024	-0.005	0.029	1.772	1.089	1.079	1.074	1.094	1.094	1.084
0.000	0.005	-0.005	0.005	0.015	0.010	0.034	1.763	1.089	1.084	1.079	1.094	1.094	1.089
0.010	-0.005	-0.005	0.005	0.005	0.000	0.034	1.758	1.084	1.079	1.079	1.094	1.089	1.089
0.005	-0.010	0.010	0.000	0.000	0.000	0.029	1.782	1.079	1.074	1.084	1.094	1.084	1.084
0.020	-0.015	0.015	-0.005	0.000	-0.015	0.034	1.733	1.079	1.074	1.079	1.094	1.089	1.084
0.020	-0.010	0.010	-0.005	-0.005	0.000	0.034	1.792	1.084	1.074	1.079	1.094	1.084	1.084
0.020	-0.005	0.015	0.000	0.005	0.005	0.034	1.777	1.084	1.079	1.074	1.094	1.089	1.089
0.010	-0.005	0.005	-0.005	0.010	0.015	0.034	1.748	1.079	1.079	1.074	1.094	1.089	1.089
0.005	-0.010	0.005	0.000	-0.005	0.010	0.034	1.797	1.079	1.079	1.074	1.094	1.089	1.089
-0.005	0.000	0.000	0.000	0.000	0.005	0.034	1.753	1.074	1.079	1.074	1.094	1.089	1.084
-0.005	0.000	-0.005	0.000	0.010	0.010	0.034	1.738	1.064	1.074	1.074	1.094	1.094	1.084
-0.015	-0.005	-0.005	0.000	-0.005	-0.005	0.029	1.758	1.064	1.069	1.069	1.094	1.084	1.084
-0.015	0.005	-0.005	0.000	0.000	-0.010	0.034	1.777	1.064	1.069	1.069	1.089	1.089	1.084
-0.010	0.000	-0.005	0.000	-0.005	-0.024	0.029	1.807	1.079	1.069	1.069	1.089	1.084	1.074
-0.005	0.000	-0.005	-0.005	-0.010	-0.044	0.034	1.763	1.079	1.074	1.069	1.089	1.084	1.069
-0.005	0.005	0.000	0.000	-0.015	-0.015	0.029	1.753	1.079	1.074	1.074	1.089	1.084	1.084
-0.005	-0.005	-0.005	0.005	-0.015	-0.015	0.034	1.782	1.074	1.069	1.069	1.089	1.084	1.079
0.005	-0.005	0.000	-0.005	-0.020	-0.010	0.029	1.787	1.079	1.069	1.074	1.089	1.084	1.084
0.005	0.000	0.000	-0.005	-0.020	-0.010	0.034	1.777	1.084	1.074	1.069	1.089	1.084	1.084
0.000	-0.015	0.005	-0.005	-0.020	-0.010	0.034	1.782	1.074	1.069	1.074	1.089	1.084	1.084
0.000	-0.010	0.005	-0.005	0.005	-0.010	0.034	1.748	1.069	1.074	1.074	1.094	1.089	1.084
0.010	-0.010	0.015	-0.010	0.015	-0.005	0.034	1.782	1.079	1.069	1.074	1.089	1.094	1.084
0.015	-0.015	0.015	0.000	0.005	0.005	0.029	1.758	1.074	1.069	1.074	1.089	1.089	1.089
0.010	-0.005	0.005	-0.005	0.010	0.005	0.034	1.753	1.074	1.074	1.069	1.089	1.089	1.084
0.015	-0.010	0.005	0.000	0.000	-0.015	0.029	1.792	1.079	1.074	1.069	1.089	1.084	1.079
0.010	0.000	0.000	0.000	-0.010	0.015	0.034	1.782	1.074	1.074	1.069	1.089	1.084	1.089
0.000	0.000	0.000	0.000	-0.005	-0.005	0.034	1.792	1.079	1.074	1.069	1.089	1.084	1.084
0.005	0.005	-0.005	0.005	-0.005	0.020	0.029	1.699	1.074	1.074	1.069	1.089	1.089	1.089
0.000	0.005	-0.010	0.000	0.005	0.010	0.034	1.787	1.074	1.074	1.069	1.089	1.089	1.084
-0.010	0.015	-0.010	0.005	0.000	0.010	0.029	1.792	1.079	1.079	1.069	1.089	1.089	1.084
-0.015	0.015	-0.015	-0.005	0.000	0.015	0.029	1.816	1.079	1.074	1.074	1.089	1.084	1.084
-0.010	0.020	-0.010	0.000	0.005	-0.005	0.029	1.729	1.074	1.079	1.074	1.094	1.089	1.079
-0.015	-0.005	-0.010	0.005	0.010	-0.024	0.029	1.792	1.074	1.069	1.074	1.089	1.089	1.079
-0.010	-0.005	0.000	0.000	0.005	-0.005	0.034	1.797	1.079	1.069	1.074	1.094	1.089	1.079
-0.010	-0.005	0.000	0.000	0.000	0.015	0.029	1.787	1.084	1.074	1.074	1.094	1.089	1.089
0.000	-0.010	-0.010	-0.005	0.000	0.010	0.029	1.772	1.084	1.074	1.074	1.089	1.084	1.089
0.000	-0.015	0.000	0.000	0.000	0.000	0.034	1.797	1.084	1.074	1.074	1.089	1.084	1.084
0.010	-0.020	0.005	-0.005	-0.005	-0.005	0.034	1.826	1.089	1.074	1.074	1.094	1.084	1.074
0.010	-0.024	0.005	-0.005	0.000	0.005	0.034	1.768	1.079	1.074	1.074	1.089	1.089	1.084
0.005	-0.024	0.000	0.000	0.005	-0.020	0.034	1.768	1.079	1.074	1.074	1.089	1.089	1.079
0.010	-0.015	0.005	-0.005	0.000	0.010	0.034	1.816	1.084	1.079	1.074	1.089	1.089	1.084
0.005	-0.015	0.010	-0.005	0.000	-0.005	0.034	1.772	1.074	1.074	1.074	1.094	1.084	1.079
-0.005	-0.020	0.000	-0.005	0.005	-0.005	0.034	1.763	1.069	1.074	1.074	1.094	1.089	1.084
-0.010	0.005	0.000	0.000	0.005	0.010	0.029	1.797	1.074	1.079	1.074	1.094	1.084	1.084
-0.015	0.015	-0.005	0.000	0.000	0.005	0.034	1.782	1.069	1.079	1.074	1.094	1.089	1.084
-0.005	0.020	-0.015	0.000	0.005	-0.005	0.034	1.738	1.069	1.079	1.074	1.089	1.089	1.084
-0.015	0.015	-0.015	0.005	0.000	0.000	0.034	1.792	1.074	1.074	1.074	1.094	1.084	1.084
-0.015	0.015	-0.010	0.005	-0.005	0.015	0.034	1.797	1.079	1.074	1.074	1.094	1.089	1.089
-0.015	0.005	-0.005	0.010	-0.005	0.005	0.029	1.758	1.079	1.074	1.074	1.094	1.089	1.089
-0.005	0.005	-0.005	0.000	0.000	0.000	0.034	1.792	1.084	1.074	1.074	1.094	1.089	1.089
-0.005	0.000	0.005	0.000	0.000	-0.005	0.034	1.816	1.089	1.074	1.074	1.094	1.089	1.079
0.015	0.000	0.000	0.000	0.000	-0.005	0.034	1.733	1.084	1.079	1.074	1.089	1.089	1.084
0.010	-0.005	0.005	0.000	-0.005	-0.005	0.034	1.748	1.079	1.079	1.074	1.094	1.084	1.084
0.015	-0.015	0.000	-0.005	-0.005	-0.015	0.029	1.772	1.079	1.074	1.074	1.089	1.084	1.079
0.010	-0.010	0.005	-0.005	-0.005	-0.015	0.034	1.763	1.069	1.069	1.074	1.089	1.089	1.079
0.010	-0.020	0.005	-0.005	0.005	-0.024	0.034	1.733	1.064	1.069	1.074	1.089	1.089	1.079
0.010	-0.010	0.005	0.000	0.000	0.005	0.029	1.787	1.064	1.069	1.069	1.089	1.089	1.089
0.005	-0.015	0.005	-0.005	0.000	-0.010	0.034	1.772	1.069	1.069	1.069	1.089	1.084	1.079
0.005	0.000	0.005	-0.005	0.000	-0.015	0.034	1.797	1.074	1.074	1.069	1.089	1.089	1.079
-0.005	0.000	0.000	0.005	0.015	0.005	0.029	1.743	1.069	1.069	1.069	1.089	1.089	1.089
-0.005	0.005	0.000	0.000	0.010	0.010	0.029	1.792	1.074	1.069	1.069	1.089	1.089	1.089
-0.010	0.010	0.000	0.005	-0.005	-0.010	0.029	1.816	1.074	1.074	1.069	1.089	1.084	1.084
-0.005	0.020	0.000	0.005	-0.005	0.000	0.034	1.753	1.069	1.074	1.069	1.089	1.084	1.084
-0.020	0.015	-0.005	0.005	-0.005	0.005	0.029	1.792	1.069	1.069	1.069	1.089	1.084	1.084
-0.010	0.010	-0.005	0.005	-0.010	0.000	0.034	1.812	1.079	1.074	1.069	1.089	1.084	1.079
-0.005	0.005	-0.010	0.005	-0.010	-0.010	0.029	1.768	1.079	1.069	1.069	1.089	1.084	1.079
-0.010	0.010	-0.005	0.005	-0.005	-0.015	0.029	1.792	1.079	1.074	1.069	1.089	1.089	1.079
-0.005	0.000	0.005	0.000	0.000	-0.020	0.034	1.758	1.079	1.069	1.069	1.089	1.089	1.079
-0.005	0.005	0.005	0.000	0.005	-0.010	0.029	1.797	1.079	1.074	1.074	1.089	1.084	1.084
0.005	0.000	0.000	0.000	0.000	-0.010	0.034	1.787	1.079	1.074	1.074	1.089	1.084	1.079
0.005	-0.005	0.005	-0.005	-0.005	0.000	0.029	1.797	1.084	1.074	1.074	1.089	1.084	1.084
-0.005	-0.005	0.005	-0.005	-0.010	-0.005	0.034	1.777	1.079	1.069	1.074	1.089	1.084	1.084
-0.005	-0.010	0.005	-0.005	-0.020	-0.020	0.034	1.743	1.074	1.069	1.074	1.089	1.079	1.074
0.000	-0.010	0.005	-0.005	-0.005	0.015	0.034	1.772	1.074	1.064	1.069	1.089	1.084	1.089
-0.005	-0.005	0.005	-0.005	0.005	0.015	0.034	1.792	1.074	1.069	1.069	1.089	1.089	1.084
-0.010	-0.005	0.000	-0.005	0.000	0.015	0.034	1.748	1.074	1.069	1.064	1.089	1.089	1.084
-0.005	0.005	-0.005	0.000	0.005	0.010	0.034	1.792	1.074	1.074	1.069	1.089	1.084	1.084
-0.015	0.005	-0.005	0.000	0.010	-0.010	0.034	1.753	1.069	1.069	1.069	1.089	1.084	1.074
-0.005	0.005	-0.010	-0.005	0.000	0.005	0.029	1.797	1.074	1.074	1.069	1.089	1.084	1.079
-0.005	0.015	-0.010	0.005	0.000	0.015	0.034	1.772	1.074	1.074	1.069	1.089	1.084	1.084
-0.015	0.010	-0.010	0.005	0.005	0.010	0.034	1.792	1.074	1.069	1.069	1.089	1.084	1.084
0.000	0.000	-0.005	0.005	0.000	-0.015	0.029	1.792	1.084	1.074	1.069	1.089	1.084	1.074
-0.005	0.005	0.000	0.005	0.005	-0.015	0.034	1.768	1.079	1.074	1.074	1.089	1.084	1.074
0.000	-0.010	-0.005	0.000	0.000	0.010	0.034	1.792	1.079	1.069	1.074	1.089	1.084	1.084
0.005	-0.010	0.000	0.000	-0.005	0.005	0.034	1.787	1.084	1.074	1.074	1.089	1.084	1.084
0.010	-0.010	0.000	-0.005	-0.005	0.005	0.029	1.816	1.084	1.074	1.069	1.089	1.084	1.079
0.005	-0.020	0.005	-0.005	0.000	0.005	0.029	1.748	1.074	1.069	1.074	1.089	1.084	1.079
0.015	-0.020	0.005	-0.010	0.010	0.010	0.034	1.797	1.074	1.074	1.074	1.089	1.084	1.084
0.000	-0.005	0.010	-0.010	0.005	-0.005	0.029	1.797	1.074	1.074	1.074	1.089	1.084	1.074
0.010	-0.015	0.010	-0.005	0.000	-0.010	0.029	1.714	1.069	1.074	1.069	1.089	1.084	1.074
-0.005	-0.005	0.005	-0.005	-0.005	0.005	0.029	1.802	1.074	1.074	1.074	1.089	1.084	1.079
0.005	-0.010	0.005	-0.005	0.000	0.005	0.029	1.763	1.074	1.069	1.069	1.089	1.084	1.079
0.005	0.005	-0.005	-0.005	0.005	0.000	0.029	1.797	1.074	1.074	1.069	1.089	1.089	1.079
0.000	0.005	0.000	0.005	0.005	0.005	0.029	1.772	1.074	1.074	1.074	1.089	1.084	1.079
-0.010	0.010	-0.005	0.005	0.000	-0.020	0.034	1.777	1.069	1.074	1.074	1.089	1.084	1.074
-0.010	0.020	-0.010	0.005	0.000	-0.010	0.034	1.763	1.069	1.074	1.069	1.089	1.084	1.079
-0.015	0.015	-0.015	0.015	0.005	-0.010	0.029	1.777	1.069	1.069	1.074	1.094	1.089	1.079
-0.015	0.015	-0.010	0.015	0.005	-0.010	0.034	1.782	1.074	1.069	1.074	1.094	1.089	1.084
-0.005	0.005	-0.005	0.005	0.000	0.005	0.029	1.777	1.079	1.064	1.069	1.089	1.089	1.089
-0.010	-0.020	0.000	0.010	-0.005	0.005	0.034	1.763	1.074	1.064	1.069	1.089	1.084	1.084
-0.010	-0.010	0.000	0.005	-0.005	-0.005	0.029	1.797	1.079	1.074	1.069	1.089	1.084	1.084
-0.005	-0.005	-0.005	0.000	0.005	0.005	0.034	1.768	1.079	1.074	1.069	1.089	1.089	1.084
0.010	-0.005	0.000	0.005	0.000	0.005	0.034	1.743	1.079	1.074	1.074	1.089	1.084	1.084
0.005	-0.015	0.005	0.005	-0.005	-0.010	0.029	1.797	1.079	1.074	1.074	1.089	1.079	1.079
0.000	-0.015	0.005	0.000	-0.005	-0.020	0.034	1.802	1.084	1.074	1.074	1.089	1.084	1.074
0.005	0.005	0.000	0.005	0.000	-0.010	0.034	1.748	1.079	1.079	1.069	1.089	1.089	1.079
0.005	-0.005	0.000	0.000	0.005	-0.005	0.034	1.743	1.074	1.074	1.069	1.089	1.084	1.079
0.005	0.000	0.010	0.000	0.005	0.000	0.034	1.807	1.079	1.074	1.074	1.089	1.089	1.084
0.005	-0.010	0.005	0.000	0.000	-0.010	0.034	1.792	1.079	1.074	1.069	1.089	1.084	1.079
0.000	-0.005	0.000	0.000	0.000	0.005	0.034	1.777	1.074	1.079	1.074	1.089	1.084	1.084
0.000	0.010	0.000	0.000	0.015	0.015	0.034	1.807	1.084	1.079	1.074	1.089	1.089	1.084
-0.005	0.015	-0.005	-0.005	0.000	0.010	0.034	1.802	1.079	1.079	1.074	1.089	1.084	1.084
-0.005	0.010	0.000	0.000	-0.015	0.005	0.034	1.777	1.074	1.079	1.074	1.089	1.084	1.079
-0.005	0.015	-0.010	0.000	-0.010	-0.015	0.029	1.772	1.074	1.079	1.074	1.089	1.084	1.079
-0.015	0.015	-0.005	0.005	-0.005	0.010	0.034	1.772	1.074	1.074	1.074	1.094	1.089	1.084
-0.010	0.015	-0.005	0.000	0.005	-0.020	0.029	1.748	1.069	1.074	1.074	1.094	1.089	1.079
0.000	0.005	-0.005	0.000	0.005	0.015	0.029	1.802	1.079	1.069	1.074	1.094	1.089	1.089
-0.005	-0.005	0.000	0.000	0.005	-0.005	0.029	1.782	1.084	1.074	1.074	1.094	1.089	1.084
0.005	0.000	0.000	0.000	-0.005	0.005	0.029	1.743	1.079	1.074	1.074	1.089	1.089	1.089
0.010	-0.015	0.000	0.000	0.000	0.015	0.029	1.797	1.084	1.069	1.074	1.089	1.089	1.089
0.005	-0.020	0.005	-0.005	-0.005	-0.005	0.034	1.797	1.079	1.069	1.074	1.089	1.084	1.079
0.000	-0.024	0.005	-0.005	0.000	0.005	0.029	1.772	1.079	1.069	1.069	1.089	1.089	1.084
0.010	-0.015	0.000	-0.005	-0.005	-0.020	0.029	1.792	1.079	1.074	1.074	1.089	1.084	1.079
0.005	0.015	0.005	-0.005	-0.005	0.010	0.029	1.792	1.079	1.084	1.079	1.094	1.084	1.089
-0.005	-0.005	0.000	0.000	-0.005	-0.010	0.034	1.782	1.079	1.079	1.074	1.094	1.089	1.079
0.010	0.015	0.000	-0.005	0.000	-0.015	0.034	1.743	1.079	1.079	1.074	1.094	1.089	1.084
0.005	0.020	-0.005	-0.005	-0.010	-0.010	0.034	1.797	1.074	1.079	1.074	1.089	1.084	1.084
-0.005	0.015	-0.005	-0.005	-0.010	0.010	0.034	1.763	1.074	1.079	1.074	1.089	1.089	1.089
-0.005	0.020	-0.010	0.000	-0.005	0.000	0.034	1.792	1.079	1.079	1.074	1.094	1.089	1.084
0.000	0.015	-0.005	0.000	-0.005	0.000	0.034	1.724	1.074	1.074	1.074	1.094	1.089	1.084
-0.005	0.015	-0.010	0.000	-0.005	0.000	0.034	1.792	1.074	1.074	1.074	1.094	1.089	1.084
-0.010	0.015	-0.005	-0.005	-0.005	0.000	0.034	1.782	1.079	1.074	1.074	1.094	1.089	1.079
0.000	-0.020	-0.005	0.000	0.000	0.000	0.034	1.685	1.069	1.064	1.074	1.094	1.089	1.084
-0.005	-0.005	-0.005	0.000	0.005	0.000	0.029	1.787	1.069	1.069	1.069	1.089	1.089	1.084
0.000	-0.020	0.000	0.000	0.000	-0.005	0.029	1.797	1.079	1.069	1.069	1.089	1.089	1.084
-0.005	-0.010	0.000	-0.005	0.000	0.000	0.029	1.792	1.074	1.069	1.069	1.089	1.089	1.084
0.005	0.005	0.005	-0.010	0.000	0.000	0.034	1.792	1.074	1.079	1.074	1.089	1.084	1.084
0.010	0.000	0.005	-0.015	0.005	-0.005	0.034	1.772	1.079	1.074	1.069	1.089	1.084	1.079
0.010	-0.010	0.005	-0.010	0.005	-0.010	0.029	1.743	1.074	1.069	1.069	1.089	1.084	1.079
0.005	-0.005	0.005	-0.010	0.005	0.005	0.029	1.792	1.074	1.069	1.074	1.089	1.084	1.084
0.010	-0.005	0.010	-0.015	0.005	-0.010	0.034	1.777	1.074	1.069	1.069	1.089	1.084	1.079
0.000	0.005	0.000	-0.010	0.000	0.000	0.034	1.748	1.074	1.074	1.069	1.089	1.084	1.084
0.005	0.000	0.000	-0.005	-0.005	0.005	0.034	1.797	1.079	1.074	1.069	1.089	1.084	1.084
0.005	0.005	-0.005	0.000	0.005	0.005	0.034	1.797	1.084	1.074	1.069	1.089	1.089	1.084
-0.010	0.015	-0.005	0.000	0.000	0.005	0.034	1.807	1.084	1.079	1.074	1.094	1.084	1.084
-0.015	0.015	-0.005	0.000	-0.005	0.000	0.034	1.787	1.079	1.079	1.074	1.094	1.084	1.079
-0.005	0.010	-0.005	0.000	0.005	-0.005	0.034	1.772	1.079	1.079	1.074	1.094	1.089	1.084
-0.010	0.010	-0.010	0.005	0.005	-0.010	0.034	1.787	1.079	1.079	1.074	1.094	1.089	1.084
-0.005	0.020	-0.005	-0.005	0.000	-0.010	0.034	1.772	1.084	1.079	1.074	1.094	1.089	1.079
-0.005	0.005	-0.005	0.000	0.000	0.000	0.034	1.748	1.074	1.074	1.074	1.094	1.089	1.084
0.005	-0.005	0.000	0.005	0.005	0.005	0.034	1.782	1.074	1.074	1.074	1.094	1.089	1.089
0.005	-0.005	0.005	0.000	0.005	-0.005	0.034	1.802	1.079	1.074	1.074	1.094	1.089	1.084
0.010	-0.005	0.000	0.000	0.005	0.010	0.029	1.787	1.084	1.074	1.074	1.094	1.089	1.084
0.005	-0.015	0.005	0.000	0.005	-0.010	0.029	1.753	1.079	1.074	1.074	1.089	1.089	1.079
0.005	-0.024	0.005	0.000	0.015	-0.015	0.029	1.797	1.074	1.069	1.074	1.089	1.089	1.084
0.015	-0.024	0.000	-0.005	0.010	-0.010	0.034	1.792	1.079	1.069	1.069	1.089	1.089	1.084
0.005	-0.010	0.005	0.000	0.010	-0.020	0.029	1.792	1.079	1.074	1.074	1.094	1.089	1.079
0.005	-0.010	0.005	0.005	0.005	-0.029	0.029	1.724	1.074	1.074	1.069	1.089	1.089	1.079
-0.010	-0.010	0.000	0.005	0.010	-0.015	0.034	1.812	1.074	1.069	1.074	1.094	1.084	1.084
-0.010	-0.005	0.000	0.005	0.015	-0.029	0.029	1.816	1.074	1.074	1.069	1.094	1.089	1.079
-0.010	-0.005	0.000	0.015	0.005	-0.005	0.029	1.792	1.074	1.074	1.074	1.089	1.089	1.084
-0.010	0.005	0.005	0.015	0.005	-0.024	0.034	1.772	1.079	1.079	1.074	1.094	1.089	1.079
-0.010	0.010	-0.005	0.005	0.000	0.010	0.029	1.758	1.069	1.074	1.074	1.089	1.084	1.089
-0.015	0.015	-0.005	0.015	-0.005	0.024	0.034	1.792	1.074	1.074	1.074	1.094	1.089	1.094
-0.005	0.010	-0.005	0.010	-0.005	0.000	0.029	1.787	1.074	1.074	1.074	1.089	1.084	1.084
-0.010	0.010	0.000	0.005	-0.015	0.020	0.034	1.802	1.079	1.074	1.074	1.089	1.084	1.089
-0.005	0.005	-0.005	0.005	-0.015	0.020	0.029	1.797	1.084	1.074	1.074	1.094	1.084	1.084
-0.005	-0.005	-0.005	0.000	-0.020	0.020	0.029	1.807	1.089	1.074	1.069	1.089	1.084	1.084
0.005	-0.015	0.000	0.005	-0.015	0.000	0.034	1.724	1.079	1.074	1.074	1.089	1.089	1.079
0.010	-0.015	-0.005	0.005	0.015	0.015	0.034	1.787	1.084	1.074	1.074	1.094	1.094	1.089
0.005	-0.015	0.000	0.005	-0.010	0.010	0.034	1.807	1.084	1.079	1.074	1.089	1.084	1.079
0.010	-0.015	-0.005	0.005	-0.020	0.000	0.034	1.758	1.079	1.074	1.074	1.089	1.084	1.079
0.015	-0.029	0.000	0.000	-0.005	0.010	0.034	1.738	1.074	1.069	1.074	1.089	1.089	1.084
0.000	-0.020	0.005	-0.005	-0.005	0.010	0.034	1.821	1.074	1.074	1.074	1.089	1.084	1.084
-0.005	-0.024	0.010	-0.005	-0.005	-0.024	0.029	1.738	1.069	1.069	1.069	1.089	1.084	1.069
-0.005	-0.015	0.010	0.000	-0.005	0.010	0.034	1.758	1.069	1.074	1.074	1.089	1.084	1.084
-0.010	0.000	0.000	0.000	-0.010	0.005	0.034	1.787	1.069	1.069	1.069	1.089	1.084	1.084
-0.015	0.010	-0.005	0.000	-0.005	0.005	0.034	1.787	1.074	1.074	1.069	1.089	1.084	1.084
-0.010	0.005	-0.005	0.000	-0.010	0.000	0.034	1.772	1.074	1.079	1.069	1.094	1.084	1.079
-0.020	0.005	-0.005	0.005	-0.005	-0.005	0.029	1.807	1.074	1.074	1.069	1.089	1.084	1.079
-0.024	0.015	-0.010	0.000	-0.005	0.000	0.034	1.772	1.074	1.074	1.074	1.089	1.089	1.084
-0.024	0.029	-0.005	0.000	0.000	-0.005	0.034	1.802	1.074	1.079	1.074	1.089	1.089	1.079
-0.010	0.029	-0.005	0.000	0.000	-0.005	0.034	1.748	1.074	1.079	1.074	1.089	1.089	1.084
-0.005	0.005	-0.005	0.000	0.000	0.000	0.034	1.777	1.074	1.069	1.074	1.089	1.089	1.084
-0.005	0.010	0.000	-0.005	0.005	-0.005	0.029	1.772	1.069	1.069	1.074	1.089	1.084	1.084
-0.005	0.000	0.005	-0.010	-0.005	-0.005	0.029	1.792	1.079	1.069	1.074	1.089	1.084	1.079
0.005	0.000	0.005	-0.005	0.000	-0.005	0.034	1.807	1.079	1.069	1.069	1.089	1.089	1.079
0.010	-0.015	0.000	-0.005	0.000	-0.010	0.029	1.787	1.084	1.069	1.069	1.089	1.084	1.079
0.015	-0.020	0.000	-0.010	-0.005	0.000	0.029	1.772	1.084	1.069	1.069	1.089	1.084	1.084
0.020	-0.020	0.000	-0.010	-0.005	-0.020	0.029	1.733	1.074	1.074	1.069	1.084	1.084	1.079
0.024	-0.010	0.000	-0.010	0.000	0.000	0.034	1.802	1.074	1.074	1.074	1.089	1.084	1.084
0.010	-0.010	0.000	-0.005	0.000	0.000	0.029	1.763	1.069	1.074	1.069	1.089	1.084	1.084
0.010	-0.005	0.005	-0.005	0.005	0.005	0.029	1.763	1.074	1.074	1.069	1.089	1.089	1.079
0.015	0.000	0.000	0.000	0.005	-0.005	0.034	1.748	1.069	1.074	1.069	1.089	1.084	1.084
0.000	0.010	0.000	0.000	0.005	0.010	0.029	1.797	1.074	1.074	1.069	1.089	1.089	1.084
-0.005	0.015	0.005	0.000	0.000	0.005	0.034	1.753	1.069	1.074	1.074	1.089	1.084	1.084
0.000	0.010	0.000	-0.005	0.000	0.005	0.034	1.812	1.074	1.074	1.069	1.089	1.084	1.084
-0.005	0.015	-0.005	0.000	0.000	0.005	0.029	1.733	1.069	1.074	1.069	1.089	1.089	1.084
0.000	0.010	-0.010	0.005	0.000	0.005	0.029	1.777	1.074	1.069	1.069	1.089	1.089	1.079
0.005	0.000	-0.010	0.000	0.000	-0.010	0.029	1.787	1.074	1.064	1.069	1.089	1.084	1.079
0.010	0.000	-0.010	-0.005	0.000	0.005	0.029	1.772	1.074	1.069	1.069	1.089	1.084	1.084
0.000	-0.010	0.000	-0.005	-0.005	0.000	0.029	1.758	1.074	1.064	1.069	1.089	1.084	1.079
0.000	-0.010	0.000	0.000	-0.005	-0.010	0.034	1.787	1.074	1.069	1.069	1.089	1.084	1.079
-0.005	-0.020	0.005	0.000	0.005	-0.005	0.029	1.797	1.074	1.064	1.069	1.089	1.084	1.079
0.005	-0.024	0.010	-0.005	0.010	0.000	0.034	1.812	1.079	1.069	1.069	1.089	1.084	1.079
-0.005	-0.024	0.010	0.000	-0.005	0.000	0.034	1.733	1.074	1.069	1.069	1.089	1.079	1.079
0.000	-0.015	0.005	0.005	-0.005	0.005	0.034	1.792	1.074	1.074	1.069	1.089	1.084	1.084
-0.005	-0.015	0.000	-0.005	0.005	0.005	0.034	1.802	1.079	1.069	1.069	1.089	1.084	1.084
0.000	0.000	0.005	0.000	-0.005	0.005	0.034	1.748	1.079	1.079	1.069	1.089	1.084	1.079
0.000	0.005	0.000	0.000	-0.005	0.000	0.034	1.714	1.064	1.079	1.074	1.084	1.079	1.079
-0.015	0.015	-0.005	0.000	0.000	0.005	0.034	1.787	1.064	1.074	1.069	1.084	1.084	1.079
-0.020	0.010	-0.010	0.005	0.000	0.005	0.029	1.802	1.069	1.069	1.069	1.089	1.084	1.079
-0.010	0.020	-0.010	0.000	0.005	0.005	0.034	1.768	1.074	1.074	1.069	1.089	1.084	1.079
-0.010	0.020	-0.010	0.000	0.000	-0.005	0.034	1.777	1.069	1.069	1.069	1.089	1.084	1.074
-0.015	0.015	-0.010	0.000	0.005	-0.010	0.034	1.792	1.074	1.074	1.069	1.089	1.084	1.079
-0.005	0.010	-0.005	0.000	-0.005	0.010	0.029	1.753	1.074	1.074	1.069	1.089	1.084	1.079
0.000	0.015	-0.010	0.000	0.000	0.000	0.034	1.777	1.079	1.074	1.069	1.089	1.084	1.079
0.000	0.005	-0.005	0.000	0.000	0.000	0.029	1.792	1.079	1.069	1.074	1.089	1.084	1.079
0.005	-0.005	0.000	-0.005	0.005	0.005	0.034	1.797	1.079	1.069	1.069	1.089	1.089	1.079
0.015	-0.010	0.000	-0.005	0.005	0.005	0.029	1.768	1.079	1.069	1.074	1.089	1.084	1.084
0.010	-0.015	0.005	-0.005	0.005	0.000	0.029	1.787	1.074	1.069	1.069	1.089	1.084	1.079
0.015	-0.024	0.005	0.000	0.000	-0.020	0.034	1.802	1.079	1.069	1.069	1.084	1.084	1.074
0.005	-0.015	0.010	-0.005	0.005	-0.010	0.029	1.787	1.079	1.074	1.069	1.089	1.084	1.074
0.000	-0.015	0.010	-0.005	0.000	0.005	0.034	1.714	1.064	1.069	1.069	1.089	1.084	1.084
0.000	-0.005	0.005	0.000	0.000	-0.005	0.029	1.768	1.069	1.069	1.069	1.089	1.084	1.084
0.000	-0.005	0.010	0.000	0.005	0.000	0.029	1.797	1.069	1.074	1.069	1.089	1.084	1.079
-0.010	0.005	0.000	0.005	0.005	0.000	0.029	1.748	1.064	1.069	1.069	1.089	1.084	1.079
-0.010	0.015	0.000	-0.005	0.005	-0.005	0.029	1.797	1.069	1.069	1.069	1.089	1.084	1.079
-0.010	0.015	-0.005	0.000	0.005	0.005	0.029	1.782	1.074	1.074	1.069	1.089	1.084	1.079
-0.015	0.015	-0.005	-0.005	-0.010	0.010	0.034	1.758	1.069	1.069	1.069	1.089	1.079	1.084
-0.010	0.000	-0.005	0.000	-0.015	0.000	0.029	1.763	1.069	1.064	1.064	1.084	1.079	1.079
-0.010	0.010	-0.005	0.005	-0.010	0.000	0.029	1.807	1.074	1.069	1.069	1.084	1.084	1.079
-0.015	0.015	-0.005	0.005	0.005	-0.005	0.034	1.743	1.069	1.069	1.069	1.089	1.084	1.079
0.000	0.005	-0.005	0.005	0.005	-0.024	0.029	1.792	1.074	1.069	1.069	1.089	1.084	1.074
-0.005	-0.010	-0.010	0.010	-0.005	-0.044	0.034	1.792	1.069	1.064	1.064	1.089	1.084	1.069
-0.010	-0.020	0.000	0.000	0.000	-0.015	0.034	1.816	1.079	1.064	1.064	1.084	1.084	1.079
0.005	-0.024	0.005	0.000	0.000	-0.039	0.034	1.758	1.074	1.069	1.069	1.084	1.079	1.074
0.000	-0.024	0.005	-0.005	0.005	0.010	0.029	1.792	1.074	1.064	1.064	1.084	1.079	1.089
0.010	-0.020	0.005	-0.010	0.000	0.015	0.034	1.763	1.079	1.074	1.064	1.084	1.084	1.089
0.000	-0.015	0.005	-0.005	0.005	0.010	0.034	1.763	1.069	1.074	1.069	1.084	1.084	1.084
0.005	-0.015	0.000	-0.010	0.000	-0.005	0.029	1.797	1.074	1.069	1.069	1.084	1.074	1.074
0.000	0.000	0.000	0.000	0.000	0.015	0.034	1.758	1.074	1.074	1.069	1.084	1.079	1.084
-0.015	0.005	0.000	0.000	-0.005	0.010	0.034	1.743	1.069	1.074	1.069	1.089	1.079	1.079
-0.005	0.005	0.000	0.000	-0.005	0.005	0.034	1.787	1.069	1.069	1.069	1.089	1.079	1.079
-0.010	0.005	-0.005	0.000	0.000	0.005	0.034	1.733	1.064	1.069	1.069	1.089	1.084	1.074
-0.015	0.015	-0.005	0.000	0.000	0.015	0.034	1.797	1.069	1.069	1.069	1.089	1.084	1.079
-0.005	0.015	-0.005	0.000	0.000	0.005	0.034	1.768	1.074	1.069	1.069	1.084	1.084	1.079
0.000	0.015	-0.005	0.000	0.000	0.000	0.029	1.763	1.074	1.074	1.069	1.089	1.084	1.079
0.000	0.010	-0.010	-0.005	-0.005	0.005	0.029	1.782	1.079	1.069	1.069	1.089	1.084	1.079
-0.005	0.005	-0.005	-0.005	0.000	-0.005	0.029	1.763	1.074	1.069	1.069	1.089	1.084	1.079
0.015	0.000	0.000	-0.005	-0.005	0.010	0.029	1.763	1.079	1.074	1.074	1.089	1.084	1.079
0.010	0.000	0.000	-0.005	-0.005	0.005	0.029	1.719	1.069	1.069	1.074	1.084	1.079	1.079
0.000	0.000	0.005	-0.010	-0.005	-0.005	0.029	1.787	1.069	1.069	1.069	1.089	1.084	1.079
0.015	-0.020	0.010	-0.010	-0.005	-0.005	0.029	1.768	1.074	1.064	1.069	1.089	1.084	1.074
0.020	-0.029	0.000	-0.005	0.005	-0.015	0.034	1.777	1.074	1.064	1.064	1.084	1.084	1.079
0.010	-0.034	0.005	-0.010	0.005	-0.005	0.029	1.797	1.074	1.064	1.064	1.084	1.079	1.079
0.000	-0.024	0.005	-0.005	0.000	-0.010	0.034	1.763	1.069	1.064	1.064	1.089	1.084	1.079
0.010	-0.010	0.000	-0.005	0.000	0.010	0.029	1.812	1.074	1.069	1.064	1.084	1.084	1.084
0.010	0.005	0.000	-0.005	0.000	0.010	0.034	1.797	1.079	1.074	1.069	1.089	1.079	1.079
-0.005	0.010	-0.005	-0.005	-0.005	0.000	0.029	1.807	1.079	1.074	1.069	1.089	1.079	1.079
-0.005	0.015	-0.005	0.005	-0.005	0.010	0.029	1.807	1.079	1.079	1.074	1.089	1.079	1.079
0.000	0.015	-0.010	0.010	-0.005	0.015	0.034	1.743	1.074	1.074	1.074	1.089	1.084	1.079
-0.005	0.015	-0.005	0.010	-0.005	0.000	0.034	1.787	1.074	1.074	1.074	1.094	1.084	1.079
-0.005	0.015	-0.010	0.005	0.000	-0.005	0.029	1.758	1.074	1.074	1.074	1.089	1.084	1.079
-0.005	0.015	-0.005	0.005	0.005	0.005	0.034	1.802	1.074	1.069	1.074	1.094	1.084	1.084
0.000	-0.010	-0.010	0.000	0.005	-0.015	0.034	1.797	1.074	1.064	1.069	1.089	1.089	1.079
0.005	-0.010	-0.005	0.000	-0.005	0.000	0.034	1.797	1.079	1.069	1.069	1.089	1.084	1.084
0.010	-0.005	-0.010	0.000	-0.005	-0.020	0.034	1.733	1.074	1.074	1.064	1.089	1.084	1.074
0.010	-0.005	0.000	-0.005	-0.005	-0.034	0.034	1.792	1.074	1.069	1.069	1.089	1.084	1.074
0.005	-0.015	0.000	-0.005	0.005	0.005	0.029	1.792	1.074	1.069	1.069	1.089	1.084	1.084
0.000	-0.029	0.000	-0.005	0.000	0.010	0.029	1.826	1.079	1.069	1.069	1.089	1.084	1.084
0.000	-0.010	0.000	-0.005	0.000	0.010	0.029	1.758	1.074	1.074	1.069	1.089	1.084	1.084
0.000	0.000	0.000	0.005	0.005	0.005	0.029	1.753	1.069	1.074	1.074	1.089	1.084	1.084
-0.005	0.005	0.005	-0.005	0.000	0.005	0.029	1.802	1.074	1.074	1.069	1.089	1.084	1.079
-0.005	-0.005	0.000	-0.005	0.000	0.000	0.034	1.758	1.069	1.074	1.069	1.089	1.084	1.079
-0.005	0.010	0.000	0.000	0.010	-0.020	0.034	1.777	1.074	1.074	1.074	1.089	1.084	1.079
-0.010	0.010	0.000	-0.005	0.000	0.005	0.029	1.787	1.079	1.074	1.074	1.089	1.079	1.084
-0.010	0.010	0.005	0.000	0.000	0.000	0.029	1.782	1.074	1.074	1.074	1.089	1.084	1.079
-0.005	0.005	0.005	0.000	-0.005	-0.005	0.034	1.763	1.074	1.074	1.074	1.089	1.084	1.079
-0.005	0.024	0.000	0.000	-0.005	0.000	0.034	1.777	1.079	1.074	1.074	1.089	1.084	1.084
-0.010	0.020	0.000	0.005	-0.005	-0.020	0.034	1.802	1.079	1.074	1.074	1.089	1.084	1.074
-0.005	0.010	-0.005	0.000	-0.015	0.000	0.029	1.792	1.079	1.074	1.074	1.094	1.084	1.079
-0.005	0.000	-0.005	0.000	-0.005	-0.005	0.034	1.748	1.074	1.069	1.074	1.089	1.089	1.079
0.000	-0.015	0.000	0.000	-0.005	-0.005	0.034	1.787	1.074	1.064	1.074	1.089	1.084	1.084
0.000	-0.020	0.000	-0.005	-0.005	-0.005	0.029	1.787	1.079	1.064	1.069	1.089	1.089	1.084
-0.005	-0.029	0.005	-0.005	0.000	0.015	0.034	1.782	1.074	1.069	1.069	1.089	1.089	1.084
0.005	-0.024	0.005	0.000	0.000	0.010	0.034	1.724	1.074	1.069	1.069	1.089	1.089	1.084
0.010	-0.015	0.005	-0.005	0.005	0.005	0.029	1.807	1.074	1.069	1.069	1.089	1.089	1.084
0.000	-0.020	0.005	-0.005	0.005	0.000	0.034	1.768	1.069	1.069	1.069	1.089	1.089	1.084
0.000	-0.029	0.005	-0.005	-0.005	0.005	0.034	1.772	1.069	1.069	1.064	1.084	1.084	1.084
0.005	0.005	0.000	-0.005	0.005	0.000	0.034	1.772	1.074	1.074	1.069	1.084	1.084	1.084
0.005	0.000	0.000	-0.005	0.005	-0.005	0.029	1.763	1.064	1.069	1.069	1.084	1.084	1.079
0.005	0.005	0.000	-0.005	-0.005	0.005	0.029	1.777	1.074	1.069	1.069	1.084	1.079	1.079
-0.005	0.005	0.000	0.000	0.000	-0.005	0.034	1.743	1.064	1.069	1.069	1.089	1.084	1.079
-0.010	0.015	-0.005	0.000	0.005	0.005	0.029	1.797	1.069	1.069	1.069	1.089	1.084	1.079
-0.005	0.015	-0.005	0.005	0.000	0.005	0.029	1.772	1.079	1.074	1.069	1.089	1.084	1.079
-0.010	0.024	-0.005	0.005	-0.005	0.005	0.029	1.792	1.084	1.074	1.069	1.089	1.084	1.079
-0.005	0.024	-0.005	0.005	0.000	-0.005	0.029	1.763	1.079	1.074	1.069	1.089	1.084	1.074
0.000	0.020	-0.010	0.000	0.005	0.005	0.029	1.812	1.079	1.074	1.074	1.089	1.084	1.079
0.000	0.020	-0.005	0.005	0.000	0.000	0.029	1.758	1.079	1.079	1.074	1.089	1.084	1.079
0.005	0.015	0.000	0.005	0.000	-0.024	0.034	1.763	1.079	1.074	1.074	1.094	1.084	1.074
0.010	0.005	0.000	0.005	0.000	-0.005	0.034	1.753	1.074	1.069	1.074	1.089	1.084	1.084
0.010	-0.005	-0.005	-0.005	0.010	0.005	0.029	1.802	1.084	1.069	1.069	1.089	1.089	1.084
0.010	-0.010	0.005	-0.005	0.000	0.005	0.034	1.807	1.089	1.074	1.069	1.089	1.084	1.084
0.020	-0.020	0.005	0.000	0.000	-0.015	0.029	1.763	1.079	1.074	1.074	1.089	1.084	1.079
0.015	-0.005	0.000	0.000	-0.015	0.000	0.034	1.807	1.079	1.074	1.074	1.089	1.079	1.084
0.010	-0.015	0.005	-0.005	0.000	0.005	0.034	1.787	1.079	1.074	1.074	1.089	1.084	1.084
0.000	-0.005	0.000	-0.005	0.000	0.005	0.034	1.812	1.074	1.079	1.074	1.089	1.084	1.084
0.000	0.000	0.005	-0.005	-0.010	-0.024	0.034	1.777	1.074	1.074	1.074	1.089	1.084	1.074
-0.005	0.015	0.005	0.000	-0.005	0.010	0.029	1.802	1.084	1.079	1.074	1.094	1.084	1.084
-0.010	0.020	0.000	0.000	0.000	0.015	0.034	1.763	1.079	1.084	1.074	1.094	1.089	1.084
-0.010	-0.010	-0.005	0.000	0.010	0.010	0.034	1.797	1.074	1.069	1.074	1.094	1.089	1.089
-0.015	0.005	-0.005	0.000	0.010	0.015	0.034	1.797	1.074	1.074	1.074	1.094	1.089	1.089
-0.015	0.015	-0.005	0.000	0.005	-0.005	0.034	1.787	1.079	1.079	1.074	1.094	1.084	1.084
-0.020	0.015	0.000	0.005	-0.015	-0.024	0.034	1.753	1.069	1.074	1.074	1.094	1.084	1.079
-0.015	0.005	-0.005	0.000	0.000	-0.029	0.034	1.797	1.074	1.074	1.074	1.094	1.084	1.074
-0.020	0.010	-0.005	0.000	0.015	0.000	0.029	1.802	1.079	1.074	1.074	1.094	1.094	1.089
-0.010	0.000	-0.005	0.000	0.010	0.010	0.034	1.743	1.074	1.069	1.069	1.089	1.089	1.089
0.000	-0.024	0.000	0.000	0.000	0.000	0.034	1.748	1.069	1.064	1.069	1.089	1.084	1.089
-0.005	-0.034	0.000	0.005	-0.005	0.010	0.034	1.802	1.074	1.060	1.064	1.089	1.084	1.089
0.005	-0.029	0.000	-0.005	-0.024	0.020	0.029	1.807	1.084	1.069	1.069	1.089	1.079	1.084
0.005	-0.039	0.005	-0.005	-0.010	0.020	0.029	1.748	1.079	1.069	1.069	1.089	1.084	1.084
0.015	-0.034	0.000	0.000	0.005	0.005	0.029	1.802	1.084	1.069	1.069	1.089	1.084	1.079
0.005	-0.024	0.000	0.000	0.010	-0.015	0.029	1.738	1.079	1.074	1.069	1.084	1.089	1.079
0.005	-0.024	0.000	0.000	0.020	-0.015	0.034	1.797	1.074	1.069	1.069	1.089	1.089	1.079
-0.005	-0.010	0.000	0.000	0.015	-0.015	0.029	1.782	1.074	1.074	1.069	1.089	1.084	1.079
-0.005	0.000	-0.005	0.000	0.005	-0.020	0.034	1.758	1.084	1.079	1.074	1.089	1.084	1.079
-0.010	0.005	0.000	0.000	-0.005	-0.020	0.029	1.753	1.079	1.079	1.074	1.089	1.079	1.079
-0.015	0.015	-0.010	0.000	-0.005	-0.044	0.029	1.787	1.074	1.079	1.074	1.089	1.079	1.069
-0.005	0.020	-0.010	0.000	0.010	-0.029	0.029	1.802	1.079	1.079	1.074	1.094	1.084	1.079
-0.015	0.010	-0.010	0.000	0.005	-0.029	0.034	1.738	1.074	1.074	1.074	1.094	1.084	1.079
-0.005	0.010	-0.005	0.005	-0.010	-0.024	0.034	1.792	1.074	1.074	1.074	1.094	1.079	1.084
-0.005	0.010	-0.005	0.000	-0.063	-0.015	0.034	1.807	1.079	1.074	1.074	1.094	1.069	1.074
-0.010	0.000	-0.005	0.000	-0.059	0.015	0.029	1.763	1.079	1.074	1.074	1.094	1.079	1.089
-0.005	-0.005	0.000	0.000	-0.010	0.020	0.034	1.792	1.079	1.074	1.079	1.094	1.094	1.089
0.005	-0.010	0.000	0.000	-0.005	0.010	0.029	1.768	1.079	1.069	1.074	1.094	1.094	1.084
0.010	-0.010	0.005	-0.005	0.005	0.029	0.029	1.758	1.074	1.074	1.074	1.094	1.094	1.094
0.005	0.000	0.005	0.000	0.024	0.005	0.029	1.772	1.074	1.074	1.074	1.094	1.094	1.089
0.005	-0.005	0.000	0.000	0.029	0.020	0.029	1.792	1.074	1.069	1.074	1.094	1.094	1.094
0.000	0.005	0.000	0.000	0.029	0.024	0.034	1.787	1.079	1.074	1.074	1.094	1.094	1.094
0.000	-0.010	-0.005	0.005	0.015	0.010	0.034	1.802	1.084	1.069	1.074	1.089	1.089	1.089
0.005	-0.010	0.005	-0.005	0.034	0.010	0.029	1.787	1.084	1.074	1.074	1.089	1.089	1.084
0.000	0.005	0.005	0.005	-0.005	0.015	0.029	1.777	1.079	1.079	1.074	1.089	1.084	1.084
0.000	0.000	-0.005	0.005	-0.015	0.005	0.029	1.777	1.079	1.074	1.074	1.089	1.079	1.079
-0.005	0.005	-0.005	0.000	-0.005	-0.005	0.034	1.787	1.079	1.079	1.074	1.089	1.084	1.074
-0.020	0.029	0.000	0.000	0.000	0.000	0.029	1.802	1.079	1.079	1.079	1.094	1.089	1.079
0.005	0.015	0.000	0.000	0.000	-0.010	0.034	1.797	1.084	1.079	1.079	1.094	1.089	1.079
-0.010	0.010	0.000	0.000	0.005	0.000	0.029	1.782	1.089	1.079	1.074	1.094	1.089	1.079
0.000	0.010	-0.005	0.000	-0.005	0.000	0.029	1.807	1.089	1.079	1.074	1.094	1.089	1.084
-0.005	0.000	-0.005	0.000	-0.015	0.010	0.029	1.768	1.084	1.079	1.079	1.094	1.084	1.084
0.000	0.015	-0.005	0.005	-0.005	0.005	0.034	1.763	1.079	1.079	1.079	1.094	1.089	1.089
0.010	-0.015	-0.005	0.000	0.000	0.005	0.029	1.787	1.084	1.074	1.074	1.094	1.094	1.084
0.010	-0.020	-0.005	0.000	0.000	-0.010	0.034	1.777	1.079	1.074	1.074	1.094	1.089	1.084
0.015	-0.010	0.000	0.000	0.005	0.000	0.034	1.792	1.084	1.079	1.074	1.094	1.089	1.089
0.005	0.000	0.005	-0.005	0.000	-0.005	0.034	1.807	1.089	1.079	1.074	1.094	1.089	1.084
-0.005	-0.005	0.010	-0.005	0.015	0.000	0.034	1.816	1.084	1.079	1.079	1.094	1.094	1.089
0.005	-0.010	0.010	-0.005	0.000	0.005	0.034	1.709	1.074	1.079	1.079	1.094	1.089	1.084
0.000	-0.005	0.005	-0.005	-0.005	0.005	0.029	1.812	1.079	1.074	1.079	1.094	1.089	1.089
0.010	0.000	0.010	-0.005	-0.010	0.005	0.029	1.792	1.084	1.079	1.074	1.094	1.089	1.084
0.000	0.010	0.000	0.000	-0.005	0.005	0.029	1.797	1.079	1.084	1.079	1.094	1.089	1.084
0.005	0.005	-0.005	-0.005	-0.005	-0.024	0.034	1.797	1.084	1.079	1.079	1.094	1.089	1.079
-0.010	0.000	0.000	0.000	-0.005	0.000	0.029	1.807	1.079	1.074	1.074	1.094	1.089	1.084
-0.005	0.015	-0.005	0.005	-0.005	0.005	0.029	1.685	1.064	1.079	1.074	1.094	1.094	1.089
-0.010	-0.005	-0.010	0.005	-0.005	0.010	0.029	1.797	1.074	1.069	1.074	1.094	1.094	1.089
-0.005	-0.010	-0.010	0.005	-0.005	-0.005	0.029	1.807	1.079	1.069	1.074	1.094	1.094	1.084
-0.015	0.010	-0.005	0.000	0.005	-0.020	0.029	1.758	1.079	1.079	1.074	1.094	1.094	1.089
-0.005	0.010	0.000	0.010	0.010	0.000	0.034	1.714	1.079	1.079	1.074	1.094	1.094	1.089
0.000	0.005	0.005	0.000	0.029	0.005	0.034	1.812	1.079	1.074	1.079	1.094	1.094	1.094
-0.005	-0.005	0.005	0.000	0.000	0.005	0.029	1.802	1.084	1.074	1.079	1.094	1.089	1.089
-0.005	-0.005	0.005	0.005	0.000	0.000	0.029	1.753	1.079	1.074	1.074	1.094	1.089	1.089
0.000	-0.010	0.005	0.000	0.000	-0.005	0.034	1.733	1.079	1.074	1.074	1.094	1.084	1.084
0.000	-0.010	0.005	0.005	-0.020	-0.020	0.034	1.763	1.079	1.069	1.074	1.094	1.079	1.079
0.005	-0.015	0.005	-0.005	-0.005	-0.010	0.029	1.797	1.079	1.074	1.074	1.089	1.089	1.084
0.005	-0.015	0.015	-0.005	0.015	-0.020	0.034	1.812	1.084	1.074	1.074	1.089	1.089	1.079
0.005	-0.010	0.000	0.000	-0.005	-0.010	0.034	1.753	1.079	1.079	1.069	1.089	1.084	1.084
0.005	0.000	0.000	0.000	-0.039	0.005	0.034	1.802	1.079	1.074	1.074	1.089	1.074	1.084
-0.010	0.005	0.005	-0.005	-0.044	0.020	0.034	1.797	1.074	1.079	1.074	1.094	1.079	1.084
-0.015	0.015	-0.010	0.000	-0.029	0.010	0.034	1.768	1.079	1.079	1.074	1.094	1.084	1.084
-0.020	0.020	-0.010	0.000	-0.029	-0.015	0.034	1.792	1.079	1.079	1.074	1.094	1.084	1.074
-0.024	0.015	-0.005	0.000	0.005	-0.010	0.034	1.787	1.074	1.074	1.074	1.094	1.099	1.084
-0.015	0.015	-0.010	0.005	0.063	0.005	0.029	1.753	1.079	1.079	1.074	1.094	1.108	1.094
-0.020	0.000	-0.005	0.000	0.054	0.010	0.034	1.807	1.089	1.069	1.074	1.094	1.104	1.094
-0.015	0.005	-0.005	0.005	0.015	-0.020	0.034	1.768	1.084	1.079	1.074	1.094	1.089	1.084
-0.015	0.000	-0.005	0.005	0.000	-0.010	0.034	1.792	1.079	1.074	1.074	1.094	1.084	1.084
0.000	0.005	0.000	-0.005	-0.005	-0.005	0.029	1.807	1.094	1.079	1.074	1.094	1.084	1.084
0.005	-0.005	-0.005	-0.005	0.000	-0.010	0.029	1.812	1.089	1.079	1.074	1.094	1.084	1.084
0.005	-0.010	0.000	-0.005	0.005	0.010	0.029	1.792	1.084	1.079	1.074	1.094	1.089	1.089
0.010	-0.010	0.005	-0.005	0.005	0.010	0.029	1.758	1.084	1.079	1.079	1.094	1.089	1.089
0.005	-0.024	0.005	-0.010	-0.005	-0.010	0.029	1.738	1.074	1.074	1.079	1.094	1.084	1.084
0.015	-0.015	0.000	-0.005	0.000	0.015	0.034	1.802	1.079	1.074	1.074	1.094	1.089	1.089
0.010	-0.010	0.005	-0.005	-0.005	0.005	0.029	1.787	1.084	1.079	1.079	1.094	1.089	1.084
0.005	-0.005	0.005	0.000	-0.005	0.005	0.029	1.787	1.079	1.084	1.074	1.094	1.089	1.084
0.005	0.000	-0.010	0.000	0.000	0.000	0.029	1.797	1.079	1.079	1.074	1.094	1.089	1.084
0.010	-0.005	-0.005	-0.005	0.000	0.000	0.029	1.807	1.084	1.079	1.074	1.094	1.089	1.084
0.000	0.005	-0.005	0.000	0.000	0.005	0.029	1.719	1.069	1.084	1.074	1.094	1.094	1.089
-0.010	0.015	-0.005	0.000	0.000	0.005	0.034	1.797	1.069	1.084	1.079	1.094	1.089	1.089
-0.005	0.024	-0.010	-0.005	-0.005	0.005	0.034	1.802	1.079	1.079	1.079	1.099	1.089	1.084
-0.005	0.020	-0.010	0.005	-0.005	-0.010	0.029	1.753	1.079	1.079	1.079	1.094	1.089	1.084
-0.005	0.010	-0.010	0.000	-0.005	0.000	0.034	1.772	1.079	1.074	1.079	1.094	1.089	1.089
-0.005	0.015	-0.005	0.000	-0.005	-0.024	0.029	1.807	1.079	1.074	1.079	1.099	1.089	1.079
-0.005	0.000	0.000	0.000	-0.005	0.000	0.029	1.797	1.084	1.074	1.079	1.099	1.089	1.084
0.000	0.005	0.000	0.000	-0.005	0.000	0.034	1.748	1.079	1.074	1.079	1.094	1.094	1.089
0.005	-0.020	0.000	0.005	-0.005	-0.005	0.029	1.748	1.074	1.069	1.074	1.094	1.094	1.089
0.015	-0.015	0.000	-0.005	0.000	0.010	0.034	1.807	1.084	1.069	1.074	1.094	1.094	1.089
0.015	-0.010	0.000	-0.005	0.000	-0.005	0.034	1.753	1.079	1.074	1.069	1.089	1.089	1.084
0.005	-0.005	0.000	0.000	0.000	0.010	0.034	1.777	1.074	1.074	1.074	1.089	1.089	1.089
0.005	-0.005	0.005	-0.005	0.000	0.005	0.034	1.802	1.079	1.069	1.074	1.094	1.084	1.089
0.000	-0.015	0.010	-0.005	0.000	-0.020	0.034	1.748	1.074	1.074	1.074	1.089	1.089	1.079
0.000	-0.010	0.005	0.000	-0.005	0.010	0.034	1.758	1.074	1.069	1.074	1.089	1.089	1.089
0.005	0.000	-0.005	0.000	-0.005	0.010	0.034	1.787	1.074	1.074	1.069	1.089	1.089	1.089
-0.005	0.015	-0.010	0.000	0.000	0.005	0.034	1.792	1.074	1.074	1.069	1.089	1.089	1.089
-0.015	0.005	-0.010	0.000	0.000	0.000	0.034	1.748	1.069	1.074	1.074	1.089	1.089	1.079
-0.015	-0.005	0.000	0.000	0.000	0.010	0.034	1.792	1.074	1.069	1.069	1.089	1.089	1.084
-0.010	0.005	-0.005	0.000	-0.005	0.000	0.029	1.777	1.079	1.074	1.069	1.094	1.084	1.079
-0.010	0.015	-0.010	0.005	-0.005	0.005	0.034	1.787	1.084	1.079	1.069	1.094	1.089	1.084
-0.010	-0.010	-0.010	0.000	-0.005	0.000	0.034	1.777	1.079	1.069	1.069	1.089	1.089	1.084
-0.010	0.000	-0.005	0.005	-0.005	-0.005	0.029	1.797	1.079	1.074	1.074	1.094	1.084	1.084
0.005	0.000	0.005	0.000	0.000	-0.005	0.029	1.792	1.084	1.079	1.079	1.094	1.089	1.084
0.000	0.005	-0.005	-0.005	0.000	-0.005	0.034	1.792	1.084	1.079	1.074	1.089	1.089	1.084
0.000	0.000	-0.005	-0.005	0.005	-0.024	0.029	1.797	1.084	1.079	1.074	1.089	1.089	1.079
0.005	-0.010	0.000	-0.005	0.000	0.005	0.029	1.748	1.079	1.074	1.074	1.089	1.089	1.084
0.000	-0.015	0.010	-0.005	-0.005	-0.005	0.029	1.797	1.079	1.074	1.079	1.089	1.084	1.084
0.000	-0.010	0.015	-0.005	-0.005	0.005	0.029	1.797	1.084	1.074	1.079	1.094	1.089	1.084
0.000	-0.010	0.010	0.000	0.000	-0.020	0.029	1.787	1.079	1.074	1.079	1.094	1.089	1.074
-0.005	-0.010	0.005	0.000	0.000	0.005	0.034	1.729	1.074	1.079	1.074	1.094	1.089	1.084
0.005	-0.005	0.005	0.005	-0.005	0.000	0.034	1.777	1.079	1.079	1.074	1.094	1.089	1.084
0.005	0.010	0.005	0.000	0.000	-0.005	0.034	1.797	1.079	1.079	1.074	1.094	1.089	1.084
-0.005	0.005	-0.005	0.005	-0.005	0.020	0.034	1.772	1.074	1.074	1.074	1.094	1.089	1.089
-0.005	0.005	-0.005	0.010	0.005	0.010	0.034	1.797	1.079	1.074	1.074	1.094	1.089	1.089
-0.005	0.010	-0.010	0.005	0.000	0.010	0.034	1.782	1.074	1.074	1.074	1.094	1.089	1.089
0.000	0.010	0.000	0.005	0.000	0.015	0.034	1.772	1.074	1.074	1.074	1.094	1.089	1.089
-0.005	0.005	-0.005	0.000	0.000	0.005	0.029	1.758	1.074	1.074	1.074	1.094	1.089	1.084
-0.005	0.000	-0.005	0.005	0.000	-0.005	0.034	1.719	1.069	1.069	1.069	1.094	1.089	1.084
-0.005	0.000	-0.005	0.005	-0.005	-0.005	0.034	1.753	1.069	1.074	1.069	1.089	1.089	1.079
0.000	-0.029	0.000	0.005	0.000	-0.020	0.034	1.753	1.074	1.064	1.069	1.094	1.089	1.079
0.000	-0.024	0.000	-0.005	0.000	-0.005	0.034	1.763	1.074	1.069	1.069	1.089	1.089	1.084
0.010	-0.034	0.000	0.000	0.005	-0.010	0.034	1.758	1.074	1.064	1.064	1.084	1.084	1.084
0.005	-0.024	0.010	-0.005	0.015	-0.020	0.034	1.807	1.079	1.069	1.069	1.089	1.089	1.084
0.005	-0.020	0.010	0.000	0.000	-0.010	0.034	1.782	1.074	1.074	1.069	1.084	1.084	1.084
0.000	-0.024	0.010	-0.005	-0.005	-0.005	0.034	1.797	1.074	1.069	1.069	1.084	1.079	1.084
0.000	0.000	0.005	-0.005	-0.005	-0.005	0.029	1.772	1.079	1.074	1.069	1.084	1.079	1.084
-0.005	0.005	0.000	-0.005	0.000	-0.005	0.034	1.802	1.079	1.074	1.074	1.089	1.079	1.079
-0.005	0.005	0.000	-0.010	0.005	0.005	0.034	1.807	1.084	1.079	1.074	1.089	1.084	1.079
0.000	0.000	0.005	0.000	0.000	0.000	0.034	1.748	1.074	1.079	1.074	1.089	1.084	1.079
-0.005	0.015	-0.005	0.000	0.000	0.010	0.034	1.768	1.074	1.079	1.074	1.094	1.084	1.084
-0.010	0.020	0.000	0.000	-0.010	0.020	0.034	1.802	1.084	1.079	1.074	1.094	1.084	1.084
-0.005	0.020	-0.005	0.000	-0.015	0.000	0.034	1.772	1.079	1.079	1.079	1.094	1.084	1.079
-0.010	0.015	-0.005	0.000	0.005	-0.034	0.029	1.787	1.079	1.079	1.079	1.094	1.089	1.074
-0.005	0.020	0.000	0.000	0.020	-0.005	0.034	1.782	1.084	1.079	1.079	1.094	1.094	1.084
0.000	0.010	0.000	0.000	0.010	-0.020	0.034	1.807	1.089	1.079	1.079	1.094	1.089	1.084
0.000	0.010	0.000	0.005	-0.005	-0.029	0.029	1.792	1.084	1.079	1.079	1.094	1.084	1.079
-0.005	0.000	0.000	0.005	-0.010	-0.039	0.029	1.782	1.079	1.074	1.079	1.094	1.084	1.079
0.000	-0.010	0.010	0.000	-0.020	-0.020	0.029	1.768	1.079	1.069	1.079	1.094	1.084	1.084
0.000	-0.010	0.005	-0.005	-0.005	-0.005	0.034	1.812	1.084	1.074	1.074	1.094	1.089	1.089
0.015	-0.005	0.005	-0.005	-0.010	0.005	0.034	1.768	1.084	1.079	1.074	1.094	1.089	1.094
-0.005	-0.005	0.010	-0.005	0.000	0.000	0.034	1.812	1.084	1.079	1.074	1.094	1.089	1.089
0.005	0.015	0.000	-0.005	0.005	0.024	0.029	1.797	1.089	1.084	1.079	1.094	1.089	1.094
0.015	0.015	0.005	-0.005	-0.005	0.005	0.034	1.743	1.079	1.084	1.079	1.094	1.089	1.084
0.010	0.010	-0.005	0.000	-0.015	-0.015	0.034	1.782	1.084	1.079	1.079	1.094	1.084	1.079
0.000	0.005	-0.005	0.000	-0.015	0.010	0.034	1.797	1.079	1.079	1.074	1.094	1.089	1.084
0.000	0.010	-0.005	-0.005	-0.005	-0.010	0.034	1.753	1.074	1.074	1.074	1.094	1.089	1.079
-0.010	0.015	-0.005	0.005	0.000	0.005	0.034	1.768	1.069	1.074	1.079	1.094	1.094	1.089
-0.010	0.024	-0.010	0.000	0.005	0.015	0.034	1.787	1.079	1.079	1.079	1.094	1.094	1.094
-0.020	0.020	0.000	0.000	-0.005	0.024	0.034	1.782	1.079	1.079	1.074	1.094	1.094	1.089
-0.015	0.010	-0.005	0.005	0.005	0.005	0.029	1.792	1.074	1.074	1.079	1.094	1.094	1.089
-0.015	0.010	-0.005	0.000	0.024	0.024	0.029	1.797	1.084	1.074	1.074	1.094	1.094	1.094
0.000	0.000	-0.010	0.005	0.015	0.020	0.034	1.768	1.084	1.074	1.074	1.094	1.094	1.089
-0.010	-0.005	-0.005	0.005	0.020	0.000	0.034	1.797	1.079	1.074	1.079	1.094	1.094	1.084
-0.005	0.000	0.000	0.000	0.015	0.005	0.034	1.807	1.089	1.079	1.074	1.094	1.089	1.089
-0.005	-0.005	0.005	0.000	0.005	0.005	0.029	1.787	1.079	1.074	1.079	1.094	1.089	1.089
0.010	-0.015	0.000	-0.005	0.005	0.005	0.029	1.738	1.079	1.074	1.074	1.089	1.089	1.084
0.015	-0.015	0.000	-0.005	0.000	-0.029	0.029	1.802	1.084	1.074	1.074	1.094	1.084	1.074
0.005	-0.010	0.005	0.000	-0.005	0.005	0.029	1.743	1.079	1.079	1.079	1.094	1.084	1.089
0.005	-0.010	0.000	0.000	0.010	-0.015	0.029	1.743	1.074	1.074	1.074	1.094	1.089	1.079
0.010	-0.020	0.005	-0.005	0.010	-0.015	0.034	1.807	1.079	1.069	1.074	1.094	1.089	1.084
0.005	-0.010	0.000	0.005	-0.010	0.024	0.034	1.743	1.079	1.074	1.074	1.094	1.089	1.089
0.000	-0.005	-0.005	0.000	-0.010	0.015	0.034	1.787	1.069	1.074	1.074	1.094	1.084	1.089
0.000	0.010	0.005	0.000	-0.010	0.005	0.029	1.797	1.079	1.079	1.074	1.094	1.089	1.079
-0.010	0.024	-0.005	0.005	0.000	0.000	0.029	1.792	1.074	1.079	1.074	1.094	1.089	1.084
-0.010	0.020	-0.005	0.000	-0.010	-0.039	0.034	1.787	1.074	1.079	1.074	1.094	1.084	1.074
-0.015	0.029	-0.005	0.005	-0.015	-0.029	0.029	1.787	1.074	1.079	1.074	1.094	1.089	1.079
-0.010	0.010	-0.005	0.000	-0.005	-0.010	0.029	1.792	1.079	1.074	1.074	1.094	1.094	1.084
-0.015	0.010	0.000	-0.005	0.005	-0.029	0.034	1.787	1.079	1.074	1.074	1.089	1.094	1.079
-0.020	0.005	-0.005	-0.005	0.010	0.005	0.029	1.758	1.074	1.074	1.074	1.094	1.094	1.094
-0.015	-0.005	0.000	-0.005	0.000	0.005	0.034	1.802	1.079	1.069	1.074	1.089	1.089	1.089
-0.010	0.000	0.000	-0.005	0.000	-0.005	0.034	1.787	1.079	1.074	1.074	1.089	1.089	1.084
-0.010	-0.005	0.000	0.000	0.005	-0.010	0.034	1.792	1.084	1.069	1.074	1.089	1.089	1.084
0.000	-0.020	0.005	0.000	-0.010	0.005	0.029	1.685	1.074	1.069	1.074	1.089	1.084	1.084
0.000	-0.005	0.000	-0.005	-0.005	0.010	0.029	1.787	1.079	1.074	1.074	1.089	1.089	1.089
0.010	-0.024	-0.005	-0.005	0.000	0.005	0.029	1.802	1.084	1.069	1.074	1.089	1.084	1.084
0.010	-0.020	0.005	0.000	-0.005	0.005	0.029	1.797	1.079	1.069	1.074	1.089	1.084	1.084
0.000	-0.010	0.005	0.000	-0.005	-0.005	0.034	1.743	1.079	1.079	1.074	1.089	1.084	1.079
0.005	-0.010	0.005	0.000	-0.010	0.015	0.029	1.768	1.074	1.074	1.074	1.089	1.084	1.089
0.000	-0.010	0.000	0.005	-0.005	0.010	0.029	1.782	1.079	1.074	1.074	1.089	1.084	1.084
0.010	-0.015	-0.010	0.000	-0.005	0.010	0.029	1.787	1.079	1.074	1.074	1.094	1.084	1.084
0.005	-0.005	-0.005	0.000	-0.005	0.020	0.034	1.792	1.084	1.079	1.069	1.094	1.089	1.084
-0.005	0.005	-0.010	0.000	0.000	0.000	0.034	1.772	1.079	1.079	1.074	1.094	1.089	1.079
-0.005	-0.010	-0.005	0.005	-0.005	0.005	0.034	1.772	1.074	1.074	1.074	1.094	1.089	1.084
0.000	0.000	-0.010	0.005	0.000	0.005	0.034	1.802	1.079	1.079	1.074	1.094	1.089	1.084
-0.010	0.015	-0.005	-0.005	0.000	0.005	0.029	1.777	1.079	1.079	1.074	1.094	1.089	1.084
0.005	-0.005	0.000	0.005	0.000	-0.015	0.034	1.738	1.074	1.074	1.074	1.094	1.089	1.079
0.005	-0.005	-0.005	0.000	0.010	0.005	0.034	1.797	1.079	1.074	1.074	1.094	1.089	1.089
0.005	-0.010	0.000	-0.005	-0.010	-0.010	0.034	1.758	1.074	1.069	1.074	1.089	1.084	1.079
0.010	-0.024	0.005	0.000	0.000	-0.024	0.034	1.733	1.074	1.069	1.074	1.089	1.089	1.079
0.010	-0.029	0.005	-0.005	0.015	-0.010	0.034	1.792	1.074	1.069	1.074	1.089	1.089	1.084
-0.005	-0.010	0.000	-0.005	0.005	-0.029	0.029	1.802	1.079	1.074	1.069	1.089	1.084	1.074
-0.005	0.005	0.005	-0.005	-0.005	-0.020	0.029	1.777	1.074	1.079	1.074	1.089	1.084	1.084
0.005	0.010	0.005	0.000	-0.005	0.010	0.034	1.719	1.064	1.074	1.074	1.094	1.089	1.089
0.005	0.010	0.005	0.000	-0.010	0.005	0.029	1.753	1.069	1.074	1.074	1.089	1.084	1.084
0.005	0.010	-0.005	-0.005	-0.010	0.000	0.029	1.782	1.074	1.069	1.074	1.089	1.084	1.084
0.000	0.000	-0.005	0.000	0.010	-0.015	0.029	1.758	1.074	1.069	1.069	1.089	1.089	1.079
-0.005	0.005	0.000	0.000	0.010	-0.010	0.034	1.743	1.074	1.069	1.069	1.089	1.089	1.084
0.000	0.015	-0.005	0.000	0.005	0.005	0.034	1.738	1.074	1.074	1.069	1.089	1.089	1.089
-0.015	0.024	-0.015	0.000	0.000	0.005	0.029	1.787	1.074	1.074	1.069	1.089	1.084	1.089
-0.010	0.010	0.000	0.000	0.005	0.010	0.034	1.797	1.074	1.069	1.069	1.089	1.089	1.084
-0.005	0.015	-0.010	0.005	0.000	-0.010	0.034	1.763	1.079	1.069	1.069	1.089	1.084	1.079
0.005	0.010	-0.010	0.000	-0.005	0.005	0.034	1.802	1.079	1.074	1.069	1.089	1.084	1.084
0.000	0.005	-0.005	0.000	-0.015	0.005	0.034	1.768	1.074	1.069	1.074	1.089	1.079	1.084
0.015	0.000	0.000	0.000	-0.024	0.005	0.034	1.704	1.074	1.074	1.069	1.089	1.079	1.079
0.000	-0.010	-0.005	0.000	-0.020	-0.020	0.034	1.787	1.074	1.064	1.069	1.089	1.079	1.074
0.005	-0.024	0.005	-0.010	0.000	-0.029	0.034	1.797	1.074	1.060	1.069	1.089	1.089	1.074
0.005	-0.034	0.005	0.000	0.005	-0.005	0.034	1.743	1.074	1.064	1.064	1.089	1.089	1.084
0.010	-0.029	0.010	0.000	-0.005	0.010	0.034	1.768	1.069	1.064	1.069	1.089	1.084	1.089
-0.005	-0.039	0.010	-0.005	0.000	-0.005	0.034	1.802	1.074	1.064	1.064	1.089	1.084	1.079
0.000	-0.015	0.005	-0.005	0.024	-0.005	0.034	1.807	1.084	1.074	1.064	1.089	1.089	1.079
0.000	-0.015	-0.005	0.000	0.034	-0.020	0.029	1.777	1.074	1.074	1.069	1.084	1.089	1.079
-0.010	0.000	-0.005	0.000	0.034	-0.020	0.034	1.782	1.074	1.074	1.069	1.084	1.089	1.084
-0.010	0.024	0.000	0.005	0.015	-0.005	0.034	1.782	1.079	1.084	1.074	1.089	1.079	1.084
-0.015	0.029	0.000	0.005	0.000	0.000	0.034	1.733	1.069	1.079	1.074	1.089	1.079	1.084
-0.015	0.020	-0.005	0.005	-0.010	0.005	0.034	1.792	1.079	1.074	1.074	1.089	1.079	1.084
-0.015	0.024	-0.010	0.005	-0.010	0.015	0.034	1.772	1.079	1.079	1.074	1.089	1.084	1.084
-0.015	0.020	-0.010	0.005	-0.005	0.020	0.034	1.758	1.074	1.074	1.074	1.089	1.084	1.084
-0.005	0.020	-0.005	0.005	0.000	-0.005	0.034	1.797	1.079	1.074	1.074	1.089	1.084	1.079
-0.005	0.010	-0.005	-0.005	0.005	0.005	0.034	1.782	1.079	1.074	1.074	1.089	1.089	1.084
0.005	0.000	-0.005	-0.005	-0.005	-0.005	0.029	1.714	1.074	1.074	1.074	1.089	1.084	1.079
0.000	-0.010	0.000	0.000	0.005	0.000	0.029	1.797	1.069	1.064	1.074	1.094	1.089	1.079
0.000	0.000	0.000	0.000	0.000	0.000	0.029	1.812	1.074	1.069	1.069	1.094	1.089	1.084
0.000	-0.020	0.005	-0.005	-0.005	0.000	0.029	1.724	1.069	1.064	1.069	1.089	1.084	1.079
0.005	-0.024	0.000	-0.005	0.000	-0.005	0.029	1.812	1.074	1.060	1.069	1.084	1.084	1.079
0.010	-0.024	0.005	-0.005	-0.010	0.005	0.029	1.763	1.079	1.069	1.069	1.089	1.084	1.084
0.000	-0.024	0.000	0.000	-0.015	0.015	0.034	1.763	1.074	1.069	1.069	1.084	1.084	1.084
0.005	-0.010	0.000	0.005	-0.005	-0.010	0.029	1.797	1.079	1.074	1.069	1.089	1.084	1.079
0.005	-0.005	0.000	0.000	0.000	0.010	0.029	1.816	1.084	1.074	1.069	1.089	1.084	1.079
-0.005	0.000	0.000	0.000	-0.005	0.000	0.029	1.758	1.074	1.079	1.069	1.089	1.084	1.079
0.000	0.010	-0.005	0.005	0.005	0.005	0.029	1.772	1.074	1.079	1.069	1.089	1.084	1.084
0.000	0.015	-0.005	0.000	0.000	0.005	0.029	1.802	1.079	1.079	1.074	1.089	1.084	1.084
-0.005	0.020	-0.005	0.000	0.000	0.010	0.029	1.807	1.084	1.079	1.074	1.094	1.084	1.084
-0.010	0.029	-0.010	0.005	-0.005	0.000	0.034	1.812	1.084	1.084	1.074	1.089	1.084	1.074
-0.005	0.024	-0.010	0.005	-0.005	0.020	0.034	1.777	1.079	1.079	1.079	1.094	1.084	1.089
-0.005	0.015	-0.010	0.005	-0.010	0.010	0.034	1.782	1.084	1.074	1.079	1.094	1.084	1.084
-0.005	0.010	-0.005	0.000	-0.005	0.005	0.034	1.812	1.084	1.079	1.079	1.094	1.089	1.079
0.000	0.010	0.000	0.000	0.005	-0.015	0.034	1.797	1.079	1.074	1.074	1.094	1.089	1.074
0.005	-0.005	0.000	0.000	0.000	0.015	0.034	1.753	1.079	1.074	1.074	1.094	1.089	1.089
0.005	-0.020	0.010	0.005	0.005	0.000	0.029	1.807	1.084	1.069	1.074	1.094	1.089	1.084
0.005	-0.020	0.000	0.005	-0.005	-0.029	0.034	1.743	1.074	1.074	1.074	1.089	1.084	1.074
0.010	-0.024	0.005	0.000	-0.005	-0.020	0.029	1.738	1.074	1.069	1.069	1.094	1.089	1.084
0.015	-0.024	0.005	0.000	0.005	0.000	0.034	1.777	1.074	1.069	1.069	1.089	1.094	1.089
0.005	-0.005	0.000	0.000	0.005	0.000	0.029	1.748	1.069	1.074	1.074	1.089	1.089	1.089
0.015	-0.005	0.000	-0.005	-0.005	-0.020	0.034	1.807	1.079	1.074	1.069	1.089	1.084	1.079
0.010	0.000	0.005	0.000	-0.005	0.015	0.029	1.738	1.074	1.074	1.069	1.089	1.089	1.089
-0.005	0.015	0.000	0.000	0.000	0.015	0.034	1.670	1.064	1.079	1.074	1.089	1.089	1.084
0.000	0.015	-0.005	-0.005	0.005	0.010	0.034	1.797	1.069	1.074	1.074	1.089	1.089	1.084
0.000	0.024	0.000	-0.005	0.005	0.000	0.029	1.777	1.074	1.074	1.074	1.089	1.089	1.084
-0.005	0.015	-0.005	0.005	0.015	0.000	0.034	1.768	1.074	1.074	1.074	1.094	1.089	1.084
0.005	0.020	-0.005	0.000	-0.010	-0.015	0.034	1.772	1.079	1.074	1.074	1.089	1.084	1.079
0.005	0.015	-0.005	-0.010	-0.015	0.015	0.029	1.807	1.079	1.074	1.074	1.089	1.084	1.084
0.010	0.015	0.000	-0.005	0.000	-0.010	0.029	1.753	1.079	1.074	1.074	1.089	1.089	1.079
-0.005	-0.010	0.000	0.000	0.005	-0.029	0.029	1.802	1.079	1.064	1.074	1.089	1.089	1.074
0.000	-0.005	0.005	-0.005	0.005	-0.054	0.034	1.772	1.079	1.069	1.069	1.094	1.084	1.069
0.005	-0.020	0.005	-0.005	0.010	-0.029	0.029	1.763	1.079	1.069	1.069	1.089	1.089	1.079
-0.010	-0.020	0.000	-0.005	-0.015	-0.039	0.029	1.758	1.069	1.064	1.064	1.089	1.079	1.079
-0.010	-0.020	0.005	-0.005	-0.015	-0.010	0.034	1.816	1.074	1.064	1.069	1.089	1.079	1.084
0.000	-0.024	0.005	0.005	0.000	0.000	0.034	1.772	1.074	1.069	1.069	1.089	1.084	1.084
0.000	-0.020	0.005	0.000	0.000	0.000	0.034	1.738	1.074	1.069	1.069	1.089	1.084	1.084
-0.005	0.015	0.000	0.000	0.000	0.020	0.034	1.797	1.079	1.079	1.069	1.089	1.084	1.089
-0.015	0.015	0.000	-0.005	-0.010	0.020	0.034	1.812	1.079	1.079	1.069	1.089	1.084	1.089
-0.010	0.010	-0.005	0.000	-0.005	0.020	0.034	1.743	1.079	1.079	1.074	1.089	1.089	1.084
-0.010	0.000	-0.010	0.005	-0.005	0.010	0.029	1.787	1.079	1.074	1.074	1.089	1.084	1.079
0.000	0.005	-0.005	0.005	-0.010	0.020	0.034	1.797	1.084	1.079	1.074	1.089	1.084	1.084
0.000	0.010	-0.005	0.005	0.000	0.010	0.034	1.748	1.079	1.079	1.074	1.089	1.089	1.079
-0.015	0.010	-0.005	0.000	-0.015	0.000	0.034	1.797	1.079	1.079	1.074	1.089	1.084	1.079
0.000	0.010	-0.005	0.005	-0.015	-0.010	0.034	1.812	1.084	1.079	1.074	1.094	1.084	1.074
-0.005	0.010	-0.005	0.005	-0.015	0.015	0.034	1.719	1.069	1.079	1.079	1.094	1.089	1.084
-0.005	0.015	0.000	0.005	0.000	0.000	0.034	1.792	1.074	1.079	1.079	1.094	1.094	1.079
-0.015	0.010	0.005	0.000	0.015	0.010	0.034	1.787	1.074	1.074	1.079	1.094	1.094	1.089
-0.005	0.000	0.000	-0.005	0.029	-0.005	0.029	1.802	1.079	1.069	1.074	1.094	1.094	1.084
-0.010	-0.010	0.005	-0.005	0.024	0.005	0.034	1.802	1.084	1.069	1.069	1.089	1.094	1.089
-0.010	-0.020	0.000	-0.010	0.005	-0.015	0.029	1.758	1.079	1.069	1.069	1.089	1.084	1.084
0.005	-0.020	0.000	-0.005	0.010	0.005	0.029	1.763	1.079	1.069	1.069	1.089	1.089	1.089
-0.010	-0.024	0.005	-0.010	0.010	0.010	0.029	1.792	1.079	1.069	1.069	1.089	1.089	1.089
0.000	-0.020	0.010	0.000	0.010	-0.005	0.029	1.743	1.079	1.074	1.074	1.089	1.084	1.079
0.000	-0.020	0.005	0.000	-0.010	0.005	0.029	1.802	1.079	1.074	1.069	1.089	1.079	1.084
0.005	0.005	0.005	0.005	0.005	0.010	0.029	1.787	1.079	1.079	1.074	1.089	1.089	1.084
0.005	0.015	0.005	-0.005	0.010	-0.015	0.034	1.802	1.084	1.084	1.074	1.089	1.084	1.079
0.010	0.000	-0.010	-0.005	-0.029	0.000	0.034	1.777	1.079	1.079	1.074	1.089	1.074	1.079
0.005	0.020	-0.015	0.000	-0.034	0.024	0.029	1.777	1.079	1.084	1.074	1.094	1.079	1.084
0.005	0.015	-0.010	0.010	-0.015	-0.015	0.034	1.724	1.074	1.079	1.079	1.094	1.084	1.074
0.000	0.015	-0.005	0.005	0.000	-0.005	0.029	1.777	1.079	1.079	1.079	1.094	1.094	1.084
0.010	0.015	-0.005	0.005	0.015	-0.005	0.034	1.812	1.079	1.079	1.079	1.094	1.094	1.084
0.010	0.010	-0.010	0.005	0.005	-0.005	0.034	1.724	1.074	1.079	1.079	1.094	1.094	1.089
0.005	0.010	-0.005	0.000	0.010	-0.020	0.034	1.797	1.079	1.074	1.074	1.094	1.094	1.084
0.020	-0.005	0.000	0.000	0.020	-0.005	0.029	1.807	1.084	1.069	1.074	1.094	1.094	1.089
0.044	-0.005	0.005	0.005	0.005	0.000	0.029	1.797	1.089	1.079	1.079	1.094	1.089	1.089
0.049	-0.005	0.005	-0.005	0.000	-0.005	0.034	1.763	1.089	1.079	1.079	1.094	1.084	1.089
0.039	0.000	0.005	-0.005	-0.020	-0.015	0.029	1.797	1.084	1.079	1.079	1.094	1.079	1.079
0.039	-0.010	0.005	-0.005	-0.039	-0.020	0.029	1.816	1.084	1.074	1.074	1.094	1.079	1.074
0.024	-0.010	0.000	-0.010	-0.034	-0.020	0.034	1.807	1.079	1.074	1.074	1.089	1.084	1.074
0.000	-0.005	-0.005	0.000	-0.010	-0.020	0.029	1.768	1.064	1.074	1.074	1.094	1.089	1.079
-0.034	-0.010	0.000	0.000	-0.010	-0.024	0.029	1.797	1.055	1.064	1.074	1.094	1.089	1.079
-0.039	0.000	0.000	0.000	0.005	-0.015	0.029	1.758	1.055	1.064	1.069	1.089	1.094	1.089
-0.044	0.000	-0.005	0.000	0.005	-0.005	0.029	1.797	1.064	1.060	1.069	1.089	1.089	1.089
-0.044	0.000	-0.005	0.000	0.015	-0.024	0.034	1.782	1.074	1.064	1.064	1.094	1.094	1.084
0.029	0.015	-0.005	0.005	0.024	0.005	0.034	1.772	1.094	1.074	1.069	1.089	1.099	1.094
0.039	0.024	-0.005	0.005	0.054	0.010	0.029	1.797	1.094	1.084	1.074	1.089	1.099	1.099
0.015	0.024	0.000	0.005	0.000	0.010	0.029	1.807	1.089	1.084	1.079	1.094	1.079	1.089
-0.015	0.015	-0.005	0.000	-0.024	0.005	0.029	1.758	1.064	1.079	1.074	1.089	1.079	1.089
-0.039	0.010	-0.005	0.005	-0.010	0.020	0.034	1.777	1.060	1.069	1.074	1.089	1.084	1.089
-0.039	0.000	-0.005	-0.005	-0.005	0.015	0.029	1.787	1.069	1.064	1.069	1.089	1.084	1.089
-0.044	0.000	0.005	-0.005	0.010	0.034	0.034	1.768	1.069	1.064	1.069	1.089	1.089	1.089
-0.049	-0.015	0.000	-0.005	-0.010	0.020	0.034	1.743	1.064	1.060	1.069	1.089	1.084	1.084
-0.049	-0.020	0.000	-0.010	-0.015	0.020	0.029	1.792	1.074	1.060	1.064	1.084	1.079	1.084
-0.029	-0.020	0.005	-0.015	-0.005	0.015	0.029	1.787	1.079	1.064	1.064	1.084	1.079	1.079
-0.034	-0.029	0.005	-0.010	0.024	0.020	0.034	1.763	1.074	1.064	1.064	1.084	1.094	1.084
-0.034	-0.034	0.005	-0.005	0.039	0.010	0.034	1.743	1.069	1.064	1.064	1.084	1.089	1.084
-0.049	-0.015	0.000	-0.010	0.068	0.010	0.034	1.787	1.069	1.069	1.064	1.084	1.094	1.084
-0.059	0.005	0.000	-0.010	0.029	0.000	0.034	1.807	1.074	1.074	1.064	1.084	1.079	1.079
-0.063	-0.010	0.000	-0.010	0.000	0.005	0.034	1.787	1.074	1.069	1.064	1.084	1.069	1.074
-0.068	0.005	-0.005	-0.010	-0.015	-0.015	0.034	1.777	1.074	1.074	1.069	1.084	1.064	1.064
-0.059	0.005	-0.005	0.000	-0.034	0.010	0.034	1.719	1.074	1.074	1.069	1.089	1.069	1.074
-0.039	-0.010	0.005	-0.005	-0.020	0.010	0.034	1.792	1.079	1.074	1.069	1.089	1.079	1.074
-0.010	-0.005	-0.010	-0.005	-0.005	0.005	0.034	1.797	1.084	1.074	1.069	1.089	1.084	1.074
0.000	0.000	-0.005	-0.005	0.005	-0.005	0.029	1.772	1.094	1.079	1.069	1.089	1.084	1.074
0.020	0.000	0.005	-0.005	0.000	-0.020	0.034	1.753	1.089	1.084	1.079	1.089	1.084	1.074
0.054	0.000	0.000	-0.005	0.005	0.010	0.034	1.777	1.094	1.084	1.079	1.094	1.089	1.084
0.044	-0.010	0.005	-0.005	-0.010	0.015	0.029	1.816	1.089	1.079	1.079	1.094	1.084	1.084
0.059	-0.015	0.005	0.000	-0.010	-0.005	0.034	1.777	1.089	1.079	1.079	1.094	1.084	1.079
0.059	-0.015	0.010	-0.005	-0.010	-0.005	0.029	1.743	1.074	1.079	1.084	1.094	1.089	1.079
0.049	-0.020	0.005	-0.005	-0.010	-0.010	0.034	1.758	1.074	1.074	1.079	1.094	1.089	1.079
0.049	-0.024	0.005	-0.005	0.000	-0.010	0.029	1.792	1.079	1.069	1.074	1.099	1.094	1.084
0.044	-0.020	0.000	0.000	0.000	-0.005	0.029	1.787	1.074	1.074	1.074	1.094	1.094	1.084
0.034	-0.024	0.005	0.005	0.000	-0.020	0.029	1.763	1.064	1.069	1.074	1.094	1.094	1.084
0.010	-0.015	0.010	0.000	0.000	-0.010	0.029	1.792	1.064	1.069	1.074	1.094	1.089	1.084
-0.005	0.015	0.005	0.005	0.000	-0.024	0.029	1.758	1.064	1.074	1.074	1.094	1.089	1.079
-0.010	0.015	0.005	0.010	-0.005	0.005	0.029	1.782	1.064	1.069	1.069	1.094	1.089	1.089
-0.010	0.020	0.005	0.015	-0.005	0.000	0.034	1.797	1.069	1.074	1.069	1.094	1.089	1.089
-0.015	0.034	0.000	0.015	-0.010	-0.010	0.034	1.758	1.074	1.074	1.069	1.094	1.089	1.084
-0.005	0.024	-0.005	0.010	0.005	-0.024	0.029	1.807	1.074	1.069	1.069	1.089	1.089	1.079
-0.005	0.010	-0.005	0.010	0.010	-0.015	0.029	1.758	1.074	1.069	1.069	1.089	1.094	1.084
0.005	0.015	-0.010	0.010	0.020	-0.029	0.029	1.797	1.084	1.074	1.069	1.089	1.089	1.089
0.020	0.000	-0.015	0.005	0.015	-0.005	0.029	1.792	1.089	1.069	1.069	1.089	1.089	1.089
0.024	-0.024	-0.005	0.010	0.010	-0.010	0.034	1.763	1.084	1.069	1.069	1.089	1.089	1.084
0.029	-0.029	-0.015	0.010	0.005	-0.034	0.034	1.768	1.084	1.069	1.069	1.084	1.079	1.079
0.029	-0.024	-0.010	0.005	-0.010	0.010	0.034	1.792	1.084	1.074	1.069	1.089	1.084	1.089
0.039	-0.029	0.000	0.005	-0.015	-0.020	0.034	1.782	1.079	1.074	1.074	1.084	1.079	1.074
0.034	-0.024	-0.005	-0.005	-0.010	0.020	0.034	1.797	1.079	1.074	1.074	1.089	1.084	1.089
0.034	-0.029	0.000	-0.005	-0.005	0.024	0.034	1.768	1.079	1.074	1.074	1.084	1.084	1.089
0.029	-0.024	0.005	0.000	-0.010	0.020	0.034	1.787	1.074	1.074	1.079	1.089	1.079	1.084
0.015	0.005	0.000	0.000	-0.005	0.010	0.029	1.743	1.064	1.084	1.079	1.089	1.084	1.079
0.005	0.000	0.000	0.000	-0.005	-0.005	0.029	1.802	1.074	1.074	1.074	1.094	1.084	1.074
0.005	0.005	0.000	0.000	-0.010	-0.005	0.034	1.777	1.074	1.074	1.074	1.094	1.084	1.079
0.000	0.024	-0.005	0.005	-0.010	0.000	0.029	1.763	1.064	1.074	1.074	1.094	1.084	1.079
-0.005	0.024	0.000	0.005	-0.020	0.015	0.029	1.812	1.074	1.074	1.074	1.094	1.084	1.084
-0.010	0.005	-0.005	0.005	-0.015	0.020	0.029	1.763	1.069	1.069	1.074	1.094	1.089	1.089
-0.020	0.005	-0.005	0.005	-0.010	0.010	0.029	1.797	1.069	1.064	1.069	1.094	1.089	1.079
-0.005	-0.005	0.000	0.005	0.000	0.010	0.034	1.777	1.079	1.069	1.069	1.094	1.094	1.084
-0.005	0.005	-0.005	0.005	0.000	0.010	0.029	1.787	1.079	1.074	1.074	1.089	1.089	1.084
-0.005	0.015	-0.005	0.005	0.000	0.010	0.034	1.802	1.084	1.074	1.074	1.094	1.089	1.084
0.000	0.005	-0.010	-0.005	0.000	0.010	0.029	1.812	1.084	1.074	1.069	1.089	1.089	1.084
0.000	-0.010	-0.005	0.000	0.005	0.005	0.034	1.787	1.084	1.069	1.069	1.089	1.089	1.084
-0.005	-0.015	0.000	0.000	0.000	0.005	0.029	1.792	1.079	1.074	1.074	1.089	1.084	1.084
-0.005	-0.010	0.005	0.000	0.005	0.005	0.029	1.797	1.079	1.074	1.074	1.094	1.089	1.079
0.000	-0.015	0.005	-0.005	-0.005	-0.010	0.034	1.777	1.084	1.074	1.069	1.089	1.084	1.079
-0.010	-0.010	0.000	-0.005	0.000	0.000	0.034	1.738	1.074	1.074	1.074	1.089	1.084	1.084
0.000	-0.005	0.005	-0.010	0.000	0.000	0.034	1.802	1.074	1.074	1.074	1.089	1.084	1.084
-0.005	-0.005	0.000	-0.005	0.000	0.005	0.034	1.797	1.079	1.074	1.074	1.089	1.084	1.084
-0.005	-0.005	-0.005	-0.005	0.000	0.000	0.034	1.675	1.064	1.074	1.069	1.089	1.084	1.084
-0.005	0.010	-0.005	-0.005	0.005	-0.010	0.034	1.787	1.069	1.074	1.069	1.089	1.084	1.079
-0.010	0.005	0.000	-0.005	0.005	-0.005	0.029	1.797	1.074	1.069	1.069	1.089	1.089	1.084
-0.024	0.015	-0.010	-0.005	0.005	0.005	0.034	1.821	1.079	1.074	1.069	1.094	1.089	1.084
-0.020	0.010	-0.005	0.005	0.005	-0.005	0.034	1.743	1.074	1.074	1.074	1.089	1.089	1.084
-0.015	0.015	-0.005	0.000	0.005	-0.005	0.029	1.787	1.074	1.074	1.074	1.089	1.089	1.084
-0.010	0.024	0.000	-0.005	0.000	-0.005	0.034	1.802	1.084	1.074	1.074	1.094	1.089	1.084
-0.015	0.020	0.000	0.000	0.005	0.000	0.034	1.768	1.084	1.079	1.074	1.094	1.089	1.084
-0.010	-0.005	0.000	-0.005	0.005	0.000	0.029	1.777	1.079	1.069	1.074	1.094	1.089	1.084
0.000	-0.005	0.000	-0.005	0.000	0.000	0.034	1.802	1.084	1.074	1.074	1.094	1.084	1.079
-0.005	-0.015	0.005	-0.005	0.005	0.000	0.034	1.812	1.084	1.074	1.074	1.089	1.089	1.084
0.010	-0.010	0.010	-0.005	0.000	-0.015	0.034	1.685	1.074	1.074	1.074	1.089	1.089	1.079
0.005	0.000	0.005	-0.005	0.000	0.000	0.029	1.787	1.069	1.079	1.074	1.094	1.084	1.089
0.000	0.000	0.010	-0.010	-0.005	-0.010	0.034	1.807	1.089	1.074	1.074	1.089	1.084	1.079
0.000	0.005	0.005	-0.005	0.000	0.000	0.034	1.753	1.079	1.079	1.074	1.094	1.084	1.084
0.005	-0.005	0.000	0.000	0.000	0.005	0.029	1.758	1.074	1.074	1.074	1.094	1.089	1.089
0.005	0.000	0.000	-0.005	0.005	-0.005	0.029	1.792	1.074	1.074	1.074	1.089	1.084	1.079
0.000	0.005	0.005	-0.005	0.000	0.005	0.034	1.792	1.079	1.079	1.074	1.094	1.084	1.084
0.000	0.020	0.000	0.000	0.000	0.005	0.029	1.758	1.079	1.079	1.074	1.094	1.089	1.084
0.000	0.005	-0.005	0.000	0.000	0.000	0.034	1.772	1.074	1.074	1.074	1.094	1.084	1.084
-0.005	0.010	-0.005	0.000	0.005	0.005	0.029	1.772	1.074	1.074	1.074	1.094	1.089	1.084
-0.020	0.010	-0.005	0.005	-0.005	-0.010	0.034	1.763	1.064	1.069	1.069	1.094	1.089	1.079
-0.005	0.010	-0.010	0.005	0.000	0.005	0.029	1.797	1.074	1.069	1.074	1.094	1.089	1.089
-0.010	0.005	-0.005	0.005	0.005	0.005	0.034	1.777	1.074	1.069	1.074	1.094	1.089	1.084
-0.020	0.000	-0.005	0.000	0.000	-0.024	0.034	1.748	1.074	1.069	1.069	1.089	1.089	1.079
0.000	-0.010	-0.005	0.000	0.000	-0.015	0.029	1.797	1.079	1.069	1.069	1.084	1.089	1.084
0.000	-0.020	0.000	-0.005	0.000	0.010	0.034	1.807	1.079	1.064	1.069	1.089	1.089	1.089
0.000	-0.010	0.000	0.000	0.000	0.010	0.029	1.704	1.074	1.069	1.069	1.084	1.089	1.089
0.005	-0.020	0.005	-0.005	0.010	-0.020	0.029	1.758	1.079	1.069	1.069	1.089	1.084	1.074
0.010	-0.010	0.005	-0.005	0.005	0.015	0.029	1.763	1.074	1.074	1.069	1.084	1.084	1.089
0.005	-0.029	0.005	0.000	-0.010	-0.005	0.034	1.787	1.074	1.069	1.069	1.084	1.079	1.079
0.005	-0.015	0.000	-0.005	0.000	-0.005	0.029	1.792	1.079	1.074	1.069	1.089	1.079	1.079
0.005	0.015	-0.005	0.000	-0.005	0.010	0.034	1.797	1.079	1.079	1.069	1.089	1.079	1.084
0.000	0.005	0.000	0.000	-0.005	0.000	0.029	1.748	1.069	1.074	1.074	1.084	1.084	1.079
-0.005	0.015	-0.005	0.000	0.000	-0.005	0.034	1.792	1.074	1.074	1.074	1.089	1.084	1.079
0.000	0.015	-0.005	0.000	0.000	0.005	0.029	1.758	1.074	1.074	1.074	1.089	1.084	1.079
-0.010	0.015	-0.005	0.005	0.005	0.005	0.029	1.807	1.069	1.069	1.074	1.089	1.089	1.084
-0.010	0.010	-0.010	0.000	0.000	0.005	0.029	1.797	1.079	1.069	1.069	1.089	1.084	1.079
-0.010	0.005	-0.010	-0.005	-0.005	-0.020	0.034	1.807	1.084	1.074	1.069	1.089	1.084	1.074
-0.005	0.005	-0.005	0.005	-0.010	-0.015	0.034	1.753	1.079	1.074	1.074	1.089	1.084	1.079
-0.010	0.000	-0.015	0.000	-0.005	0.005	0.034	1.802	1.079	1.074	1.069	1.089	1.084	1.084
-0.010	0.005	-0.010	0.000	-0.005	0.000	0.029	1.777	1.074	1.074	1.069	1.089	1.084	1.084
0.020	0.005	0.000	0.000	0.000	0.010	0.034	1.738	1.079	1.079	1.074	1.089	1.089	1.084
0.044	-0.005	0.000	0.000	0.005	0.000	0.034	1.797	1.084	1.074	1.074	1.094	1.089	1.084
0.034	-0.015	0.000	0.000	0.000	0.000	0.029	1.787	1.084	1.074	1.074	1.094	1.089	1.079
0.015	-0.010	0.005	0.000	0.000	0.010	0.034	1.763	1.069	1.074	1.074	1.089	1.089	1.089
-0.010	-0.020	0.005	0.000	-0.005	0.005	0.029	1.777	1.060	1.064	1.069	1.089	1.084	1.084
-0.039	-0.020	0.005	-0.005	-0.005	-0.024	0.029	1.821	1.064	1.064	1.069	1.089	1.084	1.074
-0.044	-0.010	0.010	-0.005	0.000	0.005	0.034	1.758	1.064	1.064	1.069	1.089	1.089	1.084
-0.029	-0.020	-0.005	-0.005	0.005	0.005	0.034	1.782	1.069	1.060	1.064	1.084	1.084	1.084
-0.039	-0.005	-0.005	-0.005	0.000	-0.005	0.029	1.816	1.074	1.069	1.064	1.084	1.084	1.079
-0.044	0.005	-0.005	0.005	-0.010	0.005	0.034	1.748	1.074	1.074	1.064	1.084	1.079	1.079
-0.034	0.010	-0.010	-0.005	0.000	-0.005	0.034	1.758	1.074	1.069	1.064	1.084	1.079	1.079
-0.020	0.005	0.000	0.000	0.000	0.005	0.029	1.792	1.079	1.074	1.069	1.089	1.084	1.079
-0.020	0.010	0.000	-0.005	-0.005	-0.005	0.034	1.772	1.084	1.074	1.069	1.089	1.079	1.074
-0.010	0.005	-0.005	0.000	-0.005	-0.010	0.034	1.743	1.084	1.079	1.069	1.089	1.084	1.074
0.005	0.015	-0.005	0.000	0.010	0.000	0.034	1.797	1.084	1.084	1.074	1.089	1.084	1.084
-0.015	0.010	-0.005	-0.005	0.015	0.000	0.034	1.792	1.079	1.079	1.074	1.089	1.089	1.079
-0.005	0.015	-0.005	-0.005	0.000	0.000	0.029	1.777	1.074	1.079	1.074	1.089	1.084	1.084
-0.005	0.000	0.000	0.000	0.005	0.005	0.034	1.768	1.079	1.074	1.074	1.094	1.084	1.084
-0.005	0.000	0.000	0.000	0.000	0.000	0.034	1.772	1.079	1.074	1.074	1.094	1.089	1.084
0.020	-0.010	0.005	0.010	0.000	0.005	0.029	1.753	1.079	1.074	1.079	1.094	1.089	1.084
0.020	-0.005	0.010	0.010	-0.005	0.000	0.034	1.792	1.079	1.074	1.074	1.094	1.089	1.084
0.010	-0.015	0.005	0.000	-0.005	0.000	0.034	1.753	1.079	1.069	1.069	1.089	1.089	1.084
0.020	-0.020	0.005	-0.005	0.005	0.005	0.029	1.782	1.079	1.069	1.069	1.089	1.089	1.084
0.015	-0.024	0.005	-0.005	-0.005	-0.010	0.034	1.792	1.079	1.069	1.074	1.089	1.084	1.079
0.024	-0.005	0.000	0.000	0.000	-0.020	0.034	1.777	1.079	1.074	1.069	1.089	1.084	1.074
0.024	0.010	0.000	0.000	0.005	0.005	0.034	1.797	1.084	1.084	1.074	1.089	1.089	1.089
0.015	0.005	-0.005	0.000	0.000	-0.020	0.034	1.782	1.079	1.079	1.074	1.089	1.084	1.079
0.015	0.010	-0.005	0.005	-0.005	0.005	0.034	1.797	1.079	1.074	1.074	1.094	1.089	1.084
0.010	0.010	-0.005	0.005	0.000	0.000	0.034	1.807	1.084	1.079	1.074	1.094	1.089	1.084
0.000	0.000	-0.010	0.010	-0.005	-0.010	0.034	1.782	1.079	1.074	1.074	1.089	1.084	1.079
-0.010	0.005	-0.010	0.005	0.005	0.015	0.029	1.812	1.074	1.074	1.069	1.094	1.089	1.089
-0.010	0.005	-0.010	0.005	0.000	-0.005	0.029	1.763	1.074	1.074	1.074	1.094	1.089	1.084
-0.010	0.010	-0.005	0.000	0.000	0.010	0.029	1.802	1.079	1.074	1.079	1.094	1.089	1.089
-0.005	0.010	0.000	0.000	-0.005	0.015	0.029	1.797	1.079	1.074	1.074	1.089	1.089	1.089
0.000	0.010	0.000	-0.005	0.000	0.015	0.029	1.738	1.074	1.074	1.074	1.094	1.089	1.084
0.010	0.000	0.005	-0.005	-0.005	0.015	0.029	1.753	1.074	1.074	1.079	1.089	1.089	1.089
0.015	-0.015	0.005	-0.010	0.000	0.010	0.034	1.792	1.074	1.064	1.074	1.089	1.084	1.084
0.010	-0.020	0.005	-0.005	0.005	0.005	0.034	1.816	1.079	1.069	1.069	1.089	1.089	1.084
0.015	-0.024	0.005	0.000	0.000	0.000	0.034	1.733	1.074	1.069	1.069	1.089	1.089	1.084
0.005	-0.020	0.005	-0.005	-0.015	-0.005	0.034	1.748	1.069	1.074	1.069	1.089	1.079	1.079
0.005	0.000	0.005	-0.005	-0.010	0.000	0.034	1.797	1.074	1.074	1.069	1.089	1.084	1.079
