0.005	0.010	0.005	0.000	0.005	0.000	0.034	2.681	4.565	3.506	3.276	3.047	3.057	3.027
0.020	0.005	0.010	-0.005	-0.010	-0.005	0.034	2.676	4.033	3.672	3.384	3.140	3.071	3.037
0.010	0.000	0.005	-0.005	-0.015	0.000	0.029	2.646	3.643	3.677	3.462	3.232	3.110	3.062
-0.005	0.000	0.000	-0.005	-0.015	-0.005	0.029	2.681	3.364	3.599	3.506	3.311	3.159	3.086
0.000	0.005	0.000	-0.005	0.020	0.005	0.029	2.671	3.164	3.491	3.506	3.369	3.223	3.125
0.005	0.015	0.000	-0.010	0.015	0.015	0.029	2.676	3.027	3.374	3.472	3.403	3.271	3.164
-0.005	0.005	-0.005	0.000	0.005	0.000	0.034	2.681	2.935	3.262	3.418	3.418	3.306	3.203
0.000	0.020	0.000	0.000	-0.010	0.000	0.034	2.681	2.876	3.159	3.354	3.408	3.330	3.237
-0.005	0.010	-0.005	0.010	-0.010	0.005	0.029	2.681	2.832	3.076	3.276	3.379	3.350	3.267
-0.010	0.020	-0.005	0.005	-0.005	-0.005	0.034	2.676	2.803	3.008	3.203	3.340	3.345	3.286
-0.005	0.015	-0.005	0.005	0.000	-0.005	0.034	2.646	2.788	2.949	3.135	3.286	3.330	3.301
-0.010	0.010	0.000	0.005	-0.005	-0.029	0.034	2.671	2.778	2.905	3.071	3.237	3.306	3.296
-0.005	0.005	0.005	0.015	0.000	0.000	0.029	2.690	2.778	2.871	3.018	3.184	3.276	3.301
0.005	-0.005	0.005	0.005	-0.010	0.005	0.029	2.676	2.773	2.847	2.969	3.130	3.232	3.281
0.010	0.005	0.005	0.000	0.015	-0.005	0.034	2.676	2.769	2.832	2.935	3.081	3.193	3.262
0.005	0.000	0.005	0.000	0.010	0.015	0.029	2.681	2.769	2.812	2.900	3.037	3.149	3.237
0.015	0.005	0.005	-0.010	0.005	0.015	0.034	2.661	2.769	2.808	2.876	2.993	3.105	3.203
0.005	-0.010	-0.005	-0.005	0.010	0.000	0.034	2.681	2.754	2.793	2.847	2.959	3.066	3.164
0.005	-0.015	0.005	-0.005	-0.005	0.005	0.034	2.822	2.764	2.783	2.827	2.930	3.022	3.125
0.005	-0.010	0.005	-0.005	-0.015	0.000	0.029	2.666	2.754	2.783	2.817	2.900	2.983	3.091
0.000	-0.010	0.005	-0.005	-0.010	0.015	0.029	2.676	2.739	2.773	2.808	2.881	2.959	3.057
0.010	-0.015	0.010	-0.010	-0.024	0.005	0.029	2.695	2.729	2.764	2.793	2.861	2.925	3.018
0.000	-0.015	0.000	-0.005	-0.020	0.000	0.029	2.681	2.720	2.754	2.778	2.847	2.905	2.983
0.000	-0.005	0.000	-0.005	0.005	-0.005	0.034	2.671	2.705	2.744	2.769	2.827	2.886	2.959
-0.010	-0.005	0.000	-0.005	0.000	0.000	0.029	2.671	2.690	2.734	2.759	2.817	2.866	2.935
-0.010	0.010	-0.005	0.005	-0.010	-0.020	0.034	2.690	2.686	2.725	2.749	2.803	2.842	2.900
-0.015	0.015	-0.005	0.005	-0.020	-0.005	0.029	2.637	2.666	2.715	2.739	2.793	2.827	2.891
-0.010	0.015	-0.005	0.010	-0.005	-0.005	0.034	2.681	2.656	2.700	2.729	2.783	2.817	2.871
0.000	0.010	-0.005	0.010	0.083	-0.005	0.029	2.681	2.651	2.686	2.720	2.773	2.827	2.856
-0.005	0.000	0.000	0.015	0.059	-0.010	0.034	2.681	2.637	2.671	2.705	2.759	2.803	2.842
0.000	0.005	0.000	0.005	0.029	-0.020	0.029	2.686	2.632	2.666	2.695	2.744	2.778	2.817
0.005	-0.024	0.000	0.000	0.000	-0.005	0.029	2.671	2.617	2.651	2.681	2.729	2.754	2.808
-0.005	-0.029	0.000	0.000	0.005	-0.020	0.034	2.681	2.607	2.637	2.666	2.715	2.744	2.788
0.010	-0.029	0.000	0.000	0.000	0.010	0.034	2.686	2.603	2.627	2.656	2.710	2.734	2.778
0.010	-0.020	0.005	0.000	0.000	0.010	0.034	2.666	2.603	2.622	2.646	2.695	2.720	2.764
0.000	0.005	0.005	0.000	0.000	0.000	0.029	2.666	2.583	2.622	2.642	2.686	2.710	2.749
-0.005	0.000	0.005	0.000	0.024	0.020	0.029	2.671	2.573	2.607	2.632	2.676	2.705	2.744
0.015	0.000	0.000	0.005	0.024	0.000	0.029	2.686	2.563	2.593	2.622	2.666	2.690	2.725
0.015	0.005	0.000	0.000	0.005	0.015	0.029	2.686	2.554	2.593	2.607	2.651	2.676	2.715
0.000	0.020	0.000	0.000	-0.015	0.015	0.029	2.681	2.539	2.578	2.603	2.646	2.661	2.700
-0.005	0.005	0.005	0.000	-0.005	0.010	0.034	2.681	2.524	2.563	2.593	2.637	2.656	2.690
0.000	0.020	0.005	0.005	-0.015	-0.015	0.034	2.686	2.520	2.554	2.583	2.627	2.642	2.671
-0.010	0.020	0.000	0.005	-0.010	0.015	0.034	2.808	2.505	2.544	2.568	2.617	2.637	2.671
0.000	0.015	-0.005	0.010	-0.024	-0.005	0.034	2.676	2.495	2.534	2.559	2.607	2.622	2.651
-0.005	0.015	-0.010	0.015	-0.024	-0.020	0.034	2.671	2.485	2.520	2.549	2.593	2.617	2.642
-0.015	0.015	-0.005	0.005	-0.020	0.005	0.034	2.661	2.476	2.510	2.539	2.583	2.612	2.637
-0.010	0.015	0.000	0.000	-0.015	-0.010	0.029	2.686	2.471	2.495	2.529	2.573	2.598	2.622
-0.005	0.005	0.000	0.000	0.000	-0.029	0.029	2.676	2.466	2.490	2.515	2.563	2.593	2.612
-0.005	-0.005	0.000	0.000	0.054	0.010	0.029	2.666	2.456	2.480	2.505	2.554	2.598	2.617
0.010	-0.015	0.005	-0.005	0.024	-0.005	0.029	2.681	2.456	2.471	2.495	2.539	2.568	2.603
0.010	-0.005	0.005	-0.005	0.000	0.010	0.034	2.651	2.446	2.471	2.490	2.529	2.554	2.593
0.015	-0.020	0.005	-0.005	0.000	-0.015	0.029	2.681	2.441	2.456	2.480	2.524	2.539	2.573
0.020	-0.015	0.005	-0.005	-0.005	0.015	0.034	2.661	2.432	2.456	2.471	2.515	2.534	2.568
0.015	-0.010	0.005	-0.005	-0.005	0.010	0.034	2.686	2.417	2.446	2.466	2.505	2.524	2.554
0.010	-0.010	0.005	-0.005	-0.005	0.005	0.034	2.681	2.412	2.437	2.456	2.495	2.515	2.544
0.005	-0.005	0.000	0.000	-0.005	0.005	0.029	2.681	2.402	2.427	2.446	2.490	2.505	2.534
0.000	-0.005	0.000	0.000	-0.005	0.010	0.029	2.676	2.393	2.422	2.441	2.480	2.500	2.524
0.000	0.005	0.000	0.005	0.000	0.000	0.034	2.676	2.383	2.417	2.437	2.476	2.490	2.515
-0.005	0.015	-0.005	0.005	0.010	0.010	0.029	2.646	2.378	2.412	2.427	2.471	2.485	2.510
-0.010	0.010	-0.005	0.005	0.000	-0.015	0.034	2.661	2.363	2.397	2.417	2.461	2.476	2.495
-0.010	0.015	-0.005	0.005	-0.005	0.010	0.034	2.681	2.358	2.393	2.407	2.451	2.471	2.490
-0.010	0.015	0.000	0.005	0.000	0.005	0.034	2.681	2.354	2.383	2.402	2.441	2.461	2.485
-0.010	0.010	-0.005	0.000	0.000	0.000	0.034	2.671	2.349	2.373	2.393	2.432	2.451	2.476
0.000	0.005	0.000	0.000	0.000	0.005	0.029	2.681	2.344	2.363	2.388	2.427	2.441	2.471
-0.010	0.000	0.005	0.000	-0.010	0.010	0.029	2.686	2.339	2.354	2.378	2.417	2.432	2.461
-0.005	0.000	0.000	0.000	0.000	0.005	0.034	2.666	2.334	2.349	2.368	2.407	2.427	2.451
0.015	-0.005	0.000	0.000	0.000	-0.005	0.029	2.812	2.329	2.344	2.363	2.402	2.422	2.441
0.000	-0.010	0.005	-0.005	0.000	0.000	0.034	2.681	2.319	2.339	2.358	2.393	2.412	2.432
0.005	-0.010	0.005	0.000	-0.005	0.010	0.034	2.661	2.310	2.334	2.349	2.383	2.402	2.427
0.005	-0.015	0.005	-0.005	0.000	-0.010	0.029	2.671	2.305	2.319	2.339	2.378	2.393	2.412
0.000	-0.005	0.005	0.005	0.000	-0.015	0.034	2.661	2.300	2.319	2.334	2.373	2.388	2.407
0.015	-0.005	0.000	0.005	0.000	0.005	0.029	2.676	2.295	2.314	2.329	2.363	2.383	2.402
0.000	-0.005	0.000	0.005	0.010	0.005	0.029	2.686	2.285	2.305	2.319	2.358	2.373	2.397
0.000	0.010	0.000	0.010	-0.005	0.005	0.029	2.627	2.271	2.300	2.314	2.349	2.363	2.388
-0.010	0.000	0.005	0.000	0.005	0.010	0.034	2.686	2.271	2.290	2.310	2.344	2.358	2.383
0.000	0.015	-0.005	0.005	0.000	0.005	0.034	2.681	2.271	2.290	2.300	2.339	2.354	2.373
0.000	0.010	0.000	0.005	0.005	0.005	0.029	2.676	2.266	2.285	2.300	2.334	2.349	2.368
-0.005	0.005	-0.005	0.005	-0.005	-0.010	0.034	2.676	2.261	2.280	2.290	2.324	2.339	2.358
-0.010	0.015	-0.005	0.005	0.000	-0.005	0.034	2.676	2.256	2.275	2.285	2.319	2.334	2.354
0.000	0.010	-0.005	0.005	0.000	-0.020	0.034	2.681	2.251	2.266	2.280	2.314	2.329	2.344
0.005	-0.005	0.000	0.000	0.000	-0.020	0.029	2.666	2.246	2.261	2.275	2.310	2.324	2.334
0.005	-0.015	0.000	0.000	0.000	-0.010	0.029	2.637	2.236	2.246	2.266	2.300	2.314	2.334
0.010	-0.020	0.000	-0.005	0.000	0.005	0.029	2.671	2.227	2.241	2.261	2.295	2.310	2.334
0.010	-0.015	0.000	0.005	0.000	0.015	0.034	2.681	2.227	2.241	2.256	2.290	2.300	2.329
0.000	-0.024	0.005	0.000	0.005	0.015	0.034	2.681	2.222	2.231	2.251	2.285	2.300	2.319
0.005	-0.024	0.005	-0.005	-0.005	0.010	0.034	2.676	2.217	2.227	2.241	2.275	2.290	2.310
0.000	-0.020	0.005	-0.005	0.000	0.005	0.034	2.671	2.212	2.227	2.236	2.271	2.280	2.300
0.010	-0.010	0.005	-0.005	0.000	-0.005	0.029	2.681	2.212	2.222	2.231	2.266	2.275	2.290
0.005	-0.010	0.000	0.000	0.000	0.005	0.034	2.681	2.202	2.217	2.227	2.261	2.271	2.290
0.005	0.015	0.005	0.000	-0.005	-0.010	0.029	2.788	2.217	2.227	2.227	2.256	2.266	2.280
-0.005	0.010	0.005	0.000	0.000	0.010	0.029	2.671	2.202	2.217	2.222	2.256	2.261	2.280
-0.010	0.005	0.005	0.005	0.005	-0.020	0.029	2.681	2.197	2.212	2.217	2.251	2.261	2.266
-0.010	0.010	0.000	0.005	0.005	0.000	0.029	2.686	2.187	2.207	2.212	2.246	2.256	2.271
-0.005	0.015	-0.005	0.005	0.000	0.000	0.034	2.686	2.187	2.202	2.212	2.241	2.251	2.266
-0.010	0.015	-0.010	0.005	0.010	0.005	0.034	2.671	2.183	2.197	2.207	2.236	2.246	2.261
0.000	0.000	-0.005	0.000	0.005	0.005	0.029	2.686	2.183	2.187	2.202	2.231	2.241	2.256
-0.005	0.000	-0.005	0.000	0.005	0.005	0.034	2.681	2.178	2.183	2.197	2.227	2.231	2.246
0.005	0.000	-0.010	-0.005	0.000	0.000	0.029	2.637	2.168	2.183	2.187	2.222	2.231	2.246
0.000	0.000	0.000	-0.005	-0.005	-0.005	0.029	2.681	2.163	2.178	2.187	2.217	2.222	2.236
0.000	-0.005	0.010	-0.010	0.005	0.005	0.034	2.676	2.158	2.173	2.183	2.212	2.222	2.236
-0.005	-0.005	0.010	-0.005	0.005	0.005	0.029	2.671	2.148	2.163	2.183	2.207	2.217	2.231
0.010	-0.010	0.005	-0.005	0.010	-0.020	0.034	2.676	2.153	2.158	2.173	2.202	2.212	2.217
0.000	-0.010	0.010	-0.005	0.015	0.000	0.034	2.671	2.144	2.158	2.168	2.197	2.207	2.222
0.005	-0.020	0.010	-0.005	0.005	-0.024	0.029	2.666	2.144	2.153	2.163	2.192	2.202	2.212
0.010	-0.010	0.000	-0.005	0.000	0.010	0.034	2.676	2.139	2.148	2.158	2.187	2.197	2.217
0.000	-0.005	-0.005	-0.005	0.005	0.010	0.029	2.637	2.148	2.148	2.153	2.183	2.192	2.212
-0.005	0.005	0.005	-0.005	0.005	0.005	0.029	2.676	2.144	2.153	2.158	2.183	2.187	2.197
0.000	0.029	0.000	0.000	-0.015	0.000	0.034	2.686	2.139	2.153	2.153	2.183	2.183	2.192
-0.005	0.029	-0.005	0.005	-0.020	0.005	0.029	2.671	2.129	2.148	2.153	2.178	2.178	2.192
-0.015	0.034	-0.005	0.005	0.005	0.010	0.029	2.681	2.124	2.144	2.148	2.178	2.183	2.187
0.005	0.024	-0.005	0.005	0.005	0.000	0.034	2.686	2.124	2.139	2.144	2.173	2.183	2.187
-0.010	0.005	-0.005	0.015	0.010	-0.010	0.034	2.681	2.119	2.129	2.144	2.173	2.178	2.183
0.000	0.020	-0.005	0.010	0.010	-0.005	0.034	2.686	2.119	2.129	2.134	2.168	2.178	2.183
-0.005	0.000	-0.005	0.005	0.005	0.000	0.029	2.812	2.114	2.119	2.129	2.158	2.168	2.183
0.010	-0.010	0.000	0.005	0.010	-0.005	0.029	2.671	2.109	2.114	2.124	2.153	2.163	2.178
0.005	-0.020	0.000	0.000	0.005	0.005	0.034	2.671	2.104	2.109	2.119	2.148	2.158	2.173
0.010	-0.034	0.000	0.005	0.000	0.015	0.029	2.671	2.104	2.104	2.114	2.148	2.153	2.168
0.005	-0.020	0.000	0.005	-0.005	0.010	0.029	2.676	2.100	2.104	2.114	2.144	2.148	2.158
0.010	-0.015	0.005	0.000	-0.010	0.015	0.029	2.686	2.095	2.104	2.109	2.139	2.139	2.158
0.010	0.000	0.005	-0.005	-0.024	0.005	0.034	2.681	2.095	2.109	2.109	2.134	2.134	2.148
0.005	0.020	0.005	-0.005	-0.010	0.000	0.034	2.681	2.090	2.109	2.109	2.134	2.139	2.144
0.010	0.010	0.000	0.000	0.000	-0.015	0.034	2.637	2.080	2.100	2.104	2.129	2.139	2.139
0.005	0.010	0.005	0.000	0.010	0.000	0.034	2.681	2.080	2.095	2.100	2.129	2.139	2.144
0.000	0.015	0.000	-0.005	0.000	0.005	0.034	2.686	2.080	2.090	2.100	2.124	2.129	2.139
-0.005	0.020	0.000	0.000	0.000	-0.005	0.029	2.681	2.075	2.090	2.095	2.119	2.124	2.134
-0.005	0.024	-0.005	0.005	0.005	-0.010	0.029	2.686	2.075	2.085	2.090	2.119	2.124	2.134
0.000	0.020	0.000	0.015	0.005	-0.015	0.029	2.676	2.075	2.080	2.090	2.119	2.124	2.129
0.000	0.015	-0.005	0.010	0.034	-0.010	0.029	2.671	2.070	2.080	2.085	2.114	2.129	2.129
0.000	0.020	0.000	0.005	0.020	-0.005	0.034	2.676	2.065	2.075	2.080	2.109	2.119	2.124
-0.005	0.010	-0.005	0.010	0.000	0.005	0.029	2.773	2.080	2.075	2.080	2.109	2.109	2.124
0.005	-0.005	-0.005	0.000	0.000	0.000	0.034	2.656	2.070	2.070	2.075	2.100	2.104	2.119
0.000	-0.005	0.000	0.000	-0.005	0.005	0.034	2.666	2.061	2.065	2.075	2.100	2.104	2.114
0.005	-0.010	0.000	0.000	-0.010	0.010	0.029	2.700	2.065	2.065	2.070	2.100	2.100	2.109
0.000	-0.015	0.005	0.000	-0.005	-0.005	0.034	2.681	2.056	2.061	2.070	2.095	2.100	2.104
0.005	-0.010	0.000	0.005	0.000	0.010	0.034	2.681	2.056	2.061	2.070	2.095	2.095	2.104
0.015	-0.015	0.005	0.000	-0.005	0.005	0.034	2.681	2.056	2.056	2.065	2.090	2.090	2.100
0.000	-0.020	0.000	0.000	0.000	-0.024	0.029	2.686	2.051	2.056	2.061	2.085	2.085	2.090
0.010	-0.010	0.005	0.000	0.000	-0.005	0.034	2.681	2.041	2.056	2.056	2.085	2.090	2.095
0.010	0.000	0.000	-0.005	-0.005	0.000	0.029	2.661	2.041	2.056	2.056	2.080	2.080	2.095
0.000	0.005	0.005	0.000	-0.015	0.005	0.034	2.681	2.036	2.051	2.056	2.075	2.080	2.090
0.000	0.015	0.005	0.000	-0.005	0.010	0.029	2.681	2.036	2.046	2.051	2.080	2.080	2.085
-0.005	0.005	0.000	0.000	0.010	0.005	0.034	2.681	2.036	2.041	2.046	2.075	2.080	2.085
0.000	0.005	-0.005	0.005	0.005	-0.005	0.029	2.681	2.036	2.041	2.046	2.075	2.075	2.080
-0.005	0.005	-0.005	0.010	0.000	-0.005	0.029	2.676	2.031	2.041	2.041	2.070	2.075	2.080
0.000	-0.010	0.000	0.005	-0.005	0.000	0.034	2.676	2.026	2.036	2.041	2.065	2.070	2.080
-0.005	0.005	-0.005	0.005	-0.010	0.015	0.029	2.671	2.031	2.036	2.036	2.065	2.065	2.075
0.000	0.000	0.000	0.000	-0.010	-0.010	0.034	2.676	2.031	2.031	2.036	2.061	2.061	2.065
0.005	-0.015	0.000	0.000	0.010	0.015	0.034	2.686	2.026	2.026	2.031	2.056	2.065	2.075
0.010	-0.020	0.000	0.000	0.010	-0.010	0.034	2.681	2.026	2.031	2.031	2.056	2.061	2.061
0.000	0.000	0.005	0.000	0.005	0.005	0.034	2.666	2.021	2.031	2.036	2.056	2.056	2.065
0.000	-0.005	0.000	-0.005	0.005	0.000	0.034	2.690	2.021	2.026	2.031	2.051	2.056	2.065
0.015	0.000	0.005	-0.005	-0.015	0.010	0.034	2.666	2.021	2.026	2.031	2.051	2.046	2.061
0.005	-0.005	0.005	-0.010	-0.010	0.010	0.029	2.686	2.017	2.021	2.026	2.046	2.046	2.056
0.010	0.000	0.010	-0.010	-0.005	0.010	0.029	2.681	2.017	2.021	2.021	2.046	2.051	2.051
0.005	-0.005	0.005	0.000	0.005	0.000	0.029	2.676	2.012	2.017	2.021	2.046	2.046	2.046
-0.010	0.005	0.005	-0.005	0.005	0.010	0.029	2.690	2.012	2.017	2.021	2.046	2.046	2.051
0.000	0.010	0.005	0.005	0.010	0.010	0.034	2.686	2.012	2.017	2.017	2.046	2.046	2.051
0.000	0.020	0.005	-0.005	0.015	0.005	0.029	2.690	2.012	2.017	2.017	2.041	2.046	2.046
-0.005	0.020	-0.005	-0.005	0.020	-0.005	0.029	2.671	2.007	2.017	2.017	2.036	2.041	2.046
-0.005	0.015	-0.005	-0.005	0.010	0.005	0.029	2.681	2.007	2.012	2.012	2.036	2.036	2.046
-0.005	0.024	-0.005	-0.005	-0.005	0.005	0.029	2.671	2.002	2.012	2.012	2.036	2.031	2.041
-0.010	0.010	-0.005	0.000	-0.010	-0.010	0.034	2.681	1.997	2.002	2.012	2.031	2.031	2.036
0.000	0.015	-0.005	-0.005	-0.005	-0.005	0.029	2.671	2.002	2.007	2.007	2.026	2.031	2.036
0.000	-0.005	-0.005	-0.005	-0.005	-0.005	0.034	2.676	1.992	1.997	2.007	2.026	2.026	2.031
0.000	-0.020	0.000	-0.005	0.000	-0.010	0.034	2.671	1.992	1.992	2.002	2.026	2.026	2.031
-0.005	-0.015	0.000	-0.005	0.010	0.005	0.034	2.671	1.992	1.992	1.997	2.026	2.026	2.036
0.010	-0.029	-0.005	-0.005	0.005	0.000	0.034	2.676	1.992	1.987	1.997	2.021	2.021	2.026
0.005	-0.024	0.005	-0.005	0.000	0.000	0.034	2.676	1.992	1.992	1.997	2.017	2.021	2.026
0.000	-0.010	0.000	-0.010	-0.015	0.000	0.029	2.681	1.992	1.997	1.992	2.017	2.017	2.026
0.005	0.015	0.005	-0.010	-0.010	0.000	0.029	2.686	1.992	2.002	1.992	2.017	2.012	2.021
0.015	0.020	0.005	-0.005	0.005	0.010	0.029	2.681	1.992	1.997	1.997	2.017	2.017	2.021
0.005	0.015	0.005	-0.010	0.015	0.000	0.029	2.681	1.987	1.992	1.992	2.017	2.017	2.017
0.000	0.020	0.000	-0.005	0.015	-0.005	0.034	2.686	1.982	1.992	1.992	2.017	2.017	2.017
0.005	0.015	0.005	0.000	0.010	0.010	0.034	2.686	1.987	1.987	1.992	2.017	2.017	2.021
-0.010	0.015	0.005	0.010	0.015	0.005	0.034	2.681	1.982	1.982	1.992	2.017	2.017	2.017
-0.010	0.005	0.000	0.005	0.020	0.005	0.034	2.676	1.982	1.982	1.987	2.012	2.012	2.017
-0.010	0.020	-0.005	0.005	0.015	0.000	0.029	2.686	1.982	1.987	1.987	2.012	2.012	2.017
-0.020	0.020	-0.005	0.010	0.010	0.000	0.034	2.686	1.978	1.982	1.987	2.012	2.007	2.012
-0.010	0.010	-0.005	0.015	0.000	-0.010	0.034	2.676	1.982	1.982	1.982	2.012	2.007	2.007
-0.005	0.005	0.000	0.010	0.005	-0.005	0.034	2.661	1.978	1.982	1.982	2.007	2.007	2.012
-0.010	0.005	0.000	0.010	0.015	-0.034	0.034	2.686	1.978	1.978	1.978	2.007	2.007	1.997
0.005	0.000	-0.005	0.010	0.005	-0.024	0.034	2.671	1.982	1.978	1.978	2.002	2.002	2.007
0.000	-0.005	0.000	0.015	0.005	-0.005	0.034	2.671	1.973	1.973	1.978	2.002	2.002	2.012
0.020	-0.020	0.005	0.010	0.010	-0.029	0.034	2.686	1.978	1.973	1.973	1.997	2.002	2.002
0.005	-0.015	0.000	0.010	0.015	-0.010	0.029	2.676	1.973	1.968	1.973	1.997	1.997	2.002
0.015	-0.020	0.005	0.005	0.010	-0.024	0.029	2.656	1.968	1.973	1.973	1.992	1.992	1.992
0.010	-0.020	0.010	0.005	-0.005	-0.024	0.029	2.681	1.968	1.973	1.973	1.992	1.992	1.997
0.010	-0.020	0.005	0.010	-0.015	-0.005	0.029	2.656	1.963	1.968	1.968	1.992	1.987	1.997
0.000	0.000	0.000	0.005	-0.020	0.000	0.029	2.686	1.963	1.968	1.968	1.987	1.987	1.992
0.000	0.000	0.000	0.010	-0.015	0.010	0.034	2.690	1.963	1.968	1.968	1.992	1.987	1.997
0.000	0.005	-0.005	0.010	0.010	0.015	0.034	2.681	1.963	1.968	1.968	1.987	1.992	2.002
-0.015	0.005	-0.005	0.015	0.034	0.000	0.029	2.686	1.963	1.968	1.968	1.987	1.992	1.997
0.000	0.010	-0.005	0.015	0.010	0.020	0.034	2.681	1.963	1.968	1.968	1.992	1.987	1.997
-0.010	0.005	0.000	0.015	-0.005	0.024	0.029	2.676	1.958	1.963	1.968	1.987	1.982	1.992
-0.005	0.005	0.000	0.010	-0.015	0.005	0.034	2.686	1.963	1.963	1.968	1.987	1.978	1.987
0.000	0.010	0.000	0.005	-0.015	0.024	0.029	2.676	1.963	1.963	1.963	1.987	1.982	1.987
0.000	-0.005	-0.005	0.005	-0.015	0.010	0.029	2.676	1.958	1.958	1.963	1.982	1.978	1.982
0.000	0.000	0.005	0.000	-0.024	0.020	0.029	2.686	1.963	1.963	1.963	1.982	1.978	1.982
0.005	-0.010	0.000	0.005	-0.015	0.024	0.029	2.666	1.958	1.958	1.958	1.982	1.978	1.982
0.000	-0.015	0.005	0.005	-0.010	0.015	0.034	2.681	1.958	1.953	1.958	1.982	1.978	1.978
0.005	-0.015	0.010	0.000	-0.010	0.005	0.029	2.676	1.958	1.958	1.958	1.978	1.978	1.978
0.005	-0.010	0.005	0.005	-0.005	0.005	0.034	2.661	1.953	1.958	1.953	1.978	1.982	1.978
0.010	-0.005	0.000	-0.005	-0.005	0.005	0.034	2.671	1.948	1.953	1.953	1.973	1.978	1.973
0.010	-0.010	0.000	0.000	0.000	0.015	0.034	2.681	1.948	1.953	1.953	1.973	1.978	1.978
-0.005	-0.005	0.005	-0.005	0.000	0.010	0.029	2.690	1.948	1.948	1.953	1.973	1.973	1.978
0.000	-0.010	0.005	0.000	0.000	-0.005	0.029	2.681	1.948	1.948	1.953	1.973	1.973	1.973
0.000	-0.005	0.000	0.000	0.005	0.000	0.034	2.686	1.948	1.948	1.948	1.973	1.973	1.973
-0.005	-0.005	0.000	0.000	-0.005	-0.005	0.029	2.681	1.948	1.948	1.948	1.973	1.968	1.968
0.000	0.005	-0.005	0.000	0.000	-0.020	0.029	2.676	1.948	1.953	1.948	1.968	1.968	1.968
-0.010	0.005	-0.005	0.000	0.005	0.000	0.034	2.681	1.943	1.948	1.948	1.968	1.973	1.968
-0.015	0.015	-0.005	-0.005	0.005	-0.005	0.029	2.676	1.948	1.953	1.948	1.968	1.968	1.968
0.000	0.015	0.000	0.000	-0.005	0.005	0.034	2.686	1.948	1.953	1.948	1.968	1.963	1.973
-0.005	0.015	-0.005	0.000	-0.010	-0.024	0.034	2.676	1.943	1.948	1.948	1.968	1.963	1.963
-0.005	0.005	-0.005	0.000	-0.010	-0.005	0.034	2.676	1.948	1.948	1.943	1.968	1.963	1.968
0.000	0.000	0.000	0.005	-0.015	0.015	0.034	2.676	1.943	1.948	1.948	1.968	1.963	1.968
-0.005	0.005	0.000	0.000	-0.010	0.010	0.029	2.681	1.943	1.943	1.943	1.968	1.963	1.968
0.010	-0.015	0.005	-0.005	-0.010	-0.005	0.029	2.666	1.943	1.938	1.943	1.963	1.963	1.963
0.000	-0.020	0.010	-0.005	0.000	0.005	0.034	2.681	1.938	1.938	1.943	1.963	1.963	1.963
0.005	-0.010	0.010	-0.010	0.015	0.000	0.029	2.690	1.938	1.938	1.938	1.963	1.968	1.963
0.010	-0.020	0.010	-0.010	0.015	0.000	0.029	2.681	1.943	1.938	1.938	1.963	1.963	1.963
0.005	-0.020	0.005	-0.005	0.020	0.010	0.029	2.686	1.943	1.938	1.938	1.963	1.963	1.968
0.010	-0.005	0.000	-0.005	0.020	0.005	0.034	2.681	1.938	1.943	1.938	1.963	1.963	1.963
0.000	0.000	0.000	0.000	0.024	-0.005	0.034	2.676	1.934	1.943	1.938	1.963	1.963	1.958
0.005	0.005	0.000	0.005	0.015	0.010	0.034	2.681	1.938	1.943	1.938	1.958	1.958	1.963
0.005	0.010	-0.005	0.005	0.005	0.005	0.034	2.681	1.938	1.943	1.934	1.958	1.958	1.958
0.005	0.010	0.000	0.005	0.005	0.010	0.029	2.681	1.938	1.943	1.943	1.958	1.953	1.958
-0.010	0.024	-0.005	0.010	0.000	0.010	0.034	2.681	1.938	1.943	1.938	1.958	1.953	1.958
-0.005	0.010	-0.010	0.005	0.000	0.005	0.034	2.686	1.934	1.938	1.938	1.958	1.953	1.953
-0.005	0.005	0.000	0.005	-0.005	0.010	0.029	2.661	1.934	1.938	1.938	1.958	1.958	1.958
-0.005	0.005	0.000	0.005	0.000	0.005	0.029	2.695	1.938	1.934	1.938	1.958	1.953	1.953
-0.005	0.005	0.000	0.010	0.000	0.005	0.029	2.690	1.938	1.934	1.938	1.958	1.953	1.958
0.000	0.010	0.005	0.000	0.005	-0.020	0.034	2.686	1.938	1.934	1.938	1.953	1.953	1.948
0.000	-0.005	0.005	-0.005	0.000	0.000	0.034	2.676	1.934	1.929	1.934	1.953	1.948	1.953
0.005	0.000	0.005	-0.010	0.000	-0.024	0.029	2.671	1.938	1.934	1.934	1.953	1.948	1.948
0.005	-0.005	0.010	-0.005	0.000	0.000	0.034	2.676	1.934	1.934	1.934	1.953	1.948	1.953
0.005	-0.015	0.010	-0.005	-0.005	0.010	0.034	2.686	1.934	1.929	1.934	1.948	1.948	1.953
0.015	-0.015	0.010	0.000	0.000	0.005	0.029	2.661	1.934	1.934	1.934	1.953	1.948	1.948
0.005	-0.005	0.000	-0.005	0.000	0.005	0.034	2.686	1.929	1.934	1.929	1.948	1.948	1.948
0.000	0.000	-0.005	0.000	0.005	-0.005	0.029	2.686	1.929	1.929	1.929	1.948	1.948	1.943
0.005	-0.010	0.000	0.000	0.000	0.005	0.029	2.676	1.929	1.929	1.929	1.948	1.948	1.948
-0.005	0.005	0.000	0.000	0.005	0.010	0.029	2.700	1.929	1.934	1.929	1.948	1.948	1.948
0.000	0.010	0.000	0.000	-0.005	0.005	0.029	2.690	1.929	1.934	1.929	1.953	1.948	1.948
-0.005	0.010	-0.005	0.000	0.000	-0.010	0.034	2.686	1.929	1.929	1.929	1.948	1.943	1.943
-0.005	0.005	-0.005	0.000	0.000	0.005	0.034	2.686	1.929	1.929	1.929	1.948	1.948	1.948
-0.010	0.005	-0.010	0.005	0.000	0.000	0.034	2.686	1.929	1.929	1.929	1.948	1.943	1.943
-0.005	-0.005	0.000	0.010	0.000	0.000	0.034	2.676	1.929	1.924	1.929	1.948	1.948	1.948
-0.010	-0.015	-0.005	0.005	0.000	0.005	0.029	2.690	1.929	1.924	1.924	1.943	1.943	1.948
-0.005	-0.015	-0.005	-0.005	0.000	0.005	0.029	2.681	1.929	1.924	1.924	1.943	1.938	1.948
0.005	-0.010	0.000	0.000	0.000	0.005	0.029	2.681	1.929	1.924	1.924	1.943	1.943	1.943
0.005	-0.010	0.005	-0.005	0.005	0.000	0.029	2.681	1.929	1.924	1.924	1.943	1.943	1.943
0.015	-0.020	0.005	-0.005	0.000	-0.005	0.034	2.686	1.929	1.924	1.924	1.943	1.938	1.943
0.005	0.005	0.005	-0.005	0.005	0.005	0.034	2.690	1.929	1.929	1.924	1.943	1.938	1.943
0.010	0.000	0.005	-0.005	0.000	0.005	0.034	2.676	1.924	1.929	1.924	1.943	1.938	1.943
0.000	0.010	0.005	-0.005	0.000	0.000	0.034	2.681	1.924	1.924	1.924	1.943	1.938	1.938
-0.005	0.010	0.010	-0.005	0.000	-0.005	0.029	2.671	1.919	1.924	1.929	1.943	1.938	1.938
0.000	-0.005	0.005	0.000	0.000	-0.005	0.029	2.676	1.919	1.919	1.919	1.943	1.938	1.938
-0.005	0.005	0.005	0.000	0.005	0.000	0.029	2.671	1.919	1.919	1.919	1.943	1.938	1.943
0.000	0.000	0.000	0.010	0.005	0.000	0.029	2.676	1.919	1.919	1.919	1.943	1.938	1.943
0.000	0.015	0.000	0.005	-0.005	0.005	0.034	2.666	1.919	1.924	1.919	1.943	1.938	1.943
-0.005	0.015	-0.005	0.010	0.005	0.015	0.034	2.676	1.919	1.924	1.919	1.938	1.938	1.943
-0.010	0.010	-0.010	0.005	0.000	0.010	0.034	2.676	1.919	1.919	1.919	1.938	1.938	1.938
0.000	0.010	-0.005	0.005	0.000	-0.010	0.034	2.671	1.924	1.924	1.919	1.938	1.934	1.934
-0.015	0.015	-0.005	0.005	0.000	0.015	0.029	2.686	1.919	1.919	1.919	1.938	1.938	1.943
0.000	0.010	0.000	0.005	0.000	0.005	0.034	2.661	1.919	1.919	1.919	1.938	1.934	1.938
0.015	-0.005	0.000	0.000	-0.005	0.005	0.034	2.676	1.919	1.919	1.919	1.938	1.934	1.938
0.005	0.010	0.000	0.000	0.000	-0.005	0.029	2.686	1.919	1.919	1.919	1.934	1.934	1.934
0.015	0.015	0.005	-0.005	0.005	-0.020	0.034	2.676	1.924	1.924	1.919	1.934	1.934	1.929
0.005	0.000	0.010	-0.005	0.000	0.000	0.029	2.681	1.919	1.914	1.919	1.938	1.934	1.938
0.005	-0.015	0.005	-0.005	0.005	-0.010	0.034	2.686	1.919	1.909	1.914	1.938	1.934	1.934
0.000	-0.015	0.005	0.000	0.005	-0.010	0.034	2.656	1.914	1.909	1.914	1.934	1.934	1.929
0.010	-0.010	0.005	0.000	0.000	-0.015	0.034	2.676	1.914	1.914	1.914	1.934	1.929	1.934
0.005	0.000	0.005	0.000	-0.005	0.005	0.034	2.686	1.919	1.914	1.914	1.934	1.929	1.934
-0.015	0.010	-0.005	0.005	0.005	0.010	0.034	2.676	1.909	1.914	1.909	1.934	1.929	1.934
-0.010	0.000	0.005	0.000	-0.005	0.010	0.029	2.676	1.914	1.909	1.914	1.934	1.929	1.934
-0.005	0.000	0.000	0.005	0.000	0.020	0.034	2.651	1.914	1.909	1.909	1.934	1.929	1.934
-0.005	0.005	0.000	0.010	0.000	0.010	0.029	2.661	1.914	1.914	1.909	1.934	1.929	1.934
-0.005	0.029	0.000	0.015	-0.005	0.020	0.029	2.808	1.929	1.924	1.914	1.934	1.929	1.934
-0.005	0.024	-0.005	0.005	0.000	0.010	0.034	2.661	1.919	1.919	1.914	1.934	1.929	1.929
-0.005	0.020	-0.005	0.005	0.005	0.015	0.029	2.671	1.919	1.924	1.919	1.934	1.934	1.934
-0.005	0.010	0.000	0.005	0.010	-0.005	0.034	2.651	1.914	1.914	1.919	1.934	1.929	1.929
0.015	0.005	0.005	0.005	0.000	0.000	0.034	2.661	1.914	1.914	1.914	1.934	1.929	1.929
0.010	0.000	0.000	0.005	0.005	-0.010	0.034	2.642	1.909	1.909	1.914	1.934	1.929	1.929
0.015	0.000	0.000	0.000	-0.005	-0.015	0.034	2.646	1.909	1.909	1.914	1.934	1.924	1.924
0.015	-0.005	0.005	0.000	0.000	-0.005	0.034	2.710	1.909	1.904	1.909	1.929	1.929	1.929
0.010	0.000	0.000	0.000	0.000	0.000	0.034	2.656	1.909	1.909	1.909	1.929	1.929	1.929
0.005	-0.010	0.005	0.000	0.005	-0.005	0.034	2.651	1.904	1.904	1.909	1.929	1.929	1.929
0.005	-0.010	0.010	-0.005	0.015	-0.015	0.034	2.832	1.924	1.904	1.909	1.929	1.929	1.924
0.005	-0.005	0.010	-0.005	0.000	-0.020	0.034	2.671	1.919	1.909	1.909	1.924	1.919	1.924
0.005	-0.015	0.005	0.000	0.000	0.005	0.029	2.666	1.914	1.909	1.909	1.924	1.924	1.929
0.000	0.000	0.000	0.000	-0.010	0.000	0.034	2.656	1.909	1.914	1.904	1.924	1.919	1.924
-0.005	0.005	0.000	0.005	-0.029	0.010	0.034	2.676	1.909	1.914	1.909	1.929	1.914	1.924
-0.005	0.000	-0.005	0.000	-0.005	0.005	0.029	2.666	1.909	1.909	1.909	1.924	1.924	1.924
-0.010	0.010	-0.010	0.005	0.010	0.005	0.034	2.661	1.904	1.914	1.909	1.929	1.929	1.924
-0.010	0.015	-0.005	0.010	0.005	-0.005	0.029	2.661	1.904	1.909	1.909	1.929	1.924	1.924
-0.005	0.010	-0.005	0.000	0.005	0.010	0.034	2.661	1.909	1.909	1.909	1.924	1.924	1.924
-0.005	0.010	-0.010	0.000	0.005	0.005	0.029	2.642	1.904	1.909	1.909	1.924	1.924	1.929
0.000	0.005	-0.005	0.000	-0.005	0.010	0.034	2.627	1.899	1.904	1.909	1.924	1.924	1.924
-0.005	0.005	0.005	0.000	0.000	0.010	0.029	2.681	1.899	1.904	1.909	1.924	1.919	1.929
-0.005	-0.010	0.005	0.000	0.024	-0.010	0.029	2.817	1.924	1.899	1.904	1.929	1.929	1.924
0.005	-0.005	0.005	0.000	0.010	-0.005	0.034	2.627	1.909	1.909	1.904	1.924	1.919	1.924
0.000	-0.010	0.005	-0.005	0.005	-0.010	0.029	2.827	1.924	1.909	1.904	1.924	1.919	1.919
0.010	-0.020	0.005	0.005	0.000	0.000	0.034	2.686	1.924	1.909	1.904	1.924	1.924	1.924
0.015	-0.024	0.005	0.005	-0.015	0.000	0.034	2.681	1.919	1.909	1.909	1.924	1.914	1.924
0.010	-0.024	0.005	-0.005	-0.039	0.000	0.034	2.666	1.909	1.909	1.904	1.919	1.909	1.914
0.005	-0.024	0.000	0.000	-0.020	-0.005	0.029	2.671	1.909	1.909	1.904	1.924	1.919	1.914
0.005	-0.020	0.000	0.005	0.020	0.005	0.029	2.666	1.904	1.909	1.909	1.924	1.934	1.919
0.005	-0.010	0.000	0.005	0.044	-0.005	0.034	2.671	1.904	1.909	1.904	1.929	1.934	1.924
-0.010	-0.015	0.000	0.000	0.020	-0.005	0.034	2.671	1.899	1.909	1.904	1.924	1.924	1.924
-0.005	0.000	-0.005	0.000	0.015	-0.020	0.034	2.651	1.899	1.909	1.904	1.924	1.919	1.914
-0.010	0.005	-0.005	0.000	0.000	0.010	0.034	2.651	1.899	1.904	1.904	1.924	1.919	1.919
-0.010	0.015	-0.005	0.000	-0.005	0.010	0.029	2.646	1.899	1.904	1.904	1.924	1.919	1.924
-0.005	0.010	-0.005	0.005	-0.005	-0.005	0.029	2.666	1.899	1.904	1.904	1.924	1.919	1.919
-0.005	0.010	-0.005	0.005	0.005	0.020	0.034	2.651	1.919	1.904	1.904	1.924	1.919	1.924
-0.005	-0.005	-0.005	0.005	-0.015	0.010	0.029	2.627	1.909	1.909	1.904	1.924	1.919	1.924
-0.005	-0.005	0.000	0.000	0.015	0.005	0.034	2.656	1.909	1.904	1.904	1.924	1.924	1.924
0.005	-0.005	0.005	-0.005	0.005	0.010	0.034	2.666	1.909	1.909	1.909	1.919	1.919	1.919
-0.005	-0.010	0.005	-0.010	0.000	-0.005	0.034	2.671	1.904	1.904	1.909	1.919	1.914	1.919
0.000	-0.010	0.000	-0.005	0.005	-0.005	0.034	2.661	1.904	1.904	1.904	1.919	1.919	1.919
0.005	-0.015	0.010	-0.005	0.005	0.005	0.034	2.651	1.899	1.904	1.904	1.924	1.919	1.919
0.000	0.000	0.005	-0.005	0.010	0.005	0.029	2.676	1.899	1.904	1.904	1.924	1.919	1.919
0.005	-0.005	0.005	-0.005	-0.005	-0.020	0.034	2.671	1.904	1.899	1.904	1.924	1.914	1.914
0.005	-0.005	0.000	-0.005	-0.005	-0.005	0.029	2.656	1.899	1.899	1.899	1.919	1.914	1.914
0.000	0.000	0.000	0.005	-0.005	0.010	0.029	2.666	1.895	1.904	1.904	1.924	1.914	1.919
-0.005	0.005	0.000	0.005	-0.005	-0.005	0.034	2.656	1.895	1.899	1.899	1.924	1.914	1.914
-0.005	0.010	0.000	0.005	-0.005	0.000	0.029	2.642	1.895	1.899	1.899	1.919	1.914	1.919
0.000	0.015	0.000	0.015	0.000	0.005	0.034	2.661	1.899	1.899	1.899	1.924	1.919	1.919
-0.010	0.015	-0.005	0.015	0.000	0.010	0.034	2.812	1.914	1.904	1.899	1.924	1.919	1.919
-0.015	0.010	0.000	0.005	-0.005	0.010	0.034	2.651	1.904	1.904	1.899	1.919	1.914	1.919
-0.010	0.005	0.005	0.000	0.000	0.000	0.034	2.822	1.924	1.904	1.899	1.919	1.914	1.919
-0.005	0.005	0.000	0.005	0.005	0.015	0.034	2.671	1.914	1.909	1.904	1.919	1.919	1.924
-0.005	0.010	0.000	0.000	0.005	0.005	0.034	2.676	1.914	1.909	1.904	1.919	1.919	1.919
0.005	0.010	0.000	0.000	0.015	-0.010	0.034	2.686	1.914	1.909	1.904	1.919	1.919	1.914
0.005	0.000	-0.005	0.000	0.010	0.000	0.029	2.666	1.904	1.904	1.904	1.919	1.914	1.914
0.010	-0.010	0.000	-0.005	0.000	0.000	0.029	2.676	1.909	1.904	1.904	1.924	1.914	1.914
0.005	-0.010	0.010	0.000	0.000	0.000	0.029	2.671	1.904	1.904	1.904	1.919	1.914	1.914
0.005	0.015	0.005	0.000	-0.005	-0.005	0.029	2.661	1.899	1.909	1.904	1.924	1.914	1.914
0.015	0.015	0.005	0.000	-0.015	-0.015	0.034	2.661	1.899	1.904	1.909	1.919	1.914	1.909
0.005	0.015	0.000	-0.005	-0.010	-0.010	0.034	2.646	1.895	1.899	1.904	1.919	1.914	1.914
0.005	0.005	0.005	-0.005	-0.005	-0.010	0.034	2.646	1.890	1.895	1.904	1.924	1.914	1.914
0.000	0.005	0.005	0.000	0.010	-0.005	0.034	2.686	1.895	1.895	1.899	1.924	1.919	1.919
0.005	0.005	0.000	0.000	0.015	0.000	0.034	2.637	1.890	1.895	1.895	1.919	1.919	1.924
-0.005	0.010	0.000	0.005	0.000	0.005	0.034	2.656	1.890	1.890	1.895	1.919	1.914	1.919
-0.010	0.015	-0.005	0.005	-0.010	0.000	0.034	2.646	1.890	1.895	1.895	1.919	1.909	1.914
-0.005	0.024	-0.005	0.005	-0.010	0.000	0.034	2.666	1.895	1.899	1.895	1.919	1.909	1.919
0.005	0.034	-0.010	0.010	-0.005	0.000	0.029	2.671	1.899	1.899	1.895	1.919	1.914	1.914
0.000	0.029	-0.010	0.010	0.000	0.010	0.029	2.676	1.899	1.895	1.895	1.914	1.914	1.914
-0.005	0.020	-0.005	0.015	0.024	0.010	0.034	2.686	1.904	1.895	1.895	1.919	1.919	1.919
-0.005	0.010	0.000	0.010	-0.005	-0.005	0.034	2.681	1.899	1.895	1.895	1.914	1.909	1.909
0.005	0.005	0.000	0.010	0.000	0.010	0.034	2.690	1.904	1.895	1.895	1.914	1.914	1.914
0.000	-0.005	0.005	0.000	0.000	0.010	0.034	2.666	1.904	1.890	1.895	1.914	1.909	1.914
0.010	-0.010	0.005	-0.005	0.015	-0.024	0.034	2.656	1.899	1.890	1.895	1.909	1.914	1.904
0.005	-0.010	0.005	-0.005	0.020	0.005	0.029	2.651	1.895	1.895	1.895	1.909	1.914	1.914
0.010	-0.010	0.010	-0.010	0.005	0.020	0.029	2.646	1.895	1.895	1.890	1.909	1.904	1.909
0.005	0.000	0.005	0.000	-0.010	0.010	0.029	2.651	1.895	1.895	1.890	1.909	1.904	1.909
0.010	-0.005	0.000	-0.005	0.000	0.005	0.034	2.637	1.904	1.895	1.895	1.909	1.904	1.909
0.005	0.005	-0.005	-0.005	-0.010	0.005	0.034	2.642	1.899	1.899	1.895	1.909	1.904	1.904
-0.010	0.010	0.000	-0.005	0.005	0.005	0.034	2.822	1.909	1.899	1.895	1.914	1.909	1.909
-0.005	0.005	-0.005	0.000	0.020	-0.010	0.029	2.671	1.909	1.904	1.899	1.914	1.909	1.904
0.005	0.015	0.000	0.000	0.034	0.005	0.029	2.671	1.904	1.909	1.899	1.914	1.919	1.914
-0.005	0.024	0.000	0.005	0.034	-0.010	0.029	2.666	1.904	1.909	1.904	1.919	1.914	1.909
-0.010	0.010	-0.005	0.005	0.000	-0.005	0.034	2.681	1.899	1.899	1.899	1.919	1.904	1.909
-0.005	0.005	-0.005	0.005	-0.020	-0.005	0.034	2.671	1.899	1.899	1.899	1.914	1.904	1.909
-0.010	0.015	0.000	0.005	-0.020	0.010	0.029	2.676	1.899	1.899	1.899	1.919	1.909	1.909
0.000	-0.005	0.005	0.000	-0.005	0.000	0.029	2.661	1.895	1.895	1.899	1.919	1.909	1.909
-0.005	-0.005	0.005	0.000	0.010	-0.010	0.034	2.666	1.895	1.895	1.895	1.919	1.914	1.909
0.000	-0.024	0.000	0.000	0.005	-0.005	0.029	2.646	1.895	1.890	1.895	1.914	1.914	1.909
0.005	-0.015	0.010	0.000	-0.005	0.000	0.034	2.661	1.899	1.895	1.895	1.919	1.909	1.914
0.010	-0.015	0.005	-0.005	-0.005	0.010	0.034	2.656	1.890	1.895	1.890	1.909	1.909	1.914
0.000	-0.010	0.000	-0.010	-0.005	0.010	0.034	2.803	1.904	1.890	1.890	1.909	1.904	1.909
0.010	0.000	0.010	-0.005	-0.020	-0.005	0.029	2.632	1.899	1.899	1.895	1.914	1.904	1.904
0.015	-0.015	0.005	-0.005	-0.020	0.005	0.029	2.817	1.919	1.899	1.895	1.914	1.909	1.909
0.005	-0.010	0.005	-0.005	-0.005	-0.005	0.034	2.856	1.929	1.904	1.895	1.909	1.909	1.909
0.000	0.000	-0.005	0.000	-0.010	0.010	0.029	2.676	1.919	1.914	1.899	1.914	1.909	1.909
-0.005	0.010	0.000	-0.005	-0.005	0.000	0.029	2.671	1.909	1.914	1.899	1.914	1.909	1.904
-0.005	0.015	-0.005	-0.005	-0.005	-0.005	0.034	2.651	1.904	1.909	1.904	1.919	1.909	1.909
-0.010	0.020	0.000	0.000	-0.005	0.010	0.029	2.686	1.899	1.909	1.909	1.919	1.914	1.914
-0.010	0.005	0.000	0.005	0.015	0.015	0.034	2.812	1.919	1.904	1.904	1.924	1.924	1.914
-0.010	0.015	-0.010	0.005	0.010	0.000	0.029	2.637	1.904	1.904	1.904	1.924	1.919	1.914
-0.005	0.010	-0.005	0.000	0.005	0.010	0.034	2.832	1.924	1.909	1.909	1.924	1.914	1.919
-0.005	0.005	0.000	0.005	0.010	0.005	0.034	2.651	1.914	1.909	1.909	1.924	1.919	1.919
-0.005	-0.005	0.000	0.000	-0.005	-0.005	0.029	2.666	1.904	1.904	1.909	1.924	1.914	1.914
-0.005	0.010	0.005	0.000	0.000	-0.015	0.029	2.637	1.899	1.904	1.909	1.924	1.919	1.914
0.000	-0.005	0.010	0.000	0.005	-0.020	0.029	2.656	1.899	1.899	1.909	1.924	1.919	1.914
0.005	-0.024	0.010	0.000	0.005	-0.020	0.034	2.773	1.909	1.899	1.899	1.924	1.919	1.909
0.010	-0.015	0.010	-0.005	0.010	-0.005	0.034	2.642	1.899	1.899	1.899	1.919	1.919	1.919
0.015	-0.015	0.005	-0.005	0.005	-0.005	0.034	2.817	1.924	1.904	1.899	1.919	1.919	1.919
0.015	-0.024	0.005	0.000	-0.005	0.000	0.034	2.646	1.909	1.904	1.899	1.919	1.914	1.919
0.010	-0.015	0.005	0.000	-0.015	-0.020	0.034	2.646	1.899	1.904	1.899	1.919	1.909	1.909
0.005	-0.015	0.000	0.005	-0.010	0.005	0.034	2.651	1.895	1.899	1.899	1.919	1.914	1.919
0.000	-0.015	0.000	0.000	-0.005	0.010	0.029	2.651	1.890	1.895	1.899	1.919	1.914	1.919
0.010	-0.010	0.000	0.005	0.005	0.015	0.034	2.681	1.895	1.899	1.895	1.919	1.919	1.919
-0.005	-0.005	0.005	0.005	0.000	0.010	0.029	2.686	1.895	1.899	1.899	1.919	1.919	1.919
-0.010	0.010	0.000	0.005	0.000	0.000	0.029	2.627	1.890	1.899	1.899	1.919	1.914	1.914
-0.005	0.024	-0.005	0.005	0.010	0.000	0.029	2.671	1.890	1.899	1.899	1.919	1.919	1.914
-0.005	0.029	0.000	0.005	0.005	-0.005	0.029	2.671	1.895	1.899	1.899	1.919	1.914	1.909
-0.024	0.020	0.000	0.005	0.005	0.010	0.034	2.681	1.890	1.895	1.895	1.919	1.914	1.919
-0.005	0.015	-0.005	0.010	0.000	-0.005	0.029	2.676	1.899	1.895	1.895	1.914	1.914	1.914
0.005	0.010	-0.005	0.000	0.010	0.010	0.029	2.676	1.899	1.895	1.895	1.914	1.914	1.919
0.015	0.005	0.000	0.005	0.005	0.005	0.034	2.671	1.904	1.899	1.895	1.914	1.914	1.914
0.010	-0.005	0.000	0.000	0.005	0.015	0.029	2.632	1.895	1.890	1.890	1.909	1.909	1.914
0.005	-0.010	0.005	-0.005	0.010	0.005	0.034	2.812	1.909	1.895	1.890	1.909	1.909	1.914
0.010	-0.010	0.005	-0.005	0.000	-0.005	0.034	2.842	1.929	1.899	1.895	1.909	1.909	1.909
0.015	-0.024	0.000	-0.005	0.000	0.005	0.034	2.666	1.914	1.899	1.895	1.909	1.909	1.909
0.005	-0.034	0.000	0.005	-0.010	-0.015	0.034	2.661	1.904	1.899	1.895	1.909	1.904	1.899
0.005	-0.020	0.005	0.000	0.000	-0.005	0.034	2.637	1.899	1.904	1.899	1.914	1.909	1.909
0.010	-0.020	0.005	0.005	0.015	0.005	0.034	2.666	1.899	1.904	1.899	1.914	1.909	1.909
0.000	-0.005	0.005	0.005	0.015	0.010	0.034	2.642	1.890	1.904	1.899	1.914	1.909	1.909
0.000	0.000	0.010	0.000	0.000	-0.005	0.034	2.651	1.890	1.899	1.899	1.919	1.904	1.904
-0.010	0.005	0.005	0.005	-0.024	-0.005	0.029	2.822	1.909	1.904	1.899	1.919	1.904	1.904
-0.010	0.005	0.000	0.005	-0.015	-0.020	0.029	2.681	1.904	1.904	1.899	1.919	1.909	1.904
-0.010	0.015	-0.005	0.005	0.000	-0.005	0.029	2.686	1.899	1.904	1.899	1.919	1.914	1.909
-0.010	0.005	-0.010	0.000	0.005	0.000	0.029	2.681	1.904	1.904	1.899	1.919	1.914	1.914
-0.005	0.020	0.000	0.000	0.000	0.005	0.029	2.686	1.904	1.909	1.904	1.919	1.914	1.914
0.000	0.029	0.000	0.000	0.000	0.005	0.029	2.744	1.909	1.904	1.904	1.919	1.914	1.914
-0.005	0.000	-0.005	-0.005	0.000	0.015	0.029	2.637	1.904	1.899	1.899	1.919	1.914	1.919
0.010	-0.005	0.000	-0.005	0.020	-0.020	0.034	2.671	1.904	1.899	1.899	1.919	1.919	1.909
0.005	-0.015	0.005	-0.005	0.020	0.020	0.034	2.646	1.895	1.895	1.895	1.914	1.919	1.924
0.000	-0.024	0.010	-0.005	-0.005	0.015	0.029	2.729	1.904	1.895	1.895	1.919	1.909	1.914
0.005	-0.010	0.005	-0.005	-0.005	0.005	0.034	2.720	1.904	1.899	1.895	1.914	1.909	1.909
0.010	-0.015	0.000	-0.005	0.000	0.010	0.034	2.642	1.899	1.899	1.899	1.914	1.909	1.914
0.010	-0.015	0.005	-0.005	0.010	-0.024	0.029	2.681	1.899	1.899	1.899	1.914	1.914	1.904
0.005	0.005	0.005	0.010	0.010	-0.005	0.029	2.690	1.899	1.899	1.899	1.919	1.914	1.914
0.000	0.010	0.000	0.000	0.005	-0.010	0.029	2.666	1.895	1.904	1.899	1.914	1.909	1.904
-0.005	0.000	0.000	0.000	-0.005	-0.005	0.034	2.661	1.890	1.895	1.895	1.914	1.909	1.909
-0.010	0.005	-0.005	0.005	-0.005	0.005	0.034	2.690	1.895	1.895	1.895	1.919	1.909	1.914
-0.005	0.015	-0.005	0.005	-0.005	-0.005	0.029	2.676	1.899	1.899	1.895	1.914	1.909	1.909
-0.010	0.015	0.000	0.005	0.000	0.000	0.034	2.676	1.899	1.899	1.895	1.914	1.914	1.914
-0.015	0.020	-0.005	0.015	0.005	-0.005	0.034	2.671	1.899	1.899	1.899	1.919	1.914	1.914
0.000	0.020	-0.005	0.005	-0.005	0.015	0.034	2.671	1.899	1.899	1.899	1.914	1.909	1.919
0.000	0.015	0.000	0.010	-0.015	-0.005	0.034	2.690	1.899	1.899	1.899	1.914	1.909	1.909
-0.010	0.005	0.000	0.005	0.029	0.015	0.034	2.671	1.899	1.899	1.895	1.914	1.924	1.919
-0.005	-0.005	0.000	-0.005	0.015	-0.005	0.034	2.681	1.899	1.895	1.895	1.914	1.914	1.909
0.000	-0.005	0.010	-0.005	-0.005	0.015	0.029	2.686	1.899	1.895	1.895	1.914	1.904	1.914
0.000	0.000	0.005	0.000	0.000	0.010	0.034	2.676	1.899	1.895	1.895	1.914	1.909	1.914
0.010	-0.015	0.005	-0.010	0.000	0.010	0.029	2.690	1.904	1.895	1.895	1.909	1.909	1.909
0.000	-0.010	0.005	-0.005	0.005	0.005	0.034	2.681	1.895	1.895	1.895	1.909	1.909	1.909
0.000	-0.005	0.010	-0.005	0.010	0.000	0.034	2.686	1.899	1.895	1.895	1.914	1.909	1.909
0.000	-0.005	0.005	-0.005	0.000	-0.005	0.034	2.686	1.904	1.899	1.895	1.914	1.909	1.904
0.010	-0.005	-0.005	0.000	-0.015	-0.010	0.034	2.671	1.899	1.899	1.895	1.909	1.904	1.899
0.000	-0.005	-0.005	0.005	0.000	0.005	0.029	2.651	1.895	1.895	1.895	1.914	1.909	1.909
0.005	0.010	0.000	0.005	0.020	0.015	0.029	2.686	1.899	1.899	1.895	1.914	1.914	1.914
0.005	0.020	-0.010	0.010	0.010	-0.015	0.029	2.676	1.899	1.899	1.895	1.914	1.909	1.909
0.005	0.015	-0.005	0.005	0.020	-0.010	0.034	2.666	1.895	1.899	1.895	1.914	1.914	1.909
-0.010	0.020	0.000	0.000	-0.010	-0.005	0.034	2.676	1.895	1.899	1.895	1.914	1.904	1.909
-0.005	0.015	-0.005	0.005	-0.029	0.010	0.034	2.686	1.899	1.899	1.895	1.914	1.899	1.909
-0.005	0.020	0.000	0.000	-0.024	0.005	0.029	2.681	1.899	1.899	1.895	1.914	1.904	1.904
0.000	0.000	0.000	0.000	-0.015	-0.005	0.034	2.681	1.899	1.895	1.895	1.914	1.909	1.904
0.000	-0.005	0.000	0.005	0.010	0.000	0.034	2.671	1.899	1.890	1.895	1.914	1.914	1.909
0.005	-0.005	0.005	-0.005	0.020	0.010	0.034	2.676	1.895	1.895	1.895	1.909	1.914	1.914
-0.005	-0.015	0.005	-0.005	0.005	-0.005	0.029	2.681	1.895	1.890	1.890	1.909	1.909	1.909
0.005	-0.024	0.000	-0.005	0.000	-0.010	0.034	2.676	1.895	1.890	1.890	1.909	1.904	1.904
0.010	-0.015	0.005	0.000	0.010	0.005	0.029	2.681	1.899	1.895	1.890	1.909	1.909	1.914
0.000	-0.005	0.005	-0.005	0.005	-0.005	0.029	2.690	1.899	1.895	1.890	1.909	1.909	1.909
0.005	-0.005	0.010	0.000	-0.005	0.010	0.034	2.666	1.899	1.899	1.890	1.909	1.904	1.909
0.010	-0.005	0.010	-0.005	-0.005	0.000	0.029	2.671	1.899	1.899	1.890	1.914	1.904	1.904
0.000	0.005	0.000	0.000	0.005	-0.005	0.034	2.637	1.890	1.899	1.895	1.909	1.909	1.909
-0.005	0.000	-0.005	0.000	0.005	-0.010	0.034	2.681	1.890	1.895	1.895	1.909	1.904	1.904
0.005	0.020	0.000	0.000	0.005	0.005	0.029	2.681	1.899	1.899	1.895	1.914	1.904	1.909
-0.005	0.020	0.000	0.010	0.020	-0.005	0.029	2.671	1.895	1.899	1.895	1.919	1.914	1.909
0.000	0.015	-0.005	0.015	0.015	0.005	0.029	2.681	1.899	1.899	1.895	1.914	1.909	1.909
-0.010	0.005	-0.005	0.010	0.005	0.005	0.029	2.690	1.895	1.895	1.895	1.914	1.909	1.909
-0.005	0.015	0.000	0.015	-0.005	0.005	0.034	2.681	1.899	1.895	1.895	1.914	1.909	1.909
-0.005	0.000	-0.005	-0.005	-0.005	0.015	0.034	2.686	1.899	1.895	1.890	1.909	1.904	1.909
-0.010	-0.005	-0.005	0.000	-0.005	0.015	0.029	2.666	1.899	1.895	1.895	1.914	1.904	1.909
0.010	0.005	-0.005	0.000	0.000	-0.005	0.034	2.676	1.899	1.895	1.895	1.909	1.904	1.909
0.010	-0.005	0.005	-0.005	0.000	0.000	0.029	2.676	1.899	1.895	1.895	1.909	1.909	1.909
0.000	-0.020	0.000	-0.005	0.000	0.005	0.034	2.686	1.899	1.890	1.895	1.909	1.904	1.909
0.010	-0.015	0.010	-0.010	0.000	0.000	0.029	2.681	1.899	1.895	1.890	1.909	1.904	1.904
-0.005	-0.015	0.005	-0.005	0.005	0.005	0.029	2.681	1.895	1.890	1.890	1.909	1.909	1.904
0.000	-0.015	0.000	-0.005	-0.005	0.005	0.034	2.690	1.895	1.895	1.890	1.909	1.904	1.904
0.010	-0.020	0.005	0.000	-0.005	0.000	0.029	2.666	1.895	1.895	1.895	1.909	1.904	1.899
0.010	0.005	0.000	0.000	0.000	-0.010	0.034	2.661	1.895	1.899	1.895	1.909	1.909	1.904
-0.005	0.000	0.005	0.000	-0.005	0.010	0.029	2.676	1.895	1.895	1.895	1.909	1.904	1.909
0.000	0.000	0.000	0.005	-0.005	-0.010	0.034	2.681	1.890	1.895	1.895	1.914	1.909	1.904
-0.005	-0.005	0.000	0.010	0.000	0.000	0.029	2.686	1.895	1.895	1.890	1.914	1.909	1.909
-0.010	0.010	-0.010	0.010	0.000	0.015	0.034	2.686	1.890	1.895	1.890	1.909	1.909	1.909
-0.005	0.010	-0.010	0.005	0.000	0.005	0.029	2.681	1.895	1.895	1.890	1.909	1.909	1.909
-0.005	0.020	-0.005	0.015	0.000	-0.005	0.034	2.681	1.895	1.895	1.895	1.914	1.909	1.909
0.000	0.010	-0.005	0.010	0.000	-0.005	0.029	2.686	1.895	1.895	1.895	1.909	1.909	1.909
-0.010	0.005	0.000	0.010	-0.005	-0.005	0.029	2.656	1.895	1.895	1.895	1.909	1.909	1.909
0.000	0.000	0.000	0.000	-0.010	-0.015	0.034	2.686	1.895	1.890	1.890	1.909	1.904	1.904
0.000	0.010	0.000	0.000	0.000	-0.020	0.029	2.681	1.895	1.895	1.890	1.909	1.909	1.904
0.000	-0.010	0.000	0.000	-0.005	0.005	0.034	2.671	1.895	1.890	1.890	1.909	1.904	1.909
0.010	-0.005	0.005	0.000	0.000	0.015	0.034	2.676	1.899	1.890	1.890	1.909	1.909	1.909
0.010	-0.010	0.000	-0.005	-0.015	0.015	0.034	2.671	1.890	1.890	1.890	1.904	1.899	1.909
0.005	0.000	0.005	-0.005	-0.010	0.005	0.034	2.661	1.895	1.895	1.890	1.904	1.904	1.904
0.000	0.000	0.010	0.000	0.005	0.005	0.029	2.671	1.895	1.895	1.890	1.909	1.904	1.904
0.000	0.005	0.005	-0.005	0.010	-0.020	0.029	2.686	1.890	1.890	1.890	1.909	1.904	1.899
0.000	0.000	0.005	0.000	0.015	0.000	0.034	2.681	1.899	1.895	1.890	1.909	1.909	1.909
0.005	0.020	0.000	0.000	0.039	0.015	0.034	2.690	1.895	1.899	1.890	1.909	1.914	1.909
0.005	0.015	0.000	-0.005	0.020	0.000	0.034	2.676	1.895	1.895	1.890	1.909	1.904	1.909
0.000	0.015	0.000	0.005	0.000	0.005	0.029	2.686	1.895	1.895	1.890	1.909	1.899	1.904
-0.010	0.010	0.005	0.005	-0.010	0.000	0.029	2.690	1.895	1.890	1.890	1.909	1.899	1.904
-0.005	0.015	-0.005	0.010	-0.020	0.005	0.034	2.681	1.895	1.895	1.890	1.914	1.899	1.904
0.000	0.015	-0.010	0.005	-0.005	0.000	0.034	2.671	1.899	1.895	1.890	1.909	1.904	1.904
-0.010	0.000	-0.005	0.010	0.010	-0.005	0.029	2.646	1.914	1.895	1.890	1.914	1.909	1.904
0.005	-0.005	-0.005	0.000	0.005	-0.005	0.034	2.671	1.909	1.899	1.895	1.909	1.909	1.904
0.000	-0.015	-0.005	0.000	0.000	-0.005	0.034	2.676	1.899	1.895	1.890	1.909	1.904	1.904
0.000	-0.005	0.000	0.000	-0.005	-0.005	0.029	2.681	1.899	1.895	1.895	1.909	1.904	1.904
0.015	-0.005	0.005	-0.005	0.015	0.005	0.029	2.681	1.899	1.899	1.895	1.909	1.909	1.909
0.010	-0.005	0.000	-0.005	0.020	0.000	0.034	2.661	1.895	1.899	1.895	1.909	1.909	1.904
0.000	-0.015	0.000	-0.010	-0.005	-0.005	0.034	2.676	1.895	1.890	1.895	1.909	1.899	1.904
0.005	-0.020	0.005	-0.005	0.000	0.005	0.029	2.681	1.890	1.890	1.895	1.909	1.904	1.904
0.010	-0.015	0.010	0.000	-0.010	-0.005	0.034	2.646	1.890	1.890	1.895	1.909	1.904	1.904
0.000	0.010	0.005	-0.005	-0.015	-0.010	0.029	2.686	1.895	1.899	1.890	1.914	1.899	1.904
-0.005	0.005	0.000	0.005	0.010	0.005	0.034	2.686	1.890	1.895	1.890	1.914	1.909	1.909
-0.010	0.005	0.005	0.000	0.005	0.010	0.029	2.690	1.890	1.890	1.895	1.909	1.904	1.909
-0.010	0.015	0.000	0.005	-0.020	0.000	0.034	2.686	1.895	1.895	1.890	1.914	1.899	1.904
0.000	0.020	-0.010	0.005	0.000	0.005	0.034	2.676	1.899	1.895	1.890	1.914	1.909	1.909
0.000	0.015	-0.005	0.005	0.000	0.010	0.034	2.666	1.895	1.895	1.890	1.909	1.909	1.909
-0.005	0.015	-0.010	0.015	0.000	0.010	0.034	2.681	1.895	1.899	1.895	1.914	1.909	1.909
-0.010	0.000	-0.005	0.005	0.005	-0.024	0.029	2.661	1.890	1.890	1.890	1.909	1.909	1.899
-0.005	0.005	0.000	0.000	0.005	0.010	0.034	2.681	1.895	1.890	1.890	1.909	1.909	1.909
-0.005	-0.010	0.000	0.000	-0.005	0.015	0.029	2.671	1.895	1.890	1.890	1.909	1.904	1.909
-0.005	-0.005	0.000	-0.005	0.005	0.000	0.034	2.671	1.895	1.890	1.890	1.909	1.909	1.904
0.000	-0.005	0.000	-0.005	0.000	0.010	0.029	2.681	1.895	1.890	1.890	1.909	1.904	1.904
0.010	-0.015	0.005	0.000	-0.005	0.005	0.034	2.671	1.895	1.890	1.890	1.909	1.904	1.904
0.000	0.000	0.000	-0.005	0.010	-0.005	0.029	2.666	1.890	1.895	1.890	1.904	1.904	1.904
0.000	0.000	0.005	0.000	0.000	-0.015	0.034	2.676	1.890	1.890	1.890	1.909	1.904	1.899
0.010	-0.010	0.010	0.000	0.000	-0.010	0.034	2.651	1.890	1.890	1.890	1.909	1.904	1.904
0.010	-0.005	0.000	0.000	0.000	0.000	0.034	2.666	1.890	1.890	1.890	1.909	1.904	1.904
0.005	-0.005	0.000	0.000	-0.010	-0.005	0.029	2.671	1.890	1.890	1.890	1.909	1.899	1.904
0.005	0.000	0.000	-0.005	-0.005	-0.015	0.034	2.681	1.890	1.890	1.890	1.904	1.899	1.895
0.005	0.005	-0.005	0.000	-0.005	-0.005	0.029	2.681	1.890	1.890	1.885	1.909	1.904	1.904
-0.010	0.015	-0.005	0.000	-0.005	-0.005	0.034	2.681	1.895	1.895	1.890	1.904	1.904	1.904
0.000	0.015	-0.005	0.005	0.000	0.000	0.029	2.681	1.895	1.895	1.890	1.909	1.904	1.904
0.005	0.015	0.000	0.010	0.005	-0.005	0.029	2.671	1.890	1.895	1.890	1.909	1.904	1.904
-0.010	0.010	0.000	0.015	0.000	0.005	0.029	2.676	1.890	1.890	1.890	1.909	1.909	1.909
0.000	0.000	-0.005	0.010	0.000	0.000	0.029	2.681	1.895	1.890	1.890	1.909	1.904	1.904
-0.015	-0.005	0.000	0.005	0.005	0.015	0.029	2.686	1.890	1.885	1.890	1.909	1.904	1.909
-0.005	-0.005	-0.005	0.000	0.005	0.005	0.029	2.671	1.895	1.890	1.890	1.904	1.904	1.909
-0.005	-0.005	0.000	-0.005	0.005	0.010	0.029	2.676	1.895	1.890	1.885	1.904	1.904	1.904
0.010	-0.010	0.005	0.005	-0.005	0.000	0.034	2.666	1.895	1.890	1.890	1.909	1.899	1.904
0.010	-0.015	0.005	-0.005	-0.005	0.010	0.029	2.681	1.899	1.890	1.890	1.904	1.899	1.904
0.005	-0.020	0.005	0.000	-0.005	-0.005	0.029	2.671	1.895	1.890	1.890	1.904	1.899	1.895
0.005	-0.015	0.010	0.000	-0.005	0.005	0.029	2.651	1.885	1.890	1.890	1.909	1.904	1.904
0.010	0.000	0.005	-0.005	0.005	0.005	0.029	2.671	1.890	1.895	1.890	1.904	1.904	1.904
0.005	-0.005	0.005	0.010	-0.005	-0.015	0.034	2.681	1.890	1.890	1.885	1.909	1.899	1.895
0.000	-0.010	0.000	0.000	0.005	0.010	0.034	2.681	1.890	1.885	1.885	1.904	1.904	1.904
-0.005	-0.005	0.005	0.000	0.000	0.005	0.034	2.671	1.890	1.890	1.885	1.904	1.904	1.904
-0.005	0.000	-0.005	0.000	-0.005	0.000	0.034	2.686	1.895	1.890	1.885	1.904	1.899	1.899
0.000	0.010	-0.005	0.005	-0.005	-0.010	0.029	2.676	1.890	1.890	1.885	1.904	1.899	1.895
-0.005	0.010	-0.005	0.005	0.010	0.005	0.034	2.661	1.890	1.895	1.890	1.904	1.904	1.904
-0.010	0.024	-0.005	0.000	0.005	-0.005	0.034	2.651	1.890	1.895	1.890	1.904	1.904	1.904
-0.010	0.020	-0.010	0.005	-0.005	-0.010	0.029	2.686	1.890	1.895	1.890	1.904	1.904	1.899
0.000	0.020	-0.010	0.005	0.000	0.010	0.034	2.681	1.895	1.895	1.890	1.909	1.904	1.904
0.000	0.010	-0.005	0.000	0.000	0.010	0.029	2.676	1.895	1.890	1.890	1.909	1.904	1.904
0.005	0.000	0.005	0.000	-0.005	0.005	0.029	2.686	1.899	1.890	1.890	1.909	1.904	1.899
0.000	0.000	0.000	-0.005	0.000	0.020	0.029	2.695	1.895	1.890	1.890	1.904	1.904	1.904
0.005	-0.015	0.000	0.000	0.015	0.010	0.029	2.681	1.895	1.885	1.890	1.909	1.909	1.904
0.000	-0.015	0.005	-0.005	0.015	0.005	0.034	2.676	1.895	1.890	1.890	1.904	1.904	1.904
0.010	-0.015	0.005	-0.005	0.015	0.005	0.034	2.681	1.895	1.890	1.885	1.904	1.899	1.904
0.010	-0.005	0.005	0.000	-0.005	0.005	0.034	2.676	1.895	1.895	1.890	1.904	1.899	1.904
0.010	-0.005	0.005	0.000	0.005	0.000	0.034	2.681	1.895	1.890	1.890	1.909	1.899	1.899
0.005	0.000	0.005	0.005	-0.005	-0.010	0.029	2.686	1.890	1.890	1.890	1.909	1.899	1.899
0.000	-0.005	0.000	0.005	0.000	0.000	0.029	2.690	1.890	1.890	1.885	1.904	1.904	1.904
-0.005	0.005	0.000	0.000	-0.010	-0.005	0.029	2.676	1.895	1.895	1.890	1.904	1.899	1.899
-0.005	0.005	0.005	0.005	-0.020	-0.005	0.029	2.690	1.895	1.895	1.890	1.909	1.895	1.899
0.000	0.010	0.000	0.000	-0.020	0.000	0.034	2.686	1.890	1.895	1.890	1.904	1.899	1.899
-0.010	0.010	-0.005	0.000	-0.024	-0.010	0.034	2.637	1.890	1.895	1.890	1.904	1.899	1.899
-0.010	0.010	-0.005	0.005	-0.010	0.005	0.034	2.671	1.890	1.890	1.890	1.909	1.904	1.899
-0.005	0.020	0.000	0.005	0.029	0.000	0.034	2.671	1.895	1.895	1.890	1.909	1.914	1.904
-0.005	0.010	0.000	0.005	0.015	-0.020	0.034	2.681	1.890	1.890	1.890	1.909	1.909	1.904
0.000	0.005	-0.005	0.005	0.005	0.000	0.034	2.681	1.895	1.890	1.890	1.909	1.904	1.904
-0.005	0.005	0.005	0.010	0.000	0.015	0.029	2.666	1.890	1.890	1.890	1.909	1.904	1.909
0.005	0.000	0.000	0.000	-0.005	0.010	0.034	2.666	1.895	1.890	1.890	1.904	1.904	1.909
0.010	-0.010	0.000	-0.005	-0.020	0.005	0.034	2.676	1.895	1.890	1.885	1.904	1.895	1.899
0.005	-0.005	0.000	-0.005	-0.010	-0.005	0.029	2.671	1.890	1.890	1.885	1.904	1.899	1.899
0.005	0.000	0.005	-0.005	0.010	-0.005	0.029	2.686	1.895	1.890	1.890	1.904	1.904	1.899
0.000	-0.005	0.005	0.000	0.044	0.000	0.034	2.690	1.895	1.885	1.890	1.909	1.914	1.904
0.000	0.000	0.000	-0.005	0.054	0.000	0.034	2.690	1.895	1.890	1.885	1.904	1.914	1.909
0.000	-0.005	0.000	0.000	0.059	-0.029	0.034	2.681	1.890	1.890	1.885	1.904	1.909	1.904
-0.005	0.005	0.000	0.000	0.005	-0.005	0.034	2.671	1.895	1.890	1.890	1.909	1.895	1.899
0.005	0.010	0.000	0.000	-0.015	-0.005	0.029	2.695	1.895	1.895	1.890	1.904	1.890	1.899
-0.005	0.010	0.000	0.015	-0.029	-0.010	0.029	2.651	1.890	1.890	1.890	1.909	1.895	1.895
-0.010	0.020	0.005	0.005	-0.039	0.005	0.034	2.695	1.890	1.895	1.890	1.909	1.895	1.899
0.000	0.010	-0.005	0.010	-0.034	0.015	0.029	2.681	1.895	1.895	1.890	1.909	1.899	1.904
0.000	0.024	-0.005	0.010	-0.010	0.010	0.034	2.681	1.890	1.895	1.890	1.909	1.904	1.904
0.000	0.024	-0.005	0.005	0.005	0.015	0.034	2.676	1.895	1.895	1.890	1.909	1.909	1.904
0.005	0.015	0.000	0.005	0.034	0.005	0.034	2.676	1.895	1.890	1.895	1.909	1.914	1.904
-0.005	0.005	0.000	0.005	0.049	-0.005	0.034	2.681	1.895	1.890	1.895	1.909	1.914	1.904
0.005	0.005	0.000	0.000	0.010	-0.010	0.034	2.671	1.890	1.890	1.890	1.904	1.899	1.904
0.005	-0.005	0.000	0.000	0.010	-0.010	0.029	2.661	1.895	1.885	1.890	1.909	1.904	1.899
0.015	-0.005	0.000	0.000	0.010	0.005	0.029	2.676	1.890	1.890	1.885	1.904	1.904	1.909
0.015	-0.015	0.005	0.000	-0.015	0.005	0.029	2.681	1.890	1.885	1.885	1.904	1.895	1.904
0.010	-0.015	0.010	-0.005	-0.020	-0.010	0.029	2.681	1.895	1.890	1.890	1.904	1.895	1.899
0.005	-0.010	0.010	-0.010	-0.005	0.010	0.029	2.686	1.890	1.890	1.885	1.904	1.899	1.899
0.015	-0.010	0.000	0.005	-0.005	0.005	0.034	2.666	1.895	1.890	1.885	1.909	1.904	1.899
0.000	-0.010	0.000	0.005	-0.015	-0.015	0.034	2.676	1.890	1.890	1.885	1.904	1.899	1.895
-0.005	0.010	0.005	-0.005	-0.024	0.010	0.034	2.690	1.890	1.895	1.890	1.904	1.895	1.904
-0.005	0.005	-0.005	0.005	-0.010	0.005	0.034	2.676	1.890	1.890	1.890	1.904	1.904	1.899
0.000	0.015	0.000	0.000	0.005	0.010	0.034	2.676	1.890	1.895	1.890	1.904	1.904	1.904
-0.010	0.010	-0.005	0.000	0.015	0.005	0.029	2.686	1.895	1.895	1.890	1.909	1.909	1.904
-0.015	0.020	-0.005	0.000	0.005	0.000	0.034	2.695	1.890	1.895	1.890	1.909	1.904	1.904
-0.015	0.015	-0.005	0.000	0.005	-0.005	0.029	2.686	1.890	1.890	1.890	1.909	1.904	1.899
-0.005	0.015	0.000	0.005	-0.005	0.000	0.029	2.690	1.899	1.895	1.890	1.909	1.904	1.904
0.000	0.015	0.000	0.000	0.005	0.005	0.034	2.681	1.895	1.895	1.890	1.909	1.904	1.904
0.005	0.000	0.000	0.000	0.005	-0.010	0.034	2.690	1.895	1.890	1.890	1.909	1.904	1.904
0.005	-0.005	0.005	0.000	0.010	0.005	0.034	2.681	1.899	1.895	1.890	1.909	1.909	1.904
0.005	-0.010	0.000	-0.010	0.000	0.010	0.034	2.666	1.895	1.890	1.890	1.904	1.899	1.904
0.005	-0.020	0.005	-0.010	0.005	0.005	0.029	2.671	1.890	1.890	1.890	1.904	1.904	1.904
0.000	-0.024	0.005	0.000	0.000	0.005	0.029	2.681	1.890	1.885	1.885	1.909	1.899	1.899
0.005	-0.020	0.005	-0.005	-0.005	0.010	0.029	2.686	1.895	1.890	1.885	1.904	1.899	1.899
0.010	-0.015	0.005	0.000	-0.010	0.000	0.034	2.671	1.895	1.890	1.890	1.904	1.899	1.899
0.005	-0.010	0.005	0.000	-0.005	0.005	0.029	2.661	1.890	1.895	1.890	1.904	1.899	1.899
0.005	0.005	0.000	0.000	-0.005	0.005	0.029	2.676	1.890	1.899	1.890	1.904	1.899	1.899
0.000	0.000	0.000	0.000	0.005	0.000	0.034	2.661	1.890	1.895	1.895	1.909	1.904	1.904
0.000	0.015	0.000	0.005	0.005	0.005	0.034	2.666	1.890	1.895	1.890	1.909	1.904	1.904
-0.010	0.010	0.000	0.005	-0.005	0.005	0.029	2.686	1.890	1.890	1.890	1.909	1.904	1.899
-0.010	0.005	-0.005	0.005	0.000	0.000	0.034	2.671	1.890	1.890	1.890	1.909	1.904	1.904
-0.015	0.015	-0.005	0.005	0.005	0.005	0.029	2.676	1.890	1.890	1.890	1.909	1.904	1.904
-0.005	0.015	-0.005	0.005	0.000	-0.005	0.034	2.671	1.895	1.890	1.890	1.909	1.904	1.904
0.005	0.015	-0.005	0.005	0.005	0.005	0.029	2.686	1.899	1.890	1.890	1.909	1.904	1.904
0.000	0.015	0.000	0.000	0.000	0.015	0.029	2.676	1.899	1.895	1.890	1.909	1.904	1.909
0.000	0.000	-0.005	0.005	0.005	0.010	0.029	2.632	1.890	1.890	1.890	1.909	1.904	1.909
0.005	-0.010	0.000	-0.005	-0.005	0.005	0.029	2.676	1.890	1.890	1.890	1.904	1.904	1.904
0.010	-0.015	-0.005	0.000	-0.005	-0.010	0.034	2.671	1.890	1.885	1.890	1.909	1.899	1.899
0.010	-0.005	0.000	0.000	0.000	0.000	0.034	2.666	1.890	1.890	1.890	1.904	1.904	1.904
0.010	-0.015	0.010	-0.005	0.000	0.000	0.034	2.676	1.895	1.885	1.890	1.904	1.904	1.899
0.015	-0.010	0.000	-0.005	0.010	0.000	0.029	2.681	1.890	1.885	1.885	1.904	1.904	1.904
0.015	-0.020	0.005	-0.005	0.005	0.010	0.034	2.686	1.895	1.885	1.885	1.904	1.899	1.904
0.000	-0.005	0.000	0.005	0.005	0.005	0.029	2.676	1.890	1.890	1.890	1.904	1.899	1.899
-0.005	0.000	0.005	0.005	0.005	-0.005	0.029	2.671	1.890	1.890	1.890	1.909	1.904	1.899
0.010	0.000	0.000	0.010	0.005	0.005	0.029	2.681	1.895	1.890	1.890	1.909	1.899	1.904
-0.005	0.010	0.000	0.005	0.005	0.010	0.029	2.690	1.895	1.895	1.890	1.909	1.904	1.904
-0.005	0.000	0.000	0.005	0.005	-0.005	0.034	2.676	1.895	1.890	1.890	1.909	1.904	1.899
-0.010	0.005	-0.005	0.005	0.000	-0.005	0.034	2.690	1.890	1.890	1.890	1.909	1.904	1.899
-0.010	0.005	-0.005	0.000	0.000	0.010	0.029	2.681	1.895	1.890	1.890	1.904	1.904	1.904
0.000	0.010	-0.005	0.000	0.000	-0.020	0.029	2.666	1.895	1.895	1.890	1.909	1.899	1.899
0.000	0.010	-0.005	-0.005	0.000	0.000	0.034	2.686	1.895	1.890	1.890	1.909	1.899	1.904
0.000	0.000	0.000	-0.005	0.010	-0.005	0.034	2.681	1.895	1.890	1.890	1.909	1.904	1.904
0.000	0.000	0.000	-0.005	-0.005	0.000	0.029	2.671	1.895	1.890	1.890	1.909	1.899	1.899
0.010	-0.005	0.005	-0.005	0.005	0.015	0.029	2.676	1.895	1.885	1.890	1.909	1.904	1.904
0.000	-0.010	0.010	-0.005	0.000	0.005	0.029	2.681	1.890	1.890	1.890	1.909	1.904	1.904
0.000	-0.010	0.005	-0.010	0.005	0.005	0.034	2.681	1.890	1.885	1.890	1.904	1.904	1.899
0.010	-0.015	0.005	-0.010	0.010	0.000	0.034	2.671	1.890	1.890	1.885	1.909	1.904	1.904
0.000	-0.005	0.015	0.010	0.005	-0.005	0.034	2.690	1.890	1.890	1.890	1.914	1.904	1.899
0.005	-0.005	0.000	0.000	0.000	0.000	0.034	2.666	1.895	1.890	1.885	1.904	1.904	1.904
0.005	0.000	0.000	-0.005	-0.005	0.000	0.034	2.686	1.895	1.890	1.890	1.904	1.899	1.904
0.005	0.005	0.000	0.000	0.000	-0.010	0.029	2.686	1.895	1.890	1.890	1.909	1.899	1.895
0.000	0.005	0.005	0.000	0.000	-0.005	0.029	2.686	1.895	1.895	1.890	1.904	1.899	1.899
-0.005	0.010	-0.005	0.005	-0.005	0.000	0.029	2.686	1.890	1.890	1.890	1.909	1.904	1.904
-0.010	0.020	-0.010	0.005	0.000	-0.024	0.034	2.676	1.890	1.895	1.885	1.909	1.899	1.895
-0.005	0.010	-0.010	0.000	0.000	0.010	0.029	2.671	1.890	1.895	1.890	1.904	1.904	1.909
-0.010	0.024	-0.005	0.000	0.005	-0.010	0.034	2.681	1.890	1.895	1.890	1.909	1.904	1.899
-0.005	0.020	-0.005	0.000	0.000	-0.010	0.034	2.686	1.895	1.895	1.890	1.909	1.904	1.904
0.000	0.015	-0.005	0.000	0.000	0.015	0.034	2.686	1.899	1.890	1.890	1.909	1.904	1.909
-0.005	-0.020	0.000	0.005	0.005	0.010	0.034	2.681	1.895	1.885	1.890	1.909	1.904	1.904
0.015	-0.015	0.005	-0.005	-0.005	0.005	0.034	2.676	1.899	1.890	1.885	1.904	1.904	1.904
0.010	-0.020	0.005	-0.005	0.000	-0.010	0.029	2.676	1.895	1.885	1.890	1.904	1.904	1.895
0.010	-0.010	0.005	-0.005	-0.005	0.005	0.029	2.681	1.895	1.890	1.890	1.904	1.899	1.904
0.005	-0.024	0.005	0.000	0.000	0.010	0.029	2.686	1.895	1.890	1.890	1.904	1.904	1.904
0.015	-0.015	0.010	0.005	-0.005	0.010	0.029	2.686	1.895	1.890	1.890	1.909	1.904	1.904
0.000	-0.010	0.005	0.000	0.005	0.005	0.034	2.686	1.890	1.895	1.885	1.909	1.904	1.899
0.000	0.000	0.005	-0.005	0.000	0.000	0.034	2.632	1.885	1.890	1.890	1.904	1.899	1.904
0.000	0.000	-0.005	0.000	0.005	0.000	0.034	2.676	1.885	1.890	1.890	1.904	1.904	1.899
-0.005	0.010	0.000	0.000	0.010	-0.010	0.034	2.686	1.890	1.890	1.890	1.904	1.904	1.899
-0.005	0.010	0.000	0.005	0.005	-0.005	0.034	2.666	1.890	1.890	1.890	1.909	1.904	1.904
-0.005	0.010	-0.005	0.010	0.000	0.010	0.029	2.681	1.885	1.890	1.890	1.909	1.904	1.904
-0.010	0.005	-0.005	0.010	-0.005	0.005	0.034	2.676	1.890	1.885	1.885	1.909	1.904	1.904
0.000	0.005	0.000	0.010	-0.010	0.005	0.029	2.686	1.895	1.890	1.885	1.909	1.904	1.899
-0.005	0.039	0.000	0.005	-0.005	0.010	0.029	2.666	1.895	1.904	1.890	1.909	1.904	1.904
-0.005	0.039	-0.005	0.000	0.000	0.005	0.034	2.656	1.890	1.895	1.890	1.909	1.904	1.904
0.000	0.024	-0.005	0.000	0.000	-0.010	0.029	2.681	1.895	1.890	1.895	1.909	1.899	1.899
0.000	0.015	0.000	0.000	-0.010	0.000	0.034	2.681	1.890	1.885	1.890	1.904	1.899	1.904
0.005	0.015	0.000	0.000	-0.005	-0.005	0.034	2.671	1.890	1.890	1.890	1.909	1.899	1.899
0.000	0.000	0.005	0.005	0.000	0.000	0.034	2.676	1.895	1.885	1.890	1.909	1.904	1.899
0.010	-0.010	0.005	0.000	0.020	-0.005	0.029	2.686	1.895	1.885	1.885	1.904	1.909	1.904
0.015	-0.010	0.005	0.000	0.005	-0.010	0.029	2.681	1.895	1.885	1.885	1.904	1.904	1.899
0.000	-0.010	0.005	-0.005	0.000	0.015	0.034	2.666	1.890	1.885	1.885	1.904	1.899	1.909
-0.005	-0.024	0.010	-0.005	0.000	0.000	0.034	2.695	1.890	1.880	1.885	1.899	1.899	1.899
0.000	-0.015	0.005	-0.005	-0.015	0.000	0.034	2.671	1.890	1.885	1.885	1.899	1.895	1.899
-0.005	-0.015	0.005	0.000	-0.010	-0.010	0.029	2.686	1.890	1.890	1.885	1.904	1.899	1.899
0.000	0.005	0.000	0.005	0.010	-0.020	0.034	2.686	1.895	1.895	1.885	1.904	1.904	1.895
-0.005	0.005	-0.005	0.005	0.000	0.010	0.029	2.686	1.890	1.895	1.890	1.904	1.899	1.904
-0.005	0.010	0.000	0.005	0.010	0.015	0.029	2.681	1.895	1.895	1.890	1.904	1.904	1.904
-0.005	0.010	0.000	0.015	0.005	0.015	0.029	2.686	1.895	1.895	1.890	1.909	1.904	1.904
-0.005	0.020	-0.005	0.005	0.005	0.005	0.029	2.681	1.895	1.895	1.890	1.909	1.904	1.904
-0.010	0.005	-0.005	0.005	0.000	0.000	0.029	2.651	1.890	1.890	1.890	1.909	1.904	1.899
-0.005	-0.005	-0.005	0.010	0.000	0.010	0.029	2.666	1.890	1.890	1.890	1.909	1.904	1.904
-0.005	0.005	-0.005	0.000	-0.005	0.000	0.034	2.686	1.895	1.890	1.890	1.904	1.899	1.904
0.010	0.015	-0.005	0.000	0.000	-0.010	0.034	2.676	1.895	1.895	1.890	1.904	1.899	1.899
0.010	0.005	0.000	0.000	0.005	0.000	0.029	2.690	1.895	1.890	1.890	1.909	1.904	1.899
0.005	0.015	0.000	-0.010	0.000	-0.010	0.029	2.676	1.895	1.895	1.890	1.904	1.904	1.899
0.000	-0.005	0.005	-0.005	0.000	0.000	0.034	2.671	1.885	1.885	1.890	1.909	1.904	1.899
0.015	0.010	0.010	-0.010	0.000	0.000	0.029	2.676	1.890	1.890	1.890	1.904	1.899	1.904
-0.005	0.000	0.005	-0.005	0.000	-0.005	0.029	2.681	1.890	1.885	1.890	1.909	1.904	1.899
0.000	0.005	0.010	0.000	-0.005	-0.010	0.034	2.690	1.890	1.885	1.885	1.909	1.899	1.899
0.005	0.005	0.005	0.000	0.000	0.000	0.029	2.671	1.890	1.890	1.885	1.909	1.904	1.899
0.000	0.020	0.010	-0.005	-0.005	-0.005	0.034	2.676	1.890	1.890	1.885	1.904	1.899	1.899
0.000	0.005	0.005	0.000	0.000	0.000	0.034	2.676	1.890	1.885	1.885	1.904	1.899	1.904
-0.005	0.010	-0.005	0.005	-0.005	-0.015	0.034	2.671	1.885	1.890	1.885	1.904	1.899	1.899
-0.005	0.015	-0.005	0.000	0.000	0.005	0.029	2.681	1.890	1.890	1.890	1.904	1.904	1.904
0.000	0.005	0.000	0.005	0.005	0.005	0.034	2.681	1.895	1.890	1.885	1.904	1.904	1.899
-0.005	0.010	-0.005	0.010	0.010	0.000	0.029	2.798	1.890	1.890	1.885	1.909	1.904	1.904
0.000	0.005	-0.005	0.000	0.005	0.005	0.034	2.671	1.890	1.890	1.885	1.904	1.904	1.909
-0.005	0.000	0.000	0.000	0.005	-0.005	0.029	2.671	1.890	1.890	1.890	1.904	1.904	1.899
0.005	0.000	0.000	0.000	0.005	0.005	0.034	2.666	1.890	1.890	1.885	1.904	1.899	1.909
0.000	-0.005	0.000	0.005	0.000	0.000	0.034	2.681	1.890	1.885	1.890	1.904	1.899	1.904
0.005	-0.015	0.000	0.000	-0.015	0.010	0.029	2.681	1.890	1.885	1.885	1.904	1.895	1.904
0.005	-0.015	0.000	-0.005	-0.010	-0.015	0.029	2.671	1.890	1.880	1.885	1.899	1.895	1.890
0.005	-0.010	0.005	0.000	-0.005	0.000	0.029	2.671	1.890	1.885	1.885	1.904	1.899	1.899
0.005	-0.020	0.010	-0.005	0.005	-0.005	0.029	2.646	1.890	1.885	1.880	1.904	1.899	1.899
0.015	-0.005	0.010	0.000	0.000	0.000	0.029	2.651	1.885	1.890	1.885	1.899	1.899	1.899
0.005	-0.024	0.000	0.000	0.000	0.010	0.029	2.783	1.890	1.885	1.880	1.899	1.899	1.899
0.005	-0.015	-0.005	0.005	0.000	0.000	0.034	2.632	1.885	1.890	1.880	1.899	1.899	1.899
0.000	-0.005	-0.005	0.005	-0.005	0.000	0.034	2.651	1.880	1.885	1.885	1.899	1.895	1.899
-0.005	0.020	0.000	0.005	-0.005	0.000	0.029	2.788	1.895	1.890	1.890	1.904	1.895	1.895
-0.015	0.010	-0.005	0.005	0.000	-0.005	0.034	2.729	1.899	1.895	1.885	1.904	1.899	1.895
-0.010	0.005	0.000	0.010	0.044	0.015	0.029	2.734	1.904	1.895	1.890	1.904	1.914	1.904
-0.010	0.010	-0.005	0.010	0.020	0.010	0.034	2.729	1.904	1.895	1.890	1.904	1.904	1.904
-0.005	-0.005	-0.005	0.010	0.010	0.020	0.029	2.637	1.899	1.890	1.890	1.909	1.899	1.904
-0.005	-0.005	-0.005	0.000	0.005	0.010	0.029	2.734	1.909	1.895	1.890	1.909	1.899	1.899
0.005	-0.015	0.000	0.005	0.005	0.000	0.034	2.622	1.895	1.895	1.890	1.904	1.899	1.899
0.005	-0.010	0.000	0.005	0.000	0.005	0.034	2.729	1.899	1.895	1.890	1.909	1.899	1.899
-0.010	-0.024	0.000	0.005	0.000	0.005	0.034	2.734	1.899	1.895	1.890	1.909	1.899	1.899
0.000	-0.005	0.000	0.000	0.000	-0.020	0.034	2.720	1.904	1.899	1.895	1.909	1.899	1.895
0.015	-0.005	0.000	0.000	-0.010	0.000	0.029	2.637	1.899	1.895	1.895	1.909	1.899	1.904
0.010	0.000	0.005	0.005	-0.015	0.010	0.029	2.651	1.895	1.899	1.895	1.914	1.904	1.904
0.005	0.005	0.005	0.005	-0.005	0.005	0.029	2.769	1.904	1.899	1.895	1.909	1.904	1.904
0.000	0.000	0.005	0.000	-0.005	-0.005	0.029	2.632	1.895	1.899	1.895	1.909	1.904	1.899
0.000	-0.005	0.005	0.000	0.000	0.010	0.029	2.656	1.895	1.895	1.895	1.914	1.909	1.904
-0.005	-0.005	0.005	0.000	0.000	-0.015	0.029	2.729	1.895	1.890	1.895	1.909	1.909	1.899
0.005	0.010	0.000	-0.005	0.000	-0.005	0.029	2.729	1.904	1.899	1.895	1.909	1.904	1.904
-0.005	0.000	0.000	0.005	0.000	0.010	0.029	2.710	1.904	1.899	1.895	1.914	1.909	1.909
-0.005	0.010	0.000	0.005	-0.005	0.005	0.034	2.651	1.904	1.899	1.895	1.914	1.904	1.904
0.000	0.024	-0.005	-0.005	-0.005	0.005	0.034	2.637	1.895	1.899	1.899	1.914	1.909	1.909
-0.005	0.020	-0.005	0.000	-0.005	0.005	0.029	2.666	1.890	1.899	1.895	1.914	1.909	1.909
-0.005	0.024	-0.005	0.005	0.000	0.000	0.034	2.622	1.890	1.899	1.899	1.914	1.914	1.909
0.005	0.015	0.000	-0.005	0.005	0.005	0.034	2.661	1.895	1.895	1.895	1.914	1.914	1.909
0.010	0.000	0.000	-0.005	-0.005	0.000	0.034	2.715	1.899	1.895	1.895	1.909	1.909	1.909
0.000	0.005	0.005	-0.015	0.005	0.000	0.034	2.676	1.914	1.895	1.895	1.909	1.909	1.909
0.000	0.000	0.005	-0.015	0.000	0.005	0.034	2.739	1.909	1.899	1.895	1.909	1.909	1.909
0.005	-0.005	0.010	-0.010	0.000	-0.015	0.034	2.744	1.909	1.899	1.895	1.909	1.904	1.899
0.000	-0.005	0.005	-0.015	0.000	0.005	0.034	2.725	1.909	1.899	1.899	1.914	1.909	1.909
-0.005	0.000	0.010	-0.020	0.005	0.005	0.034	2.695	1.904	1.904	1.899	1.914	1.909	1.909
0.005	-0.005	0.005	-0.010	0.000	0.005	0.034	2.690	1.904	1.904	1.899	1.914	1.909	1.914
0.005	-0.015	0.000	-0.005	0.000	0.005	0.029	2.681	1.899	1.899	1.895	1.914	1.909	1.909
0.000	-0.010	0.005	-0.005	0.000	0.015	0.034	2.690	1.899	1.899	1.895	1.914	1.909	1.909
-0.005	0.000	-0.005	-0.005	0.000	0.010	0.029	2.700	1.895	1.899	1.895	1.919	1.909	1.909
0.000	0.000	0.000	-0.005	0.000	0.000	0.029	2.700	1.899	1.899	1.899	1.914	1.914	1.909
-0.010	0.005	0.000	-0.005	0.005	0.015	0.029	2.690	1.899	1.904	1.899	1.914	1.909	1.914
-0.015	0.005	-0.005	0.000	-0.005	0.015	0.029	2.671	1.895	1.899	1.899	1.919	1.909	1.914
-0.010	0.024	0.000	-0.005	0.000	-0.005	0.034	2.681	1.899	1.899	1.899	1.919	1.909	1.909
-0.010	-0.015	-0.005	0.005	0.000	-0.005	0.034	2.666	1.895	1.890	1.895	1.919	1.909	1.914
-0.005	0.015	0.000	0.010	0.000	0.010	0.034	2.700	1.899	1.904	1.899	1.919	1.914	1.914
0.005	0.005	0.000	0.000	0.005	0.005	0.034	2.666	1.895	1.899	1.895	1.914	1.914	1.914
-0.005	0.000	-0.005	0.005	0.010	0.005	0.034	2.681	1.899	1.895	1.895	1.919	1.914	1.914
0.005	-0.010	0.000	0.005	0.005	0.000	0.029	2.700	1.899	1.895	1.895	1.914	1.914	1.909
0.015	-0.015	0.010	0.005	0.005	0.000	0.029	2.671	1.904	1.895	1.899	1.914	1.914	1.914
0.005	-0.010	0.005	0.000	0.015	-0.015	0.029	2.671	1.899	1.895	1.895	1.914	1.914	1.904
0.005	-0.010	0.005	0.000	0.015	-0.015	0.034	2.690	1.899	1.895	1.895	1.914	1.909	1.909
-0.005	-0.005	0.000	0.005	0.024	-0.005	0.034	2.676	1.895	1.895	1.895	1.914	1.914	1.914
0.015	-0.015	0.005	0.010	0.020	0.000	0.034	2.671	1.899	1.895	1.895	1.914	1.914	1.914
0.005	-0.010	-0.005	0.005	0.024	-0.010	0.034	2.676	1.899	1.895	1.890	1.914	1.914	1.909
0.000	-0.005	0.005	0.010	0.029	-0.039	0.034	2.690	1.895	1.895	1.895	1.914	1.909	1.904
0.010	0.000	-0.005	0.015	0.024	-0.024	0.034	2.705	1.899	1.899	1.895	1.914	1.909	1.909
0.000	0.015	0.000	0.010	0.020	-0.010	0.034	2.681	1.899	1.904	1.895	1.914	1.909	1.914
-0.005	0.010	-0.005	0.015	0.015	-0.005	0.034	2.661	1.890	1.899	1.895	1.914	1.904	1.909
0.000	0.000	0.000	0.015	0.005	0.000	0.029	2.783	1.909	1.895	1.895	1.909	1.904	1.914
-0.010	0.005	-0.010	0.015	0.005	0.000	0.029	2.632	1.895	1.899	1.895	1.914	1.909	1.909
-0.010	0.005	-0.005	0.015	0.000	-0.015	0.029	2.651	1.895	1.899	1.895	1.914	1.904	1.904
-0.010	0.000	0.000	0.010	0.000	0.005	0.034	2.725	1.899	1.895	1.895	1.914	1.909	1.914
0.000	0.000	-0.005	0.015	-0.010	0.010	0.034	2.720	1.909	1.899	1.895	1.914	1.904	1.909
-0.005	-0.010	-0.005	0.010	-0.015	0.005	0.034	2.739	1.909	1.899	1.899	1.909	1.904	1.909
-0.005	-0.010	0.005	0.000	-0.015	0.005	0.029	2.651	1.899	1.895	1.895	1.914	1.904	1.909
0.000	-0.010	0.000	0.005	-0.020	0.015	0.034	2.642	1.895	1.899	1.895	1.914	1.904	1.904
0.005	-0.020	0.010	0.000	-0.020	0.015	0.029	2.676	1.899	1.895	1.895	1.909	1.904	1.909
0.005	-0.010	0.010	0.000	-0.020	0.015	0.029	2.622	1.895	1.895	1.895	1.914	1.909	1.909
0.010	0.000	0.000	0.005	-0.015	0.005	0.034	2.690	1.895	1.899	1.895	1.914	1.909	1.904
0.015	-0.010	0.000	0.000	-0.015	-0.010	0.034	2.729	1.899	1.895	1.895	1.909	1.909	1.904
0.010	0.005	0.000	0.000	-0.015	0.000	0.029	2.808	1.914	1.899	1.895	1.909	1.904	1.904
0.000	0.000	0.000	0.000	-0.005	0.010	0.034	2.744	1.909	1.899	1.895	1.914	1.909	1.909
0.005	0.005	0.000	0.010	-0.010	0.000	0.034	2.651	1.904	1.904	1.899	1.914	1.909	1.909
0.000	0.015	-0.005	0.010	-0.010	0.000	0.034	2.637	1.895	1.904	1.899	1.914	1.909	1.909
0.000	0.015	0.000	0.005	-0.010	0.015	0.029	2.710	1.895	1.899	1.899	1.919	1.909	1.914
-0.015	0.010	0.000	0.010	-0.005	0.015	0.029	2.661	1.890	1.895	1.899	1.914	1.914	1.914
-0.005	0.000	0.000	0.005	-0.005	0.015	0.029	2.681	1.904	1.895	1.895	1.914	1.914	1.914
0.000	0.000	0.000	0.015	-0.005	0.010	0.029	2.666	1.899	1.899	1.895	1.914	1.914	1.914
-0.005	0.005	0.000	0.010	-0.005	0.015	0.029	2.686	1.899	1.899	1.895	1.919	1.914	1.914
-0.005	0.015	-0.005	0.005	0.000	0.000	0.034	2.681	1.904	1.899	1.899	1.914	1.914	1.909
0.005	0.005	0.005	-0.005	-0.005	-0.005	0.034	2.700	1.904	1.899	1.899	1.914	1.909	1.909
0.005	0.000	0.005	-0.010	0.000	-0.010	0.034	2.676	1.904	1.899	1.895	1.914	1.909	1.904
0.005	-0.005	0.005	0.005	0.000	0.005	0.034	2.671	1.899	1.895	1.899	1.914	1.914	1.909
0.005	-0.005	0.005	-0.005	0.005	0.000	0.029	2.676	1.895	1.890	1.895	1.909	1.909	1.909
0.015	-0.005	0.005	-0.010	0.005	-0.005	0.034	2.676	1.895	1.895	1.895	1.909	1.909	1.909
0.005	0.000	0.000	-0.010	0.005	0.000	0.029	2.695	1.899	1.895	1.890	1.914	1.909	1.909
0.005	-0.005	0.000	-0.010	0.010	0.005	0.029	2.695	1.899	1.895	1.895	1.914	1.909	1.909
0.010	0.005	0.000	0.000	0.005	0.005	0.029	2.681	1.899	1.899	1.895	1.914	1.909	1.914
0.000	-0.005	0.005	-0.005	0.000	-0.015	0.029	2.681	1.899	1.895	1.895	1.909	1.909	1.904
0.000	-0.015	-0.005	-0.005	0.005	0.005	0.034	2.676	1.895	1.890	1.890	1.914	1.909	1.909
-0.005	0.015	-0.005	0.000	0.010	0.005	0.034	2.676	1.895	1.899	1.895	1.914	1.909	1.914
-0.010	0.010	0.000	0.005	0.005	-0.020	0.029	2.681	1.899	1.895	1.895	1.914	1.909	1.904
-0.005	0.005	-0.005	0.010	0.005	-0.010	0.029	2.671	1.899	1.895	1.895	1.914	1.909	1.909
0.000	0.000	-0.005	-0.005	0.005	0.005	0.029	2.700	1.899	1.895	1.895	1.914	1.909	1.914
0.000	0.000	-0.005	0.000	0.000	0.005	0.029	2.705	1.904	1.899	1.895	1.914	1.909	1.909
-0.010	-0.005	0.000	0.000	0.000	0.000	0.034	2.695	1.904	1.899	1.895	1.914	1.909	1.909
0.000	0.005	0.005	0.000	0.005	0.000	0.034	2.686	1.904	1.904	1.899	1.914	1.909	1.909
0.010	-0.005	0.005	-0.005	0.005	0.000	0.029	2.637	1.899	1.899	1.899	1.914	1.909	1.909
-0.005	0.000	0.005	-0.005	0.005	0.010	0.034	2.773	1.909	1.899	1.895	1.914	1.909	1.914
0.010	0.005	0.005	-0.010	0.005	0.000	0.034	2.642	1.899	1.899	1.895	1.914	1.909	1.909
0.005	-0.005	0.000	-0.005	0.010	0.000	0.029	2.651	1.895	1.895	1.895	1.914	1.909	1.909
0.010	-0.005	0.000	-0.005	0.005	0.005	0.034	2.729	1.904	1.899	1.895	1.914	1.909	1.909
0.005	-0.010	-0.005	-0.005	0.010	0.005	0.029	2.632	1.895	1.890	1.895	1.909	1.909	1.909
0.005	0.000	0.005	-0.005	0.005	0.010	0.029	2.637	1.899	1.899	1.895	1.914	1.909	1.909
0.000	0.005	0.010	0.000	0.005	0.005	0.029	2.651	1.899	1.899	1.895	1.914	1.909	1.909
0.000	0.005	0.005	0.005	0.000	-0.024	0.034	2.729	1.885	1.899	1.895	1.914	1.909	1.899
0.000	0.005	0.010	0.005	0.005	0.015	0.034	2.676	1.890	1.895	1.895	1.914	1.909	1.914
0.000	0.015	0.000	0.005	0.000	-0.020	0.034	2.720	1.895	1.895	1.895	1.914	1.909	1.904
-0.005	0.020	-0.005	0.015	0.000	0.010	0.034	2.700	1.899	1.899	1.895	1.919	1.909	1.914
-0.005	0.020	-0.005	0.015	0.005	0.010	0.034	2.715	1.895	1.895	1.895	1.914	1.909	1.914
-0.010	0.010	0.000	0.005	0.005	0.005	0.029	2.808	1.909	1.895	1.895	1.914	1.909	1.909
-0.005	0.005	-0.005	0.000	0.005	0.005	0.034	2.720	1.914	1.899	1.895	1.909	1.909	1.909
-0.005	0.005	-0.005	0.000	0.000	0.000	0.029	2.632	1.904	1.899	1.895	1.909	1.909	1.904
0.010	-0.005	0.005	0.000	-0.005	-0.005	0.034	2.617	1.895	1.899	1.895	1.909	1.904	1.904
0.005	-0.010	0.005	0.000	0.000	0.005	0.029	2.690	1.895	1.895	1.895	1.909	1.909	1.909
0.005	-0.015	0.005	-0.005	0.005	-0.005	0.034	2.676	1.890	1.890	1.895	1.909	1.909	1.909
-0.005	-0.005	0.000	-0.005	0.000	-0.010	0.029	2.676	1.890	1.895	1.895	1.909	1.904	1.904
0.010	0.005	0.005	-0.010	0.000	0.015	0.034	2.681	1.899	1.895	1.895	1.909	1.909	1.914
0.000	-0.029	0.005	-0.010	-0.005	0.015	0.034	2.676	1.895	1.885	1.890	1.909	1.904	1.909
0.015	-0.024	0.005	0.005	0.000	-0.010	0.034	2.690	1.899	1.895	1.890	1.909	1.904	1.904
0.010	-0.020	0.000	-0.005	-0.005	0.010	0.034	2.676	1.895	1.890	1.890	1.909	1.904	1.909
0.005	-0.010	0.000	0.005	0.000	0.010	0.029	2.676	1.895	1.895	1.890	1.909	1.904	1.904
-0.010	0.024	0.000	0.000	0.000	0.005	0.029	2.681	1.890	1.899	1.895	1.914	1.904	1.909
-0.010	0.029	0.005	0.000	0.000	-0.010	0.029	2.681	1.895	1.899	1.895	1.914	1.904	1.899
-0.005	0.005	0.000	0.005	0.000	0.010	0.034	2.676	1.895	1.895	1.895	1.914	1.909	1.909
-0.005	0.010	0.000	0.000	0.000	0.005	0.034	2.676	1.895	1.895	1.895	1.914	1.909	1.909
-0.010	0.015	-0.010	0.005	0.000	0.005	0.034	2.695	1.895	1.895	1.890	1.914	1.909	1.909
0.000	0.005	-0.005	0.005	0.000	0.000	0.029	2.676	1.899	1.895	1.895	1.914	1.909	1.904
0.000	-0.005	-0.005	0.000	0.005	0.005	0.029	2.690	1.899	1.890	1.895	1.914	1.909	1.909
0.005	-0.010	0.000	0.005	0.000	-0.020	0.034	2.681	1.899	1.895	1.890	1.909	1.904	1.899
0.005	0.015	0.005	0.000	0.000	0.015	0.029	2.695	1.904	1.899	1.895	1.909	1.909	1.909
0.005	0.005	0.000	0.005	0.000	-0.005	0.034	2.676	1.899	1.899	1.895	1.909	1.909	1.904
0.005	0.005	0.005	-0.005	0.000	0.000	0.029	2.700	1.899	1.895	1.899	1.909	1.904	1.904
0.000	-0.005	0.000	-0.005	0.005	0.005	0.034	2.695	1.899	1.895	1.895	1.909	1.904	1.909
0.005	-0.010	0.005	-0.005	-0.005	0.010	0.029	2.676	1.899	1.895	1.895	1.914	1.909	1.909
0.005	0.000	0.010	-0.005	0.005	0.005	0.034	2.700	1.899	1.895	1.895	1.914	1.909	1.904
0.005	0.005	0.010	0.005	0.000	0.005	0.034	2.690	1.899	1.899	1.895	1.914	1.909	1.909
0.005	0.005	0.005	0.000	0.000	0.005	0.034	2.642	1.895	1.899	1.895	1.914	1.909	1.909
0.010	0.005	0.000	0.000	0.000	-0.015	0.034	2.793	1.909	1.899	1.895	1.914	1.909	1.904
0.010	0.000	0.000	0.010	-0.005	0.010	0.029	2.642	1.899	1.895	1.890	1.914	1.909	1.909
0.000	0.005	-0.005	0.005	-0.005	0.005	0.029	2.656	1.890	1.895	1.895	1.914	1.909	1.909
-0.015	0.000	-0.005	0.005	0.005	-0.010	0.029	2.734	1.899	1.890	1.890	1.914	1.909	1.904
-0.010	-0.005	-0.005	0.000	0.000	-0.010	0.029	2.729	1.899	1.890	1.895	1.909	1.909	1.909
0.000	0.000	-0.005	0.000	0.000	0.010	0.034	2.715	1.909	1.899	1.895	1.909	1.909	1.914
-0.010	-0.005	-0.005	0.000	0.005	0.010	0.029	2.646	1.904	1.895	1.895	1.909	1.909	1.909
0.000	0.000	-0.005	0.000	0.000	0.000	0.029	2.729	1.895	1.899	1.895	1.909	1.909	1.904
-0.005	0.000	0.000	-0.005	0.005	-0.005	0.029	2.661	1.899	1.895	1.895	1.914	1.909	1.909
0.005	0.010	0.000	-0.005	0.000	0.005	0.034	2.729	1.890	1.899	1.895	1.909	1.909	1.909
0.015	-0.015	0.000	0.000	0.005	0.000	0.029	2.690	1.895	1.890	1.895	1.909	1.909	1.909
0.010	-0.015	0.000	-0.005	0.000	-0.024	0.029	2.710	1.895	1.890	1.895	1.909	1.909	1.904
0.010	-0.005	0.015	-0.010	0.005	0.010	0.029	2.808	1.914	1.895	1.895	1.909	1.909	1.909
0.010	-0.010	0.005	0.000	0.000	-0.010	0.029	2.705	1.909	1.899	1.895	1.914	1.909	1.904
0.010	-0.015	0.010	-0.005	0.000	0.005	0.034	2.632	1.895	1.895	1.895	1.914	1.904	1.909
0.000	0.000	0.005	0.005	-0.005	0.000	0.034	2.632	1.890	1.895	1.895	1.914	1.909	1.909
-0.005	0.005	0.005	0.000	-0.005	0.005	0.034	2.690	1.895	1.895	1.890	1.914	1.909	1.909
0.005	0.000	0.000	0.005	0.000	0.000	0.034	2.700	1.895	1.895	1.895	1.914	1.909	1.909
-0.005	0.010	0.000	0.005	0.000	-0.005	0.034	2.676	1.895	1.899	1.895	1.914	1.909	1.904
0.000	0.015	-0.005	0.010	0.000	0.000	0.029	2.676	1.895	1.895	1.895	1.914	1.909	1.909
-0.010	0.015	-0.005	0.005	0.005	0.010	0.034	2.671	1.890	1.895	1.895	1.914	1.909	1.909
0.000	0.015	0.000	0.005	0.005	0.010	0.034	2.705	1.899	1.899	1.895	1.914	1.909	1.909
-0.005	0.015	0.000	0.000	0.000	0.015	0.029	2.661	1.899	1.899	1.895	1.914	1.909	1.914
0.000	0.010	-0.005	0.000	0.005	0.010	0.034	2.666	1.895	1.895	1.895	1.914	1.909	1.914
0.000	0.005	-0.005	0.005	0.005	-0.015	0.034	2.681	1.899	1.890	1.895	1.914	1.909	1.904
-0.005	0.015	0.000	0.000	0.005	-0.005	0.034	2.676	1.899	1.895	1.895	1.914	1.909	1.904
-0.005	0.020	0.000	0.000	-0.005	-0.010	0.034	2.666	1.895	1.899	1.895	1.914	1.909	1.909
-0.005	0.010	0.005	0.000	0.000	0.005	0.034	2.686	1.899	1.895	1.895	1.914	1.909	1.914
0.015	0.005	0.005	0.000	0.000	0.010	0.034	2.690	1.904	1.895	1.895	1.909	1.904	1.909
0.010	0.005	0.000	0.005	0.005	0.005	0.029	2.676	1.899	1.895	1.895	1.914	1.904	1.909
0.000	0.000	0.010	0.000	0.000	-0.010	0.029	2.676	1.895	1.890	1.890	1.909	1.909	1.904
0.005	0.005	0.000	-0.005	0.000	0.005	0.029	2.686	1.899	1.895	1.890	1.909	1.909	1.909
0.005	0.000	0.010	0.005	0.000	0.005	0.029	2.700	1.895	1.895	1.890	1.909	1.904	1.904
0.005	0.010	0.000	0.005	0.000	0.005	0.034	2.671	1.895	1.895	1.890	1.909	1.904	1.904
0.005	0.010	0.000	0.000	0.000	0.000	0.029	2.705	1.899	1.895	1.890	1.914	1.904	1.904
-0.010	0.005	0.000	0.000	0.000	0.005	0.029	2.700	1.895	1.895	1.890	1.909	1.909	1.904
-0.005	0.015	0.000	0.000	0.000	0.000	0.034	2.671	1.895	1.899	1.895	1.909	1.904	1.904
0.000	0.010	0.000	0.000	0.000	-0.010	0.034	2.700	1.895	1.895	1.890	1.909	1.909	1.904
-0.015	0.015	0.000	0.005	0.000	0.005	0.034	2.671	1.895	1.899	1.895	1.914	1.909	1.909
-0.005	0.020	-0.005	0.005	0.005	0.005	0.029	2.642	1.890	1.895	1.895	1.914	1.909	1.909
-0.010	0.000	-0.005	0.000	0.000	0.010	0.029	2.651	1.890	1.890	1.890	1.909	1.904	1.909
0.005	-0.015	0.000	0.005	0.000	0.015	0.029	2.646	1.890	1.885	1.885	1.909	1.909	1.909
0.010	-0.010	-0.005	0.000	0.005	0.005	0.029	2.637	1.885	1.890	1.885	1.904	1.909	1.909
0.000	-0.005	0.005	-0.005	0.000	0.005	0.029	2.715	1.890	1.890	1.885	1.904	1.904	1.904
0.010	-0.005	0.000	-0.005	0.005	-0.005	0.034	2.637	1.890	1.890	1.890	1.904	1.904	1.904
0.005	-0.010	0.010	-0.010	0.000	-0.005	0.034	2.725	1.895	1.890	1.890	1.904	1.904	1.899
0.000	-0.005	0.005	-0.005	0.000	-0.010	0.029	2.656	1.890	1.890	1.885	1.904	1.899	1.899
0.005	0.000	0.000	-0.005	0.005	-0.005	0.034	2.632	1.885	1.885	1.885	1.904	1.904	1.904
0.005	0.000	0.000	0.005	0.000	-0.010	0.029	2.656	1.890	1.885	1.885	1.909	1.899	1.899
0.005	-0.005	0.000	-0.005	0.000	0.010	0.029	2.759	1.895	1.890	1.885	1.904	1.904	1.904
0.005	0.000	0.000	0.000	0.000	0.000	0.029	2.686	1.899	1.890	1.890	1.909	1.904	1.904
0.000	0.005	0.005	0.000	0.000	0.010	0.034	2.720	1.899	1.895	1.890	1.904	1.899	1.904
-0.010	0.015	0.000	0.000	0.000	0.000	0.029	2.671	1.895	1.895	1.890	1.909	1.899	1.899
-0.005	0.020	0.000	0.005	0.010	-0.005	0.034	2.622	1.909	1.899	1.890	1.909	1.904	1.899
-0.005	0.020	0.000	0.005	0.000	-0.015	0.034	2.642	1.914	1.899	1.895	1.909	1.904	1.904
0.000	0.010	-0.005	0.005	0.005	-0.005	0.034	2.720	1.914	1.904	1.899	1.909	1.904	1.904
-0.005	0.005	-0.005	0.005	0.000	0.005	0.034	2.700	1.909	1.899	1.895	1.909	1.904	1.904
0.000	0.010	-0.005	0.005	0.000	-0.005	0.034	2.676	1.909	1.904	1.895	1.914	1.904	1.904
0.005	0.000	-0.005	0.000	0.000	-0.005	0.029	2.676	1.899	1.899	1.899	1.914	1.909	1.899
0.010	0.000	0.000	0.000	0.000	0.005	0.029	2.686	1.899	1.899	1.899	1.914	1.909	1.909
0.000	-0.010	0.000	0.005	0.005	0.010	0.034	2.690	1.895	1.899	1.899	1.914	1.909	1.909
0.005	-0.010	0.005	-0.005	-0.005	0.005	0.034	2.681	1.904	1.895	1.899	1.914	1.909	1.904
0.000	-0.005	0.005	-0.005	0.000	0.005	0.034	2.671	1.895	1.895	1.895	1.914	1.909	1.909
0.015	0.000	0.005	-0.005	0.000	-0.015	0.034	2.676	1.899	1.899	1.895	1.914	1.904	1.899
0.000	0.000	0.005	0.000	-0.005	0.005	0.029	2.671	1.895	1.899	1.895	1.909	1.909	1.909
0.015	0.000	0.005	0.005	0.000	-0.015	0.034	2.671	1.895	1.899	1.895	1.914	1.909	1.904
0.000	0.000	0.005	0.010	0.000	0.005	0.034	2.700	1.880	1.890	1.895	1.914	1.909	1.909
0.005	-0.005	0.005	0.010	0.005	0.000	0.029	2.700	1.895	1.890	1.890	1.914	1.909	1.909
0.000	-0.005	0.000	0.015	0.005	0.010	0.034	2.700	1.895	1.895	1.890	1.914	1.909	1.914
-0.015	0.024	0.000	0.005	0.000	0.010	0.029	2.676	1.890	1.899	1.895	1.909	1.909	1.909
-0.005	0.015	-0.005	0.005	0.005	-0.005	0.034	2.686	1.895	1.895	1.890	1.909	1.909	1.909
-0.010	0.015	-0.005	0.000	0.005	0.005	0.034	2.700	1.895	1.895	1.890	1.909	1.909	1.909
-0.005	0.015	-0.005	0.005	0.005	-0.005	0.034	2.705	1.899	1.895	1.895	1.914	1.909	1.909
-0.010	0.005	-0.005	0.000	0.010	-0.010	0.029	2.681	1.895	1.890	1.895	1.914	1.909	1.909
-0.005	-0.005	-0.005	0.005	0.000	0.010	0.034	2.695	1.899	1.890	1.895	1.909	1.904	1.909
0.005	-0.005	0.000	0.000	-0.005	0.005	0.029	2.666	1.899	1.890	1.890	1.904	1.904	1.909
0.005	-0.005	0.010	-0.005	-0.005	0.010	0.029	2.681	1.899	1.895	1.890	1.909	1.904	1.904
-0.005	-0.015	0.005	-0.010	0.000	0.000	0.034	2.695	1.899	1.890	1.890	1.909	1.904	1.904
0.000	-0.020	0.000	0.000	-0.005	-0.015	0.029	2.690	1.895	1.890	1.890	1.909	1.904	1.899
0.005	-0.020	0.005	-0.005	-0.010	0.000	0.029	2.632	1.890	1.890	1.890	1.909	1.904	1.904
0.010	-0.020	0.005	0.000	-0.010	-0.010	0.029	2.788	1.904	1.895	1.890	1.904	1.899	1.899
0.005	-0.010	0.005	-0.010	-0.005	-0.015	0.029	2.632	1.895	1.895	1.890	1.904	1.904	1.899
0.010	-0.010	0.000	0.000	0.000	0.005	0.034	2.646	1.890	1.895	1.890	1.909	1.904	1.909
0.005	-0.005	0.005	0.000	0.005	0.005	0.034	2.739	1.904	1.895	1.895	1.909	1.904	1.909
-0.005	0.005	0.005	0.005	0.000	-0.005	0.029	2.729	1.904	1.899	1.895	1.909	1.904	1.909
0.005	0.005	0.000	0.005	-0.005	0.010	0.029	2.661	1.899	1.899	1.895	1.914	1.904	1.909
0.000	0.015	0.000	0.005	-0.005	0.000	0.029	2.656	1.895	1.904	1.895	1.914	1.904	1.904
-0.020	0.015	-0.010	0.010	-0.005	0.000	0.034	2.720	1.895	1.899	1.895	1.914	1.904	1.904
-0.015	0.010	-0.010	0.010	0.000	0.005	0.029	2.666	1.895	1.895	1.895	1.914	1.909	1.909
-0.005	0.005	-0.010	0.010	-0.010	0.005	0.034	2.622	1.890	1.895	1.895	1.914	1.904	1.909
-0.005	0.005	0.000	0.010	-0.005	0.000	0.029	2.700	1.899	1.895	1.895	1.914	1.909	1.904
0.005	0.000	0.000	0.005	-0.005	0.010	0.034	2.627	1.890	1.895	1.895	1.909	1.909	1.909
0.005	0.000	0.000	0.000	0.010	-0.015	0.029	2.808	1.904	1.895	1.895	1.909	1.909	1.904
0.010	-0.005	0.000	-0.005	0.010	0.010	0.029	2.734	1.909	1.895	1.895	1.909	1.909	1.914
0.005	-0.020	0.005	-0.005	0.010	-0.015	0.029	2.632	1.899	1.890	1.890	1.909	1.909	1.904
0.000	-0.020	0.005	0.005	0.010	0.015	0.034	2.622	1.890	1.890	1.890	1.914	1.909	1.914
0.015	-0.020	0.005	-0.005	0.015	0.015	0.029	2.700	1.895	1.890	1.890	1.909	1.904	1.914
0.005	-0.015	0.005	-0.005	-0.005	0.010	0.029	2.686	1.895	1.895	1.890	1.909	1.899	1.909
0.005	-0.010	0.005	-0.010	-0.015	-0.005	0.029	2.681	1.895	1.890	1.890	1.909	1.899	1.895
0.000	0.005	0.005	-0.005	0.000	-0.005	0.029	2.666	1.890	1.899	1.895	1.909	1.904	1.904
0.000	0.005	0.000	0.005	0.005	0.010	0.034	2.676	1.895	1.895	1.895	1.914	1.909	1.909
0.005	-0.005	0.005	0.005	0.000	0.000	0.034	2.705	1.895	1.895	1.895	1.909	1.904	1.904
-0.015	-0.005	0.000	-0.005	-0.005	0.000	0.034	2.695	1.895	1.890	1.890	1.909	1.904	1.904
-0.015	0.005	0.000	0.005	-0.005	-0.010	0.034	2.676	1.895	1.895	1.890	1.914	1.904	1.904
-0.010	0.005	0.000	0.005	-0.005	0.010	0.029	2.676	1.895	1.895	1.895	1.909	1.904	1.909
-0.005	0.020	0.000	0.005	0.005	0.005	0.034	2.661	1.890	1.899	1.895	1.909	1.909	1.909
0.000	0.015	0.000	0.005	0.034	0.005	0.034	2.681	1.899	1.899	1.895	1.914	1.919	1.909
-0.005	0.024	0.000	0.000	0.029	0.005	0.029	2.705	1.899	1.899	1.895	1.914	1.914	1.909
0.005	0.015	-0.005	0.000	0.005	-0.005	0.029	2.695	1.904	1.895	1.895	1.914	1.904	1.909
0.005	0.015	0.000	0.005	0.005	0.005	0.029	2.676	1.899	1.895	1.895	1.914	1.904	1.909
0.010	0.000	0.000	0.000	0.000	-0.005	0.029	2.695	1.899	1.895	1.895	1.909	1.904	1.909
0.015	0.000	0.005	0.005	0.000	0.015	0.034	2.681	1.899	1.895	1.895	1.914	1.904	1.909
0.005	-0.005	0.005	-0.005	0.000	0.005	0.034	2.676	1.895	1.895	1.895	1.914	1.904	1.904
0.010	-0.010	0.005	0.000	0.000	0.005	0.034	2.676	1.895	1.890	1.890	1.909	1.904	1.909
0.010	-0.015	0.000	0.000	0.000	0.010	0.029	2.671	1.895	1.890	1.890	1.909	1.904	1.909
0.000	-0.010	0.005	0.005	0.000	0.005	0.034	2.695	1.895	1.890	1.890	1.909	1.904	1.904
0.005	-0.015	0.000	0.000	-0.005	0.005	0.029	2.681	1.895	1.890	1.890	1.909	1.904	1.904
0.005	-0.005	0.000	0.000	-0.005	0.000	0.029	2.700	1.895	1.895	1.890	1.909	1.904	1.904
0.005	0.005	-0.005	0.005	0.000	0.000	0.029	2.681	1.895	1.895	1.890	1.909	1.904	1.904
-0.005	0.005	0.000	0.010	-0.005	-0.010	0.029	2.642	1.890	1.895	1.895	1.909	1.909	1.899
-0.005	0.010	-0.005	0.005	0.000	-0.005	0.029	2.783	1.899	1.895	1.890	1.909	1.904	1.904
-0.005	0.015	0.000	0.010	0.000	0.000	0.029	2.642	1.895	1.899	1.895	1.909	1.909	1.909
0.000	0.010	0.000	0.005	0.000	-0.005	0.034	2.651	1.890	1.895	1.895	1.909	1.909	1.904
-0.005	0.005	0.005	0.010	-0.005	0.000	0.034	2.725	1.899	1.895	1.895	1.914	1.909	1.909
0.000	0.000	0.005	0.005	-0.005	-0.005	0.034	2.744	1.909	1.895	1.895	1.914	1.904	1.904
0.000	0.000	0.005	0.005	-0.005	-0.005	0.034	2.642	1.899	1.895	1.895	1.909	1.909	1.909
0.000	0.005	0.005	0.000	-0.005	0.005	0.034	2.646	1.895	1.899	1.895	1.909	1.909	1.909
0.010	-0.015	0.005	0.000	0.000	0.015	0.029	2.725	1.899	1.895	1.895	1.909	1.909	1.909
0.000	-0.005	0.000	-0.005	0.005	0.005	0.034	2.661	1.895	1.890	1.890	1.909	1.909	1.909
0.005	-0.015	-0.005	-0.005	0.005	0.010	0.029	2.651	1.895	1.890	1.890	1.909	1.904	1.909
0.015	-0.015	0.005	-0.005	0.005	-0.010	0.034	2.700	1.895	1.890	1.890	1.909	1.904	1.899
0.000	-0.015	0.000	-0.005	0.005	0.015	0.034	2.622	1.885	1.890	1.890	1.909	1.904	1.909
0.005	-0.005	0.005	0.000	0.005	-0.015	0.034	2.793	1.904	1.895	1.890	1.909	1.904	1.899
0.005	0.005	0.000	-0.005	0.000	-0.005	0.034	2.749	1.909	1.899	1.890	1.909	1.904	1.904
0.000	0.000	0.000	0.005	-0.005	-0.020	0.029	2.656	1.899	1.899	1.895	1.909	1.899	1.899
-0.010	0.015	-0.005	0.010	-0.005	0.010	0.029	2.715	1.904	1.904	1.895	1.914	1.904	1.909
0.005	0.015	-0.005	0.015	-0.005	-0.005	0.034	2.695	1.904	1.904	1.899	1.914	1.904	1.904
-0.005	0.015	0.000	0.005	0.000	0.020	0.029	2.676	1.899	1.899	1.899	1.914	1.909	1.909
-0.010	0.010	0.000	0.005	0.005	0.005	0.034	2.700	1.904	1.899	1.899	1.919	1.909	1.909
-0.010	0.010	0.000	0.005	0.005	0.015	0.034	2.690	1.904	1.904	1.899	1.914	1.909	1.909
0.000	0.010	-0.005	0.000	0.005	0.010	0.029	2.690	1.904	1.899	1.899	1.914	1.909	1.909
0.005	0.000	0.000	0.000	0.010	0.005	0.034	2.690	1.904	1.899	1.899	1.919	1.909	1.909
0.005	0.000	0.000	-0.005	0.015	0.005	0.029	2.681	1.904	1.899	1.899	1.914	1.914	1.909
0.000	0.000	0.000	-0.005	0.010	0.015	0.034	2.676	1.895	1.899	1.899	1.914	1.914	1.909
0.010	-0.010	0.005	-0.005	0.000	-0.010	0.029	2.666	1.895	1.895	1.895	1.914	1.909	1.909
0.010	-0.020	0.005	0.000	0.000	-0.010	0.034	2.695	1.895	1.890	1.895	1.914	1.909	1.904
0.010	-0.005	0.005	-0.005	0.000	-0.010	0.029	2.690	1.895	1.895	1.895	1.914	1.909	1.904
0.005	-0.015	0.010	0.000	0.005	-0.005	0.029	2.661	1.890	1.890	1.895	1.914	1.909	1.909
0.010	-0.010	0.005	0.000	0.005	0.000	0.029	2.690	1.895	1.895	1.895	1.909	1.909	1.909
-0.005	-0.005	0.000	0.005	0.010	0.015	0.034	2.690	1.895	1.895	1.895	1.914	1.909	1.914
0.000	0.000	-0.005	0.005	-0.005	0.015	0.034	2.695	1.895	1.899	1.890	1.914	1.904	1.909
0.000	0.000	0.005	0.020	-0.029	0.010	0.034	2.686	1.904	1.899	1.895	1.914	1.904	1.909
-0.010	0.010	0.000	0.010	0.000	0.000	0.034	2.695	1.899	1.904	1.895	1.914	1.909	1.909
-0.005	0.015	-0.010	0.010	-0.010	-0.010	0.029	2.681	1.899	1.899	1.895	1.914	1.904	1.899
-0.005	0.015	-0.005	0.010	-0.015	-0.029	0.029	2.700	1.904	1.899	1.895	1.914	1.909	1.899
-0.010	0.010	-0.005	0.005	-0.015	-0.010	0.034	2.705	1.899	1.899	1.895	1.914	1.909	1.904
0.005	0.015	-0.005	0.010	-0.034	-0.010	0.029	2.686	1.904	1.904	1.899	1.914	1.904	1.904
0.000	0.015	0.000	0.000	-0.039	-0.015	0.029	2.700	1.899	1.899	1.899	1.914	1.904	1.904
0.000	0.000	0.000	0.000	-0.039	-0.005	0.029	2.686	1.895	1.890	1.899	1.914	1.904	1.904
0.005	-0.005	0.010	-0.005	-0.015	-0.005	0.034	2.671	1.899	1.895	1.895	1.914	1.914	1.909
0.010	-0.010	0.005	-0.005	0.005	0.000	0.034	2.788	1.909	1.895	1.895	1.914	1.919	1.909
0.010	0.000	0.005	-0.005	0.005	0.010	0.034	2.642	1.899	1.899	1.895	1.914	1.914	1.914
0.005	-0.015	0.005	0.000	0.005	0.015	0.034	2.646	1.895	1.895	1.895	1.914	1.914	1.914
0.010	-0.010	0.005	-0.005	-0.034	0.010	0.034	2.729	1.899	1.895	1.895	1.914	1.904	1.909
0.005	-0.015	0.005	-0.010	0.029	0.000	0.029	2.642	1.895	1.890	1.890	1.909	1.919	1.909
0.005	0.000	0.005	-0.005	0.063	0.000	0.029	2.646	1.895	1.899	1.895	1.914	1.924	1.914
0.000	-0.005	0.000	0.000	0.083	0.005	0.029	2.642	1.885	1.890	1.890	1.914	1.929	1.919
-0.010	-0.015	0.000	0.005	0.078	0.005	0.034	2.725	1.890	1.890	1.890	1.914	1.919	1.919
-0.010	-0.005	-0.005	0.010	0.068	0.000	0.034	2.671	1.899	1.890	1.890	1.914	1.914	1.919
0.000	0.005	-0.005	0.005	0.024	-0.015	0.029	2.725	1.904	1.895	1.890	1.909	1.899	1.909
-0.010	0.005	-0.005	0.000	0.000	0.005	0.034	2.700	1.904	1.899	1.890	1.909	1.895	1.909
-0.010	0.010	-0.005	0.005	-0.010	0.000	0.029	2.632	1.895	1.899	1.895	1.909	1.895	1.904
0.000	0.010	-0.005	0.010	0.000	0.020	0.029	2.812	1.914	1.899	1.895	1.914	1.904	1.909
0.005	0.005	0.000	0.010	-0.005	0.010	0.034	2.729	1.914	1.904	1.899	1.914	1.904	1.904
0.000	0.010	0.000	0.005	-0.015	0.015	0.029	2.656	1.909	1.904	1.899	1.914	1.904	1.904
0.005	-0.005	-0.005	0.005	-0.015	0.010	0.029	2.715	1.909	1.899	1.899	1.914	1.904	1.904
0.010	-0.010	0.005	0.000	-0.020	0.010	0.029	2.700	1.904	1.899	1.899	1.914	1.904	1.904
0.010	-0.010	0.010	0.000	-0.020	0.010	0.029	2.686	1.904	1.899	1.899	1.914	1.904	1.904
0.020	-0.010	0.000	0.005	-0.015	0.005	0.029	2.695	1.904	1.899	1.899	1.914	1.909	1.904
0.010	-0.005	0.010	-0.005	-0.015	-0.015	0.034	2.661	1.899	1.899	1.899	1.919	1.909	1.899
-0.005	0.000	0.005	-0.005	-0.015	0.015	0.034	2.705	1.895	1.899	1.899	1.919	1.909	1.909
0.005	0.000	0.005	0.000	-0.015	0.020	0.034	2.666	1.899	1.899	1.895	1.914	1.909	1.914
0.005	-0.005	0.005	0.000	-0.015	0.005	0.029	2.666	1.895	1.895	1.895	1.914	1.909	1.909
0.005	0.005	0.000	0.000	0.010	0.010	0.034	2.666	1.895	1.899	1.899	1.914	1.919	1.914
-0.010	0.015	0.000	0.005	0.010	-0.005	0.034	2.671	1.890	1.899	1.895	1.914	1.914	1.909
-0.010	0.015	0.000	0.000	0.005	0.000	0.034	2.676	1.890	1.895	1.895	1.914	1.914	1.914
-0.010	0.015	-0.005	0.000	0.010	0.010	0.034	2.676	1.890	1.895	1.895	1.914	1.914	1.914
-0.005	0.015	0.000	0.000	0.010	0.005	0.029	2.695	1.899	1.895	1.899	1.914	1.909	1.914
-0.010	0.015	-0.005	0.000	0.015	0.015	0.029	2.705	1.904	1.895	1.895	1.914	1.914	1.914
0.000	0.005	-0.005	0.000	0.015	0.010	0.034	2.690	1.904	1.895	1.895	1.914	1.914	1.914
0.000	0.010	-0.005	0.000	0.020	0.015	0.034	2.690	1.904	1.899	1.895	1.914	1.914	1.914
0.000	0.015	0.000	0.000	0.015	0.000	0.034	2.671	1.899	1.899	1.899	1.914	1.909	1.909
-0.005	0.000	0.005	-0.005	0.000	0.000	0.034	2.690	1.899	1.895	1.895	1.914	1.904	1.909
0.010	-0.020	0.005	-0.010	0.000	0.005	0.034	2.676	1.899	1.890	1.895	1.909	1.904	1.909
0.000	-0.015	0.005	-0.010	-0.024	-0.005	0.034	2.700	1.899	1.895	1.895	1.909	1.899	1.904
0.015	0.010	0.010	-0.005	-0.024	-0.015	0.034	2.700	1.904	1.899	1.899	1.914	1.899	1.899
0.010	0.015	0.005	0.000	-0.015	-0.005	0.029	2.671	1.899	1.899	1.899	1.914	1.904	1.904
0.010	0.005	0.005	0.005	-0.010	-0.020	0.034	2.695	1.899	1.895	1.895	1.914	1.909	1.899
0.005	0.005	0.005	0.005	0.005	-0.034	0.034	2.695	1.899	1.895	1.895	1.914	1.914	1.904
0.005	0.010	0.005	0.000	0.015	-0.005	0.029	2.642	1.890	1.895	1.895	1.914	1.919	1.914
-0.005	0.010	0.000	0.000	0.020	0.000	0.029	2.788	1.904	1.895	1.895	1.914	1.914	1.914
0.000	0.015	0.005	0.000	-0.005	0.005	0.034	2.632	1.895	1.899	1.895	1.914	1.909	1.914
-0.005	0.015	0.000	0.005	-0.015	0.005	0.034	2.642	1.890	1.895	1.895	1.914	1.904	1.909
-0.005	0.020	-0.005	0.005	-0.010	0.005	0.034	2.729	1.899	1.899	1.895	1.914	1.909	1.909
-0.015	0.010	-0.005	0.005	-0.005	0.010	0.034	2.637	1.890	1.895	1.895	1.914	1.909	1.909
-0.005	0.020	-0.010	-0.005	-0.015	-0.010	0.029	2.705	1.890	1.895	1.895	1.909	1.909	1.904
0.005	0.010	0.000	0.000	0.000	0.000	0.029	2.642	1.895	1.890	1.895	1.909	1.909	1.909
0.000	0.005	0.000	0.000	0.005	-0.010	0.029	2.720	1.899	1.890	1.890	1.914	1.909	1.904
0.005	0.005	0.000	0.000	-0.010	-0.005	0.029	2.671	1.895	1.895	1.890	1.909	1.909	1.909
0.000	0.000	0.000	0.000	0.010	-0.010	0.034	2.642	1.890	1.885	1.890	1.909	1.909	1.909
0.000	-0.005	0.005	0.000	0.005	-0.024	0.034	2.700	1.895	1.890	1.890	1.909	1.909	1.904
0.005	-0.005	0.005	-0.005	0.015	0.010	0.034	2.617	1.899	1.895	1.890	1.909	1.909	1.914
0.000	-0.005	0.005	-0.005	0.005	0.005	0.034	2.808	1.914	1.895	1.890	1.909	1.909	1.909
-0.005	-0.015	0.010	0.000	0.000	0.010	0.034	2.720	1.909	1.895	1.890	1.909	1.904	1.909
0.005	-0.005	0.000	0.000	-0.005	0.005	0.034	2.651	1.904	1.899	1.890	1.909	1.904	1.904
0.005	0.005	0.005	0.000	0.000	0.015	0.034	2.725	1.904	1.904	1.895	1.909	1.904	1.909
0.010	-0.005	0.000	0.005	0.000	0.010	0.034	2.700	1.904	1.904	1.899	1.914	1.909	1.909
0.005	0.010	0.005	0.020	0.005	0.005	0.034	2.676	1.899	1.904	1.904	1.919	1.909	1.909
0.000	-0.005	0.000	0.010	0.005	0.010	0.029	2.690	1.899	1.899	1.895	1.914	1.909	1.909
-0.010	0.005	0.000	0.010	0.049	0.005	0.029	2.700	1.899	1.899	1.899	1.919	1.924	1.914
-0.010	0.005	0.000	0.020	0.024	0.000	0.034	2.695	1.904	1.904	1.899	1.919	1.909	1.914
-0.005	0.000	-0.005	0.010	0.005	-0.005	0.029	2.671	1.899	1.899	1.899	1.919	1.909	1.909
0.000	0.000	-0.005	0.015	0.000	0.000	0.034	2.690	1.904	1.899	1.899	1.919	1.904	1.904
-0.015	0.005	-0.005	0.005	0.000	0.005	0.029	2.671	1.899	1.899	1.899	1.914	1.904	1.909
0.005	0.005	0.000	0.005	-0.005	0.010	0.034	2.690	1.904	1.899	1.899	1.914	1.909	1.909
0.000	0.000	0.005	0.000	-0.005	0.010	0.034	2.676	1.899	1.899	1.899	1.914	1.909	1.909
0.010	0.010	0.000	-0.005	-0.010	0.005	0.029	2.695	1.909	1.904	1.899	1.914	1.909	1.909
0.010	0.000	0.005	-0.005	-0.005	-0.010	0.029	2.686	1.904	1.899	1.899	1.914	1.909	1.904
0.010	-0.005	0.005	0.000	0.000	0.015	0.034	2.690	1.899	1.895	1.895	1.914	1.909	1.914
0.015	-0.005	0.000	0.005	-0.005	0.005	0.029	2.666	1.899	1.899	1.899	1.919	1.909	1.909
0.005	-0.005	0.000	0.005	-0.020	0.005	0.029	2.695	1.904	1.895	1.895	1.914	1.904	1.904
0.010	-0.005	0.000	0.005	-0.020	0.010	0.029	2.676	1.899	1.899	1.895	1.914	1.909	1.909
0.005	-0.005	0.005	0.000	-0.010	0.010	0.034	2.681	1.899	1.895	1.895	1.914	1.909	1.904
0.000	0.000	0.000	0.005	0.010	-0.010	0.034	2.676	1.890	1.895	1.895	1.914	1.914	1.909
0.000	0.010	0.000	0.000	0.015	0.000	0.034	2.695	1.895	1.895	1.895	1.914	1.914	1.914
-0.005	0.015	-0.005	0.005	0.000	0.000	0.029	2.700	1.899	1.895	1.895	1.914	1.909	1.909
0.000	0.015	0.000	0.005	-0.015	-0.005	0.034	2.690	1.904	1.899	1.895	1.914	1.909	1.909
-0.010	0.005	-0.005	0.000	-0.005	0.000	0.034	2.686	1.899	1.899	1.895	1.909	1.909	1.909
0.000	0.015	-0.005	0.000	0.000	0.000	0.034	2.686	1.899	1.899	1.895	1.909	1.909	1.909
-0.005	0.015	0.000	0.000	0.010	0.000	0.034	2.642	1.895	1.899	1.899	1.909	1.914	1.914
0.000	0.015	-0.005	-0.005	0.005	0.010	0.029	2.783	1.909	1.899	1.899	1.909	1.909	1.914
0.005	0.005	0.000	-0.010	-0.010	0.005	0.029	2.646	1.899	1.899	1.895	1.909	1.909	1.909
0.000	-0.005	0.000	-0.010	-0.020	0.005	0.034	2.651	1.895	1.895	1.895	1.914	1.904	1.909
0.000	-0.005	0.005	-0.010	-0.039	0.010	0.034	2.729	1.899	1.895	1.895	1.909	1.899	1.904
0.005	-0.010	0.005	-0.010	-0.015	-0.005	0.034	2.627	1.895	1.890	1.895	1.914	1.909	1.904
0.005	-0.024	0.005	-0.005	0.015	0.000	0.034	2.749	1.904	1.890	1.895	1.914	1.919	1.904
0.010	-0.010	0.005	-0.005	0.039	-0.024	0.034	2.646	1.899	1.895	1.895	1.914	1.919	1.909
0.010	-0.015	0.005	-0.010	0.068	-0.020	0.034	2.729	1.899	1.895	1.895	1.914	1.924	1.909
0.015	-0.010	0.005	-0.005	0.073	-0.039	0.034	2.666	1.899	1.899	1.890	1.914	1.919	1.909
0.000	-0.005	0.000	-0.010	0.034	-0.029	0.029	2.642	1.890	1.899	1.895	1.909	1.909	1.909
-0.005	0.000	0.005	-0.010	0.000	-0.020	0.034	2.695	1.895	1.895	1.895	1.909	1.899	1.909
0.000	0.010	0.000	0.000	-0.029	-0.005	0.029	2.637	1.890	1.895	1.890	1.914	1.895	1.904
-0.010	0.005	-0.005	0.005	-0.034	0.000	0.029	2.808	1.904	1.895	1.895	1.914	1.899	1.904
-0.010	0.020	0.000	0.000	-0.015	0.010	0.029	2.759	1.914	1.904	1.895	1.914	1.909	1.909
-0.005	0.020	-0.005	0.005	0.000	0.024	0.029	2.656	1.904	1.904	1.895	1.914	1.914	1.914
0.000	0.015	-0.005	0.005	0.005	0.024	0.034	2.725	1.909	1.909	1.899	1.919	1.914	1.919
-0.010	0.015	0.000	0.005	-0.010	0.020	0.034	2.695	1.909	1.904	1.899	1.919	1.909	1.909
0.000	0.005	0.000	0.000	0.010	0.024	0.034	2.681	1.909	1.904	1.899	1.919	1.919	1.914
-0.005	0.005	0.005	0.000	0.000	0.020	0.034	2.681	1.904	1.904	1.899	1.919	1.914	1.914
-0.005	-0.010	0.000	0.000	0.010	0.000	0.029	2.676	1.899	1.895	1.899	1.919	1.914	1.909
0.005	-0.010	0.005	-0.005	0.010	-0.010	0.034	2.705	1.904	1.895	1.899	1.914	1.914	1.909
0.010	-0.010	0.010	-0.005	0.000	0.020	0.029	2.671	1.899	1.899	1.899	1.919	1.914	1.914
0.005	-0.005	0.005	0.000	-0.015	-0.005	0.029	2.681	1.899	1.899	1.899	1.914	1.904	1.904
0.005	-0.010	0.010	-0.005	0.000	0.010	0.029	2.676	1.895	1.895	1.895	1.914	1.914	1.914
0.010	-0.005	0.005	-0.005	0.010	0.010	0.034	2.666	1.895	1.895	1.895	1.914	1.914	1.914
0.000	-0.005	0.000	0.000	0.005	0.010	0.034	2.686	1.895	1.895	1.895	1.914	1.914	1.909
0.010	-0.010	0.005	-0.005	0.024	0.015	0.029	2.671	1.899	1.895	1.895	1.914	1.919	1.914
0.000	0.000	0.000	-0.005	0.024	0.010	0.034	2.681	1.899	1.899	1.895	1.914	1.914	1.914
0.000	0.010	0.000	0.005	0.010	0.005	0.034	2.690	1.899	1.899	1.895	1.914	1.909	1.909
-0.010	0.020	0.000	0.005	-0.005	0.005	0.034	2.676	1.895	1.899	1.895	1.914	1.904	1.909
-0.010	0.024	-0.005	0.015	0.000	-0.005	0.034	2.686	1.895	1.899	1.895	1.914	1.909	1.904
-0.005	0.010	-0.005	0.015	-0.005	0.005	0.034	2.686	1.895	1.895	1.895	1.914	1.909	1.909
-0.005	0.005	-0.005	0.010	-0.005	0.010	0.034	2.681	1.895	1.895	1.895	1.914	1.909	1.914
-0.015	0.005	0.000	0.005	0.005	-0.010	0.029	2.671	1.890	1.890	1.895	1.914	1.909	1.904
-0.005	0.000	0.000	0.000	-0.005	0.015	0.029	2.695	1.895	1.895	1.895	1.914	1.909	1.909
-0.005	-0.005	0.005	0.000	-0.005	0.005	0.034	2.695	1.899	1.895	1.895	1.909	1.909	1.909
-0.005	0.000	0.005	0.000	-0.005	0.005	0.029	2.695	1.899	1.895	1.890	1.914	1.904	1.904
0.010	-0.015	0.005	0.000	-0.005	-0.005	0.034	2.700	1.904	1.890	1.890	1.909	1.909	1.904
0.010	-0.005	0.000	-0.005	-0.005	-0.005	0.029	2.686	1.904	1.895	1.895	1.909	1.904	1.904
0.015	-0.010	0.005	-0.005	-0.010	-0.010	0.034	2.632	1.895	1.895	1.895	1.909	1.904	1.904
0.010	-0.005	0.000	-0.005	-0.005	0.000	0.034	2.646	1.890	1.895	1.895	1.909	1.904	1.909
0.015	-0.010	0.005	-0.005	-0.005	0.010	0.034	2.637	1.885	1.890	1.895	1.909	1.904	1.909
0.010	-0.005	0.005	0.000	-0.005	0.000	0.029	2.661	1.890	1.885	1.890	1.914	1.904	1.904
0.000	0.005	0.000	0.000	-0.005	-0.010	0.029	2.734	1.895	1.895	1.890	1.909	1.904	1.899
0.005	0.005	0.005	0.005	0.000	0.005	0.029	2.725	1.899	1.895	1.890	1.909	1.909	1.909
-0.005	0.024	0.000	0.005	0.000	0.005	0.029	2.627	1.895	1.899	1.895	1.914	1.909	1.909
-0.005	0.005	-0.005	0.015	0.015	0.005	0.034	2.646	1.885	1.890	1.890	1.914	1.909	1.909
-0.005	0.000	-0.010	0.010	0.015	-0.020	0.029	2.627	1.885	1.885	1.890	1.909	1.909	1.904
-0.015	-0.010	-0.005	0.005	0.010	0.010	0.034	2.666	1.890	1.885	1.885	1.909	1.909	1.914
-0.005	0.000	-0.005	0.005	-0.005	0.005	0.034	2.646	1.890	1.890	1.885	1.909	1.904	1.909
-0.010	-0.010	-0.005	0.005	-0.010	-0.015	0.029	2.671	1.890	1.885	1.890	1.909	1.899	1.904
-0.005	-0.005	0.000	0.000	-0.005	0.000	0.029	2.637	1.890	1.890	1.890	1.904	1.899	1.904
-0.010	-0.010	0.005	0.000	-0.005	-0.015	0.034	2.686	1.890	1.890	1.890	1.904	1.904	1.899
0.010	-0.005	0.005	0.005	0.000	-0.005	0.034	2.715	1.875	1.890	1.890	1.904	1.904	1.904
0.024	0.005	0.015	0.015	0.005	-0.010	0.029	2.656	1.885	1.890	1.890	1.909	1.904	1.904
0.020	0.000	0.005	0.010	0.020	-0.005	0.029	2.632	1.885	1.880	1.885	1.909	1.904	1.904
0.010	0.005	0.000	0.000	0.005	0.005	0.034	2.695	1.880	1.885	1.885	1.899	1.899	1.909
0.005	0.005	0.005	0.005	-0.015	-0.024	0.034	2.690	1.885	1.885	1.885	1.904	1.895	1.895
-0.005	0.005	0.005	-0.005	-0.024	-0.024	0.034	2.695	1.890	1.880	1.880	1.904	1.890	1.895
-0.005	0.015	0.000	0.010	-0.020	-0.010	0.034	2.695	1.895	1.885	1.885	1.904	1.895	1.899
-0.020	0.005	0.000	0.000	-0.010	0.020	0.034	2.676	1.885	1.885	1.880	1.899	1.899	1.909
-0.020	0.010	0.000	0.000	0.000	0.020	0.034	2.690	1.890	1.885	1.880	1.899	1.899	1.904
-0.020	0.010	0.000	0.000	0.000	0.005	0.029	2.700	1.895	1.885	1.885	1.899	1.899	1.899
-0.015	0.000	-0.005	0.000	0.000	0.010	0.034	2.681	1.895	1.885	1.880	1.899	1.899	1.899
-0.010	0.005	-0.010	0.005	0.015	-0.010	0.029	2.695	1.899	1.890	1.885	1.904	1.904	1.899
-0.005	0.000	-0.005	0.000	0.015	-0.005	0.034	2.676	1.904	1.890	1.885	1.904	1.899	1.899
0.000	0.000	-0.005	0.000	0.039	0.010	0.029	2.690	1.899	1.895	1.890	1.904	1.909	1.904
0.015	0.020	0.000	0.005	0.015	0.005	0.034	2.686	1.904	1.904	1.895	1.904	1.899	1.899
0.020	0.000	0.000	0.000	-0.015	0.010	0.029	2.695	1.904	1.899	1.895	1.904	1.895	1.899
0.039	-0.020	0.005	-0.005	-0.015	0.005	0.029	2.676	1.904	1.890	1.895	1.904	1.895	1.895
0.054	-0.020	0.010	0.000	-0.005	-0.005	0.034	2.676	1.899	1.895	1.895	1.909	1.899	1.895
0.024	-0.010	0.010	-0.010	0.029	0.005	0.029	2.671	1.890	1.895	1.895	1.909	1.914	1.904
0.015	-0.020	0.010	-0.005	0.010	0.010	0.034	2.671	1.885	1.890	1.890	1.909	1.899	1.904
-0.005	-0.015	0.010	-0.005	0.010	-0.005	0.029	2.681	1.885	1.890	1.890	1.909	1.904	1.899
0.010	-0.010	0.005	-0.005	0.015	-0.005	0.029	2.700	1.895	1.890	1.890	1.909	1.904	1.899
0.000	-0.005	0.000	0.005	0.015	-0.005	0.029	2.661	1.890	1.890	1.890	1.914	1.909	1.904
0.005	0.000	0.000	0.015	0.015	-0.024	0.034	2.666	1.885	1.890	1.890	1.909	1.909	1.899
-0.024	0.005	0.000	0.010	0.000	0.010	0.034	2.705	1.890	1.890	1.890	1.909	1.904	1.909
-0.015	0.005	0.000	0.005	-0.010	0.005	0.034	2.690	1.895	1.890	1.885	1.904	1.899	1.904
-0.005	0.010	0.005	0.005	0.000	0.015	0.029	2.642	1.890	1.890	1.890	1.904	1.904	1.904
-0.005	0.039	-0.005	0.005	-0.015	0.015	0.034	2.783	1.899	1.899	1.890	1.904	1.899	1.904
-0.029	0.034	-0.005	0.000	-0.029	0.020	0.029	2.637	1.890	1.895	1.890	1.909	1.895	1.904
-0.034	0.029	-0.005	0.000	-0.044	0.005	0.034	2.656	1.885	1.890	1.890	1.904	1.895	1.895
-0.034	0.020	-0.005	0.000	-0.015	-0.005	0.029	2.725	1.895	1.890	1.890	1.904	1.904	1.895
-0.024	0.020	0.000	0.000	-0.005	-0.010	0.029	2.642	1.890	1.890	1.890	1.909	1.904	1.899
-0.024	0.024	-0.005	-0.005	0.015	-0.015	0.029	2.715	1.899	1.890	1.890	1.909	1.909	1.899
-0.005	-0.015	0.000	-0.005	0.024	-0.010	0.034	2.651	1.895	1.880	1.890	1.909	1.914	1.904
0.015	-0.020	0.000	-0.010	0.020	-0.010	0.029	2.729	1.909	1.890	1.885	1.904	1.904	1.904
0.054	-0.020	0.005	0.000	0.010	-0.024	0.029	2.651	1.909	1.890	1.890	1.909	1.899	1.899
0.049	-0.029	0.010	-0.005	0.010	0.005	0.034	2.686	1.909	1.895	1.890	1.904	1.904	1.909
0.024	-0.015	0.005	0.005	0.000	-0.005	0.029	2.700	1.899	1.899	1.890	1.909	1.899	1.904
0.005	-0.005	0.005	-0.005	-0.005	0.000	0.034	2.729	1.895	1.899	1.895	1.909	1.899	1.904
-0.020	0.005	0.005	0.005	-0.005	0.010	0.034	2.793	1.899	1.895	1.895	1.909	1.904	1.909
-0.029	0.000	0.000	0.005	0.010	0.010	0.034	2.725	1.904	1.899	1.895	1.909	1.909	1.904
-0.034	0.000	0.005	0.010	0.000	0.010	0.034	2.729	1.904	1.899	1.895	1.914	1.904	1.904
-0.020	0.000	0.000	0.000	-0.005	0.000	0.034	2.671	1.909	1.899	1.895	1.909	1.904	1.904
-0.010	0.005	-0.005	-0.005	0.010	0.000	0.029	2.690	1.904	1.904	1.899	1.909	1.909	1.909
0.005	0.010	-0.005	0.000	0.005	-0.005	0.029	2.695	1.914	1.904	1.899	1.914	1.904	1.899
0.005	0.000	-0.005	0.005	-0.005	0.015	0.029	2.686	1.909	1.904	1.899	1.914	1.909	1.909
0.015	0.000	0.000	0.000	-0.010	0.010	0.029	2.681	1.904	1.904	1.899	1.914	1.909	1.909
0.010	0.000	0.005	0.000	-0.020	0.000	0.034	2.666	1.899	1.904	1.899	1.914	1.904	1.904
0.015	0.005	0.000	0.000	-0.020	-0.005	0.034	2.695	1.895	1.904	1.899	1.914	1.909	1.904
0.024	-0.005	0.005	-0.005	-0.005	0.005	0.034	2.676	1.899	1.899	1.899	1.914	1.914	1.909
0.015	-0.005	0.005	-0.010	0.020	-0.020	0.034	2.676	1.895	1.895	1.899	1.914	1.919	1.904
0.020	-0.010	0.005	-0.005	0.010	0.005	0.034	2.666	1.895	1.895	1.899	1.914	1.914	1.914
0.024	-0.010	0.005	-0.005	0.034	0.005	0.034	2.690	1.895	1.895	1.895	1.914	1.919	1.914
0.010	-0.005	0.005	-0.005	0.005	-0.015	0.034	2.676	1.895	1.890	1.895	1.919	1.909	1.909
0.015	-0.020	0.005	0.000	-0.005	0.000	0.034	2.695	1.899	1.890	1.890	1.914	1.909	1.909
0.015	-0.015	0.000	0.000	-0.015	0.005	0.034	2.695	1.899	1.895	1.890	1.914	1.909	1.909
0.015	-0.005	0.000	0.005	-0.005	0.015	0.034	2.686	1.899	1.895	1.895	1.914	1.909	1.914
0.005	0.000	-0.005	0.010	0.010	0.005	0.034	2.681	1.895	1.895	1.895	1.914	1.909	1.909
-0.005	0.020	0.000	0.000	0.005	0.010	0.029	2.686	1.895	1.899	1.895	1.909	1.909	1.914
0.000	0.010	0.000	0.005	0.000	0.010	0.029	2.686	1.895	1.899	1.895	1.914	1.909	1.909
-0.005	0.010	-0.005	0.005	0.010	-0.020	0.029	2.666	1.895	1.895	1.895	1.914	1.909	1.904
-0.005	0.010	0.000	0.015	0.005	0.010	0.034	2.700	1.895	1.895	1.895	1.914	1.909	1.914
0.000	0.010	-0.005	0.005	0.015	0.005	0.034	2.705	1.899	1.895	1.895	1.909	1.909	1.914
-0.015	0.020	0.000	0.010	0.020	-0.020	0.029	2.681	1.895	1.904	1.895	1.914	1.914	1.904
-0.010	0.015	0.000	0.005	0.024	0.005	0.034	2.695	1.899	1.895	1.895	1.909	1.914	1.914
0.000	0.005	0.000	0.005	0.000	0.000	0.034	2.690	1.904	1.895	1.895	1.914	1.904	1.909
0.015	-0.005	0.000	0.005	0.000	0.000	0.034	2.642	1.899	1.895	1.895	1.914	1.904	1.909
0.000	-0.010	0.005	0.000	-0.015	0.010	0.034	2.788	1.904	1.890	1.895	1.909	1.899	1.909
0.010	-0.010	0.000	0.000	-0.005	0.005	0.034	2.642	1.899	1.895	1.890	1.909	1.904	1.909
0.010	-0.005	0.005	-0.005	-0.005	0.005	0.034	2.651	1.895	1.895	1.895	1.909	1.904	1.904
-0.010	-0.010	0.010	-0.005	-0.015	0.015	0.029	2.734	1.895	1.895	1.895	1.909	1.904	1.904
-0.005	-0.010	0.005	0.000	-0.010	0.010	0.034	2.729	1.904	1.895	1.890	1.909	1.904	1.904
-0.005	-0.010	0.010	-0.005	-0.015	-0.010	0.034	2.734	1.904	1.899	1.890	1.909	1.904	1.899
-0.010	-0.005	0.005	0.000	-0.010	0.015	0.029	2.656	1.899	1.899	1.890	1.909	1.904	1.904
-0.005	0.010	0.000	0.005	-0.005	0.010	0.029	2.725	1.904	1.899	1.895	1.914	1.909	1.904
-0.005	0.020	-0.005	0.005	0.000	0.005	0.034	2.671	1.904	1.904	1.895	1.914	1.909	1.904
-0.005	0.020	-0.005	0.010	0.005	0.000	0.034	2.627	1.895	1.899	1.895	1.914	1.909	1.909
-0.010	0.024	0.000	0.005	0.010	-0.010	0.034	2.700	1.899	1.904	1.899	1.914	1.914	1.909
0.005	0.010	0.000	0.000	0.024	0.000	0.029	2.627	1.895	1.895	1.899	1.914	1.914	1.909
-0.005	0.010	-0.005	0.010	0.024	-0.010	0.034	2.808	1.909	1.899	1.895	1.914	1.914	1.909
0.000	0.005	0.000	0.010	0.015	0.005	0.034	2.725	1.914	1.904	1.895	1.919	1.909	1.909
0.005	-0.005	0.000	0.010	-0.005	0.000	0.034	2.646	1.899	1.895	1.895	1.914	1.909	1.909
0.005	-0.020	0.000	0.005	-0.005	0.000	0.029	2.720	1.904	1.895	1.895	1.914	1.909	1.909
-0.005	0.000	0.005	0.000	-0.005	-0.010	0.034	2.700	1.904	1.899	1.899	1.914	1.909	1.909
0.005	-0.010	0.005	-0.005	-0.005	0.000	0.029	2.686	1.904	1.899	1.895	1.914	1.909	1.909
0.010	-0.010	0.005	-0.005	0.000	0.005	0.034	2.695	1.899	1.899	1.895	1.909	1.909	1.909
0.005	-0.020	0.005	-0.010	-0.005	0.010	0.029	2.690	1.895	1.899	1.899	1.909	1.904	1.909
0.010	-0.015	0.005	-0.010	-0.010	0.015	0.034	2.705	1.904	1.899	1.895	1.909	1.904	1.909
0.000	-0.005	0.010	-0.010	-0.005	0.005	0.034	2.705	1.899	1.899	1.899	1.914	1.909	1.904
0.000	0.000	0.000	0.000	0.005	0.005	0.034	2.681	1.899	1.899	1.899	1.919	1.909	1.909
0.000	0.005	0.000	0.005	-0.005	0.005	0.034	2.666	1.895	1.899	1.899	1.914	1.909	1.909
0.000	0.000	-0.005	0.005	-0.024	-0.005	0.034	2.681	1.895	1.895	1.895	1.914	1.904	1.904
0.005	0.010	0.000	0.005	-0.010	0.010	0.029	2.695	1.899	1.899	1.899	1.914	1.909	1.909
-0.010	0.015	-0.005	0.010	0.000	-0.015	0.034	2.681	1.899	1.899	1.895	1.919	1.914	1.904
0.000	0.024	0.000	0.010	0.020	0.015	0.029	2.676	1.899	1.899	1.899	1.919	1.924	1.919
-0.005	0.015	0.000	0.005	0.029	0.010	0.029	2.686	1.899	1.899	1.899	1.914	1.919	1.919
-0.005	0.020	-0.005	0.000	0.020	-0.005	0.029	2.681	1.899	1.899	1.899	1.914	1.914	1.914
0.005	0.010	0.000	0.005	0.020	-0.010	0.034	2.681	1.899	1.895	1.899	1.914	1.914	1.909
-0.005	0.000	0.005	0.005	0.010	0.000	0.034	2.686	1.899	1.895	1.895	1.919	1.909	1.914
0.000	-0.005	0.005	0.005	0.000	-0.005	0.034	2.686	1.899	1.895	1.895	1.914	1.909	1.914
0.010	-0.005	0.010	0.000	-0.015	0.015	0.034	2.661	1.899	1.895	1.895	1.914	1.904	1.914
0.010	-0.005	0.005	0.000	-0.010	0.020	0.029	2.690	1.895	1.890	1.895	1.914	1.904	1.914
0.005	-0.005	0.000	0.000	-0.005	0.020	0.029	2.695	1.899	1.890	1.890	1.914	1.909	1.909
0.005	-0.005	0.010	-0.010	-0.005	-0.005	0.029	2.681	1.899	1.895	1.895	1.909	1.909	1.904
0.010	-0.010	0.005	0.000	0.005	0.015	0.029	2.700	1.899	1.895	1.890	1.914	1.909	1.909
0.015	-0.010	0.000	-0.005	0.000	-0.015	0.034	2.681	1.899	1.895	1.890	1.909	1.904	1.904
0.005	-0.005	0.000	-0.005	-0.010	0.010	0.034	2.666	1.895	1.895	1.890	1.909	1.904	1.909
0.005	0.000	0.000	0.005	-0.010	0.005	0.034	2.788	1.909	1.899	1.895	1.914	1.904	1.909
-0.005	0.005	0.005	0.005	0.005	0.010	0.034	2.651	1.904	1.904	1.895	1.914	1.909	1.909
-0.005	0.010	-0.005	0.010	0.029	-0.005	0.034	2.646	1.895	1.899	1.899	1.914	1.919	1.909
-0.020	0.000	-0.005	0.005	0.024	-0.005	0.029	2.642	1.890	1.895	1.895	1.914	1.914	1.909
-0.015	0.000	-0.005	0.005	-0.005	-0.005	0.029	2.739	1.899	1.895	1.895	1.914	1.899	1.904
-0.010	-0.005	-0.005	0.000	-0.029	0.000	0.029	2.744	1.904	1.899	1.895	1.914	1.895	1.904
-0.005	-0.010	-0.005	0.005	-0.029	-0.005	0.029	2.651	1.904	1.899	1.895	1.914	1.904	1.904
0.000	-0.010	-0.005	0.000	0.010	-0.010	0.034	2.725	1.904	1.899	1.895	1.914	1.914	1.904
-0.005	0.000	0.000	0.000	0.010	0.000	0.034	2.671	1.904	1.899	1.895	1.914	1.914	1.909
0.005	-0.010	0.000	-0.005	0.015	-0.005	0.034	2.627	1.899	1.899	1.899	1.914	1.909	1.909
0.015	-0.010	0.005	-0.005	0.039	-0.020	0.034	2.695	1.899	1.895	1.899	1.914	1.919	1.909
0.015	-0.020	0.010	-0.005	0.044	-0.020	0.029	2.637	1.895	1.895	1.899	1.919	1.919	1.909
0.000	0.005	0.015	-0.005	-0.005	-0.005	0.034	2.817	1.909	1.899	1.899	1.914	1.904	1.909
0.010	-0.010	0.005	0.000	-0.029	-0.015	0.029	2.710	1.909	1.899	1.895	1.914	1.895	1.904
0.005	-0.005	0.005	-0.005	-0.005	0.020	0.029	2.749	1.914	1.904	1.899	1.914	1.909	1.914
0.005	0.015	0.010	-0.005	0.015	0.005	0.029	2.632	1.899	1.904	1.899	1.914	1.914	1.909
0.005	0.015	0.000	-0.005	0.024	0.020	0.034	2.695	1.899	1.904	1.899	1.914	1.919	1.919
0.000	0.020	-0.005	-0.005	0.010	-0.005	0.034	2.676	1.899	1.899	1.899	1.914	1.909	1.909
0.005	0.029	0.000	0.000	-0.020	0.024	0.034	2.705	1.904	1.904	1.899	1.919	1.909	1.914
-0.005	0.029	0.000	0.010	-0.010	0.020	0.034	2.671	1.899	1.904	1.899	1.919	1.909	1.909
-0.005	0.020	-0.005	0.010	-0.005	0.005	0.034	2.695	1.895	1.899	1.899	1.919	1.914	1.914
-0.005	0.015	-0.005	0.010	0.020	-0.005	0.034	2.671	1.899	1.899	1.899	1.919	1.924	1.909
-0.010	0.005	0.000	0.005	0.029	0.000	0.034	2.681	1.899	1.895	1.895	1.919	1.924	1.914
-0.010	0.005	0.000	0.000	0.029	-0.005	0.029	2.671	1.895	1.895	1.895	1.914	1.919	1.919
-0.005	0.005	0.000	0.000	0.000	0.000	0.034	2.671	1.895	1.895	1.899	1.914	1.904	1.919
-0.010	0.010	0.000	0.000	-0.044	0.000	0.034	2.671	1.904	1.895	1.899	1.909	1.895	1.909
0.000	0.005	0.005	-0.005	-0.049	-0.005	0.029	2.681	1.904	1.895	1.895	1.914	1.895	1.904
0.000	-0.010	0.000	0.000	-0.024	-0.010	0.034	2.676	1.899	1.895	1.895	1.914	1.904	1.904
0.000	-0.005	0.005	0.000	0.015	0.015	0.029	2.690	1.899	1.895	1.895	1.914	1.919	1.914
0.010	-0.010	0.010	-0.005	0.005	0.010	0.034	2.671	1.899	1.895	1.895	1.909	1.914	1.914
0.010	-0.005	0.005	-0.005	-0.010	-0.010	0.029	2.671	1.899	1.895	1.895	1.909	1.909	1.904
0.005	-0.005	0.005	-0.005	0.005	0.005	0.029	2.676	1.899	1.895	1.895	1.914	1.909	1.909
-0.010	-0.005	0.000	0.005	0.010	-0.015	0.029	2.681	1.890	1.895	1.890	1.914	1.909	1.909
-0.005	0.005	0.000	0.005	0.020	0.020	0.034	2.671	1.890	1.895	1.895	1.914	1.914	1.919
0.005	0.005	0.005	0.005	0.015	0.010	0.034	2.671	1.895	1.895	1.895	1.914	1.909	1.914
-0.005	0.010	0.000	0.005	0.015	0.005	0.034	2.700	1.899	1.895	1.895	1.914	1.909	1.909
0.000	0.015	-0.005	0.010	0.010	0.000	0.034	2.705	1.904	1.899	1.890	1.914	1.909	1.909
-0.010	0.010	-0.005	0.015	-0.005	0.005	0.034	2.695	1.904	1.899	1.895	1.914	1.909	1.909
0.000	0.010	-0.005	0.015	-0.020	-0.005	0.029	2.681	1.904	1.904	1.895	1.914	1.904	1.904
-0.005	0.005	-0.005	0.005	-0.005	-0.024	0.029	2.646	1.895	1.895	1.895	1.914	1.904	1.899
0.010	0.000	0.000	0.010	0.000	0.015	0.029	2.778	1.909	1.899	1.899	1.914	1.909	1.914
-0.005	0.000	-0.005	0.005	0.000	0.005	0.029	2.651	1.899	1.895	1.895	1.914	1.909	1.914
0.010	-0.010	0.000	0.005	0.015	0.000	0.034	2.661	1.899	1.895	1.895	1.914	1.914	1.909
0.000	-0.020	-0.005	0.000	0.000	0.005	0.034	2.632	1.890	1.890	1.895	1.914	1.909	1.909
0.000	-0.015	0.000	-0.005	-0.020	-0.010	0.029	2.642	1.890	1.890	1.895	1.909	1.899	1.904
0.010	-0.015	0.005	0.000	-0.024	-0.034	0.029	2.720	1.895	1.890	1.890	1.909	1.899	1.899
0.005	0.000	0.005	-0.005	0.000	-0.010	0.034	2.642	1.890	1.895	1.895	1.909	1.909	1.904
0.005	-0.034	0.005	-0.005	0.034	-0.010	0.034	2.642	1.890	1.885	1.890	1.909	1.919	1.909
0.005	-0.020	0.005	-0.005	0.015	0.010	0.034	2.676	1.895	1.890	1.890	1.909	1.909	1.909
0.005	-0.024	0.005	0.000	-0.024	0.000	0.034	2.651	1.895	1.890	1.885	1.909	1.895	1.904
0.005	-0.024	0.005	0.005	-0.044	-0.010	0.034	2.700	1.899	1.895	1.885	1.909	1.890	1.899
-0.010	-0.020	0.000	0.000	-0.049	0.000	0.034	2.729	1.899	1.895	1.890	1.909	1.895	1.899
-0.010	0.010	0.005	0.010	0.020	-0.005	0.034	2.671	1.909	1.904	1.895	1.914	1.919	1.904
0.000	0.020	-0.005	0.005	0.049	0.005	0.034	2.744	1.919	1.914	1.899	1.914	1.919	1.914
-0.015	0.024	0.000	0.005	-0.005	0.020	0.029	2.754	1.919	1.914	1.899	1.914	1.904	1.914
-0.010	0.024	0.005	0.000	-0.010	0.020	0.029	2.739	1.909	1.914	1.904	1.919	1.909	1.914
-0.010	0.024	-0.005	0.005	0.005	0.005	0.029	2.695	1.904	1.909	1.904	1.919	1.914	1.909
0.000	0.000	0.000	0.005	0.020	0.010	0.034	2.686	1.904	1.904	1.904	1.919	1.919	1.909
-0.005	-0.005	0.000	0.000	0.024	0.010	0.029	2.676	1.904	1.899	1.904	1.919	1.914	1.914
0.005	0.005	0.000	0.005	0.000	0.005	0.029	2.690	1.895	1.904	1.899	1.919	1.909	1.909
0.010	0.010	0.005	-0.010	0.024	0.015	0.029	2.676	1.899	1.899	1.904	1.919	1.919	1.914
0.010	0.010	0.005	-0.005	0.015	0.015	0.034	2.686	1.899	1.899	1.899	1.919	1.914	1.914
0.005	0.000	0.005	-0.010	0.000	0.015	0.034	2.695	1.895	1.899	1.899	1.914	1.909	1.909
0.010	-0.005	0.005	-0.010	-0.005	0.015	0.034	2.671	1.899	1.895	1.895	1.914	1.909	1.909
0.005	0.000	0.010	-0.015	-0.010	-0.005	0.029	2.681	1.895	1.895	1.895	1.914	1.904	1.904
0.020	0.000	0.000	-0.010	-0.015	0.010	0.034	2.700	1.899	1.895	1.895	1.914	1.909	1.909
0.000	0.000	0.000	-0.010	-0.010	0.010	0.029	2.695	1.899	1.895	1.890	1.914	1.909	1.909
-0.005	0.015	-0.005	-0.010	0.000	0.010	0.034	2.695	1.899	1.899	1.895	1.914	1.909	1.909
-0.005	0.010	0.000	-0.005	-0.010	0.010	0.034	2.700	1.899	1.899	1.895	1.914	1.909	1.909
0.000	0.020	0.000	0.000	-0.015	-0.005	0.034	2.695	1.895	1.904	1.895	1.914	1.909	1.904
-0.010	0.015	-0.005	0.000	-0.020	0.000	0.029	2.671	1.895	1.895	1.895	1.914	1.909	1.909
-0.005	-0.005	0.000	0.000	-0.015	0.000	0.034	2.690	1.895	1.890	1.895	1.914	1.909	1.909
0.000	-0.005	-0.005	-0.005	0.020	-0.005	0.029	2.681	1.895	1.890	1.895	1.914	1.919	1.914
0.005	0.005	0.005	-0.005	0.005	-0.015	0.034	2.681	1.899	1.895	1.895	1.914	1.909	1.909
0.000	0.000	-0.005	0.000	0.024	-0.020	0.029	2.695	1.895	1.895	1.895	1.914	1.919	1.909
0.010	-0.015	0.000	0.000	0.005	-0.005	0.034	2.695	1.904	1.895	1.895	1.914	1.909	1.914
0.005	-0.015	0.005	0.000	0.000	0.000	0.029	2.671	1.899	1.895	1.890	1.914	1.909	1.914
0.005	-0.010	0.000	0.005	0.005	-0.005	0.034	2.705	1.904	1.895	1.890	1.914	1.909	1.909
0.005	0.000	0.005	0.005	0.015	-0.005	0.029	2.681	1.899	1.899	1.895	1.914	1.909	1.909
0.010	0.000	0.005	-0.005	0.015	-0.015	0.034	2.632	1.890	1.899	1.895	1.909	1.909	1.909
0.010	-0.005	0.005	-0.005	0.000	-0.015	0.034	2.793	1.909	1.899	1.890	1.909	1.904	1.904
0.005	0.000	0.005	0.000	0.029	-0.010	0.034	2.637	1.895	1.895	1.895	1.909	1.914	1.909
0.005	0.010	0.005	0.000	0.024	-0.020	0.034	2.666	1.895	1.899	1.895	1.914	1.909	1.904
-0.005	0.005	0.000	0.010	0.029	-0.005	0.034	2.646	1.890	1.895	1.895	1.914	1.909	1.914
-0.005	0.029	0.000	0.010	0.015	-0.029	0.029	2.666	1.895	1.899	1.895	1.914	1.904	1.904
-0.005	0.010	0.000	0.005	0.005	0.005	0.034	2.651	1.890	1.890	1.895	1.914	1.909	1.914
0.000	-0.005	-0.005	0.010	0.024	-0.005	0.034	2.642	1.890	1.890	1.890	1.909	1.909	1.914
0.000	-0.010	-0.005	0.015	0.034	-0.005	0.029	2.734	1.899	1.890	1.890	1.914	1.914	1.914
0.005	0.000	-0.005	0.010	0.020	-0.005	0.034	2.671	1.899	1.895	1.890	1.909	1.909	1.914
-0.005	0.010	-0.005	0.010	0.020	0.005	0.029	2.642	1.895	1.899	1.895	1.914	1.909	1.914
-0.005	-0.005	-0.005	0.010	0.015	0.000	0.029	2.690	1.895	1.890	1.895	1.909	1.909	1.909
0.005	-0.005	0.005	0.010	-0.005	-0.005	0.034	2.725	1.899	1.895	1.895	1.909	1.899	1.904
0.000	-0.005	0.000	0.005	-0.020	0.005	0.029	2.808	1.914	1.899	1.895	1.909	1.899	1.904
0.000	0.000	0.000	0.000	-0.020	0.015	0.034	2.744	1.919	1.904	1.895	1.909	1.899	1.904
0.005	-0.020	0.000	0.000	-0.020	0.015	0.029	2.744	1.914	1.899	1.895	1.909	1.904	1.904
0.015	-0.020	0.005	0.005	-0.010	0.015	0.034	2.617	1.909	1.899	1.895	1.914	1.904	1.904
0.000	-0.005	0.010	0.005	-0.015	0.015	0.034	2.695	1.904	1.904	1.899	1.914	1.904	1.904
0.000	0.000	0.010	0.005	-0.015	0.010	0.034	2.671	1.899	1.904	1.904	1.914	1.904	1.904
0.005	0.010	0.005	0.005	-0.020	-0.005	0.029	2.695	1.899	1.904	1.899	1.914	1.904	1.904
0.000	0.020	0.005	0.015	-0.020	0.010	0.034	2.686	1.895	1.904	1.899	1.919	1.909	1.909
-0.005	0.005	0.000	0.010	-0.020	0.005	0.029	2.681	1.895	1.895	1.899	1.919	1.909	1.904
0.005	0.010	0.000	0.010	-0.015	0.010	0.029	2.686	1.899	1.899	1.899	1.919	1.914	1.909
0.000	0.020	0.000	0.010	-0.015	-0.020	0.029	2.700	1.899	1.899	1.899	1.919	1.909	1.904
-0.005	0.010	-0.005	0.020	-0.015	0.005	0.034	2.671	1.895	1.895	1.895	1.924	1.914	1.914
-0.005	0.015	-0.005	0.010	-0.010	-0.005	0.034	2.671	1.895	1.899	1.895	1.914	1.914	1.909
-0.015	0.024	0.005	0.005	-0.005	0.010	0.034	2.690	1.895	1.899	1.895	1.914	1.914	1.914
-0.010	0.000	-0.005	0.005	-0.010	0.010	0.034	2.686	1.895	1.890	1.890	1.914	1.909	1.914
0.000	0.000	0.000	0.005	-0.015	0.010	0.034	2.690	1.899	1.890	1.895	1.914	1.909	1.914
0.005	-0.029	0.005	0.005	-0.010	0.010	0.029	2.695	1.899	1.885	1.890	1.914	1.909	1.914
0.005	-0.020	0.000	0.000	-0.015	0.005	0.034	2.671	1.904	1.890	1.890	1.909	1.909	1.909
0.010	-0.010	0.005	0.000	-0.010	0.010	0.034	2.671	1.899	1.895	1.890	1.909	1.909	1.909
0.005	0.000	0.005	0.000	-0.010	-0.005	0.034	2.681	1.899	1.899	1.895	1.909	1.909	1.909
0.005	-0.005	0.005	-0.005	-0.005	-0.005	0.034	2.700	1.899	1.895	1.895	1.909	1.909	1.909
0.010	0.005	0.000	-0.005	0.000	0.010	0.034	2.681	1.899	1.899	1.895	1.909	1.909	1.914
0.010	0.005	0.005	-0.005	-0.010	0.000	0.034	2.700	1.895	1.899	1.895	1.909	1.904	1.904
0.005	0.010	0.005	0.000	-0.005	-0.015	0.034	2.705	1.904	1.899	1.895	1.914	1.909	1.899
0.010	0.005	0.000	-0.005	-0.005	-0.015	0.034	2.695	1.904	1.899	1.895	1.914	1.909	1.899
0.000	0.010	0.000	-0.005	-0.005	0.000	0.029	2.700	1.899	1.899	1.895	1.914	1.909	1.909
-0.005	0.020	0.000	-0.005	0.044	0.000	0.034	2.686	1.895	1.899	1.899	1.914	1.924	1.909
-0.005	0.010	0.000	0.000	0.054	-0.005	0.034	2.637	1.895	1.895	1.895	1.914	1.924	1.909
-0.010	0.020	-0.005	0.005	0.039	0.005	0.029	2.642	1.890	1.895	1.895	1.914	1.914	1.919
-0.015	0.015	-0.005	0.000	0.034	0.005	0.034	2.661	1.885	1.895	1.895	1.914	1.914	1.919
-0.010	0.010	-0.005	0.000	0.015	0.000	0.034	2.661	1.890	1.890	1.895	1.914	1.904	1.909
0.000	0.010	-0.005	0.000	0.000	0.005	0.034	2.632	1.890	1.890	1.890	1.914	1.904	1.914
0.005	0.005	-0.005	0.000	0.000	0.010	0.034	2.632	1.885	1.885	1.890	1.909	1.904	1.909
0.000	-0.005	0.000	0.000	0.010	0.010	0.034	2.715	1.895	1.885	1.890	1.909	1.909	1.909
0.000	-0.005	0.000	0.000	0.010	0.000	0.034	2.651	1.895	1.885	1.890	1.909	1.904	1.904
0.005	-0.015	0.005	-0.005	-0.005	0.010	0.029	2.637	1.890	1.885	1.885	1.904	1.899	1.904
0.010	-0.015	0.000	0.005	-0.024	0.000	0.034	2.656	1.890	1.885	1.885	1.904	1.899	1.904
0.020	-0.015	0.005	-0.005	-0.005	0.005	0.034	2.725	1.899	1.885	1.885	1.904	1.904	1.904
0.015	-0.010	0.005	-0.005	-0.005	0.000	0.029	2.661	1.895	1.890	1.885	1.904	1.904	1.899
0.005	-0.015	0.000	-0.005	-0.005	0.005	0.029	2.627	1.885	1.890	1.885	1.904	1.899	1.904
0.010	-0.005	0.005	0.000	0.005	0.005	0.034	2.671	1.885	1.890	1.885	1.904	1.904	1.904
0.005	0.000	0.005	0.000	0.000	0.000	0.029	2.627	1.885	1.890	1.890	1.909	1.904	1.899
0.010	0.000	-0.005	0.005	0.000	-0.020	0.034	2.739	1.895	1.890	1.885	1.909	1.899	1.895
0.010	0.010	0.000	0.005	0.010	-0.010	0.029	2.637	1.890	1.895	1.890	1.909	1.904	1.899
0.000	0.020	-0.005	0.010	0.015	-0.015	0.034	2.695	1.890	1.890	1.890	1.909	1.904	1.904
-0.005	0.020	-0.005	0.000	0.000	0.000	0.029	2.690	1.890	1.890	1.890	1.904	1.899	1.904
-0.010	0.010	-0.005	0.005	-0.010	-0.005	0.034	2.700	1.895	1.890	1.890	1.904	1.899	1.899
-0.010	0.015	0.000	0.010	0.000	-0.020	0.029	2.690	1.895	1.890	1.895	1.909	1.904	1.899
