-0.005	-0.005	-0.005	0.005	0.000	0.005	0.034	2.690	2.329	2.065	1.992	1.938	1.934	1.943
-0.010	0.010	0.000	0.005	0.005	0.010	0.034	2.681	2.217	2.109	2.026	1.968	1.943	1.943
-0.010	0.010	0.000	0.005	-0.005	-0.015	0.029	2.681	2.144	2.124	2.051	1.992	1.948	1.938
-0.010	0.010	-0.005	0.010	-0.005	0.015	0.029	2.681	2.085	2.114	2.065	2.021	1.968	1.953
-0.005	0.010	0.000	0.005	-0.005	0.000	0.029	2.686	2.046	2.100	2.080	2.041	1.987	1.958
-0.005	0.005	0.000	0.010	0.000	0.015	0.034	2.661	2.017	2.075	2.075	2.056	2.007	1.978
-0.005	0.005	0.000	0.005	-0.005	-0.005	0.029	2.671	1.997	2.051	2.070	2.065	2.021	1.978
0.005	-0.010	0.000	0.005	-0.010	0.005	0.034	2.676	1.978	2.026	2.061	2.070	2.031	1.997
0.005	-0.010	0.005	0.000	0.000	0.010	0.029	2.686	1.973	2.012	2.046	2.070	2.041	2.012
0.000	-0.015	0.000	0.000	0.000	0.000	0.034	2.676	1.963	1.997	2.031	2.061	2.046	2.017
0.010	-0.024	0.005	0.000	0.000	0.005	0.034	2.666	1.963	1.987	2.021	2.056	2.051	2.026
0.010	-0.024	0.005	0.000	-0.005	-0.015	0.029	2.676	1.958	1.978	2.007	2.051	2.046	2.026
-0.005	-0.010	0.010	0.000	0.000	-0.010	0.029	2.686	1.958	1.973	2.002	2.041	2.046	2.031
0.000	-0.010	0.000	0.005	0.000	0.005	0.034	2.690	1.963	1.973	1.987	2.031	2.041	2.041
0.005	-0.010	0.005	0.000	-0.005	-0.020	0.034	2.686	1.963	1.973	1.987	2.026	2.031	2.031
0.000	0.005	-0.005	0.005	-0.005	0.005	0.034	2.676	1.963	1.973	1.978	2.017	2.026	2.036
-0.005	0.015	0.000	0.010	0.000	0.000	0.029	2.686	1.963	1.973	1.978	2.012	2.026	2.031
-0.005	0.015	0.000	0.010	-0.005	0.000	0.029	2.690	1.968	1.973	1.978	2.007	2.017	2.031
-0.005	0.020	-0.005	0.015	0.000	0.010	0.034	2.661	1.968	1.968	1.978	2.007	2.012	2.026
-0.010	0.015	0.000	0.010	0.000	0.005	0.029	2.686	1.968	1.973	1.973	2.002	2.012	2.021
-0.005	0.010	-0.005	0.005	0.000	0.005	0.029	2.690	1.968	1.968	1.968	1.997	2.007	2.017
-0.005	0.020	-0.005	0.005	0.000	0.005	0.034	2.666	1.963	1.968	1.968	1.992	2.002	2.012
0.000	0.015	-0.005	0.005	0.005	-0.005	0.034	2.622	1.958	1.968	1.968	1.992	1.997	2.007
0.000	0.015	0.000	0.005	-0.005	0.005	0.029	2.681	1.963	1.968	1.968	1.987	1.992	2.007
0.000	0.010	0.005	0.005	0.005	0.005	0.029	2.686	1.963	1.963	1.968	1.992	1.992	2.002
-0.005	0.010	0.005	-0.005	-0.005	0.005	0.034	2.676	1.958	1.958	1.968	1.982	1.987	1.997
0.010	-0.015	0.015	0.000	0.000	-0.005	0.034	2.671	1.963	1.953	1.963	1.987	1.987	1.992
0.000	-0.005	0.010	0.000	0.010	0.005	0.029	2.681	1.953	1.953	1.963	1.987	1.987	1.992
0.000	-0.010	0.010	0.005	0.000	0.000	0.034	2.681	1.958	1.953	1.958	1.982	1.982	1.987
-0.005	-0.010	0.010	-0.005	-0.005	0.000	0.029	2.681	1.958	1.953	1.958	1.978	1.978	1.982
0.000	-0.005	0.005	0.000	0.000	0.005	0.029	2.690	1.958	1.953	1.953	1.978	1.978	1.982
0.000	0.005	0.000	0.000	0.000	0.005	0.034	2.686	1.958	1.958	1.953	1.978	1.973	1.978
0.000	0.005	0.000	0.000	0.005	0.000	0.034	2.690	1.958	1.958	1.953	1.973	1.973	1.978
-0.005	0.010	-0.005	-0.005	0.005	-0.010	0.029	2.681	1.953	1.958	1.953	1.973	1.973	1.978
-0.005	0.020	-0.005	-0.005	0.000	0.000	0.034	2.788	1.968	1.968	1.958	1.973	1.973	1.978
-0.005	0.034	-0.005	0.000	0.000	0.010	0.034	2.686	1.963	1.968	1.958	1.973	1.968	1.978
-0.005	0.034	-0.005	0.000	-0.005	-0.005	0.029	2.715	1.963	1.968	1.958	1.978	1.968	1.968
0.000	0.029	0.000	0.000	-0.005	0.015	0.034	2.666	1.958	1.968	1.958	1.978	1.973	1.978
0.000	0.024	-0.005	0.000	0.000	0.005	0.034	2.676	1.953	1.958	1.958	1.982	1.973	1.973
-0.005	0.020	-0.005	-0.005	0.005	-0.015	0.034	2.676	1.948	1.953	1.958	1.978	1.973	1.973
0.005	0.000	0.000	0.000	0.000	-0.010	0.034	2.681	1.948	1.948	1.958	1.978	1.973	1.973
0.005	-0.005	0.000	0.005	0.000	0.010	0.034	2.676	1.953	1.948	1.953	1.978	1.973	1.978
-0.005	-0.015	0.005	0.000	-0.005	-0.005	0.034	2.681	1.948	1.943	1.948	1.973	1.968	1.968
0.010	-0.020	0.005	0.005	-0.010	0.000	0.029	2.671	1.943	1.943	1.948	1.968	1.968	1.973
0.010	-0.024	0.000	0.000	0.000	0.015	0.034	2.676	1.943	1.943	1.943	1.968	1.968	1.973
0.000	-0.020	0.000	-0.005	-0.005	0.000	0.029	2.622	1.938	1.943	1.943	1.963	1.963	1.968
0.000	-0.020	0.005	0.000	0.005	-0.005	0.029	2.803	1.953	1.938	1.938	1.963	1.968	1.963
-0.005	-0.010	0.005	0.000	-0.005	0.005	0.034	2.666	1.943	1.943	1.938	1.963	1.963	1.968
0.000	-0.005	0.000	0.005	0.000	0.000	0.034	2.646	1.943	1.948	1.943	1.963	1.963	1.963
0.000	0.005	0.005	0.000	0.005	-0.005	0.029	2.651	1.938	1.948	1.943	1.963	1.963	1.958
0.005	-0.005	0.000	0.005	0.015	-0.015	0.029	2.739	1.943	1.943	1.943	1.963	1.963	1.963
-0.010	0.000	0.000	0.000	0.005	0.005	0.034	2.646	1.938	1.943	1.943	1.963	1.958	1.963
0.005	0.010	-0.005	0.005	0.010	-0.010	0.029	2.720	1.948	1.948	1.938	1.958	1.963	1.958
-0.005	0.005	-0.005	0.000	0.015	0.000	0.029	2.734	1.948	1.943	1.943	1.958	1.958	1.963
0.000	0.005	-0.005	0.005	0.005	0.000	0.034	2.642	1.943	1.948	1.943	1.958	1.958	1.963
0.005	0.005	-0.005	0.005	0.000	-0.020	0.034	2.729	1.948	1.943	1.943	1.958	1.953	1.953
0.000	0.000	-0.005	0.000	-0.005	0.010	0.034	2.720	1.948	1.943	1.943	1.958	1.958	1.963
0.005	0.000	0.005	-0.005	-0.005	0.010	0.034	2.783	1.963	1.948	1.943	1.963	1.953	1.958
0.010	-0.005	0.005	-0.005	0.000	0.005	0.029	2.725	1.963	1.948	1.943	1.958	1.958	1.958
0.015	-0.010	0.010	-0.005	0.000	-0.015	0.029	2.720	1.958	1.948	1.943	1.963	1.958	1.953
0.010	-0.020	0.010	-0.005	0.005	0.005	0.029	2.646	1.943	1.948	1.943	1.958	1.958	1.963
0.015	-0.015	0.005	-0.005	0.000	0.010	0.029	2.651	1.953	1.948	1.943	1.958	1.958	1.958
0.015	-0.015	0.005	-0.005	0.000	0.005	0.034	2.666	1.943	1.948	1.943	1.958	1.958	1.958
0.015	-0.005	0.005	-0.005	0.000	0.000	0.034	2.788	1.938	1.948	1.943	1.963	1.953	1.958
0.005	0.000	0.000	-0.005	0.000	-0.005	0.034	2.646	1.929	1.943	1.943	1.958	1.953	1.953
0.000	-0.005	-0.005	0.005	0.000	0.005	0.034	2.627	1.924	1.938	1.938	1.958	1.958	1.958
0.005	0.005	0.000	0.010	0.000	-0.005	0.034	2.695	1.934	1.938	1.938	1.963	1.958	1.953
0.000	0.005	0.000	0.005	0.000	0.005	0.034	2.627	1.924	1.934	1.938	1.958	1.958	1.958
-0.010	0.005	-0.005	0.010	0.000	0.005	0.034	2.788	1.938	1.934	1.934	1.958	1.958	1.958
-0.015	0.015	0.000	0.000	0.000	0.010	0.029	2.729	1.938	1.938	1.934	1.958	1.953	1.958
-0.005	0.010	-0.005	0.005	-0.005	-0.005	0.034	2.661	1.948	1.938	1.934	1.958	1.953	1.953
-0.015	0.005	-0.005	0.005	0.005	0.005	0.034	2.642	1.938	1.938	1.934	1.953	1.958	1.958
-0.005	0.015	-0.005	0.005	0.000	0.005	0.034	2.656	1.934	1.938	1.934	1.953	1.953	1.958
0.000	0.000	0.000	0.010	0.000	0.005	0.034	2.627	1.929	1.934	1.934	1.958	1.948	1.953
0.000	-0.015	0.000	0.000	0.000	-0.015	0.029	2.729	1.934	1.929	1.934	1.948	1.948	1.948
-0.005	-0.005	0.005	0.000	0.000	-0.010	0.029	2.656	1.929	1.929	1.934	1.948	1.948	1.948
-0.005	-0.010	0.000	0.000	0.000	-0.010	0.029	2.739	1.934	1.929	1.929	1.948	1.948	1.948
0.000	-0.005	0.005	0.005	0.005	0.010	0.034	2.671	1.934	1.929	1.929	1.953	1.948	1.953
0.005	-0.029	0.005	-0.005	0.010	0.000	0.034	2.695	1.934	1.924	1.929	1.948	1.948	1.953
0.010	-0.020	0.005	0.000	0.005	0.000	0.034	2.671	1.929	1.929	1.924	1.948	1.943	1.948
0.010	-0.015	0.005	0.000	0.000	-0.010	0.029	2.690	1.929	1.929	1.924	1.948	1.943	1.943
0.000	-0.010	0.005	0.000	0.005	0.010	0.034	2.695	1.934	1.929	1.924	1.948	1.948	1.948
0.010	0.015	0.000	-0.005	0.000	0.005	0.029	2.705	1.934	1.938	1.924	1.943	1.943	1.948
-0.005	0.020	-0.005	0.000	-0.005	0.010	0.029	2.690	1.934	1.938	1.929	1.943	1.938	1.948
-0.005	0.020	-0.005	0.000	0.000	-0.010	0.034	2.671	1.929	1.934	1.929	1.943	1.943	1.943
-0.010	0.024	-0.005	0.005	0.000	-0.010	0.029	2.700	1.929	1.934	1.934	1.948	1.943	1.943
-0.015	0.034	0.000	0.005	0.000	-0.005	0.034	2.690	1.924	1.934	1.934	1.948	1.943	1.943
-0.020	0.024	-0.005	0.000	0.000	0.005	0.029	2.690	1.929	1.934	1.929	1.948	1.943	1.943
-0.005	0.015	-0.005	-0.005	0.000	-0.020	0.034	2.686	1.929	1.929	1.929	1.948	1.943	1.938
-0.010	0.015	0.005	-0.005	0.000	0.010	0.034	2.671	1.924	1.924	1.929	1.948	1.943	1.948
-0.005	-0.005	-0.005	-0.005	-0.005	0.005	0.029	2.671	1.924	1.924	1.924	1.943	1.943	1.948
0.005	-0.015	0.000	-0.010	0.005	0.005	0.034	2.671	1.924	1.919	1.924	1.943	1.943	1.943
0.000	-0.015	0.005	-0.015	0.005	0.000	0.029	2.690	1.924	1.919	1.924	1.943	1.943	1.943
0.000	-0.005	0.005	-0.015	0.000	0.000	0.029	2.676	1.924	1.919	1.924	1.943	1.938	1.943
0.005	-0.015	0.000	-0.015	-0.005	0.000	0.034	2.695	1.929	1.914	1.919	1.938	1.934	1.938
0.005	-0.024	0.005	-0.015	-0.010	-0.005	0.034	2.700	1.924	1.914	1.919	1.938	1.934	1.934
0.005	-0.034	0.005	-0.020	0.005	0.000	0.034	2.695	1.924	1.914	1.914	1.938	1.938	1.938
0.010	-0.015	0.000	-0.015	0.020	0.005	0.034	2.671	1.924	1.924	1.919	1.938	1.943	1.938
0.010	0.005	0.000	-0.010	-0.010	-0.010	0.029	2.686	1.924	1.929	1.919	1.938	1.929	1.929
0.005	0.029	0.000	-0.015	-0.010	0.005	0.029	2.681	1.919	1.934	1.924	1.938	1.934	1.934
0.010	0.015	0.000	0.000	-0.010	0.015	0.029	2.666	1.924	1.924	1.924	1.943	1.938	1.938
0.010	0.020	0.000	-0.005	0.000	0.005	0.029	2.656	1.919	1.924	1.924	1.943	1.938	1.938
0.000	0.029	-0.010	-0.005	0.005	0.010	0.029	2.671	1.914	1.924	1.919	1.938	1.938	1.938
0.005	0.029	-0.010	-0.005	0.000	0.010	0.034	2.637	1.914	1.924	1.919	1.938	1.938	1.938
-0.010	0.020	-0.010	-0.010	0.000	-0.024	0.034	2.651	1.909	1.914	1.919	1.938	1.934	1.929
0.005	0.015	-0.005	-0.005	0.010	0.010	0.034	2.642	1.909	1.909	1.919	1.943	1.938	1.938
0.000	0.005	0.000	0.000	0.010	0.005	0.034	2.671	1.914	1.909	1.914	1.943	1.938	1.938
-0.005	0.000	0.005	-0.005	0.010	0.000	0.029	2.739	1.919	1.909	1.914	1.938	1.938	1.934
0.000	-0.005	0.005	-0.005	0.005	-0.020	0.029	2.656	1.919	1.909	1.914	1.934	1.934	1.929
0.010	-0.010	0.000	-0.005	-0.005	0.000	0.029	2.739	1.924	1.909	1.909	1.934	1.929	1.938
0.005	-0.005	0.000	-0.005	0.000	-0.005	0.034	2.642	1.919	1.914	1.909	1.934	1.929	1.934
0.005	-0.005	0.000	-0.005	0.010	0.005	0.029	2.734	1.924	1.909	1.909	1.929	1.929	1.934
0.010	-0.010	0.005	0.000	0.020	-0.010	0.034	2.739	1.929	1.914	1.914	1.934	1.929	1.929
0.010	0.005	0.000	0.000	0.020	-0.005	0.034	2.695	1.929	1.924	1.914	1.934	1.929	1.934
0.000	-0.005	0.000	0.000	0.020	-0.024	0.029	2.646	1.924	1.919	1.914	1.934	1.929	1.924
0.000	0.005	-0.005	0.010	0.020	0.000	0.029	2.646	1.914	1.924	1.914	1.934	1.934	1.934
-0.010	0.005	0.000	0.020	0.024	-0.005	0.034	2.646	1.909	1.919	1.919	1.938	1.934	1.934
-0.010	0.005	0.000	0.020	0.029	-0.029	0.029	2.676	1.904	1.914	1.919	1.938	1.934	1.929
-0.020	0.005	0.000	0.020	0.029	-0.010	0.029	2.700	1.909	1.909	1.914	1.938	1.934	1.934
0.000	0.010	0.005	0.015	0.020	-0.005	0.034	2.705	1.919	1.914	1.914	1.938	1.934	1.934
-0.005	0.005	0.000	0.010	0.010	-0.005	0.034	2.666	1.914	1.914	1.914	1.934	1.929	1.934
-0.005	0.010	0.000	0.010	0.005	-0.005	0.034	2.705	1.919	1.919	1.914	1.934	1.929	1.929
0.000	0.000	0.000	0.010	0.000	0.005	0.034	2.695	1.924	1.914	1.914	1.934	1.929	1.929
0.005	-0.005	0.005	0.005	0.000	0.000	0.034	2.700	1.924	1.914	1.914	1.929	1.924	1.929
0.005	-0.010	0.000	0.010	-0.005	0.005	0.029	2.671	1.919	1.914	1.914	1.929	1.924	1.929
0.005	-0.015	0.005	0.000	-0.010	0.005	0.029	2.700	1.919	1.914	1.914	1.934	1.924	1.929
0.005	-0.015	0.005	0.000	-0.015	0.000	0.034	2.671	1.919	1.914	1.909	1.929	1.924	1.924
0.000	-0.015	0.000	0.000	-0.015	0.005	0.034	2.695	1.914	1.914	1.914	1.929	1.924	1.924
0.005	-0.015	0.005	0.010	-0.020	0.020	0.034	2.690	1.914	1.914	1.909	1.929	1.924	1.929
0.010	-0.010	0.000	0.005	-0.020	0.015	0.034	2.661	1.914	1.914	1.909	1.929	1.919	1.924
0.010	-0.010	0.000	0.010	-0.024	0.010	0.034	2.671	1.909	1.909	1.909	1.929	1.919	1.924
0.000	0.000	0.005	0.005	-0.020	0.010	0.034	2.705	1.919	1.914	1.909	1.929	1.924	1.924
-0.005	-0.010	0.005	0.005	-0.015	0.020	0.029	2.705	1.914	1.914	1.909	1.929	1.929	1.924
-0.010	0.005	0.005	0.005	-0.010	0.015	0.034	2.671	1.914	1.919	1.914	1.929	1.929	1.924
-0.010	0.015	0.000	0.010	-0.010	0.015	0.029	2.695	1.914	1.919	1.914	1.929	1.924	1.924
0.000	0.024	-0.005	0.010	-0.005	0.015	0.034	2.700	1.919	1.919	1.914	1.934	1.929	1.924
-0.010	0.024	0.000	0.005	-0.005	0.005	0.034	2.700	1.919	1.914	1.914	1.934	1.929	1.924
-0.005	0.020	-0.005	0.000	-0.005	-0.005	0.034	2.681	1.919	1.919	1.914	1.934	1.929	1.924
-0.005	0.015	0.000	0.000	0.000	0.015	0.034	2.671	1.909	1.914	1.914	1.929	1.929	1.934
-0.005	0.000	0.000	0.000	-0.005	-0.005	0.034	2.686	1.909	1.909	1.914	1.929	1.929	1.924
-0.005	-0.005	0.000	-0.005	0.000	0.005	0.029	2.666	1.909	1.904	1.909	1.929	1.929	1.929
0.010	-0.005	0.000	0.000	0.000	0.010	0.029	2.769	1.914	1.909	1.909	1.929	1.924	1.929
0.010	-0.010	0.000	-0.005	0.000	-0.005	0.034	2.661	1.909	1.909	1.909	1.929	1.924	1.929
0.005	-0.010	0.000	0.000	0.005	-0.020	0.034	2.632	1.904	1.904	1.904	1.929	1.924	1.924
0.010	-0.015	0.000	0.000	0.005	-0.015	0.034	2.651	1.899	1.899	1.904	1.924	1.924	1.924
0.005	-0.034	0.000	0.000	0.000	0.005	0.034	2.725	1.890	1.895	1.904	1.924	1.924	1.929
0.005	-0.024	0.000	-0.005	-0.005	0.000	0.034	2.690	1.899	1.895	1.899	1.919	1.919	1.924
0.010	-0.015	0.005	-0.010	-0.005	0.005	0.029	2.720	1.909	1.899	1.899	1.919	1.919	1.924
0.000	-0.005	0.000	-0.005	-0.005	-0.010	0.029	2.817	1.924	1.909	1.899	1.919	1.914	1.914
0.000	0.005	0.000	-0.005	0.000	0.000	0.029	2.739	1.924	1.914	1.904	1.919	1.919	1.919
-0.005	0.005	0.000	0.000	-0.005	0.000	0.029	2.734	1.914	1.914	1.904	1.924	1.919	1.919
-0.005	0.024	0.000	0.005	0.005	0.000	0.034	2.734	1.919	1.924	1.909	1.924	1.924	1.919
0.000	0.005	-0.005	0.000	0.010	0.005	0.029	2.637	1.909	1.914	1.909	1.924	1.924	1.924
-0.010	0.015	-0.005	0.005	0.010	0.005	0.029	2.720	1.914	1.914	1.909	1.929	1.919	1.919
0.000	0.010	0.000	0.000	0.024	0.005	0.029	2.729	1.919	1.914	1.914	1.929	1.929	1.924
0.000	0.015	0.000	0.010	0.024	0.005	0.029	2.661	1.914	1.914	1.909	1.929	1.929	1.924
-0.005	0.015	-0.005	0.005	0.005	0.000	0.029	2.715	1.904	1.914	1.914	1.929	1.919	1.924
0.005	0.015	-0.005	0.000	0.000	-0.005	0.034	2.671	1.904	1.909	1.909	1.929	1.919	1.919
0.010	0.020	0.000	0.000	0.000	0.005	0.034	2.695	1.909	1.909	1.909	1.929	1.924	1.924
-0.005	0.000	0.005	0.000	0.000	-0.005	0.029	2.705	1.909	1.904	1.904	1.929	1.924	1.919
0.000	-0.005	0.005	0.000	-0.010	0.000	0.034	2.661	1.904	1.904	1.904	1.924	1.919	1.919
0.010	-0.005	0.005	-0.005	-0.005	-0.005	0.034	2.690	1.909	1.904	1.904	1.924	1.919	1.919
0.010	-0.015	0.005	-0.005	0.005	-0.005	0.034	2.705	1.914	1.904	1.904	1.924	1.924	1.919
0.010	-0.005	0.010	0.000	0.005	0.000	0.029	2.666	1.909	1.909	1.904	1.924	1.919	1.919
0.020	0.005	0.005	-0.005	0.005	0.000	0.029	2.681	1.909	1.909	1.904	1.924	1.919	1.919
0.010	-0.005	0.005	0.000	0.000	0.000	0.034	2.686	1.904	1.904	1.904	1.924	1.919	1.919
0.000	0.010	0.000	0.000	0.005	-0.015	0.029	2.695	1.904	1.904	1.904	1.924	1.919	1.914
0.005	0.015	0.000	-0.005	0.015	0.005	0.034	2.700	1.909	1.909	1.904	1.924	1.924	1.924
-0.010	0.020	0.000	-0.005	0.000	0.000	0.034	2.705	1.909	1.909	1.904	1.924	1.919	1.924
-0.010	0.005	0.000	-0.005	-0.015	0.000	0.029	2.676	1.909	1.909	1.904	1.924	1.914	1.919
0.005	0.005	0.000	0.000	-0.005	0.000	0.029	2.671	1.909	1.909	1.904	1.924	1.919	1.919
0.000	0.010	0.000	0.005	0.005	0.000	0.034	2.671	1.899	1.909	1.904	1.924	1.919	1.919
-0.005	0.005	0.000	0.000	0.010	0.005	0.029	2.695	1.904	1.904	1.904	1.924	1.919	1.919
0.000	-0.005	0.000	0.000	0.005	-0.005	0.034	2.681	1.904	1.899	1.904	1.924	1.924	1.914
0.000	0.000	0.000	0.005	0.000	0.005	0.034	2.690	1.904	1.899	1.904	1.924	1.919	1.919
0.000	-0.010	0.005	0.005	0.000	-0.005	0.034	2.661	1.899	1.899	1.904	1.924	1.919	1.914
0.000	-0.005	0.000	0.000	0.005	-0.015	0.029	2.695	1.904	1.899	1.899	1.924	1.919	1.919
-0.005	-0.015	0.005	0.005	0.000	0.000	0.029	2.676	1.904	1.895	1.895	1.924	1.919	1.924
0.000	-0.015	0.000	0.000	0.000	0.024	0.029	2.671	1.904	1.899	1.899	1.919	1.914	1.924
0.010	-0.005	0.005	-0.005	-0.005	0.015	0.034	2.690	1.909	1.904	1.899	1.914	1.914	1.919
0.005	0.000	0.005	0.000	0.000	0.015	0.034	2.661	1.904	1.904	1.899	1.919	1.914	1.919
-0.005	0.000	0.000	-0.005	0.010	0.000	0.034	2.686	1.895	1.904	1.899	1.919	1.914	1.914
-0.005	0.005	0.005	-0.005	0.010	0.010	0.034	2.661	1.899	1.904	1.899	1.919	1.914	1.914
-0.005	0.015	-0.005	0.005	0.000	0.015	0.034	2.646	1.895	1.904	1.899	1.919	1.914	1.914
0.000	-0.005	-0.005	0.000	0.000	-0.024	0.034	2.661	1.895	1.895	1.895	1.919	1.914	1.904
-0.015	0.000	-0.005	0.005	0.005	-0.020	0.029	2.676	1.890	1.895	1.895	1.919	1.914	1.909
-0.010	0.005	-0.005	0.005	0.005	0.015	0.029	2.671	1.895	1.895	1.899	1.919	1.914	1.919
-0.005	0.005	-0.010	0.005	0.000	0.005	0.029	2.642	1.890	1.895	1.895	1.919	1.909	1.914
-0.015	0.000	-0.005	0.000	0.000	-0.005	0.034	2.646	1.890	1.895	1.895	1.914	1.909	1.914
-0.005	0.005	-0.005	0.000	0.005	0.005	0.029	2.749	1.904	1.899	1.895	1.914	1.909	1.914
-0.005	0.024	-0.005	0.000	0.005	0.010	0.034	2.651	1.904	1.904	1.895	1.914	1.909	1.919
-0.005	0.010	0.000	0.000	0.000	0.000	0.034	2.651	1.899	1.895	1.899	1.914	1.909	1.914
0.000	0.000	0.005	0.000	0.000	-0.005	0.029	2.646	1.909	1.899	1.895	1.914	1.909	1.909
0.010	-0.020	0.005	0.000	0.005	0.010	0.029	2.627	1.899	1.895	1.895	1.914	1.909	1.914
-0.005	-0.015	0.000	0.000	0.000	0.010	0.034	2.646	1.895	1.895	1.895	1.914	1.909	1.914
0.000	-0.010	0.005	-0.005	0.000	0.005	0.034	2.651	1.895	1.895	1.895	1.914	1.909	1.909
0.010	-0.010	0.005	0.000	-0.005	0.005	0.034	2.642	1.895	1.890	1.895	1.914	1.909	1.909
0.005	-0.005	0.000	0.005	-0.005	0.000	0.029	2.661	1.890	1.895	1.890	1.914	1.904	1.904
0.010	0.005	0.000	0.005	0.000	-0.005	0.034	2.700	1.899	1.895	1.890	1.914	1.909	1.909
0.005	-0.005	0.000	0.005	0.000	-0.024	0.029	2.710	1.899	1.895	1.890	1.914	1.909	1.904
0.005	0.005	0.000	0.005	-0.005	0.005	0.029	2.695	1.904	1.899	1.895	1.914	1.909	1.909
0.000	0.010	-0.005	0.010	0.005	0.000	0.034	2.686	1.904	1.904	1.895	1.914	1.909	1.909
-0.005	0.020	0.000	0.005	0.000	0.005	0.029	2.700	1.904	1.904	1.899	1.914	1.909	1.914
-0.005	0.015	-0.005	0.010	0.000	0.005	0.034	2.676	1.904	1.904	1.899	1.914	1.909	1.909
-0.005	0.015	-0.005	0.005	0.000	0.010	0.029	2.686	1.904	1.904	1.899	1.914	1.909	1.914
0.000	0.015	0.005	0.005	0.000	0.010	0.034	2.676	1.904	1.899	1.899	1.919	1.909	1.909
-0.005	0.000	0.005	0.005	-0.005	0.005	0.029	2.671	1.899	1.899	1.899	1.914	1.909	1.909
0.000	0.005	0.010	0.010	0.000	0.000	0.034	2.700	1.904	1.899	1.899	1.919	1.909	1.909
0.005	-0.005	0.005	0.000	0.000	-0.005	0.029	2.705	1.904	1.895	1.899	1.914	1.909	1.904
0.010	0.000	0.010	0.005	0.005	0.005	0.034	2.681	1.904	1.899	1.895	1.919	1.914	1.914
0.010	-0.010	0.010	0.000	0.000	0.000	0.034	2.661	1.895	1.899	1.895	1.914	1.909	1.914
0.015	-0.010	0.005	0.000	0.005	0.005	0.034	2.686	1.899	1.895	1.899	1.914	1.909	1.914
0.010	-0.005	0.000	0.005	0.000	0.010	0.034	2.690	1.899	1.899	1.895	1.914	1.909	1.914
0.005	0.005	0.005	-0.005	0.000	0.000	0.034	2.681	1.899	1.899	1.895	1.914	1.909	1.904
0.005	-0.005	0.010	0.005	0.000	-0.005	0.029	2.695	1.899	1.899	1.895	1.914	1.909	1.904
0.000	-0.005	0.010	0.000	0.010	-0.015	0.029	2.671	1.899	1.899	1.895	1.914	1.909	1.909
0.000	0.010	0.000	0.005	-0.005	0.015	0.029	2.695	1.899	1.899	1.895	1.914	1.909	1.914
0.000	0.015	-0.005	0.000	-0.005	0.005	0.034	2.671	1.899	1.899	1.895	1.914	1.909	1.909
-0.010	0.015	0.000	0.000	-0.005	0.010	0.034	2.676	1.899	1.899	1.895	1.914	1.909	1.909
-0.005	0.015	0.000	0.005	0.000	0.005	0.034	2.686	1.899	1.899	1.899	1.914	1.909	1.909
-0.005	0.015	0.000	0.005	0.005	0.005	0.034	2.661	1.899	1.899	1.895	1.914	1.914	1.909
-0.010	0.010	0.005	0.005	0.005	0.000	0.034	2.656	1.895	1.895	1.895	1.914	1.914	1.909
-0.005	0.000	0.000	0.000	0.010	-0.005	0.029	2.671	1.899	1.895	1.895	1.914	1.914	1.909
0.000	0.000	0.000	0.000	0.005	0.000	0.034	2.754	1.909	1.899	1.895	1.909	1.909	1.909
0.010	0.000	0.000	0.000	-0.010	0.000	0.029	2.651	1.904	1.899	1.895	1.914	1.904	1.909
0.010	-0.010	0.005	-0.005	0.000	-0.015	0.034	2.715	1.899	1.890	1.895	1.914	1.909	1.909
0.010	-0.020	0.000	0.000	0.005	0.010	0.034	2.686	1.895	1.890	1.890	1.909	1.909	1.909
0.020	-0.005	0.000	0.005	0.005	-0.015	0.034	2.715	1.904	1.899	1.895	1.914	1.909	1.904
0.020	-0.005	0.000	0.000	0.005	0.010	0.029	2.671	1.904	1.895	1.895	1.914	1.909	1.914
0.010	-0.015	0.000	0.005	0.000	0.005	0.029	2.729	1.904	1.899	1.890	1.909	1.909	1.909
0.005	-0.010	0.000	0.005	-0.010	0.000	0.029	2.661	1.899	1.899	1.895	1.909	1.904	1.909
0.020	0.000	0.000	0.010	-0.010	0.000	0.034	2.646	1.899	1.904	1.895	1.914	1.904	1.909
0.010	-0.024	0.000	0.005	-0.005	-0.005	0.034	2.627	1.890	1.890	1.895	1.914	1.909	1.904
0.005	-0.010	0.000	0.005	0.000	0.000	0.034	2.739	1.895	1.895	1.895	1.909	1.909	1.909
-0.005	0.005	0.000	0.010	0.000	-0.010	0.034	2.734	1.904	1.899	1.895	1.914	1.909	1.904
-0.005	0.000	-0.005	0.010	0.005	0.000	0.034	2.681	1.899	1.899	1.895	1.914	1.909	1.909
-0.005	0.029	-0.005	0.000	0.000	0.000	0.034	2.725	1.904	1.904	1.899	1.914	1.909	1.909
-0.005	0.024	-0.005	0.000	-0.005	-0.005	0.029	2.666	1.899	1.904	1.899	1.914	1.909	1.909
-0.010	0.024	0.000	0.000	0.020	0.000	0.034	2.700	1.904	1.904	1.899	1.914	1.914	1.909
0.000	0.000	0.000	0.000	0.039	-0.015	0.034	2.681	1.899	1.895	1.899	1.919	1.919	1.909
-0.005	0.000	-0.005	0.000	0.029	0.000	0.034	2.695	1.904	1.899	1.899	1.919	1.914	1.914
0.000	0.005	0.000	0.000	0.005	-0.005	0.034	2.690	1.904	1.899	1.899	1.914	1.909	1.914
0.015	-0.015	0.005	0.005	-0.005	-0.005	0.034	2.700	1.904	1.895	1.895	1.914	1.904	1.909
0.010	-0.020	0.005	0.000	-0.020	-0.024	0.029	2.690	1.904	1.895	1.895	1.914	1.904	1.904
0.000	-0.029	0.010	-0.005	-0.015	0.015	0.034	2.686	1.899	1.895	1.895	1.914	1.904	1.914
0.000	-0.015	0.010	-0.005	0.000	0.010	0.029	2.705	1.904	1.899	1.895	1.914	1.909	1.909
0.000	-0.020	0.000	0.000	0.010	0.010	0.034	2.690	1.899	1.895	1.895	1.914	1.914	1.914
-0.010	-0.005	0.000	0.000	0.005	0.010	0.034	2.695	1.904	1.904	1.895	1.914	1.909	1.909
-0.005	-0.005	0.000	0.000	-0.005	-0.015	0.034	2.681	1.899	1.899	1.895	1.914	1.904	1.899
-0.005	0.024	-0.005	0.000	-0.005	0.010	0.034	2.695	1.904	1.909	1.899	1.914	1.909	1.914
-0.015	0.029	0.000	0.000	-0.005	0.005	0.034	2.676	1.899	1.904	1.904	1.914	1.909	1.914
-0.010	0.024	-0.005	0.005	-0.005	0.010	0.034	2.671	1.899	1.904	1.899	1.919	1.909	1.909
-0.010	0.024	0.000	0.005	-0.005	-0.010	0.034	2.705	1.904	1.904	1.899	1.919	1.909	1.904
-0.020	0.015	0.000	0.005	0.000	0.000	0.034	2.681	1.899	1.899	1.899	1.919	1.914	1.909
-0.020	0.010	-0.005	0.010	0.005	0.005	0.034	2.695	1.904	1.895	1.899	1.919	1.914	1.914
-0.005	0.005	0.000	0.005	0.005	0.000	0.034	2.676	1.909	1.899	1.899	1.919	1.914	1.914
0.005	0.015	0.005	0.005	0.005	0.000	0.034	2.690	1.904	1.904	1.899	1.914	1.914	1.914
-0.005	0.000	0.005	0.005	0.000	0.005	0.029	2.676	1.904	1.899	1.899	1.919	1.914	1.914
0.000	-0.010	0.005	0.005	0.000	-0.020	0.029	2.681	1.904	1.899	1.899	1.919	1.914	1.909
0.010	-0.010	0.005	0.000	0.000	0.005	0.034	2.686	1.899	1.899	1.895	1.914	1.914	1.914
0.010	-0.005	0.005	0.000	0.005	-0.005	0.029	2.656	1.899	1.899	1.899	1.914	1.914	1.914
0.005	-0.010	0.000	0.005	0.005	0.000	0.034	2.798	1.899	1.895	1.895	1.914	1.909	1.914
0.000	-0.005	0.005	0.005	0.005	0.010	0.034	2.656	1.895	1.895	1.895	1.914	1.909	1.914
0.005	0.010	0.000	0.000	0.005	0.005	0.029	2.637	1.895	1.899	1.895	1.914	1.909	1.909
0.000	0.000	-0.005	0.000	0.010	0.005	0.034	2.661	1.890	1.895	1.895	1.914	1.914	1.909
0.005	0.005	-0.005	0.005	0.000	-0.015	0.034	2.720	1.890	1.895	1.890	1.909	1.909	1.904
-0.005	0.010	0.000	0.000	-0.005	-0.005	0.034	2.700	1.895	1.895	1.895	1.914	1.904	1.909
-0.010	0.020	-0.005	0.005	-0.005	-0.005	0.034	2.744	1.904	1.899	1.895	1.914	1.904	1.904
-0.005	0.010	-0.005	0.005	-0.005	0.005	0.034	2.681	1.904	1.895	1.895	1.914	1.909	1.909
0.000	0.015	-0.005	0.010	-0.005	0.005	0.034	2.710	1.904	1.899	1.895	1.914	1.909	1.909
-0.015	0.010	-0.005	0.015	0.005	-0.005	0.029	2.671	1.899	1.899	1.895	1.914	1.914	1.909
-0.005	0.015	-0.010	0.015	0.005	0.005	0.029	2.710	1.895	1.899	1.895	1.914	1.909	1.914
0.005	-0.005	0.000	0.015	0.000	-0.020	0.029	2.627	1.895	1.895	1.895	1.914	1.909	1.904
-0.005	-0.010	-0.005	0.005	0.005	-0.015	0.029	2.710	1.895	1.890	1.890	1.909	1.909	1.909
-0.005	-0.024	0.000	0.005	0.005	0.015	0.034	2.744	1.904	1.890	1.895	1.909	1.909	1.919
0.005	-0.020	0.000	-0.005	0.000	0.015	0.034	2.656	1.899	1.890	1.890	1.909	1.904	1.914
0.000	-0.024	0.005	-0.005	-0.005	0.010	0.034	2.661	1.895	1.895	1.890	1.909	1.904	1.909
0.010	-0.015	0.005	-0.005	0.000	0.010	0.029	2.661	1.895	1.895	1.895	1.904	1.904	1.909
0.010	-0.010	0.000	-0.010	-0.005	-0.005	0.034	2.700	1.899	1.895	1.890	1.904	1.904	1.904
0.010	-0.010	0.005	-0.010	0.000	0.000	0.029	2.695	1.899	1.899	1.890	1.909	1.904	1.899
0.015	0.000	0.010	-0.010	0.005	0.005	0.029	2.700	1.904	1.899	1.895	1.909	1.904	1.904
0.020	-0.010	0.000	0.000	0.005	-0.005	0.034	2.695	1.899	1.899	1.895	1.909	1.904	1.904
0.015	-0.010	0.000	0.000	-0.005	0.010	0.034	2.695	1.899	1.899	1.895	1.909	1.904	1.909
0.005	0.015	0.000	0.000	0.000	0.010	0.034	2.671	1.899	1.904	1.895	1.914	1.904	1.904
0.005	0.024	0.005	0.010	0.000	0.000	0.034	2.681	1.895	1.904	1.899	1.919	1.909	1.904
0.000	0.020	0.005	0.000	0.015	0.005	0.029	2.690	1.895	1.899	1.899	1.919	1.914	1.909
-0.005	0.010	0.000	0.005	0.024	0.005	0.034	2.681	1.895	1.895	1.895	1.919	1.919	1.909
-0.005	0.020	0.000	0.015	0.015	0.000	0.029	2.700	1.899	1.899	1.899	1.919	1.914	1.909
0.000	0.015	-0.005	0.005	0.005	-0.010	0.029	2.695	1.899	1.899	1.895	1.914	1.909	1.909
-0.010	0.015	0.005	0.000	0.005	0.005	0.034	2.690	1.899	1.899	1.895	1.914	1.909	1.914
-0.005	0.010	0.005	0.005	0.005	0.000	0.029	2.705	1.904	1.899	1.895	1.914	1.909	1.909
-0.005	0.005	0.005	0.000	-0.015	0.005	0.034	2.671	1.904	1.895	1.895	1.914	1.904	1.909
0.010	-0.005	0.005	-0.005	-0.024	0.005	0.029	2.695	1.899	1.895	1.895	1.909	1.904	1.909
0.000	-0.005	0.010	-0.010	-0.010	-0.005	0.029	2.676	1.899	1.895	1.895	1.909	1.904	1.904
0.005	-0.005	0.010	-0.010	0.000	-0.010	0.029	2.690	1.899	1.895	1.895	1.914	1.909	1.909
0.005	-0.005	0.010	-0.005	0.000	0.000	0.029	2.700	1.899	1.895	1.895	1.909	1.909	1.909
0.000	0.000	0.005	-0.005	0.010	-0.005	0.034	2.695	1.899	1.895	1.895	1.914	1.909	1.909
0.000	0.005	0.000	-0.005	0.015	0.000	0.034	2.676	1.899	1.899	1.895	1.914	1.914	1.909
0.010	0.015	0.005	0.000	0.015	0.000	0.034	2.681	1.904	1.904	1.895	1.914	1.909	1.909
-0.005	0.010	-0.005	0.010	0.005	0.000	0.029	2.681	1.895	1.899	1.895	1.914	1.909	1.909
-0.005	0.029	0.000	0.005	-0.005	0.000	0.029	2.656	1.899	1.904	1.899	1.914	1.909	1.909
-0.005	0.005	-0.005	0.005	0.000	0.005	0.029	2.793	1.909	1.899	1.895	1.914	1.909	1.909
-0.005	0.020	-0.005	0.005	-0.005	0.005	0.034	2.671	1.899	1.904	1.899	1.914	1.909	1.909
-0.005	0.015	0.000	0.000	-0.005	0.010	0.034	2.632	1.899	1.904	1.899	1.914	1.909	1.909
0.000	0.015	-0.005	0.000	0.000	-0.010	0.034	2.656	1.895	1.899	1.899	1.914	1.909	1.904
0.000	0.015	0.000	0.000	0.010	0.010	0.034	2.739	1.904	1.899	1.899	1.919	1.914	1.914
-0.010	0.015	0.000	-0.005	0.020	0.010	0.029	2.676	1.899	1.899	1.899	1.914	1.914	1.914
0.000	0.000	0.000	-0.005	0.015	0.000	0.029	2.695	1.909	1.899	1.899	1.914	1.909	1.909
0.000	-0.005	0.000	-0.005	-0.005	-0.005	0.029	2.808	1.904	1.890	1.895	1.914	1.904	1.904
0.010	-0.010	0.005	-0.005	-0.010	0.000	0.029	2.725	1.909	1.899	1.899	1.914	1.904	1.909
0.005	-0.015	0.005	-0.005	-0.010	-0.024	0.034	2.734	1.914	1.899	1.895	1.914	1.904	1.899
0.005	-0.020	0.000	0.000	-0.010	-0.015	0.034	2.651	1.899	1.899	1.895	1.914	1.909	1.909
0.005	-0.020	0.000	0.010	0.005	0.000	0.034	2.632	1.895	1.895	1.895	1.919	1.914	1.909
0.005	-0.010	0.010	0.000	0.005	0.015	0.034	2.720	1.899	1.899	1.895	1.914	1.909	1.909
0.005	-0.005	0.000	0.000	0.000	-0.005	0.034	2.656	1.895	1.899	1.895	1.914	1.909	1.909
0.000	-0.005	0.000	0.005	0.000	-0.010	0.034	2.651	1.890	1.895	1.895	1.914	1.909	1.909
-0.005	0.000	0.005	0.000	0.000	0.015	0.029	2.749	1.899	1.895	1.895	1.914	1.909	1.914
-0.005	0.000	-0.005	0.010	0.000	0.005	0.034	2.666	1.895	1.895	1.895	1.914	1.909	1.914
-0.005	0.005	0.000	0.005	0.000	0.005	0.034	2.705	1.899	1.899	1.895	1.914	1.914	1.909
-0.005	0.000	0.000	0.005	-0.005	0.005	0.034	2.700	1.904	1.899	1.895	1.914	1.909	1.909
0.000	0.015	-0.005	0.005	-0.005	0.005	0.034	2.671	1.899	1.904	1.895	1.914	1.909	1.909
0.000	0.010	-0.005	0.005	0.005	0.000	0.029	2.681	1.899	1.899	1.895	1.914	1.909	1.909
-0.010	0.015	0.000	0.000	0.010	0.010	0.034	2.705	1.904	1.904	1.899	1.914	1.914	1.914
-0.010	0.000	0.000	0.000	0.010	-0.010	0.034	2.695	1.904	1.899	1.899	1.914	1.909	1.904
0.005	0.000	0.000	0.000	0.000	0.000	0.034	2.671	1.904	1.899	1.899	1.914	1.909	1.914
0.000	0.000	0.005	-0.005	0.000	0.000	0.034	2.671	1.899	1.899	1.899	1.914	1.909	1.909
0.000	0.000	0.005	-0.005	-0.005	0.005	0.034	2.695	1.899	1.895	1.899	1.914	1.909	1.909
0.005	-0.010	0.005	-0.005	0.000	-0.010	0.029	2.695	1.904	1.895	1.895	1.914	1.909	1.904
0.010	-0.010	0.005	-0.005	0.005	0.000	0.034	2.681	1.904	1.895	1.895	1.914	1.909	1.909
0.010	-0.005	0.000	-0.005	0.005	0.005	0.034	2.690	1.899	1.899	1.895	1.909	1.909	1.914
0.005	-0.005	0.005	-0.010	-0.005	0.005	0.029	2.671	1.899	1.899	1.899	1.909	1.904	1.909
0.005	0.005	0.000	-0.005	-0.005	0.010	0.029	2.676	1.899	1.899	1.895	1.914	1.909	1.909
0.000	0.000	0.000	-0.005	-0.005	0.005	0.029	2.695	1.899	1.895	1.895	1.914	1.909	1.909
-0.005	0.010	0.005	-0.005	0.000	0.005	0.034	2.681	1.899	1.895	1.899	1.914	1.909	1.909
-0.005	0.010	0.000	0.005	0.000	0.000	0.034	2.695	1.899	1.899	1.895	1.919	1.914	1.909
-0.005	0.020	0.000	0.005	0.000	0.000	0.034	2.671	1.899	1.899	1.895	1.919	1.909	1.909
0.000	0.020	-0.005	0.010	-0.005	0.005	0.034	2.705	1.899	1.899	1.899	1.919	1.909	1.914
-0.005	-0.005	-0.005	0.010	0.005	0.000	0.029	2.686	1.899	1.890	1.899	1.914	1.914	1.909
-0.005	-0.005	0.000	0.005	0.000	-0.005	0.029	2.695	1.899	1.895	1.895	1.914	1.909	1.909
-0.005	-0.015	0.000	0.010	0.000	0.010	0.029	2.690	1.904	1.895	1.895	1.919	1.914	1.914
0.000	-0.015	0.005	0.010	0.005	0.005	0.034	2.651	1.899	1.895	1.895	1.914	1.914	1.914
-0.005	-0.020	0.005	0.000	-0.005	-0.005	0.034	2.690	1.895	1.890	1.890	1.909	1.909	1.909
-0.005	-0.015	0.005	-0.005	0.005	-0.005	0.034	2.661	1.895	1.895	1.895	1.909	1.909	1.904
0.000	0.000	0.005	0.000	0.005	0.015	0.034	2.637	1.895	1.895	1.895	1.909	1.909	1.914
0.010	-0.010	0.005	-0.005	0.000	0.005	0.034	2.661	1.890	1.890	1.895	1.909	1.909	1.909
0.000	-0.020	0.005	-0.005	0.000	0.010	0.029	2.729	1.890	1.890	1.890	1.909	1.904	1.909
-0.005	-0.010	0.005	-0.005	-0.005	-0.005	0.034	2.666	1.890	1.890	1.890	1.909	1.904	1.909
0.005	-0.010	-0.005	0.000	0.000	0.005	0.029	2.622	1.890	1.890	1.885	1.909	1.904	1.909
-0.005	0.005	0.000	0.000	0.005	-0.015	0.029	2.656	1.890	1.895	1.885	1.909	1.909	1.899
0.000	0.000	-0.005	0.005	0.005	-0.010	0.034	2.715	1.890	1.890	1.890	1.909	1.904	1.904
-0.015	0.005	0.000	0.005	0.005	0.000	0.034	2.656	1.890	1.890	1.890	1.909	1.904	1.909
-0.010	0.024	-0.005	0.010	0.005	0.010	0.034	2.646	1.890	1.895	1.890	1.909	1.904	1.909
-0.010	0.015	-0.005	0.010	-0.005	-0.005	0.034	2.642	1.885	1.890	1.890	1.909	1.904	1.904
-0.005	0.010	-0.005	0.015	0.000	0.005	0.029	2.729	1.899	1.890	1.890	1.909	1.904	1.909
-0.005	0.005	-0.005	0.010	-0.005	-0.010	0.029	2.656	1.895	1.890	1.885	1.909	1.904	1.904
0.000	-0.005	0.000	0.005	0.000	0.005	0.029	2.651	1.895	1.890	1.890	1.909	1.904	1.909
0.000	0.000	0.000	0.000	0.000	-0.010	0.029	2.661	1.895	1.890	1.890	1.904	1.904	1.904
-0.005	-0.010	0.005	-0.005	0.005	0.010	0.029	2.676	1.895	1.890	1.885	1.904	1.904	1.909
0.000	-0.015	0.005	0.000	-0.005	0.000	0.034	2.686	1.895	1.890	1.885	1.904	1.899	1.899
0.010	-0.015	0.005	-0.005	0.005	-0.015	0.034	2.695	1.899	1.895	1.885	1.904	1.899	1.899
0.015	-0.010	0.000	-0.005	0.000	0.010	0.034	2.656	1.895	1.895	1.885	1.899	1.899	1.909
0.015	-0.005	0.000	-0.005	0.005	0.005	0.034	2.695	1.899	1.895	1.890	1.904	1.899	1.904
0.005	0.010	0.010	-0.005	0.010	0.020	0.029	2.705	1.899	1.895	1.890	1.909	1.904	1.904
0.005	-0.010	0.005	-0.010	0.000	-0.010	0.029	2.695	1.899	1.895	1.890	1.904	1.899	1.895
0.010	0.005	0.000	-0.010	0.000	0.015	0.029	2.671	1.899	1.899	1.890	1.904	1.904	1.904
0.005	0.005	-0.005	-0.005	0.005	0.010	0.034	2.690	1.899	1.899	1.895	1.904	1.904	1.904
0.000	0.010	-0.005	-0.005	0.005	-0.010	0.034	2.671	1.890	1.895	1.895	1.909	1.899	1.899
-0.005	0.029	-0.005	0.000	0.000	0.005	0.034	2.676	1.895	1.899	1.895	1.914	1.904	1.899
-0.010	0.034	-0.005	0.010	0.000	-0.015	0.034	2.705	1.899	1.899	1.895	1.914	1.904	1.899
-0.005	0.024	0.000	0.005	0.005	0.000	0.034	2.695	1.895	1.895	1.895	1.914	1.909	1.904
-0.005	0.029	-0.005	0.010	0.000	0.000	0.034	2.676	1.895	1.895	1.899	1.914	1.904	1.909
-0.010	0.010	0.000	0.000	0.000	-0.010	0.029	2.686	1.895	1.890	1.895	1.914	1.909	1.904
-0.005	0.005	0.000	0.005	-0.005	0.015	0.029	2.710	1.899	1.895	1.890	1.914	1.909	1.909
-0.010	0.000	0.005	0.000	-0.005	0.000	0.029	2.671	1.895	1.890	1.890	1.914	1.909	1.904
0.010	0.000	0.000	0.000	0.000	0.000	0.034	2.686	1.899	1.895	1.890	1.909	1.909	1.904
-0.005	0.000	0.000	0.000	0.005	0.005	0.034	2.690	1.899	1.895	1.895	1.909	1.909	1.909
0.010	-0.005	0.005	-0.005	0.005	-0.005	0.029	2.690	1.904	1.895	1.890	1.909	1.904	1.904
0.005	-0.010	0.005	0.000	0.000	0.010	0.034	2.671	1.895	1.895	1.890	1.909	1.909	1.909
0.015	-0.015	0.005	0.000	0.005	0.010	0.034	2.666	1.899	1.890	1.890	1.909	1.904	1.909
0.005	-0.020	0.000	0.000	0.000	0.005	0.029	2.681	1.895	1.890	1.890	1.909	1.904	1.904
0.005	-0.015	0.005	0.000	0.005	-0.020	0.029	2.676	1.895	1.895	1.890	1.909	1.904	1.899
0.005	-0.015	0.000	0.000	0.000	-0.024	0.034	2.793	1.909	1.895	1.890	1.909	1.904	1.899
0.005	-0.010	0.000	0.005	0.000	0.005	0.034	2.666	1.904	1.899	1.890	1.909	1.904	1.909
0.000	-0.005	0.000	0.010	-0.005	0.010	0.034	2.646	1.895	1.899	1.895	1.909	1.904	1.904
0.000	0.015	-0.005	0.010	0.000	-0.010	0.034	2.666	1.895	1.904	1.890	1.909	1.909	1.904
0.000	0.015	-0.005	0.010	-0.005	0.005	0.034	2.734	1.899	1.904	1.895	1.914	1.909	1.904
0.005	0.010	-0.005	0.015	-0.010	0.005	0.029	2.690	1.899	1.899	1.895	1.914	1.904	1.909
0.000	0.010	-0.005	0.010	0.005	-0.005	0.034	2.627	1.895	1.899	1.895	1.914	1.914	1.904
-0.005	0.005	0.000	0.005	0.015	0.000	0.029	2.734	1.890	1.890	1.895	1.914	1.914	1.909
0.000	-0.005	0.000	0.010	0.005	0.005	0.034	2.710	1.895	1.890	1.895	1.909	1.909	1.909
0.000	-0.005	-0.005	0.005	0.000	-0.005	0.034	2.749	1.890	1.890	1.890	1.909	1.909	1.904
0.005	0.000	0.000	0.005	0.005	0.005	0.034	2.617	1.890	1.890	1.890	1.909	1.909	1.909
0.010	-0.005	0.000	0.005	0.000	0.000	0.034	2.646	1.890	1.885	1.895	1.909	1.904	1.909
0.015	-0.005	0.005	0.005	0.005	-0.005	0.034	2.729	1.895	1.890	1.890	1.909	1.909	1.904
0.015	-0.010	0.005	0.005	0.000	0.000	0.034	2.725	1.890	1.890	1.890	1.909	1.904	1.909
0.005	-0.020	0.010	0.000	0.000	-0.010	0.029	2.651	1.890	1.885	1.885	1.909	1.904	1.904
0.010	0.005	0.005	0.000	0.000	0.000	0.034	2.715	1.885	1.890	1.890	1.904	1.904	1.904
-0.005	0.015	0.005	0.000	0.000	-0.010	0.034	2.671	1.885	1.890	1.885	1.909	1.904	1.899
0.000	0.020	0.005	0.000	0.000	0.005	0.034	2.700	1.890	1.890	1.885	1.904	1.904	1.909
0.005	0.029	0.005	0.005	0.000	-0.010	0.034	2.695	1.890	1.895	1.890	1.909	1.904	1.904
0.000	0.029	-0.005	0.000	-0.005	0.000	0.029	2.671	1.890	1.890	1.890	1.909	1.899	1.904
-0.010	0.015	0.000	0.000	0.000	0.005	0.034	2.705	1.890	1.885	1.885	1.909	1.904	1.899
-0.005	0.029	0.000	0.005	0.000	0.015	0.029	2.705	1.899	1.895	1.890	1.909	1.904	1.909
-0.005	0.024	0.000	0.010	-0.005	0.000	0.029	2.695	1.899	1.895	1.890	1.909	1.904	1.904
-0.015	0.020	0.000	0.000	0.000	0.010	0.034	2.671	1.895	1.895	1.890	1.909	1.904	1.904
-0.005	0.020	-0.005	-0.005	0.000	0.000	0.034	2.676	1.899	1.895	1.890	1.909	1.904	1.904
-0.010	0.015	0.000	-0.005	0.000	-0.015	0.034	2.695	1.899	1.895	1.890	1.904	1.904	1.899
0.000	0.000	0.005	0.000	-0.005	0.000	0.034	2.676	1.899	1.890	1.895	1.909	1.904	1.904
-0.005	-0.005	0.000	-0.005	0.000	0.015	0.029	2.676	1.895	1.890	1.890	1.909	1.904	1.909
0.000	-0.010	0.000	-0.005	0.000	-0.010	0.029	2.676	1.895	1.885	1.890	1.909	1.904	1.899
0.005	-0.015	0.005	-0.010	0.005	-0.010	0.029	2.671	1.895	1.890	1.890	1.909	1.904	1.899
0.000	-0.020	0.005	-0.010	0.005	-0.010	0.034	2.695	1.899	1.890	1.885	1.904	1.904	1.899
0.015	-0.010	0.005	-0.005	0.000	0.005	0.034	2.686	1.895	1.890	1.890	1.904	1.899	1.904
0.010	-0.015	0.005	-0.005	-0.005	-0.010	0.034	2.666	1.895	1.890	1.890	1.904	1.899	1.904
0.000	0.000	0.005	-0.005	0.000	-0.005	0.029	2.695	1.895	1.895	1.890	1.909	1.899	1.904
0.000	-0.005	0.005	0.010	0.000	0.005	0.029	2.700	1.899	1.895	1.890	1.909	1.904	1.904
-0.005	-0.005	0.005	0.000	0.010	0.000	0.034	2.705	1.899	1.895	1.890	1.909	1.904	1.899
0.005	0.010	0.005	0.005	0.000	-0.015	0.034	2.681	1.899	1.899	1.890	1.909	1.904	1.899
-0.005	0.010	-0.005	0.005	0.010	-0.010	0.034	2.666	1.895	1.899	1.895	1.909	1.904	1.904
0.000	0.005	0.000	0.010	0.000	0.005	0.034	2.676	1.890	1.895	1.895	1.909	1.904	1.909
-0.005	-0.005	0.000	0.005	-0.005	0.005	0.034	2.661	1.890	1.890	1.895	1.909	1.904	1.909
-0.005	0.000	0.000	0.005	-0.010	0.010	0.029	2.803	1.909	1.899	1.895	1.909	1.904	1.909
-0.005	0.005	0.000	0.005	0.000	0.010	0.034	2.666	1.899	1.899	1.895	1.914	1.909	1.909
0.000	0.000	-0.005	0.010	-0.005	0.000	0.029	2.642	1.899	1.895	1.895	1.914	1.909	1.904
0.000	-0.010	0.000	-0.005	0.000	-0.015	0.029	2.651	1.895	1.890	1.890	1.909	1.904	1.904
0.005	-0.010	0.000	0.000	0.005	0.010	0.029	2.729	1.899	1.895	1.895	1.909	1.904	1.909
0.005	-0.015	0.000	0.005	0.005	0.010	0.034	2.666	1.899	1.895	1.895	1.909	1.909	1.909
0.005	-0.005	0.005	0.000	0.010	0.000	0.034	2.725	1.904	1.899	1.895	1.909	1.909	1.904
0.000	-0.015	0.005	0.000	0.000	0.005	0.029	2.661	1.895	1.895	1.895	1.909	1.904	1.904
0.000	-0.010	0.010	-0.005	0.000	0.005	0.034	2.710	1.899	1.895	1.895	1.909	1.904	1.904
0.000	0.000	0.015	0.005	0.005	-0.005	0.034	2.739	1.899	1.899	1.895	1.914	1.909	1.904
-0.005	-0.015	0.000	0.000	0.005	0.000	0.029	2.627	1.890	1.890	1.890	1.909	1.904	1.904
-0.010	-0.005	0.000	0.000	0.000	-0.005	0.029	2.651	1.890	1.890	1.890	1.909	1.904	1.904
0.000	0.015	0.000	0.000	0.005	0.005	0.034	2.637	1.890	1.899	1.890	1.909	1.909	1.909
-0.005	0.010	-0.010	0.000	0.005	0.000	0.029	2.651	1.885	1.895	1.890	1.909	1.909	1.909
0.005	0.010	-0.005	0.010	0.005	-0.005	0.029	2.661	1.890	1.890	1.890	1.914	1.909	1.904
0.000	0.005	-0.005	-0.005	0.000	-0.005	0.034	2.744	1.885	1.890	1.890	1.909	1.904	1.904
-0.005	0.005	-0.005	0.000	0.005	-0.024	0.029	2.676	1.890	1.890	1.890	1.909	1.904	1.904
-0.005	0.005	0.000	0.005	0.005	0.005	0.029	2.690	1.890	1.890	1.890	1.909	1.909	1.909
-0.005	0.000	0.005	0.000	0.000	-0.005	0.029	2.700	1.899	1.890	1.890	1.909	1.904	1.904
-0.010	0.010	0.000	-0.005	0.000	0.000	0.034	2.690	1.899	1.895	1.890	1.909	1.904	1.909
0.000	0.005	0.005	-0.005	-0.005	0.015	0.034	2.695	1.904	1.895	1.890	1.909	1.904	1.909
0.000	-0.010	0.000	-0.005	0.000	0.010	0.034	2.690	1.899	1.890	1.890	1.909	1.904	1.909
0.010	-0.005	-0.005	0.000	0.000	0.005	0.034	2.686	1.899	1.895	1.890	1.909	1.904	1.904
0.005	-0.010	0.010	0.000	-0.005	0.000	0.034	2.676	1.899	1.895	1.895	1.909	1.904	1.899
0.010	-0.010	0.010	0.000	-0.005	0.000	0.034	2.695	1.899	1.890	1.890	1.909	1.904	1.899
0.005	0.000	0.000	0.000	-0.005	0.005	0.029	2.690	1.899	1.895	1.890	1.909	1.904	1.904
0.005	0.005	0.005	0.010	0.005	0.010	0.034	2.671	1.895	1.899	1.895	1.914	1.904	1.909
0.005	0.000	0.005	0.010	0.005	-0.020	0.034	2.681	1.895	1.895	1.890	1.909	1.904	1.899
0.010	0.015	0.005	0.005	0.000	0.005	0.029	2.666	1.895	1.899	1.895	1.909	1.909	1.904
0.005	0.020	0.000	0.000	0.005	0.000	0.034	2.710	1.899	1.899	1.895	1.909	1.904	1.904
0.000	0.010	-0.005	0.005	0.005	0.000	0.034	2.676	1.899	1.895	1.895	1.914	1.909	1.909
0.005	0.010	-0.005	0.010	0.005	-0.005	0.029	2.695	1.899	1.899	1.895	1.914	1.909	1.904
0.000	0.010	0.000	0.005	0.000	0.010	0.029	2.676	1.899	1.899	1.895	1.914	1.909	1.909
0.000	0.015	0.000	0.010	-0.005	0.005	0.029	2.695	1.899	1.899	1.899	1.914	1.909	1.909
0.000	0.015	0.000	0.005	0.000	-0.020	0.029	2.681	1.895	1.899	1.895	1.914	1.909	1.904
0.005	0.020	0.000	0.010	0.005	0.005	0.029	2.700	1.899	1.899	1.899	1.914	1.909	1.914
0.005	0.005	-0.005	0.010	0.000	0.005	0.034	2.671	1.895	1.895	1.895	1.914	1.909	1.909
0.020	0.005	0.005	0.005	0.000	0.005	0.034	2.705	1.895	1.895	1.895	1.914	1.909	1.909
0.010	-0.005	0.000	0.000	0.000	-0.005	0.034	2.686	1.895	1.890	1.890	1.914	1.909	1.909
0.005	-0.020	0.005	0.000	0.000	0.010	0.034	2.661	1.895	1.885	1.890	1.909	1.904	1.909
0.010	-0.034	0.005	-0.005	-0.005	0.010	0.029	2.661	1.890	1.885	1.885	1.904	1.904	1.909
0.010	-0.024	0.005	-0.010	0.000	0.005	0.029	2.671	1.890	1.890	1.885	1.904	1.904	1.904
0.010	-0.024	0.010	-0.010	0.005	-0.010	0.034	2.632	1.885	1.890	1.890	1.904	1.904	1.904
0.010	-0.005	0.005	-0.005	0.000	0.000	0.029	2.651	1.885	1.890	1.890	1.904	1.904	1.904
-0.005	0.000	0.005	-0.005	0.000	-0.005	0.029	2.734	1.890	1.890	1.890	1.909	1.904	1.904
0.000	0.029	0.000	-0.005	0.005	-0.010	0.034	2.676	1.899	1.899	1.890	1.909	1.899	1.899
0.000	0.015	0.000	0.000	0.000	-0.015	0.034	2.754	1.904	1.899	1.895	1.909	1.904	1.904
-0.010	0.024	0.005	-0.005	0.000	0.010	0.034	2.646	1.890	1.899	1.895	1.909	1.904	1.909
-0.005	0.029	-0.005	0.005	0.000	0.010	0.029	2.739	1.904	1.899	1.895	1.914	1.904	1.904
-0.015	0.024	-0.005	-0.005	-0.005	0.000	0.029	2.744	1.904	1.899	1.895	1.909	1.904	1.904
-0.010	0.029	-0.005	0.005	0.000	0.000	0.034	2.627	1.895	1.899	1.895	1.914	1.909	1.904
-0.020	0.024	0.000	0.005	0.000	-0.005	0.034	2.637	1.890	1.895	1.895	1.914	1.909	1.904
-0.015	0.010	0.000	0.005	0.000	0.005	0.034	2.642	1.895	1.890	1.895	1.914	1.904	1.909
0.000	0.000	0.000	0.000	0.000	0.005	0.034	2.646	1.895	1.890	1.895	1.914	1.909	1.909
0.000	-0.010	0.000	0.005	-0.005	0.000	0.029	2.686	1.895	1.885	1.890	1.914	1.904	1.909
-0.005	-0.015	0.005	-0.005	0.000	0.015	0.029	2.651	1.895	1.885	1.890	1.909	1.904	1.909
0.000	-0.010	0.000	0.000	0.000	-0.010	0.034	2.661	1.890	1.890	1.890	1.909	1.904	1.899
0.005	-0.015	0.005	0.015	0.000	0.000	0.029	2.695	1.895	1.890	1.890	1.909	1.904	1.904
0.005	-0.020	0.005	0.000	0.005	0.005	0.034	2.676	1.895	1.890	1.885	1.904	1.904	1.904
0.000	-0.015	0.010	0.000	0.000	0.005	0.034	2.671	1.895	1.890	1.890	1.904	1.904	1.909
-0.005	-0.005	0.000	0.005	0.005	0.000	0.034	2.690	1.895	1.895	1.890	1.909	1.904	1.904
0.010	0.010	0.000	0.005	0.000	0.000	0.034	2.695	1.904	1.895	1.890	1.909	1.899	1.904
-0.015	0.005	0.000	0.005	0.000	-0.005	0.029	2.700	1.895	1.895	1.890	1.909	1.904	1.904
0.000	0.005	0.000	0.005	0.000	0.005	0.029	2.686	1.904	1.899	1.890	1.909	1.904	1.904
-0.005	0.015	0.000	0.000	0.000	0.005	0.034	2.700	1.899	1.899	1.895	1.909	1.904	1.904
-0.015	0.020	0.000	0.005	-0.005	-0.005	0.034	2.681	1.899	1.904	1.895	1.909	1.904	1.904
-0.005	0.000	-0.005	0.000	0.005	0.010	0.029	2.695	1.899	1.895	1.895	1.909	1.904	1.909
-0.005	-0.005	0.000	0.010	0.000	-0.005	0.034	2.671	1.895	1.895	1.895	1.914	1.904	1.904
0.005	-0.005	0.000	0.000	0.000	-0.015	0.034	2.690	1.904	1.895	1.895	1.909	1.909	1.899
0.005	-0.010	0.005	0.005	0.000	-0.010	0.034	2.700	1.899	1.895	1.895	1.914	1.904	1.904
0.010	-0.015	0.000	-0.005	0.005	0.010	0.029	2.700	1.904	1.895	1.895	1.909	1.909	1.909
0.015	-0.020	-0.005	-0.005	0.005	-0.010	0.034	2.700	1.904	1.895	1.895	1.914	1.904	1.904
0.020	-0.029	0.005	0.000	-0.005	0.015	0.034	2.676	1.899	1.895	1.895	1.909	1.909	1.909
0.015	-0.020	0.005	-0.010	0.000	0.005	0.034	2.700	1.899	1.899	1.895	1.909	1.904	1.909
0.015	-0.020	0.000	-0.005	0.005	-0.015	0.034	2.700	1.899	1.899	1.890	1.914	1.904	1.904
0.005	0.005	0.005	-0.005	-0.005	0.015	0.029	2.700	1.899	1.904	1.895	1.909	1.904	1.909
0.005	0.024	0.005	-0.005	-0.005	0.005	0.029	2.671	1.895	1.904	1.899	1.914	1.904	1.909
-0.005	0.015	0.005	0.000	0.005	0.005	0.029	2.705	1.899	1.904	1.899	1.914	1.909	1.909
0.000	0.020	0.000	-0.005	0.005	0.015	0.034	2.690	1.899	1.904	1.899	1.914	1.909	1.909
-0.005	0.020	0.000	0.000	0.000	0.005	0.034	2.676	1.895	1.899	1.899	1.919	1.909	1.909
0.000	0.015	-0.005	0.000	0.000	0.005	0.034	2.798	1.909	1.899	1.899	1.919	1.909	1.909
0.000	0.020	-0.005	0.015	0.010	0.000	0.034	2.656	1.904	1.904	1.899	1.924	1.914	1.909
-0.010	0.010	0.000	0.010	0.005	0.005	0.034	2.646	1.895	1.899	1.899	1.919	1.914	1.909
-0.005	0.010	0.000	0.010	0.000	0.005	0.034	2.656	1.895	1.895	1.895	1.919	1.914	1.909
-0.005	-0.005	0.000	0.015	0.000	0.005	0.029	2.734	1.899	1.895	1.895	1.914	1.914	1.909
-0.005	-0.010	0.000	0.005	0.005	0.005	0.029	2.666	1.899	1.895	1.895	1.914	1.914	1.909
0.000	-0.029	0.000	0.005	0.005	0.000	0.034	2.612	1.885	1.885	1.895	1.914	1.909	1.909
0.000	-0.015	-0.005	0.000	0.000	-0.005	0.034	2.700	1.904	1.890	1.890	1.909	1.909	1.909
0.000	-0.015	0.000	0.000	0.000	-0.005	0.034	2.632	1.895	1.895	1.890	1.909	1.909	1.909
0.010	-0.015	0.000	0.000	0.000	-0.024	0.034	2.646	1.895	1.890	1.890	1.909	1.909	1.899
0.005	-0.010	0.005	-0.005	0.000	0.005	0.034	2.651	1.890	1.890	1.890	1.909	1.909	1.909
-0.005	-0.005	0.005	0.005	0.000	0.000	0.029	2.651	1.885	1.890	1.890	1.909	1.909	1.909
0.005	-0.005	0.005	0.005	0.010	0.005	0.029	2.651	1.895	1.890	1.890	1.909	1.909	1.909
0.000	-0.005	0.005	0.005	0.010	0.000	0.029	2.637	1.890	1.890	1.890	1.909	1.909	1.909
-0.005	-0.005	0.005	0.005	0.000	-0.015	0.034	2.651	1.890	1.885	1.885	1.909	1.904	1.904
-0.005	0.000	0.005	0.010	0.000	0.010	0.034	2.739	1.899	1.895	1.890	1.909	1.904	1.909
-0.005	0.005	0.000	0.010	0.000	0.000	0.034	2.656	1.895	1.895	1.890	1.909	1.909	1.904
0.000	0.010	0.000	0.005	0.005	0.010	0.029	2.700	1.899	1.895	1.890	1.909	1.904	1.909
-0.005	0.005	0.005	0.005	0.000	0.005	0.034	2.695	1.899	1.895	1.895	1.909	1.904	1.909
0.000	0.015	0.000	0.010	0.000	0.000	0.029	2.676	1.899	1.899	1.890	1.914	1.909	1.904
0.005	0.020	0.000	0.010	0.000	-0.005	0.029	2.700	1.904	1.904	1.895	1.914	1.904	1.899
0.010	0.010	0.000	0.000	-0.005	-0.010	0.034	2.695	1.909	1.899	1.895	1.909	1.904	1.904
0.005	0.010	0.000	0.000	0.000	-0.010	0.034	2.695	1.899	1.899	1.899	1.909	1.904	1.904
0.000	0.000	0.005	0.000	0.005	0.015	0.034	2.671	1.899	1.895	1.899	1.914	1.909	1.909
0.005	-0.005	0.005	-0.005	-0.005	0.000	0.029	2.681	1.899	1.895	1.895	1.914	1.904	1.904
0.010	-0.010	0.010	-0.005	0.000	-0.005	0.034	2.676	1.899	1.895	1.895	1.909	1.909	1.904
0.015	-0.020	0.005	0.000	-0.005	0.000	0.034	2.671	1.895	1.890	1.895	1.909	1.909	1.909
0.005	-0.010	0.005	-0.005	0.005	0.015	0.034	2.681	1.899	1.895	1.895	1.914	1.909	1.909
0.000	-0.015	0.010	0.000	0.000	0.005	0.034	2.681	1.899	1.895	1.895	1.914	1.904	1.909
0.005	-0.005	0.005	0.000	0.000	-0.010	0.034	2.671	1.895	1.899	1.895	1.914	1.904	1.899
0.005	-0.005	0.000	0.005	-0.005	0.005	0.034	2.690	1.899	1.899	1.895	1.909	1.904	1.909
-0.005	-0.005	0.000	0.005	0.000	-0.020	0.034	2.690	1.895	1.895	1.895	1.909	1.904	1.899
0.000	0.005	0.000	0.005	-0.005	0.000	0.029	2.676	1.895	1.895	1.895	1.914	1.904	1.909
-0.010	0.015	0.000	0.000	0.000	0.005	0.029	2.695	1.899	1.899	1.895	1.914	1.909	1.909
0.000	0.020	0.000	0.005	-0.005	0.010	0.029	2.690	1.904	1.904	1.895	1.914	1.909	1.909
-0.005	0.015	0.000	0.010	0.000	0.000	0.029	2.695	1.899	1.904	1.899	1.914	1.909	1.909
0.005	0.010	-0.010	0.005	-0.005	0.000	0.034	2.681	1.895	1.895	1.895	1.914	1.909	1.909
-0.010	0.015	-0.005	0.000	-0.005	0.000	0.034	2.695	1.895	1.895	1.895	1.914	1.909	1.904
0.000	0.005	-0.005	0.000	-0.005	0.005	0.034	2.676	1.899	1.895	1.895	1.914	1.909	1.909
0.005	0.005	-0.005	0.000	0.000	0.000	0.034	2.661	1.895	1.895	1.895	1.914	1.909	1.909
0.000	-0.005	0.000	-0.005	0.000	-0.015	0.029	2.793	1.904	1.890	1.895	1.909	1.909	1.904
-0.010	-0.010	0.000	0.000	0.005	0.005	0.034	2.666	1.899	1.890	1.895	1.909	1.909	1.909
0.000	-0.020	0.005	-0.010	0.005	0.000	0.034	2.642	1.895	1.890	1.895	1.909	1.909	1.909
0.000	-0.010	0.010	-0.005	0.000	0.010	0.034	2.666	1.895	1.895	1.895	1.909	1.909	1.909
0.005	-0.005	0.000	-0.005	0.010	0.000	0.034	2.729	1.904	1.899	1.895	1.909	1.909	1.909
0.005	0.005	0.005	0.005	0.005	0.005	0.029	2.656	1.895	1.899	1.895	1.914	1.909	1.909
0.010	0.000	0.000	0.000	0.000	0.005	0.034	2.642	1.904	1.904	1.895	1.909	1.909	1.909
0.005	0.000	0.000	0.005	0.005	0.000	0.034	2.778	1.895	1.895	1.895	1.909	1.909	1.909
0.020	0.005	-0.005	0.005	0.005	-0.010	0.034	2.720	1.904	1.899	1.895	1.914	1.909	1.904
0.005	0.020	0.000	0.005	0.000	0.005	0.029	2.744	1.899	1.904	1.895	1.914	1.909	1.909
0.010	0.015	0.000	0.000	0.005	0.000	0.029	2.715	1.904	1.904	1.899	1.914	1.909	1.909
0.005	0.015	-0.005	0.000	0.005	0.000	0.034	2.646	1.899	1.899	1.899	1.914	1.909	1.909
-0.005	0.024	-0.005	0.010	0.000	0.005	0.034	2.744	1.904	1.904	1.899	1.914	1.909	1.909
-0.005	0.015	-0.005	0.005	0.000	0.010	0.034	2.744	1.909	1.904	1.899	1.914	1.909	1.914
-0.005	0.005	-0.005	0.005	0.005	0.005	0.034	2.651	1.899	1.899	1.899	1.914	1.909	1.909
-0.005	-0.005	0.000	0.005	0.005	0.005	0.029	2.710	1.899	1.895	1.899	1.914	1.914	1.909
0.000	0.005	0.000	0.000	0.000	-0.015	0.034	2.661	1.899	1.899	1.899	1.914	1.909	1.909
0.000	0.000	0.005	0.000	0.000	0.005	0.034	2.690	1.904	1.899	1.899	1.914	1.914	1.914
0.005	0.010	0.005	0.000	0.000	0.000	0.029	2.695	1.904	1.899	1.899	1.914	1.909	1.909
0.005	0.015	0.005	-0.005	0.000	-0.005	0.034	2.671	1.895	1.899	1.899	1.919	1.909	1.909
0.005	-0.020	0.005	-0.005	-0.005	-0.005	0.034	2.695	1.899	1.890	1.895	1.914	1.909	1.909
0.010	-0.015	0.005	0.000	0.000	0.010	0.034	2.690	1.899	1.895	1.895	1.914	1.909	1.909
0.010	0.000	0.005	-0.005	0.000	0.000	0.029	2.690	1.899	1.899	1.895	1.914	1.909	1.909
0.015	0.005	0.005	-0.005	-0.005	0.010	0.034	2.681	1.904	1.899	1.895	1.914	1.909	1.914
-0.005	0.015	0.000	-0.005	0.000	-0.005	0.029	2.700	1.899	1.899	1.895	1.914	1.909	1.909
-0.005	0.010	0.005	0.000	0.005	0.010	0.029	2.676	1.899	1.899	1.895	1.914	1.909	1.909
0.005	0.015	0.005	-0.005	0.000	0.010	0.029	2.686	1.899	1.899	1.895	1.914	1.909	1.909
-0.010	0.010	0.005	0.010	-0.005	0.005	0.034	2.671	1.895	1.895	1.895	1.919	1.909	1.909
-0.010	0.010	0.000	0.005	0.000	-0.010	0.034	2.676	1.890	1.895	1.895	1.919	1.909	1.909
-0.010	0.010	-0.005	0.005	0.000	0.010	0.034	2.671	1.895	1.895	1.895	1.914	1.909	1.914
-0.010	0.005	0.000	0.010	0.005	0.005	0.034	2.676	1.899	1.895	1.895	1.919	1.914	1.914
-0.010	0.000	0.000	0.005	0.005	0.010	0.034	2.690	1.899	1.895	1.895	1.914	1.914	1.914
0.005	0.000	0.000	0.010	0.000	0.005	0.029	2.671	1.899	1.895	1.895	1.914	1.909	1.914
0.000	0.000	0.000	0.010	0.000	0.005	0.029	2.695	1.899	1.895	1.895	1.914	1.909	1.909
0.000	-0.005	0.005	0.005	0.005	0.015	0.029	2.676	1.899	1.895	1.895	1.914	1.909	1.909
-0.005	-0.020	0.005	0.010	0.000	-0.005	0.029	2.695	1.899	1.895	1.890	1.914	1.909	1.904
0.005	-0.015	0.000	0.005	0.000	0.005	0.029	2.681	1.899	1.895	1.890	1.909	1.909	1.909
0.005	-0.015	0.005	0.005	0.000	0.000	0.034	2.686	1.899	1.899	1.895	1.909	1.904	1.909
0.005	-0.015	0.005	0.000	0.005	0.000	0.034	2.686	1.899	1.895	1.895	1.909	1.904	1.904
0.000	-0.010	0.005	0.000	0.000	0.000	0.029	2.671	1.899	1.899	1.895	1.909	1.904	1.904
-0.005	-0.010	0.010	0.000	0.000	0.005	0.034	2.793	1.895	1.899	1.895	1.914	1.909	1.904
0.005	-0.015	0.005	0.005	0.005	0.000	0.029	2.666	1.895	1.895	1.895	1.909	1.904	1.909
0.005	-0.020	0.000	0.010	0.010	-0.010	0.029	2.646	1.890	1.890	1.890	1.914	1.904	1.904
0.000	-0.010	0.000	0.010	0.005	0.005	0.034	2.651	1.890	1.895	1.890	1.914	1.909	1.909
0.000	-0.005	-0.005	0.010	0.000	-0.005	0.034	2.729	1.890	1.895	1.890	1.909	1.904	1.909
-0.010	0.000	-0.005	0.010	-0.005	0.005	0.034	2.661	1.890	1.890	1.890	1.914	1.904	1.909
-0.005	0.000	0.000	0.010	-0.005	0.000	0.029	2.744	1.899	1.895	1.895	1.914	1.904	1.909
-0.005	0.005	-0.005	0.005	0.000	0.000	0.034	2.666	1.899	1.899	1.895	1.909	1.909	1.904
0.000	0.005	-0.005	0.000	0.000	0.000	0.029	2.715	1.904	1.899	1.895	1.909	1.909	1.904
-0.005	-0.005	-0.005	-0.005	0.005	-0.015	0.029	2.681	1.899	1.895	1.890	1.909	1.909	1.904
-0.005	-0.015	0.000	0.000	0.010	-0.005	0.034	2.627	1.899	1.895	1.890	1.909	1.909	1.904
0.000	-0.010	0.005	-0.010	-0.005	0.000	0.034	2.627	1.890	1.890	1.895	1.909	1.899	1.909
-0.005	-0.010	0.000	-0.010	-0.010	-0.010	0.034	2.720	1.899	1.890	1.895	1.909	1.899	1.899
0.005	-0.015	0.000	-0.010	-0.005	0.005	0.034	2.651	1.895	1.890	1.890	1.909	1.904	1.909
0.010	-0.015	0.005	-0.010	0.000	0.015	0.034	2.651	1.890	1.895	1.890	1.909	1.904	1.904
0.010	-0.015	0.000	-0.010	0.000	0.000	0.029	2.656	1.885	1.890	1.890	1.909	1.904	1.899
0.005	-0.005	0.005	-0.010	0.000	0.000	0.029	2.666	1.890	1.895	1.890	1.909	1.904	1.904
0.005	0.024	0.005	-0.015	0.000	0.005	0.034	2.700	1.895	1.899	1.895	1.909	1.904	1.904
0.005	0.020	-0.005	-0.010	-0.010	-0.015	0.034	2.700	1.899	1.895	1.890	1.909	1.899	1.899
0.000	0.015	-0.005	-0.010	-0.005	0.005	0.034	2.690	1.895	1.895	1.890	1.909	1.904	1.909
0.000	0.000	-0.005	-0.010	0.000	0.015	0.034	2.705	1.899	1.890	1.890	1.909	1.904	1.909
0.010	0.005	-0.005	-0.015	0.000	0.020	0.029	2.705	1.904	1.895	1.895	1.909	1.904	1.904
0.005	0.020	-0.005	-0.005	0.005	-0.010	0.029	2.705	1.904	1.899	1.895	1.914	1.909	1.899
0.000	0.010	-0.005	-0.005	0.000	0.015	0.029	2.686	1.904	1.899	1.895	1.914	1.909	1.909
-0.005	0.005	0.000	-0.005	0.005	0.010	0.034	2.690	1.895	1.895	1.895	1.914	1.909	1.909
0.000	0.005	-0.005	0.000	0.000	0.010	0.034	2.681	1.899	1.899	1.895	1.914	1.909	1.909
0.000	0.000	0.000	-0.005	0.000	0.005	0.034	2.695	1.899	1.895	1.895	1.914	1.909	1.909
0.005	-0.010	0.000	-0.005	0.005	0.005	0.034	2.690	1.899	1.895	1.895	1.914	1.909	1.904
0.005	0.000	0.005	-0.005	-0.005	-0.010	0.034	2.661	1.895	1.895	1.895	1.909	1.904	1.904
0.005	-0.005	0.005	0.000	0.000	-0.015	0.029	2.671	1.895	1.895	1.895	1.914	1.909	1.904
0.010	-0.010	0.005	0.000	0.000	-0.005	0.034	2.681	1.895	1.890	1.895	1.914	1.909	1.909
0.010	-0.015	0.005	0.005	0.005	0.010	0.029	2.695	1.895	1.890	1.890	1.914	1.909	1.909
0.020	-0.005	0.005	0.005	0.005	0.000	0.034	2.651	1.899	1.895	1.890	1.914	1.909	1.909
0.000	0.005	0.005	0.010	0.005	-0.010	0.034	2.690	1.895	1.899	1.895	1.914	1.909	1.904
0.000	0.005	0.000	0.005	0.005	0.000	0.034	2.695	1.899	1.895	1.890	1.909	1.909	1.909
-0.005	0.005	-0.005	0.010	0.010	0.000	0.034	2.690	1.895	1.899	1.890	1.914	1.909	1.909
-0.010	0.010	0.000	0.015	0.015	-0.010	0.034	2.690	1.899	1.895	1.895	1.914	1.914	1.904
-0.005	0.015	0.000	0.010	0.015	-0.005	0.034	2.686	1.899	1.899	1.895	1.914	1.909	1.909
-0.005	0.005	0.000	0.010	0.010	-0.005	0.029	2.686	1.899	1.895	1.895	1.909	1.909	1.909
-0.015	0.010	-0.005	0.015	0.024	-0.029	0.029	2.671	1.895	1.895	1.895	1.914	1.909	1.904
-0.005	0.024	0.000	0.005	0.024	-0.020	0.034	2.783	1.909	1.904	1.899	1.914	1.909	1.909
-0.010	0.015	-0.005	0.010	0.024	-0.020	0.034	2.656	1.899	1.899	1.895	1.914	1.909	1.909
-0.005	0.005	0.000	0.010	0.020	-0.005	0.034	2.632	1.895	1.895	1.895	1.914	1.909	1.914
0.000	0.000	0.000	0.015	0.015	-0.010	0.034	2.656	1.895	1.890	1.895	1.914	1.909	1.914
0.005	-0.015	0.000	0.005	0.015	0.000	0.029	2.734	1.899	1.890	1.895	1.909	1.909	1.909
-0.005	-0.020	0.000	0.005	0.005	0.015	0.029	2.690	1.899	1.895	1.895	1.909	1.904	1.914
0.005	-0.015	0.000	0.005	-0.005	0.010	0.029	2.627	1.895	1.895	1.895	1.909	1.904	1.909
0.005	-0.010	0.000	0.010	0.000	0.024	0.029	2.676	1.909	1.895	1.895	1.909	1.904	1.909
0.005	0.000	0.000	0.005	0.000	0.015	0.034	2.632	1.899	1.899	1.895	1.914	1.904	1.909
0.005	-0.010	0.005	0.005	-0.020	0.020	0.034	2.739	1.909	1.899	1.895	1.914	1.899	1.909
0.015	0.005	0.005	0.010	-0.029	0.015	0.034	2.710	1.909	1.904	1.899	1.914	1.899	1.904
0.020	0.010	0.000	0.010	-0.024	-0.005	0.029	2.632	1.899	1.904	1.899	1.914	1.904	1.895
0.000	0.005	0.000	0.005	-0.020	-0.005	0.029	2.642	1.890	1.899	1.899	1.914	1.904	1.899
0.010	0.015	0.000	0.010	-0.024	0.020	0.029	2.656	1.890	1.899	1.899	1.914	1.909	1.909
0.000	0.010	0.000	0.005	-0.020	0.010	0.029	2.656	1.890	1.895	1.895	1.914	1.909	1.909
0.000	0.005	-0.005	0.000	-0.015	-0.005	0.029	2.744	1.899	1.895	1.895	1.914	1.909	1.904
0.005	0.005	0.000	0.005	-0.015	0.010	0.034	2.661	1.895	1.895	1.895	1.914	1.909	1.909
0.000	0.010	-0.005	0.005	-0.010	0.015	0.029	2.700	1.899	1.899	1.895	1.914	1.914	1.914
0.005	0.015	0.000	0.000	-0.010	0.010	0.034	2.705	1.904	1.899	1.895	1.914	1.909	1.909
-0.005	0.000	0.000	0.000	-0.010	0.015	0.029	2.686	1.899	1.895	1.895	1.914	1.909	1.914
-0.005	-0.015	0.005	0.000	-0.010	0.010	0.034	2.700	1.899	1.890	1.895	1.909	1.909	1.909
0.000	-0.015	0.005	0.000	-0.005	0.010	0.029	2.686	1.904	1.895	1.895	1.914	1.909	1.909
-0.005	-0.015	0.005	-0.005	-0.005	0.010	0.029	2.700	1.904	1.895	1.895	1.909	1.909	1.909
0.000	-0.010	0.010	-0.005	-0.005	0.005	0.034	2.671	1.899	1.899	1.895	1.909	1.909	1.909
0.000	-0.010	0.010	-0.005	0.000	-0.010	0.034	2.695	1.899	1.899	1.895	1.909	1.909	1.904
0.000	-0.005	0.010	-0.005	0.000	-0.010	0.034	2.695	1.904	1.895	1.895	1.914	1.909	1.904
0.005	-0.005	0.000	-0.005	0.005	0.005	0.029	2.700	1.904	1.899	1.895	1.914	1.909	1.909
-0.005	0.000	0.000	0.000	0.000	-0.010	0.034	2.676	1.899	1.899	1.895	1.909	1.909	1.904
0.000	-0.005	0.000	-0.005	0.010	0.005	0.029	2.676	1.899	1.899	1.895	1.914	1.909	1.909
-0.005	0.015	0.000	0.000	0.005	0.010	0.029	2.700	1.899	1.899	1.895	1.914	1.909	1.909
0.005	0.020	0.000	0.005	0.005	0.005	0.029	2.705	1.904	1.904	1.899	1.919	1.909	1.914
-0.005	0.010	-0.005	0.005	0.000	0.005	0.034	2.695	1.899	1.904	1.899	1.914	1.909	1.909
-0.010	0.015	-0.010	0.005	0.010	0.000	0.034	2.671	1.899	1.899	1.899	1.914	1.909	1.909
0.000	0.000	-0.005	0.000	0.000	0.000	0.034	2.690	1.899	1.899	1.895	1.914	1.909	1.909
-0.015	0.005	-0.005	0.000	0.005	-0.015	0.034	2.695	1.899	1.899	1.895	1.914	1.909	1.904
0.000	0.000	0.000	0.000	0.010	0.005	0.034	2.700	1.904	1.899	1.899	1.919	1.914	1.914
0.000	0.005	0.000	0.005	0.005	0.000	0.029	2.676	1.904	1.899	1.899	1.919	1.914	1.909
0.005	0.000	0.000	0.005	0.000	0.000	0.029	2.695	1.904	1.899	1.899	1.914	1.909	1.909
0.000	0.000	0.005	0.005	0.000	0.005	0.029	2.686	1.904	1.899	1.899	1.914	1.909	1.909
0.000	0.005	0.005	-0.005	0.005	0.005	0.029	2.676	1.899	1.899	1.899	1.914	1.914	1.914
0.010	0.010	0.005	0.000	0.005	-0.005	0.034	2.803	1.914	1.904	1.899	1.914	1.909	1.909
0.005	0.000	0.005	0.000	0.010	-0.015	0.029	2.666	1.909	1.899	1.899	1.914	1.909	1.904
0.005	0.000	-0.005	-0.005	0.000	0.005	0.034	2.632	1.899	1.899	1.895	1.914	1.909	1.914
0.010	0.000	0.000	0.000	0.005	0.005	0.034	2.656	1.895	1.899	1.895	1.914	1.909	1.914
0.010	0.000	0.000	-0.005	0.000	-0.010	0.029	2.729	1.899	1.899	1.895	1.914	1.909	1.909
-0.005	0.005	0.005	0.000	0.010	0.005	0.034	2.671	1.895	1.899	1.899	1.919	1.914	1.914
0.000	0.010	0.000	0.005	0.000	0.005	0.034	2.661	1.904	1.899	1.899	1.914	1.909	1.914
-0.005	0.010	-0.005	0.000	0.000	-0.005	0.034	2.803	1.899	1.904	1.895	1.919	1.909	1.909
-0.005	0.010	-0.005	0.005	0.005	0.000	0.029	2.705	1.904	1.904	1.899	1.914	1.914	1.914
0.000	0.005	-0.005	0.000	-0.005	0.000	0.034	2.759	1.914	1.904	1.899	1.919	1.909	1.909
0.010	0.000	0.000	0.000	0.000	0.000	0.029	2.612	1.899	1.904	1.899	1.914	1.914	1.909
0.000	0.000	-0.005	0.005	0.005	0.005	0.029	2.622	1.890	1.895	1.899	1.919	1.914	1.914
0.010	-0.005	0.005	0.010	0.005	0.000	0.034	2.646	1.895	1.895	1.899	1.919	1.914	1.909
0.010	-0.010	0.005	0.005	0.005	-0.015	0.034	2.744	1.899	1.895	1.899	1.919	1.914	1.909
0.000	-0.010	0.005	0.000	0.000	-0.005	0.034	2.661	1.895	1.890	1.895	1.914	1.909	1.909
0.010	-0.015	0.005	0.000	0.000	0.005	0.034	2.715	1.899	1.890	1.895	1.914	1.909	1.914
0.010	-0.005	0.010	0.005	0.000	-0.015	0.034	2.666	1.899	1.895	1.895	1.914	1.909	1.909
0.005	-0.010	0.005	0.000	0.000	0.005	0.034	2.695	1.899	1.895	1.895	1.909	1.909	1.914
0.000	0.000	0.000	0.000	0.000	-0.005	0.029	2.705	1.899	1.895	1.890	1.909	1.909	1.909
0.000	-0.005	0.005	0.000	0.000	0.015	0.029	2.676	1.899	1.899	1.895	1.909	1.909	1.914
0.005	0.010	0.005	0.000	0.005	0.000	0.034	2.705	1.904	1.904	1.895	1.914	1.909	1.904
0.000	0.010	0.005	0.000	0.005	-0.010	0.034	2.710	1.899	1.899	1.895	1.914	1.909	1.909
-0.005	0.020	-0.005	0.000	0.005	0.010	0.034	2.695	1.899	1.904	1.899	1.914	1.909	1.914
0.000	0.029	-0.005	0.005	0.000	0.000	0.034	2.676	1.899	1.909	1.899	1.914	1.909	1.909
0.000	0.020	0.000	0.000	0.000	0.015	0.034	2.705	1.904	1.904	1.899	1.914	1.909	1.909
0.005	0.029	0.000	0.000	0.000	0.005	0.029	2.700	1.904	1.904	1.899	1.919	1.909	1.909
-0.010	0.024	-0.005	0.000	-0.005	0.000	0.029	2.705	1.899	1.899	1.899	1.919	1.914	1.909
-0.010	0.024	0.000	0.000	0.005	-0.005	0.029	2.676	1.899	1.904	1.899	1.919	1.914	1.909
-0.005	0.020	0.005	0.000	0.000	0.000	0.029	2.705	1.899	1.904	1.899	1.919	1.914	1.914
-0.005	-0.005	0.005	-0.005	0.000	0.005	0.034	2.700	1.899	1.895	1.899	1.919	1.914	1.909
0.000	0.005	0.000	-0.005	0.005	0.005	0.029	2.671	1.899	1.899	1.895	1.919	1.914	1.909
-0.010	-0.005	0.005	0.005	0.000	0.000	0.034	2.695	1.899	1.895	1.899	1.919	1.909	1.909
0.010	-0.015	0.005	0.005	0.000	0.010	0.034	2.666	1.904	1.895	1.895	1.914	1.914	1.914
0.000	-0.015	0.005	0.005	0.005	0.000	0.029	2.695	1.899	1.895	1.895	1.914	1.914	1.914
0.005	-0.020	0.005	0.005	0.000	0.000	0.029	2.695	1.904	1.895	1.895	1.909	1.909	1.914
0.005	-0.015	0.005	0.000	0.005	0.005	0.029	2.700	1.904	1.899	1.890	1.909	1.909	1.909
0.010	-0.005	0.005	-0.005	0.000	-0.005	0.034	2.676	1.904	1.899	1.895	1.909	1.909	1.909
0.000	0.000	0.000	0.005	0.000	0.000	0.029	2.666	1.899	1.904	1.899	1.914	1.909	1.909
-0.005	0.000	0.000	0.010	0.000	-0.020	0.034	2.681	1.899	1.899	1.899	1.914	1.909	1.904
0.000	0.015	0.000	0.005	0.000	0.010	0.034	2.686	1.899	1.899	1.899	1.914	1.909	1.914
0.000	0.005	-0.005	0.010	0.000	0.015	0.034	2.661	1.895	1.899	1.895	1.919	1.909	1.914
-0.015	0.015	0.000	0.005	0.000	0.010	0.029	2.676	1.895	1.899	1.899	1.919	1.909	1.914
-0.005	0.010	0.000	0.010	0.000	0.005	0.034	2.637	1.895	1.895	1.895	1.914	1.909	1.909
-0.010	0.005	0.000	0.005	0.000	0.010	0.029	2.656	1.895	1.895	1.895	1.914	1.909	1.909
-0.005	0.005	0.000	0.010	0.000	0.005	0.034	2.739	1.899	1.895	1.895	1.914	1.914	1.909
0.010	0.010	0.005	0.000	0.000	-0.024	0.034	2.686	1.909	1.899	1.895	1.914	1.909	1.904
0.020	0.010	0.000	0.000	0.000	0.005	0.034	2.622	1.904	1.899	1.895	1.914	1.909	1.914
0.020	0.000	0.005	-0.005	0.005	0.005	0.034	2.798	1.919	1.904	1.899	1.909	1.909	1.914
0.015	-0.010	0.005	-0.005	0.000	-0.010	0.029	2.744	1.914	1.904	1.899	1.909	1.909	1.904
0.005	-0.010	0.000	-0.005	0.000	0.015	0.029	2.651	1.899	1.899	1.899	1.914	1.909	1.914
0.005	-0.020	0.005	0.000	0.000	-0.005	0.034	2.637	1.895	1.895	1.899	1.914	1.909	1.909
-0.005	-0.015	0.000	0.000	0.005	0.005	0.029	2.642	1.890	1.895	1.895	1.914	1.909	1.909
-0.010	-0.010	0.000	-0.005	0.000	0.010	0.034	2.734	1.890	1.895	1.895	1.914	1.909	1.909
-0.010	-0.005	-0.005	-0.005	0.000	0.005	0.029	2.739	1.899	1.895	1.895	1.909	1.909	1.909
-0.010	-0.005	0.000	0.000	0.000	0.005	0.034	2.671	1.899	1.895	1.890	1.914	1.909	1.909
-0.010	0.005	-0.005	-0.005	0.000	-0.020	0.034	2.729	1.904	1.899	1.895	1.909	1.909	1.904
-0.020	0.000	-0.005	0.000	0.000	0.010	0.029	2.666	1.899	1.895	1.895	1.914	1.909	1.909
-0.020	0.005	-0.005	0.015	0.000	-0.020	0.034	2.695	1.899	1.899	1.899	1.914	1.909	1.904
-0.024	0.015	-0.005	0.000	0.000	0.010	0.029	2.676	1.899	1.899	1.899	1.914	1.909	1.914
-0.020	0.010	-0.005	0.000	0.000	0.005	0.034	2.666	1.899	1.895	1.895	1.914	1.909	1.914
-0.015	0.005	-0.005	0.005	0.000	0.015	0.034	2.690	1.904	1.899	1.895	1.914	1.909	1.914
-0.010	0.000	0.000	0.005	0.000	0.015	0.034	2.690	1.909	1.899	1.895	1.914	1.914	1.914
0.005	-0.010	0.000	0.010	0.005	0.000	0.034	2.686	1.909	1.899	1.899	1.914	1.909	1.909
0.020	-0.005	-0.005	0.005	0.000	-0.005	0.029	2.676	1.909	1.904	1.899	1.914	1.909	1.909
0.024	-0.005	-0.005	0.010	0.005	0.000	0.034	2.695	1.909	1.904	1.899	1.914	1.909	1.909
0.024	-0.010	0.005	0.000	0.000	-0.005	0.034	2.681	1.909	1.904	1.899	1.914	1.909	1.909
0.034	-0.010	0.005	0.000	0.000	0.000	0.029	2.695	1.909	1.904	1.899	1.914	1.909	1.909
0.039	-0.015	0.000	-0.010	-0.005	-0.020	0.034	2.676	1.909	1.904	1.899	1.914	1.909	1.899
0.039	-0.020	-0.005	-0.010	0.000	0.000	0.034	2.690	1.904	1.904	1.899	1.914	1.909	1.914
0.024	0.000	-0.005	-0.005	0.000	0.005	0.034	2.676	1.895	1.904	1.899	1.914	1.909	1.909
0.029	0.000	0.000	0.000	0.000	0.005	0.034	2.686	1.899	1.904	1.899	1.919	1.909	1.909
0.015	0.000	0.005	-0.005	0.000	0.005	0.034	2.695	1.899	1.899	1.899	1.919	1.909	1.909
0.000	0.005	0.005	0.005	0.000	0.000	0.034	2.676	1.890	1.899	1.899	1.919	1.914	1.909
0.015	0.005	-0.005	0.005	0.000	0.000	0.034	2.695	1.899	1.899	1.899	1.919	1.914	1.914
0.000	0.015	-0.005	0.000	0.000	0.005	0.029	2.686	1.895	1.895	1.899	1.919	1.914	1.909
-0.015	0.005	-0.005	0.000	0.000	0.000	0.029	2.705	1.895	1.895	1.895	1.919	1.914	1.914
-0.024	0.000	-0.005	0.010	0.005	-0.010	0.034	2.671	1.890	1.890	1.895	1.914	1.914	1.909
-0.034	0.005	0.000	0.005	0.000	0.000	0.029	2.686	1.890	1.890	1.895	1.914	1.909	1.914
-0.029	-0.005	0.000	0.000	0.000	0.000	0.034	2.676	1.895	1.890	1.895	1.909	1.914	1.914
-0.034	-0.005	0.000	-0.005	0.000	-0.005	0.034	2.666	1.895	1.890	1.895	1.909	1.909	1.909
-0.044	0.000	0.005	-0.005	0.000	0.005	0.029	2.793	1.909	1.895	1.890	1.909	1.909	1.909
-0.034	-0.010	0.005	-0.005	0.000	-0.005	0.029	2.661	1.904	1.895	1.895	1.909	1.909	1.909
-0.034	0.000	0.010	-0.005	0.000	-0.015	0.029	2.646	1.895	1.895	1.895	1.909	1.904	1.904
-0.020	-0.005	0.005	0.000	0.000	0.020	0.034	2.666	1.899	1.895	1.890	1.909	1.909	1.914
-0.020	-0.010	0.005	0.000	0.000	0.005	0.034	2.720	1.904	1.895	1.890	1.909	1.904	1.909
-0.005	-0.015	0.005	0.000	0.000	-0.005	0.034	2.656	1.899	1.899	1.895	1.909	1.909	1.909
-0.005	-0.005	0.010	-0.005	0.000	0.010	0.034	2.632	1.899	1.899	1.895	1.909	1.909	1.909
0.005	-0.005	0.010	0.000	0.005	-0.010	0.029	2.808	1.914	1.904	1.899	1.914	1.909	1.904
0.005	0.005	0.005	0.005	0.000	0.010	0.029	2.705	1.909	1.909	1.899	1.914	1.909	1.909
0.015	0.010	0.000	0.000	0.000	-0.005	0.029	2.651	1.909	1.909	1.899	1.914	1.909	1.904
0.005	0.010	-0.005	0.010	0.000	0.015	0.034	2.632	1.899	1.904	1.899	1.919	1.909	1.909
0.020	0.010	0.000	0.010	0.000	0.010	0.034	2.646	1.899	1.904	1.904	1.914	1.909	1.914
0.029	0.010	-0.005	0.015	0.000	0.005	0.034	2.651	1.899	1.904	1.899	1.919	1.914	1.909
0.020	0.010	0.000	0.005	0.000	-0.005	0.029	2.637	1.895	1.904	1.904	1.919	1.909	1.904
0.015	0.010	0.000	-0.005	0.005	0.015	0.034	2.656	1.895	1.899	1.899	1.914	1.914	1.914
0.024	0.005	0.005	-0.010	0.005	0.000	0.029	2.725	1.904	1.899	1.899	1.914	1.914	1.909
0.024	0.005	0.000	-0.005	0.005	-0.010	0.029	2.671	1.904	1.899	1.899	1.914	1.914	1.909
0.024	-0.005	0.015	-0.005	0.005	0.005	0.034	2.690	1.899	1.895	1.899	1.914	1.914	1.914
0.024	-0.024	0.010	0.000	-0.005	0.010	0.034	2.690	1.899	1.890	1.895	1.914	1.909	1.914
0.029	-0.024	0.005	0.000	0.000	0.005	0.029	2.671	1.899	1.890	1.890	1.914	1.909	1.914
0.020	-0.015	0.005	0.000	0.000	0.000	0.029	2.690	1.899	1.895	1.890	1.914	1.909	1.909
0.015	-0.020	0.005	0.005	0.000	-0.005	0.034	2.710	1.899	1.895	1.890	1.914	1.909	1.909
0.015	-0.020	0.005	0.000	0.000	0.005	0.034	2.700	1.899	1.895	1.890	1.909	1.909	1.914
0.005	-0.010	0.005	-0.005	0.000	0.000	0.029	2.681	1.895	1.899	1.890	1.909	1.909	1.909
0.005	-0.005	0.000	0.000	0.005	0.005	0.029	2.661	1.890	1.899	1.895	1.909	1.909	1.909
-0.005	0.000	-0.005	0.000	0.000	0.005	0.034	2.671	1.895	1.899	1.895	1.909	1.909	1.909
-0.010	0.010	-0.005	-0.005	0.000	0.010	0.034	2.705	1.899	1.899	1.895	1.909	1.904	1.909
-0.005	0.015	-0.010	-0.005	0.000	0.010	0.034	2.681	1.899	1.904	1.895	1.909	1.909	1.909
-0.010	0.020	-0.005	0.005	0.005	0.005	0.034	2.686	1.899	1.904	1.899	1.914	1.904	1.909
-0.005	0.024	-0.005	0.005	0.000	-0.005	0.034	2.700	1.899	1.899	1.899	1.914	1.909	1.904
0.000	0.020	-0.005	0.010	0.005	0.005	0.029	2.700	1.904	1.899	1.899	1.919	1.909	1.909
-0.010	0.000	0.000	0.000	0.000	0.010	0.029	2.700	1.904	1.895	1.899	1.919	1.909	1.909
0.000	0.000	0.000	0.005	0.000	-0.015	0.034	2.671	1.899	1.895	1.899	1.914	1.909	1.904
-0.005	-0.010	0.005	0.005	0.000	0.005	0.034	2.690	1.895	1.895	1.899	1.914	1.909	1.909
0.000	0.000	0.005	0.005	0.010	-0.020	0.034	2.695	1.904	1.895	1.895	1.919	1.909	1.904
0.005	-0.005	0.010	0.000	0.005	0.010	0.034	2.700	1.904	1.899	1.895	1.914	1.909	1.914
0.000	0.000	0.005	0.000	0.000	0.005	0.029	2.681	1.904	1.899	1.895	1.914	1.909	1.909
0.000	-0.010	0.010	0.000	0.000	0.005	0.029	2.686	1.904	1.899	1.899	1.914	1.909	1.914
0.005	-0.005	0.005	0.000	-0.005	0.000	0.029	2.681	1.899	1.899	1.895	1.914	1.904	1.909
0.005	-0.010	0.005	0.000	-0.005	-0.005	0.034	2.690	1.899	1.895	1.895	1.914	1.909	1.904
0.010	-0.005	0.005	0.005	0.000	0.000	0.034	2.725	1.909	1.899	1.899	1.914	1.909	1.909
-0.005	-0.005	0.000	0.000	0.000	0.000	0.034	2.666	1.899	1.899	1.895	1.914	1.909	1.909
-0.005	0.000	0.000	0.000	0.000	0.000	0.034	2.710	1.899	1.904	1.895	1.914	1.909	1.909
-0.005	0.024	0.000	0.010	-0.005	-0.010	0.029	2.666	1.895	1.904	1.899	1.919	1.909	1.904
-0.005	0.024	-0.005	0.005	0.000	-0.010	0.029	2.637	1.895	1.904	1.899	1.919	1.914	1.909
0.000	0.024	-0.005	0.010	0.000	-0.024	0.034	2.686	1.899	1.904	1.899	1.919	1.914	1.904
0.000	0.024	0.000	0.005	0.000	0.005	0.029	2.627	1.890	1.899	1.904	1.919	1.914	1.914
0.005	0.015	-0.005	0.010	-0.005	0.015	0.034	2.788	1.904	1.895	1.899	1.919	1.914	1.919
0.000	0.015	-0.005	0.005	0.000	0.015	0.034	2.749	1.909	1.899	1.899	1.919	1.914	1.914
-0.005	0.015	0.000	0.005	0.005	0.005	0.034	2.759	1.919	1.904	1.899	1.914	1.914	1.914
-0.005	0.000	0.000	0.005	0.005	0.005	0.034	2.715	1.899	1.899	1.899	1.914	1.914	1.914
-0.005	0.000	0.005	0.000	0.005	0.005	0.029	2.642	1.895	1.895	1.899	1.914	1.909	1.914
0.000	-0.005	0.000	0.000	0.005	0.005	0.029	2.656	1.895	1.895	1.895	1.914	1.909	1.914
-0.005	-0.015	0.005	-0.005	0.005	0.010	0.029	2.720	1.895	1.895	1.895	1.914	1.909	1.914
-0.005	-0.010	0.005	0.000	0.010	0.010	0.029	2.661	1.895	1.895	1.895	1.914	1.909	1.909
0.000	0.000	0.010	-0.005	0.005	0.005	0.034	2.715	1.904	1.895	1.895	1.914	1.909	1.909
0.010	-0.005	0.005	0.000	0.005	0.000	0.029	2.671	1.904	1.899	1.895	1.914	1.909	1.909
0.005	0.000	0.005	0.000	0.000	0.005	0.034	2.690	1.899	1.899	1.895	1.914	1.909	1.909
0.005	0.005	0.005	0.000	0.005	-0.010	0.034	2.666	1.899	1.899	1.895	1.914	1.909	1.904
0.000	0.015	0.000	0.000	0.005	0.005	0.034	2.676	1.899	1.899	1.899	1.914	1.909	1.909
0.000	0.010	0.000	0.000	-0.005	0.015	0.029	2.695	1.895	1.899	1.895	1.914	1.909	1.914
-0.010	0.010	0.000	0.000	0.005	0.005	0.034	2.705	1.899	1.899	1.895	1.914	1.909	1.909
-0.005	0.015	-0.010	0.005	0.000	0.010	0.034	2.695	1.904	1.904	1.895	1.914	1.909	1.914
0.000	0.015	-0.005	0.000	0.000	0.010	0.029	2.666	1.899	1.899	1.895	1.914	1.914	1.909
0.010	0.024	-0.005	0.000	0.000	0.005	0.034	2.695	1.904	1.904	1.899	1.914	1.909	1.914
-0.005	0.005	0.000	0.000	0.005	0.005	0.034	2.681	1.899	1.895	1.895	1.914	1.909	1.909
0.000	0.015	0.000	0.005	0.000	0.000	0.034	2.676	1.895	1.895	1.899	1.914	1.909	1.909
0.000	-0.010	0.005	0.000	-0.005	-0.005	0.029	2.671	1.895	1.890	1.895	1.914	1.909	1.909
-0.005	-0.015	0.005	-0.005	0.000	0.000	0.034	2.671	1.895	1.895	1.890	1.914	1.909	1.909
0.000	-0.005	0.000	0.000	0.000	0.000	0.034	2.695	1.895	1.895	1.895	1.909	1.909	1.909
0.010	-0.015	0.005	-0.005	0.000	0.000	0.034	2.700	1.904	1.890	1.890	1.909	1.904	1.909
0.010	-0.010	0.010	0.000	0.000	0.005	0.034	2.700	1.904	1.899	1.895	1.914	1.909	1.909
0.010	-0.005	0.015	0.000	0.000	0.015	0.029	2.681	1.904	1.895	1.895	1.914	1.909	1.909
0.020	-0.010	0.010	0.010	0.000	0.005	0.034	2.695	1.904	1.899	1.895	1.914	1.909	1.909
0.010	0.005	0.010	0.015	0.000	-0.005	0.029	2.681	1.899	1.904	1.895	1.914	1.909	1.909
0.000	-0.005	0.000	0.015	0.000	0.000	0.034	2.710	1.904	1.899	1.895	1.914	1.909	1.909
0.010	0.005	-0.005	0.010	0.000	-0.015	0.034	2.676	1.904	1.899	1.895	1.914	1.909	1.909
0.005	0.010	-0.005	0.020	0.000	-0.010	0.034	2.700	1.899	1.899	1.899	1.914	1.909	1.909
-0.005	0.010	-0.005	0.010	0.005	-0.005	0.034	2.686	1.895	1.904	1.899	1.914	1.909	1.909
-0.005	0.010	-0.005	0.000	0.000	-0.010	0.029	2.686	1.899	1.899	1.895	1.914	1.909	1.909
0.000	0.005	-0.005	0.005	-0.005	-0.024	0.029	2.788	1.909	1.899	1.899	1.914	1.909	1.904
-0.010	0.000	0.000	0.005	-0.005	0.000	0.029	2.666	1.904	1.899	1.899	1.914	1.909	1.914
-0.005	-0.010	0.000	0.005	0.005	0.010	0.034	2.637	1.899	1.899	1.899	1.914	1.914	1.914
0.000	-0.005	0.000	0.000	0.010	0.010	0.029	2.651	1.895	1.895	1.899	1.914	1.914	1.914
0.000	-0.010	0.000	0.000	0.005	0.015	0.034	2.725	1.904	1.899	1.899	1.914	1.909	1.914
0.005	-0.010	0.005	0.000	0.000	-0.010	0.034	2.671	1.904	1.895	1.895	1.914	1.909	1.904
0.005	-0.010	0.010	-0.005	-0.005	-0.010	0.034	2.646	1.904	1.899	1.899	1.914	1.909	1.909
0.000	-0.015	0.015	-0.005	0.000	0.010	0.029	2.808	1.904	1.895	1.895	1.914	1.909	1.909
0.010	-0.020	0.005	-0.005	0.000	0.010	0.029	2.710	1.904	1.895	1.895	1.914	1.909	1.909
0.010	-0.010	0.000	-0.005	0.000	0.010	0.034	2.744	1.909	1.904	1.899	1.914	1.909	1.909
0.010	0.000	-0.005	0.000	0.005	0.015	0.034	2.651	1.904	1.904	1.899	1.914	1.909	1.909
0.005	0.000	-0.005	0.005	-0.005	0.005	0.034	2.642	1.895	1.904	1.899	1.914	1.909	1.909
-0.010	0.015	-0.005	0.005	0.000	0.005	0.034	2.720	1.899	1.904	1.899	1.919	1.909	1.909
-0.005	0.010	0.000	0.005	-0.005	0.005	0.029	2.637	1.895	1.899	1.899	1.919	1.909	1.909
-0.005	0.010	0.000	0.005	0.000	0.000	0.029	2.651	1.895	1.899	1.899	1.914	1.914	1.909
-0.005	0.015	-0.005	0.005	0.000	-0.015	0.029	2.739	1.904	1.899	1.895	1.914	1.909	1.904
0.000	0.020	-0.005	0.015	0.000	-0.020	0.034	2.666	1.899	1.904	1.899	1.919	1.914	1.909
-0.005	0.020	0.000	0.010	0.000	0.000	0.034	2.700	1.899	1.899	1.899	1.919	1.914	1.914
-0.005	0.015	0.000	0.010	0.000	-0.015	0.034	2.705	1.904	1.899	1.899	1.919	1.914	1.909
-0.005	0.015	0.000	0.005	0.000	0.010	0.034	2.690	1.899	1.899	1.899	1.914	1.914	1.914
0.005	0.000	0.000	-0.005	0.000	-0.005	0.034	2.705	1.909	1.899	1.895	1.914	1.909	1.909
0.005	-0.010	0.000	-0.005	0.000	0.015	0.034	2.705	1.909	1.899	1.895	1.914	1.909	1.919
0.015	-0.010	0.005	-0.005	0.010	0.005	0.034	2.695	1.909	1.899	1.899	1.914	1.909	1.914
0.015	-0.015	0.005	-0.005	0.005	0.005	0.029	2.671	1.904	1.899	1.899	1.914	1.909	1.914
0.010	-0.015	0.005	-0.005	0.000	0.005	0.034	2.671	1.899	1.899	1.895	1.914	1.909	1.914
0.000	-0.010	0.005	-0.005	0.005	0.005	0.034	2.676	1.895	1.899	1.895	1.914	1.909	1.909
0.000	-0.005	0.005	-0.010	0.000	0.005	0.034	2.681	1.895	1.899	1.895	1.909	1.909	1.909
-0.010	0.000	0.005	-0.005	0.000	0.005	0.029	2.671	1.895	1.895	1.895	1.914	1.909	1.909
-0.010	0.005	0.005	0.000	0.000	0.005	0.029	2.676	1.895	1.895	1.895	1.914	1.909	1.914
-0.015	0.000	0.000	0.005	0.000	0.000	0.034	2.700	1.895	1.895	1.895	1.914	1.909	1.909
-0.020	0.000	-0.005	0.015	0.005	-0.020	0.034	2.671	1.895	1.895	1.890	1.914	1.909	1.904
-0.024	0.000	0.000	0.005	0.000	0.010	0.034	2.700	1.899	1.895	1.890	1.914	1.909	1.914
-0.020	0.005	-0.005	0.010	-0.005	0.005	0.034	2.686	1.899	1.895	1.895	1.914	1.909	1.914
-0.015	0.005	-0.005	0.005	-0.005	0.010	0.034	2.695	1.904	1.899	1.895	1.914	1.909	1.914
-0.024	0.010	0.000	0.005	0.000	0.010	0.034	2.671	1.899	1.899	1.895	1.909	1.909	1.909
0.000	-0.010	0.000	0.000	0.000	0.005	0.029	2.695	1.909	1.899	1.895	1.909	1.909	1.909
-0.005	-0.010	0.000	0.005	0.005	0.005	0.029	2.676	1.904	1.899	1.895	1.914	1.909	1.909
0.000	-0.015	0.005	0.000	0.005	0.000	0.029	2.681	1.909	1.899	1.899	1.914	1.909	1.909
0.005	-0.015	0.005	-0.005	0.005	0.000	0.029	2.681	1.904	1.899	1.899	1.914	1.909	1.909
0.010	-0.015	0.000	-0.010	0.005	-0.005	0.034	2.666	1.904	1.899	1.895	1.909	1.909	1.909
0.015	-0.015	0.005	-0.005	0.000	-0.005	0.034	2.769	1.914	1.904	1.899	1.909	1.904	1.909
0.015	-0.010	0.005	-0.005	0.000	-0.005	0.034	2.661	1.904	1.904	1.899	1.914	1.904	1.904
0.015	0.000	0.010	-0.005	0.000	-0.029	0.029	2.656	1.899	1.909	1.904	1.914	1.909	1.899
0.020	0.000	0.005	0.010	0.005	-0.005	0.029	2.661	1.895	1.899	1.904	1.919	1.914	1.909
0.029	0.010	0.005	-0.010	0.005	-0.005	0.029	2.705	1.904	1.904	1.899	1.914	1.909	1.909
0.020	0.010	0.010	-0.005	0.000	-0.024	0.034	2.695	1.899	1.904	1.904	1.919	1.909	1.904
0.015	0.020	-0.005	0.000	0.000	-0.010	0.034	2.651	1.895	1.904	1.899	1.919	1.914	1.909
-0.005	0.015	0.000	0.000	-0.005	0.015	0.034	2.808	1.909	1.899	1.899	1.919	1.914	1.914
0.010	0.015	0.005	0.000	0.005	0.015	0.034	2.744	1.914	1.904	1.904	1.919	1.919	1.914
0.000	0.010	0.000	-0.005	0.005	0.015	0.034	2.646	1.899	1.904	1.904	1.919	1.914	1.914
-0.005	0.010	0.000	-0.005	0.005	0.010	0.034	2.671	1.904	1.904	1.899	1.919	1.914	1.914
0.000	0.005	0.000	0.005	0.000	0.020	0.034	2.656	1.904	1.899	1.899	1.924	1.914	1.914
0.000	0.000	0.000	-0.005	-0.005	0.005	0.029	2.734	1.904	1.899	1.899	1.919	1.914	1.909
-0.005	0.005	0.000	-0.005	0.000	0.010	0.029	2.651	1.899	1.899	1.899	1.919	1.914	1.914
0.005	0.000	0.000	0.000	-0.010	0.010	0.034	2.642	1.899	1.899	1.895	1.919	1.914	1.914
0.000	-0.005	0.005	0.000	-0.005	-0.010	0.034	2.744	1.904	1.895	1.895	1.914	1.914	1.909
0.020	-0.010	0.005	-0.005	-0.005	0.010	0.034	2.666	1.909	1.895	1.899	1.914	1.909	1.914
0.010	-0.010	0.005	-0.005	0.000	0.005	0.034	2.695	1.904	1.895	1.895	1.914	1.914	1.914
0.020	-0.005	0.005	-0.005	0.000	-0.020	0.029	2.676	1.904	1.899	1.895	1.914	1.914	1.909
0.010	-0.010	0.000	-0.005	0.000	0.005	0.034	2.695	1.904	1.895	1.895	1.914	1.909	1.914
0.000	-0.005	0.000	0.000	0.000	-0.010	0.034	2.690	1.899	1.899	1.895	1.914	1.909	1.909
-0.005	0.000	0.000	-0.005	-0.005	-0.010	0.029	2.705	1.899	1.899	1.895	1.914	1.909	1.909
-0.005	0.010	-0.005	0.005	-0.005	-0.010	0.034	2.695	1.904	1.899	1.899	1.914	1.909	1.909
-0.005	0.010	0.000	0.005	0.000	0.005	0.034	2.681	1.899	1.899	1.899	1.914	1.909	1.914
-0.010	0.005	-0.005	0.005	0.000	0.005	0.034	2.705	1.904	1.904	1.899	1.914	1.914	1.914
-0.020	0.015	-0.005	0.000	0.005	0.010	0.034	2.705	1.904	1.904	1.899	1.914	1.914	1.914
-0.015	0.015	-0.015	0.005	0.005	0.000	0.029	2.671	1.899	1.899	1.899	1.914	1.914	1.914
-0.015	0.010	-0.010	-0.005	-0.005	-0.005	0.034	2.676	1.904	1.904	1.899	1.914	1.909	1.909
-0.015	0.005	-0.005	-0.005	0.005	0.005	0.029	2.686	1.904	1.904	1.904	1.914	1.909	1.914
-0.010	0.000	-0.005	0.000	0.005	-0.024	0.029	2.671	1.899	1.899	1.899	1.919	1.909	1.909
-0.015	-0.005	0.000	0.000	0.000	0.005	0.034	2.690	1.904	1.899	1.899	1.919	1.914	1.914
0.000	-0.010	0.000	0.000	-0.010	0.010	0.034	2.690	1.904	1.899	1.899	1.914	1.909	1.914
0.000	-0.020	0.010	0.000	-0.010	0.000	0.034	2.671	1.899	1.895	1.899	1.914	1.909	1.909
0.000	-0.015	0.010	-0.005	-0.005	0.015	0.034	2.686	1.899	1.899	1.899	1.914	1.909	1.914
0.005	-0.020	0.010	-0.005	0.000	0.010	0.029	2.681	1.899	1.895	1.895	1.914	1.909	1.909
0.005	-0.015	0.010	-0.005	0.000	-0.015	0.034	2.705	1.899	1.899	1.899	1.914	1.909	1.904
0.020	-0.015	0.005	0.000	0.005	0.000	0.034	2.681	1.899	1.895	1.895	1.914	1.914	1.914
0.024	-0.015	0.000	0.005	0.010	0.010	0.034	2.676	1.904	1.899	1.895	1.914	1.914	1.914
0.020	-0.005	0.005	0.015	0.005	0.015	0.029	2.695	1.899	1.904	1.899	1.919	1.914	1.914
0.010	0.000	-0.005	0.000	0.005	-0.005	0.029	2.686	1.899	1.904	1.895	1.914	1.914	1.909
0.005	0.015	-0.005	0.005	0.005	-0.020	0.034	2.788	1.909	1.904	1.899	1.914	1.909	1.904
0.010	0.005	0.000	0.005	0.000	0.000	0.034	2.666	1.904	1.904	1.899	1.919	1.914	1.914
0.015	0.010	0.000	0.000	0.005	0.000	0.029	2.651	1.904	1.904	1.899	1.919	1.914	1.914
0.010	0.020	0.000	0.005	-0.005	0.005	0.029	2.646	1.895	1.904	1.899	1.919	1.914	1.914
0.010	0.015	0.000	0.005	0.000	-0.005	0.034	2.715	1.899	1.899	1.899	1.919	1.914	1.909
0.000	0.000	0.000	0.000	0.010	0.000	0.029	2.700	1.899	1.895	1.899	1.919	1.914	1.914
0.000	-0.005	0.000	0.005	0.005	-0.010	0.034	2.651	1.895	1.895	1.895	1.919	1.914	1.914
0.020	-0.015	0.000	0.000	0.005	0.015	0.034	2.778	1.914	1.895	1.895	1.914	1.914	1.919
0.015	-0.010	0.005	-0.010	0.000	0.005	0.029	2.715	1.914	1.899	1.899	1.914	1.909	1.914
0.005	-0.015	0.010	0.000	0.000	0.010	0.034	2.710	1.909	1.899	1.899	1.914	1.909	1.914
0.005	-0.010	0.005	-0.005	0.000	0.005	0.029	2.661	1.904	1.904	1.899	1.914	1.909	1.909
0.000	-0.015	0.005	-0.010	0.000	-0.010	0.034	2.637	1.895	1.899	1.895	1.914	1.909	1.904
0.005	-0.015	0.010	-0.005	0.000	0.010	0.034	2.642	1.895	1.895	1.899	1.919	1.909	1.914
-0.005	-0.015	0.005	-0.005	0.000	0.005	0.034	2.632	1.885	1.890	1.895	1.914	1.909	1.909
-0.005	-0.010	0.010	-0.005	0.005	0.005	0.034	2.656	1.885	1.895	1.895	1.914	1.909	1.909
-0.005	0.005	0.005	-0.005	0.000	0.005	0.034	2.710	1.895	1.899	1.895	1.914	1.909	1.909
-0.015	0.015	-0.005	0.000	0.000	-0.015	0.034	2.676	1.895	1.899	1.895	1.914	1.909	1.904
0.000	0.015	-0.005	0.000	0.000	0.015	0.034	2.710	1.904	1.899	1.895	1.914	1.909	1.914
-0.010	0.010	-0.005	0.000	0.010	0.010	0.029	2.695	1.899	1.895	1.895	1.914	1.914	1.909
-0.010	0.010	-0.005	0.005	0.005	0.000	0.029	2.690	1.904	1.899	1.895	1.914	1.909	1.909
-0.005	0.010	-0.005	-0.005	0.010	0.005	0.029	2.695	1.904	1.899	1.899	1.914	1.909	1.909
0.000	0.005	-0.005	0.000	0.000	0.005	0.029	2.705	1.904	1.899	1.895	1.914	1.909	1.909
0.010	-0.010	0.000	0.005	0.000	0.005	0.034	2.695	1.909	1.899	1.895	1.914	1.909	1.909
0.010	-0.005	0.000	0.000	0.005	0.000	0.034	2.671	1.904	1.904	1.899	1.914	1.909	1.909
0.000	0.000	0.005	-0.005	0.005	-0.010	0.034	2.700	1.899	1.899	1.899	1.914	1.909	1.904
0.000	0.005	0.005	0.000	0.000	0.005	0.034	2.700	1.899	1.899	1.899	1.914	1.909	1.909
-0.005	0.015	0.010	-0.005	-0.005	-0.024	0.029	2.695	1.904	1.904	1.899	1.914	1.909	1.904
0.000	0.000	0.005	0.000	-0.005	0.010	0.034	2.676	1.899	1.899	1.899	1.914	1.909	1.914
0.005	0.000	0.005	0.000	0.005	0.000	0.034	2.671	1.899	1.899	1.899	1.914	1.914	1.914
-0.005	0.005	0.000	0.005	0.015	0.005	0.029	2.690	1.899	1.899	1.899	1.919	1.914	1.909
-0.005	0.005	0.005	-0.005	0.005	0.015	0.034	2.681	1.899	1.899	1.895	1.914	1.914	1.909
-0.005	0.005	0.005	0.010	0.005	-0.005	0.034	2.695	1.899	1.899	1.899	1.919	1.909	1.904
-0.015	0.010	0.005	0.015	0.000	0.000	0.034	2.666	1.895	1.899	1.899	1.919	1.914	1.909
-0.010	0.015	0.000	0.015	-0.005	0.005	0.029	2.690	1.895	1.899	1.895	1.919	1.909	1.914
-0.015	0.029	-0.005	0.005	0.000	0.005	0.029	2.681	1.895	1.899	1.895	1.914	1.909	1.909
-0.010	0.029	0.000	0.005	0.005	-0.024	0.034	2.710	1.899	1.899	1.895	1.914	1.914	1.909
-0.010	0.015	0.000	0.000	0.005	0.000	0.034	2.671	1.899	1.899	1.899	1.914	1.909	1.914
-0.010	0.015	-0.005	-0.005	0.000	0.005	0.034	2.690	1.899	1.899	1.895	1.909	1.909	1.914
-0.005	0.005	0.000	-0.010	-0.005	0.000	0.029	2.681	1.899	1.895	1.895	1.909	1.904	1.909
-0.005	0.005	0.005	-0.005	-0.010	-0.015	0.029	2.803	1.904	1.895	1.895	1.914	1.904	1.904
0.005	0.000	0.005	-0.010	-0.005	0.015	0.034	2.642	1.899	1.895	1.895	1.909	1.909	1.914
0.010	-0.005	0.010	-0.015	-0.010	0.015	0.029	2.661	1.899	1.895	1.895	1.914	1.909	1.909
0.000	-0.005	0.005	-0.015	-0.010	0.005	0.034	2.642	1.895	1.895	1.895	1.909	1.904	1.904
0.000	0.000	0.000	-0.020	-0.010	-0.005	0.029	2.651	1.890	1.895	1.895	1.914	1.904	1.904
0.000	0.000	0.000	-0.010	-0.005	0.005	0.034	2.627	1.895	1.890	1.890	1.909	1.909	1.904
0.010	0.005	0.005	-0.010	0.000	0.010	0.029	2.661	1.899	1.895	1.895	1.914	1.909	1.909
0.005	-0.005	-0.005	-0.005	0.005	0.005	0.029	2.744	1.904	1.890	1.895	1.909	1.909	1.909
-0.005	0.000	0.000	-0.005	0.010	0.000	0.034	2.651	1.895	1.895	1.890	1.914	1.909	1.904
-0.005	-0.015	0.000	0.000	0.005	0.000	0.029	2.720	1.895	1.890	1.890	1.909	1.909	1.909
-0.005	0.000	-0.005	-0.010	-0.005	-0.015	0.029	2.729	1.909	1.899	1.890	1.909	1.904	1.899
-0.005	-0.005	-0.005	-0.010	0.000	-0.020	0.034	2.725	1.909	1.899	1.895	1.909	1.904	1.899
0.000	0.000	-0.005	0.000	0.005	0.000	0.029	2.651	1.904	1.899	1.895	1.914	1.909	1.909
-0.010	0.020	-0.005	-0.005	0.005	0.005	0.034	2.651	1.895	1.904	1.899	1.914	1.909	1.914
-0.005	0.010	-0.005	-0.010	0.015	-0.015	0.034	2.656	1.895	1.895	1.899	1.914	1.909	1.909
0.005	0.000	-0.005	-0.005	0.010	0.005	0.034	2.671	1.895	1.895	1.895	1.914	1.914	1.914
0.005	0.015	-0.005	-0.005	0.005	0.005	0.034	2.642	1.904	1.899	1.895	1.914	1.909	1.909
0.005	-0.005	0.000	-0.005	-0.005	-0.010	0.034	2.656	1.899	1.895	1.895	1.914	1.904	1.904
0.000	0.005	0.000	0.000	0.005	-0.015	0.034	2.695	1.899	1.895	1.899	1.914	1.909	1.909
0.005	-0.005	0.005	0.005	0.005	0.010	0.034	2.671	1.899	1.890	1.895	1.914	1.909	1.914
0.010	-0.024	0.005	0.000	0.000	0.000	0.029	2.676	1.899	1.890	1.890	1.914	1.909	1.909
-0.005	-0.015	0.005	0.005	0.000	0.005	0.034	2.671	1.899	1.890	1.890	1.914	1.909	1.909
0.010	-0.015	0.005	0.005	0.005	0.005	0.034	2.695	1.899	1.895	1.890	1.914	1.909	1.909
0.005	-0.010	0.005	0.005	0.000	-0.005	0.029	2.700	1.904	1.895	1.890	1.909	1.909	1.909
0.005	0.000	0.010	0.010	-0.010	0.015	0.034	2.681	1.899	1.899	1.895	1.914	1.904	1.909
0.015	0.005	0.000	0.010	-0.005	0.010	0.034	2.690	1.904	1.899	1.895	1.914	1.909	1.909
0.005	0.005	0.000	0.010	-0.005	-0.010	0.034	2.681	1.899	1.899	1.895	1.914	1.909	1.904
0.005	0.005	0.000	0.015	-0.005	0.005	0.029	2.695	1.899	1.899	1.895	1.914	1.909	1.909
0.000	0.020	0.000	0.020	0.000	0.005	0.034	2.666	1.899	1.904	1.899	1.914	1.914	1.914
-0.005	0.024	-0.005	0.024	0.010	0.000	0.029	2.676	1.899	1.904	1.899	1.919	1.914	1.909
0.000	0.024	0.000	0.020	0.000	-0.005	0.029	2.671	1.899	1.899	1.895	1.919	1.909	1.909
-0.005	0.010	0.000	0.015	0.010	0.010	0.029	2.681	1.895	1.895	1.895	1.919	1.914	1.914
0.000	0.005	-0.005	0.010	0.005	-0.005	0.029	2.695	1.899	1.895	1.895	1.909	1.909	1.914
0.010	0.000	0.000	0.010	-0.020	0.000	0.034	2.666	1.899	1.895	1.895	1.914	1.904	1.909
-0.005	0.000	0.005	0.000	-0.015	0.010	0.029	2.695	1.899	1.895	1.895	1.909	1.904	1.909
0.010	-0.015	0.000	0.010	0.015	-0.010	0.034	2.695	1.904	1.895	1.890	1.914	1.914	1.909
0.005	-0.020	0.005	0.015	0.024	0.010	0.029	2.690	1.904	1.895	1.895	1.914	1.914	1.914
0.000	-0.029	0.000	0.020	0.010	-0.005	0.034	2.676	1.895	1.890	1.895	1.914	1.909	1.909
0.010	-0.005	0.010	0.020	0.005	0.010	0.034	2.681	1.899	1.899	1.895	1.914	1.904	1.909
0.000	0.010	0.000	0.020	-0.020	0.005	0.034	2.690	1.899	1.904	1.895	1.909	1.899	1.904
0.000	0.015	0.010	0.015	-0.005	-0.005	0.034	2.759	1.895	1.899	1.899	1.914	1.904	1.904
-0.005	0.005	0.005	0.015	-0.005	0.005	0.034	2.759	1.904	1.899	1.895	1.909	1.904	1.909
-0.005	0.015	0.005	0.015	-0.020	-0.005	0.029	2.661	1.904	1.899	1.895	1.914	1.904	1.904
0.000	0.010	-0.005	0.024	-0.034	0.000	0.034	2.666	1.895	1.899	1.895	1.914	1.899	1.904
0.000	0.005	-0.005	0.015	-0.020	-0.005	0.034	2.651	1.890	1.895	1.895	1.909	1.904	1.904
0.000	0.020	-0.005	0.015	-0.020	-0.015	0.034	2.637	1.895	1.899	1.895	1.914	1.904	1.904
0.000	0.024	0.000	0.005	-0.005	-0.015	0.029	2.671	1.895	1.899	1.899	1.909	1.909	1.904
-0.005	0.015	-0.005	0.000	0.029	-0.015	0.034	2.725	1.899	1.895	1.895	1.914	1.919	1.909
0.005	0.005	-0.005	0.000	0.024	-0.020	0.034	2.671	1.904	1.895	1.895	1.909	1.914	1.909
0.000	0.005	0.000	-0.005	0.015	-0.010	0.034	2.656	1.895	1.895	1.895	1.909	1.909	1.914
0.000	-0.010	0.000	-0.005	0.029	-0.005	0.029	2.656	1.890	1.890	1.895	1.909	1.914	1.914
0.005	-0.005	0.005	-0.005	0.034	0.010	0.029	2.729	1.899	1.895	1.895	1.909	1.914	1.919
0.005	-0.005	0.005	-0.005	0.024	0.024	0.034	2.651	1.899	1.895	1.890	1.909	1.909	1.919
-0.005	-0.015	0.005	-0.010	0.010	0.024	0.034	2.749	1.899	1.890	1.890	1.909	1.904	1.914
0.010	-0.020	0.000	-0.010	0.005	0.015	0.034	2.622	1.899	1.895	1.890	1.909	1.899	1.909
0.015	-0.010	0.005	-0.005	-0.005	0.020	0.034	2.651	1.899	1.899	1.890	1.909	1.899	1.909
0.015	-0.029	0.005	-0.005	-0.005	0.010	0.029	2.734	1.904	1.890	1.890	1.909	1.899	1.904
0.005	-0.020	0.005	-0.005	-0.010	-0.005	0.034	2.676	1.895	1.895	1.890	1.909	1.899	1.895
0.000	-0.015	0.000	0.000	-0.005	0.010	0.029	2.666	1.895	1.899	1.890	1.909	1.904	1.904
-0.005	0.000	0.000	0.010	0.005	0.000	0.029	2.695	1.895	1.899	1.895	1.914	1.909	1.904
-0.005	0.005	0.000	0.005	0.015	0.000	0.034	2.700	1.895	1.899	1.895	1.914	1.909	1.904
0.000	0.010	0.000	0.000	0.005	0.000	0.034	2.710	1.904	1.899	1.895	1.909	1.909	1.904
0.000	0.015	-0.005	0.000	-0.010	-0.010	0.029	2.695	1.904	1.904	1.895	1.914	1.904	1.904
0.000	0.015	-0.005	-0.005	-0.010	-0.024	0.034	2.700	1.904	1.899	1.895	1.909	1.899	1.899
0.000	0.010	0.000	-0.020	-0.005	-0.010	0.029	2.681	1.904	1.904	1.899	1.909	1.904	1.904
0.005	0.010	-0.005	-0.020	-0.005	-0.005	0.029	2.671	1.899	1.899	1.899	1.909	1.909	1.909
0.005	-0.005	0.000	-0.024	0.000	0.000	0.034	2.671	1.899	1.899	1.895	1.909	1.909	1.904
0.010	-0.005	0.000	-0.020	0.005	-0.010	0.029	2.671	1.895	1.895	1.895	1.914	1.909	1.904
-0.005	-0.010	0.000	-0.020	0.015	-0.005	0.034	2.661	1.890	1.895	1.895	1.914	1.909	1.909
0.005	0.000	0.005	-0.020	0.010	-0.010	0.034	2.695	1.895	1.895	1.895	1.914	1.909	1.904
0.005	-0.005	0.005	-0.024	0.010	0.015	0.029	2.666	1.890	1.890	1.895	1.914	1.904	1.914
0.000	-0.010	0.005	-0.020	-0.005	0.015	0.029	2.676	1.895	1.890	1.890	1.914	1.904	1.909
0.005	-0.010	0.010	-0.020	-0.005	0.010	0.034	2.705	1.895	1.895	1.890	1.914	1.904	1.909
0.005	-0.010	0.010	-0.020	0.000	-0.010	0.029	2.681	1.895	1.895	1.890	1.909	1.904	1.904
0.000	-0.010	0.000	-0.020	-0.005	0.015	0.029	2.686	1.895	1.890	1.890	1.909	1.904	1.909
0.005	0.005	0.000	-0.010	-0.020	0.005	0.034	2.695	1.899	1.899	1.895	1.914	1.899	1.904
-0.005	0.015	0.000	-0.005	-0.024	0.005	0.029	2.710	1.895	1.895	1.895	1.914	1.904	1.904
-0.010	0.015	0.000	0.010	-0.029	0.000	0.034	2.671	1.895	1.899	1.895	1.919	1.904	1.904
-0.015	0.024	0.000	0.015	-0.015	0.010	0.034	2.676	1.895	1.899	1.895	1.919	1.914	1.904
-0.015	0.020	-0.005	0.015	-0.010	-0.010	0.029	2.690	1.895	1.895	1.895	1.914	1.909	1.904
-0.020	0.015	0.005	0.020	-0.024	0.000	0.029	2.710	1.895	1.895	1.895	1.919	1.909	1.909
-0.015	0.020	-0.005	0.024	-0.005	0.005	0.029	2.666	1.909	1.899	1.895	1.919	1.914	1.914
-0.005	0.005	0.000	0.024	0.024	0.010	0.029	2.671	1.904	1.895	1.895	1.919	1.924	1.914
0.000	-0.005	0.000	0.024	0.044	0.005	0.034	2.773	1.899	1.895	1.895	1.914	1.924	1.919
-0.005	-0.005	0.000	0.024	0.039	0.010	0.029	2.656	1.895	1.895	1.895	1.914	1.919	1.919
0.005	-0.024	0.005	0.034	0.024	0.005	0.029	2.637	1.904	1.895	1.895	1.914	1.914	1.919
0.010	-0.015	0.005	0.024	0.020	-0.015	0.029	2.690	1.904	1.895	1.895	1.914	1.909	1.909
0.015	-0.010	0.000	0.024	0.005	0.005	0.034	2.642	1.899	1.899	1.895	1.909	1.904	1.914
0.015	-0.010	0.005	0.020	-0.005	0.000	0.029	2.798	1.909	1.904	1.895	1.914	1.904	1.909
0.015	-0.015	0.005	0.024	-0.010	0.010	0.029	2.754	1.919	1.904	1.895	1.914	1.899	1.909
0.020	0.000	0.000	0.020	-0.005	0.000	0.034	2.676	1.904	1.909	1.899	1.914	1.904	1.904
0.005	0.000	0.000	0.029	0.005	-0.005	0.034	2.739	1.899	1.904	1.899	1.919	1.909	1.909
0.010	0.005	0.000	0.029	0.000	-0.020	0.034	2.646	1.895	1.904	1.899	1.919	1.909	1.904
-0.005	0.015	0.000	0.029	-0.005	0.010	0.034	2.656	1.890	1.899	1.899	1.919	1.909	1.914
0.000	0.010	-0.005	0.044	-0.005	0.000	0.029	2.739	1.899	1.899	1.899	1.919	1.914	1.909
-0.005	0.020	-0.005	0.034	-0.005	0.000	0.029	2.661	1.895	1.904	1.899	1.919	1.909	1.909
-0.005	0.015	-0.005	0.034	-0.015	-0.005	0.029	2.734	1.899	1.899	1.899	1.919	1.909	1.904
-0.010	0.010	-0.005	0.039	0.005	0.005	0.034	2.666	1.895	1.899	1.899	1.919	1.919	1.914
-0.010	-0.015	0.000	0.029	0.029	-0.015	0.034	2.676	1.895	1.890	1.895	1.914	1.924	1.909
-0.005	-0.015	0.000	0.024	0.024	-0.010	0.034	2.676	1.899	1.890	1.895	1.914	1.919	1.914
0.005	-0.010	0.010	0.024	0.015	0.020	0.034	2.686	1.904	1.895	1.895	1.914	1.909	1.924
0.000	-0.005	0.000	0.020	0.000	-0.005	0.029	2.695	1.904	1.899	1.895	1.909	1.904	1.914
0.000	-0.020	0.000	0.015	-0.005	-0.015	0.034	2.690	1.899	1.895	1.895	1.909	1.904	1.909
-0.005	-0.015	0.005	0.000	0.000	0.015	0.029	2.700	1.904	1.899	1.895	1.909	1.904	1.914
0.000	-0.015	0.000	-0.005	0.000	0.015	0.034	2.676	1.904	1.899	1.895	1.904	1.904	1.909
0.005	-0.010	0.000	-0.010	-0.005	0.010	0.034	2.661	1.899	1.895	1.895	1.904	1.899	1.904
0.005	0.000	0.005	-0.005	0.005	-0.005	0.034	2.695	1.899	1.899	1.895	1.909	1.904	1.904
-0.015	0.015	0.005	-0.005	0.005	0.005	0.029	2.676	1.899	1.904	1.895	1.909	1.904	1.904
0.005	0.005	0.000	0.000	0.000	0.005	0.034	2.690	1.899	1.895	1.899	1.914	1.904	1.904
-0.005	0.010	0.005	0.000	0.005	0.005	0.034	2.671	1.895	1.899	1.899	1.914	1.909	1.904
-0.010	0.005	0.005	0.005	-0.005	0.005	0.034	2.690	1.895	1.899	1.899	1.914	1.904	1.904
-0.005	0.000	0.000	0.020	-0.020	0.005	0.034	2.671	1.899	1.895	1.895	1.919	1.904	1.904
0.005	0.020	0.000	0.010	-0.015	-0.005	0.034	2.710	1.904	1.904	1.895	1.914	1.909	1.904
-0.010	0.034	0.000	0.010	-0.005	0.005	0.029	2.686	1.899	1.904	1.899	1.919	1.914	1.909
0.000	0.010	-0.005	0.005	0.005	-0.010	0.034	2.686	1.899	1.899	1.899	1.914	1.914	1.909
-0.005	0.029	-0.005	0.000	0.000	-0.015	0.034	2.700	1.904	1.904	1.899	1.914	1.909	1.909
0.000	-0.010	0.000	0.000	-0.005	0.015	0.029	2.700	1.904	1.890	1.895	1.914	1.909	1.914
0.000	-0.015	0.005	0.005	-0.005	0.010	0.034	2.681	1.899	1.895	1.895	1.914	1.909	1.914
0.005	-0.015	0.000	-0.005	0.000	0.010	0.034	2.666	1.904	1.895	1.895	1.914	1.909	1.909
0.005	-0.024	0.000	-0.010	0.000	-0.015	0.034	2.695	1.899	1.890	1.895	1.909	1.909	1.904
0.005	-0.015	0.005	-0.015	-0.005	0.005	0.029	2.808	1.904	1.899	1.895	1.909	1.904	1.909
0.010	0.005	0.005	-0.010	-0.005	-0.029	0.029	2.788	1.914	1.909	1.899	1.909	1.904	1.899
0.015	0.000	0.005	-0.010	0.010	-0.005	0.034	2.661	1.909	1.904	1.899	1.914	1.909	1.909
0.005	0.000	0.005	-0.005	0.000	0.000	0.034	2.651	1.899	1.904	1.899	1.919	1.909	1.909
0.010	0.005	0.005	-0.005	-0.005	0.000	0.034	2.656	1.895	1.904	1.899	1.914	1.909	1.909
0.000	0.015	0.000	-0.020	0.015	0.000	0.034	2.715	1.899	1.899	1.899	1.914	1.914	1.914
0.005	0.010	-0.005	-0.005	-0.005	-0.020	0.029	2.690	1.899	1.899	1.899	1.914	1.909	1.904
0.000	0.020	-0.005	-0.010	-0.020	-0.010	0.034	2.720	1.904	1.899	1.899	1.914	1.904	1.909
-0.010	0.015	-0.005	-0.005	-0.005	0.005	0.034	2.646	1.895	1.899	1.899	1.914	1.909	1.914
-0.005	0.010	-0.005	-0.005	-0.020	0.005	0.029	2.632	1.890	1.895	1.895	1.914	1.904	1.909
-0.015	0.015	-0.010	0.000	-0.005	0.005	0.029	2.666	1.899	1.899	1.895	1.914	1.914	1.909
0.000	0.010	-0.005	0.000	0.029	0.015	0.034	2.749	1.899	1.895	1.895	1.919	1.924	1.919
0.000	0.000	-0.005	-0.005	0.034	0.015	0.034	2.627	1.895	1.890	1.895	1.914	1.919	1.919
-0.005	0.015	0.000	-0.010	-0.029	0.010	0.034	2.646	1.895	1.895	1.895	1.909	1.899	1.909
0.000	0.005	0.005	0.000	-0.005	0.005	0.034	2.739	1.899	1.895	1.895	1.914	1.914	1.914
0.010	0.005	0.005	-0.005	0.088	-0.005	0.034	2.656	1.899	1.895	1.895	1.914	1.934	1.914
0.000	-0.010	0.005	0.005	0.020	0.015	0.029	2.749	1.909	1.890	1.890	1.914	1.909	1.914
0.000	-0.010	0.010	-0.005	-0.010	0.010	0.029	2.671	1.904	1.890	1.895	1.909	1.899	1.914
0.000	-0.010	0.005	-0.005	-0.005	0.015	0.029	2.705	1.904	1.895	1.890	1.909	1.904	1.909
0.000	-0.005	0.010	0.000	0.000	0.000	0.034	2.705	1.904	1.899	1.895	1.914	1.909	1.904
0.000	-0.005	0.000	0.010	0.029	0.010	0.034	2.666	1.899	1.899	1.895	1.914	1.914	1.909
0.000	0.010	0.010	0.005	0.015	0.010	0.034	2.695	1.899	1.904	1.895	1.914	1.909	1.909
0.010	0.005	0.005	0.005	-0.024	-0.020	0.029	2.695	1.904	1.904	1.895	1.914	1.899	1.895
-0.005	0.015	0.000	0.005	-0.029	0.000	0.034	2.700	1.899	1.904	1.895	1.914	1.899	1.904
-0.005	0.000	0.000	0.000	0.010	0.000	0.029	2.690	1.895	1.895	1.899	1.914	1.914	1.909
0.005	0.005	0.000	0.005	0.044	-0.020	0.029	2.705	1.899	1.895	1.895	1.919	1.919	1.909
0.000	0.000	-0.005	0.015	0.005	-0.010	0.034	2.681	1.899	1.899	1.899	1.919	1.909	1.909
0.005	0.000	0.000	0.000	0.010	-0.010	0.034	2.681	1.899	1.899	1.895	1.914	1.909	1.909
0.005	-0.005	0.005	0.010	0.015	-0.010	0.034	2.676	1.899	1.895	1.899	1.919	1.914	1.914
-0.005	-0.005	0.000	0.010	0.015	0.000	0.034	2.671	1.899	1.895	1.895	1.919	1.909	1.914
-0.010	-0.015	0.000	0.015	0.000	0.010	0.029	2.695	1.895	1.890	1.895	1.919	1.909	1.914
0.010	-0.020	0.000	0.020	0.000	0.000	0.029	2.690	1.899	1.890	1.895	1.919	1.909	1.914
0.005	-0.024	0.000	0.000	-0.010	0.010	0.034	2.705	1.899	1.895	1.890	1.909	1.909	1.914
0.005	-0.020	0.005	-0.010	-0.005	0.005	0.029	2.676	1.899	1.895	1.895	1.909	1.904	1.909
0.005	-0.005	0.000	-0.010	-0.010	-0.005	0.034	2.681	1.895	1.899	1.895	1.909	1.904	1.904
0.005	0.000	0.005	-0.015	-0.020	0.000	0.034	2.676	1.899	1.899	1.895	1.909	1.899	1.904
0.010	-0.005	0.005	-0.010	-0.020	0.000	0.034	2.695	1.899	1.899	1.899	1.914	1.904	1.904
0.005	0.000	0.000	-0.005	0.005	0.005	0.034	2.676	1.895	1.895	1.895	1.909	1.914	1.909
0.010	0.000	0.000	-0.010	0.000	0.005	0.034	2.700	1.904	1.899	1.895	1.909	1.909	1.904
0.000	-0.005	-0.005	-0.005	0.005	0.010	0.034	2.695	1.899	1.895	1.895	1.914	1.909	1.909
0.000	0.000	0.000	-0.005	0.000	0.005	0.034	2.808	1.895	1.895	1.895	1.914	1.909	1.909
0.000	0.010	-0.005	-0.010	-0.005	-0.010	0.034	2.769	1.909	1.899	1.895	1.909	1.904	1.904
-0.020	0.015	-0.005	-0.005	-0.005	0.005	0.034	2.676	1.904	1.904	1.895	1.914	1.909	1.909
-0.010	0.015	-0.005	-0.010	-0.010	0.000	0.034	2.681	1.899	1.904	1.899	1.914	1.909	1.904
-0.005	0.010	0.000	-0.010	-0.015	0.000	0.034	2.666	1.895	1.899	1.899	1.914	1.909	1.904
-0.010	0.005	0.000	-0.010	-0.015	0.000	0.029	2.632	1.895	1.899	1.899	1.914	1.909	1.909
-0.005	0.000	0.000	-0.005	-0.005	0.000	0.034	2.676	1.895	1.899	1.899	1.919	1.914	1.909
0.005	-0.005	0.005	0.005	-0.010	0.005	0.034	2.627	1.895	1.895	1.899	1.919	1.914	1.909
0.005	0.015	0.005	0.005	-0.005	0.000	0.034	2.788	1.909	1.904	1.899	1.919	1.914	1.909
0.005	0.005	0.005	-0.005	-0.010	-0.005	0.034	2.734	1.904	1.899	1.899	1.914	1.914	1.909
0.005	0.000	0.000	-0.010	0.005	0.000	0.034	2.627	1.899	1.899	1.899	1.914	1.914	1.914
0.010	-0.010	0.000	-0.010	0.000	0.000	0.029	2.739	1.895	1.895	1.895	1.914	1.909	1.914
0.005	-0.010	0.005	-0.010	0.005	0.010	0.034	2.632	1.890	1.890	1.895	1.914	1.914	1.914
0.010	0.000	0.005	-0.010	0.015	0.000	0.029	2.759	1.904	1.895	1.895	1.914	1.914	1.914
0.015	-0.010	0.005	-0.010	0.015	0.000	0.029	2.637	1.899	1.895	1.895	1.909	1.909	1.909
0.010	0.000	-0.005	-0.010	-0.005	-0.005	0.029	2.656	1.899	1.899	1.890	1.914	1.904	1.909
-0.005	0.005	0.000	-0.005	-0.010	-0.010	0.034	2.720	1.899	1.899	1.890	1.914	1.904	1.904
-0.005	-0.015	0.000	-0.005	-0.005	-0.010	0.034	2.676	1.899	1.890	1.895	1.914	1.909	1.909
-0.010	0.020	0.000	0.000	-0.015	-0.005	0.034	2.705	1.899	1.899	1.895	1.914	1.904	1.909
-0.005	0.015	-0.005	0.010	-0.010	-0.005	0.034	2.676	1.904	1.899	1.895	1.919	1.909	1.909
-0.010	0.024	-0.005	0.015	-0.005	-0.024	0.034	2.705	1.899	1.899	1.895	1.919	1.909	1.904
-0.005	0.015	-0.005	0.015	0.015	-0.020	0.029	2.705	1.899	1.899	1.899	1.919	1.919	1.909
-0.010	0.000	-0.005	0.010	0.039	-0.010	0.029	2.690	1.904	1.899	1.899	1.919	1.924	1.919
-0.010	-0.015	0.000	0.010	0.034	0.000	0.029	2.700	1.899	1.890	1.895	1.919	1.919	1.919
0.000	-0.024	0.000	0.010	0.034	-0.005	0.034	2.681	1.904	1.895	1.895	1.914	1.919	1.919
0.000	-0.024	0.005	0.000	0.034	-0.015	0.034	2.671	1.904	1.895	1.895	1.909	1.914	1.914
0.010	-0.034	0.005	0.005	0.054	0.000	0.029	2.666	1.899	1.895	1.895	1.914	1.919	1.919
-0.005	-0.024	0.005	0.005	0.054	0.005	0.029	2.700	1.899	1.895	1.895	1.914	1.914	1.919
0.005	0.000	0.010	0.005	0.015	0.000	0.029	2.686	1.904	1.904	1.899	1.914	1.904	1.909
0.000	0.005	0.010	0.010	0.000	0.005	0.029	2.690	1.899	1.904	1.899	1.914	1.904	1.909
0.005	0.020	0.010	0.005	-0.010	-0.010	0.034	2.671	1.899	1.904	1.899	1.914	1.899	1.904
0.000	0.015	0.000	0.005	0.000	-0.020	0.034	2.676	1.899	1.904	1.899	1.914	1.904	1.904
0.010	0.020	-0.005	0.010	0.015	0.010	0.034	2.705	1.904	1.904	1.895	1.914	1.914	1.914
0.000	0.024	-0.005	0.010	0.010	0.005	0.029	2.681	1.895	1.904	1.899	1.919	1.909	1.909
-0.020	0.024	0.000	0.015	-0.005	0.020	0.029	2.681	1.895	1.899	1.899	1.919	1.909	1.914
-0.005	0.024	0.000	0.020	-0.020	0.010	0.034	2.700	1.904	1.899	1.899	1.919	1.909	1.909
0.000	0.015	0.000	0.015	-0.024	0.015	0.034	2.700	1.899	1.899	1.899	1.919	1.909	1.909
-0.005	0.005	0.000	0.005	-0.024	0.000	0.029	2.686	1.899	1.895	1.895	1.914	1.904	1.909
-0.010	0.010	0.000	0.010	-0.024	0.010	0.029	2.676	1.899	1.899	1.895	1.914	1.909	1.904
-0.010	0.015	0.000	0.005	-0.029	0.020	0.034	2.695	1.899	1.899	1.895	1.914	1.909	1.909
-0.005	0.005	0.010	0.005	-0.020	0.020	0.034	2.803	1.914	1.899	1.899	1.914	1.914	1.914
0.000	0.005	0.005	0.000	-0.015	-0.010	0.029	2.661	1.909	1.899	1.899	1.914	1.909	1.904
0.010	-0.010	0.005	0.000	-0.020	0.015	0.029	2.666	1.904	1.899	1.899	1.914	1.909	1.909
0.010	-0.010	0.005	0.005	-0.010	0.005	0.029	2.788	1.914	1.904	1.899	1.919	1.914	1.909
0.015	-0.005	0.010	0.005	-0.010	-0.015	0.029	2.661	1.909	1.904	1.899	1.914	1.909	1.904
0.010	-0.020	0.005	0.000	-0.020	-0.020	0.034	2.646	1.899	1.899	1.899	1.914	1.909	1.904
0.010	0.000	0.005	0.000	-0.010	0.000	0.034	2.671	1.895	1.899	1.899	1.914	1.909	1.914
0.015	-0.010	0.005	0.000	-0.010	-0.010	0.034	2.734	1.899	1.899	1.899	1.914	1.914	1.909
0.005	0.000	-0.005	0.000	-0.005	0.015	0.029	2.646	1.919	1.904	1.899	1.914	1.914	1.914
0.010	0.015	-0.005	0.000	-0.005	0.010	0.034	2.710	1.909	1.909	1.899	1.914	1.914	1.914
0.000	0.024	0.000	0.000	0.010	0.010	0.029	2.759	1.914	1.914	1.904	1.919	1.914	1.914
-0.005	0.020	-0.005	0.000	0.005	0.015	0.029	2.622	1.904	1.909	1.904	1.919	1.919	1.919
-0.005	0.024	0.000	0.005	0.000	0.010	0.029	2.661	1.899	1.909	1.904	1.924	1.914	1.914
0.005	0.024	-0.005	0.005	-0.005	-0.020	0.034	2.637	1.895	1.904	1.904	1.924	1.914	1.909
0.005	0.015	0.000	0.010	-0.005	-0.015	0.034	2.661	1.895	1.899	1.904	1.929	1.919	1.914
-0.005	0.005	-0.005	0.049	0.005	0.000	0.034	2.651	1.890	1.895	1.904	1.934	1.924	1.924
-0.005	0.005	0.000	0.059	0.024	-0.015	0.029	2.612	1.885	1.890	1.899	1.934	1.929	1.919
0.005	-0.010	0.000	0.054	0.020	0.010	0.034	2.671	1.895	1.890	1.895	1.929	1.929	1.929
0.005	-0.005	0.005	0.049	0.024	-0.015	0.034	2.686	1.899	1.890	1.895	1.924	1.924	1.919
0.015	0.000	0.000	0.024	0.005	-0.010	0.029	2.681	1.895	1.890	1.890	1.909	1.914	1.919
0.005	-0.010	0.005	0.010	0.005	-0.005	0.029	2.666	1.899	1.890	1.885	1.904	1.909	1.919
0.005	-0.010	0.005	0.000	-0.005	0.005	0.029	2.710	1.904	1.895	1.890	1.904	1.904	1.919
0.005	-0.010	0.005	-0.010	-0.010	-0.020	0.029	2.695	1.904	1.895	1.890	1.904	1.899	1.909
0.005	-0.005	0.005	-0.024	0.000	0.010	0.034	2.700	1.904	1.895	1.890	1.899	1.904	1.909
0.000	-0.005	0.005	-0.024	-0.005	0.005	0.034	2.686	1.904	1.899	1.890	1.899	1.899	1.909
0.005	-0.005	0.000	-0.020	-0.010	0.005	0.034	2.671	1.899	1.899	1.895	1.904	1.899	1.904
0.005	0.005	0.000	-0.024	-0.005	0.010	0.029	2.676	1.899	1.899	1.895	1.909	1.899	1.904
-0.005	0.010	0.000	-0.015	0.000	-0.005	0.029	2.705	1.899	1.899	1.895	1.914	1.904	1.899
-0.010	0.010	-0.005	-0.005	0.000	0.010	0.034	2.686	1.899	1.904	1.895	1.914	1.909	1.904
-0.005	0.029	0.000	-0.005	0.015	0.000	0.034	2.690	1.899	1.904	1.899	1.914	1.909	1.904
-0.005	0.029	-0.010	0.000	0.020	0.005	0.034	2.695	1.899	1.904	1.899	1.919	1.914	1.909
-0.015	0.000	-0.005	0.005	0.020	-0.005	0.034	2.695	1.899	1.895	1.899	1.919	1.914	1.909
0.005	0.000	-0.005	0.000	0.029	0.000	0.034	2.700	1.909	1.899	1.899	1.919	1.919	1.914
-0.005	-0.010	0.000	0.005	0.010	-0.010	0.029	2.681	1.899	1.895	1.895	1.919	1.909	1.909
-0.005	-0.015	0.010	0.000	-0.010	0.015	0.029	2.705	1.909	1.899	1.895	1.914	1.904	1.909
0.015	-0.015	0.005	0.000	-0.024	0.015	0.034	2.690	1.904	1.899	1.899	1.914	1.904	1.909
0.005	-0.010	0.000	-0.010	-0.034	0.005	0.034	2.695	1.904	1.899	1.895	1.909	1.899	1.904
0.000	-0.015	0.000	-0.005	-0.020	-0.005	0.034	2.676	1.899	1.895	1.895	1.914	1.904	1.904
0.015	-0.020	0.005	-0.010	-0.015	0.010	0.034	2.695	1.904	1.899	1.895	1.909	1.909	1.909
0.010	-0.010	0.005	-0.005	0.005	0.010	0.034	2.681	1.899	1.899	1.899	1.914	1.919	1.914
0.015	0.000	0.005	0.000	0.054	0.000	0.034	2.812	1.914	1.904	1.899	1.919	1.929	1.914
-0.005	0.005	0.005	-0.005	0.093	-0.010	0.029	2.656	1.904	1.909	1.899	1.919	1.929	1.919
0.005	0.000	0.000	0.000	0.034	0.005	0.034	2.666	1.904	1.904	1.899	1.919	1.909	1.919
0.005	0.000	0.005	0.000	-0.005	-0.005	0.034	2.637	1.899	1.904	1.899	1.914	1.904	1.914
-0.010	0.010	0.000	-0.005	-0.024	0.000	0.034	2.656	1.895	1.904	1.899	1.914	1.899	1.909
0.000	0.015	0.005	0.005	-0.044	0.005	0.034	2.637	1.890	1.904	1.899	1.919	1.899	1.904
0.000	0.010	-0.005	0.000	-0.015	-0.010	0.029	2.705	1.899	1.899	1.899	1.919	1.914	1.909
-0.005	0.005	-0.005	-0.005	0.015	-0.005	0.029	2.734	1.904	1.895	1.895	1.919	1.919	1.909
-0.010	0.010	0.000	-0.010	0.029	0.000	0.029	2.676	1.899	1.899	1.899	1.914	1.924	1.914
0.000	-0.005	-0.005	-0.015	0.029	0.000	0.029	2.725	1.904	1.895	1.895	1.914	1.919	1.914
-0.010	-0.010	0.000	-0.010	0.034	0.015	0.034	2.715	1.904	1.899	1.895	1.914	1.914	1.924
0.000	-0.005	0.005	-0.020	0.005	0.015	0.034	2.749	1.914	1.904	1.895	1.914	1.904	1.919
0.005	-0.015	0.005	-0.020	-0.010	0.005	0.034	2.617	1.899	1.899	1.899	1.909	1.904	1.909
0.000	-0.020	0.005	-0.020	0.000	-0.020	0.034	2.720	1.904	1.899	1.899	1.914	1.904	1.904
-0.005	-0.010	0.010	-0.015	-0.024	0.000	0.034	2.749	1.909	1.904	1.899	1.914	1.904	1.909
-0.005	-0.005	0.010	-0.015	-0.029	0.005	0.034	2.686	1.909	1.904	1.899	1.914	1.904	1.904
0.000	0.005	0.000	-0.015	-0.010	-0.005	0.034	2.651	1.899	1.904	1.899	1.914	1.909	1.904
-0.005	0.010	0.000	-0.010	0.010	0.015	0.034	2.671	1.899	1.904	1.899	1.919	1.919	1.909
0.000	-0.005	0.000	-0.010	0.000	0.005	0.029	2.695	1.904	1.899	1.899	1.919	1.909	1.909
-0.010	0.020	-0.005	-0.010	-0.015	0.010	0.034	2.681	1.899	1.899	1.899	1.919	1.909	1.914
0.000	0.015	-0.005	-0.010	-0.020	-0.024	0.034	2.705	1.904	1.899	1.899	1.919	1.909	1.899
0.000	0.010	-0.005	-0.024	-0.029	0.015	0.029	2.690	1.904	1.899	1.899	1.914	1.909	1.909
0.000	0.010	-0.005	-0.020	-0.020	0.005	0.034	2.705	1.899	1.904	1.895	1.914	1.914	1.909
-0.010	0.010	-0.005	-0.005	-0.010	0.010	0.034	2.695	1.899	1.899	1.899	1.919	1.914	1.914
0.000	0.015	0.000	-0.005	0.024	0.010	0.034	2.676	1.904	1.904	1.904	1.919	1.924	1.919
0.005	0.010	0.000	0.000	0.029	0.010	0.034	2.695	1.904	1.899	1.899	1.924	1.924	1.919
0.005	-0.005	0.000	0.005	0.029	-0.005	0.029	2.681	1.904	1.895	1.899	1.924	1.924	1.919
0.000	-0.010	0.000	0.000	0.015	0.000	0.029	2.710	1.909	1.895	1.895	1.919	1.919	1.919
0.020	-0.010	0.005	0.000	0.005	0.015	0.029	2.681	1.904	1.899	1.895	1.919	1.914	1.919
0.010	-0.024	0.005	-0.005	0.010	0.015	0.034	2.661	1.899	1.895	1.899	1.914	1.914	1.919
0.015	-0.020	0.000	-0.005	0.005	0.005	0.034	2.695	1.899	1.895	1.895	1.914	1.909	1.914
0.015	-0.010	0.005	-0.005	-0.010	0.005	0.034	2.681	1.904	1.899	1.895	1.914	1.904	1.909
0.010	-0.015	0.005	0.000	-0.015	0.000	0.034	2.700	1.904	1.899	1.895	1.914	1.904	1.904
0.005	-0.015	0.000	0.005	-0.020	0.010	0.034	2.671	1.895	1.895	1.895	1.914	1.904	1.909
0.005	-0.020	0.000	0.005	-0.020	0.010	0.034	2.705	1.895	1.895	1.895	1.914	1.909	1.909
0.000	-0.010	0.000	0.005	-0.015	0.000	0.029	2.700	1.899	1.895	1.895	1.914	1.909	1.909
0.000	0.000	0.000	0.005	-0.005	-0.005	0.034	2.710	1.904	1.904	1.895	1.914	1.914	1.904
-0.005	0.020	-0.005	0.005	-0.024	-0.010	0.034	2.681	1.904	1.904	1.899	1.914	1.904	1.904
-0.005	0.015	0.000	0.000	-0.034	-0.005	0.034	2.686	1.895	1.904	1.899	1.914	1.909	1.909
-0.005	0.034	0.000	0.000	-0.015	-0.005	0.034	2.690	1.904	1.909	1.904	1.919	1.909	1.909
-0.020	0.020	-0.005	-0.005	-0.005	-0.024	0.029	2.812	1.914	1.904	1.899	1.919	1.914	1.904
-0.005	0.010	0.000	-0.005	0.015	-0.024	0.029	2.661	1.909	1.904	1.899	1.919	1.924	1.909
0.005	0.015	0.000	-0.010	0.063	0.010	0.029	2.671	1.909	1.904	1.904	1.919	1.934	1.924
0.000	0.000	0.005	-0.010	0.039	0.010	0.029	2.783	1.919	1.904	1.899	1.919	1.919	1.924
0.015	-0.005	0.005	-0.010	0.024	0.005	0.029	2.646	1.909	1.904	1.904	1.919	1.919	1.919
0.015	-0.005	0.000	-0.005	0.068	0.005	0.034	2.637	1.899	1.904	1.899	1.919	1.929	1.924
0.005	-0.005	0.000	-0.010	0.059	-0.015	0.029	2.690	1.899	1.899	1.899	1.919	1.919	1.914
0.000	-0.005	0.005	-0.015	0.020	-0.010	0.034	2.725	1.899	1.899	1.899	1.914	1.904	1.914
0.010	0.000	0.005	-0.005	-0.005	-0.020	0.029	2.632	1.890	1.899	1.899	1.919	1.899	1.904
0.005	-0.015	0.005	-0.005	-0.010	-0.020	0.034	2.744	1.899	1.895	1.895	1.919	1.904	1.904
-0.005	-0.010	0.000	0.005	-0.005	0.000	0.034	2.739	1.904	1.899	1.895	1.919	1.909	1.914
0.000	0.000	0.000	0.005	-0.015	-0.020	0.029	2.725	1.909	1.904	1.895	1.919	1.909	1.904
0.005	0.005	0.000	0.010	-0.020	0.005	0.034	2.646	1.904	1.909	1.899	1.919	1.909	1.914
-0.005	0.010	0.000	0.005	-0.039	0.015	0.029	2.632	1.909	1.904	1.899	1.919	1.904	1.909
-0.005	0.015	0.005	0.005	-0.034	0.010	0.029	2.637	1.895	1.904	1.899	1.919	1.909	1.914
-0.005	0.015	0.000	0.005	-0.034	0.000	0.029	2.656	1.899	1.904	1.899	1.919	1.909	1.909
-0.005	0.020	-0.005	0.010	-0.020	-0.005	0.034	2.715	1.904	1.904	1.899	1.919	1.914	1.909
-0.015	0.010	0.000	-0.005	-0.015	0.010	0.029	2.676	1.899	1.899	1.899	1.914	1.914	1.914
-0.005	0.015	0.000	-0.010	0.015	0.015	0.034	2.671	1.899	1.904	1.899	1.919	1.924	1.919
-0.005	0.010	0.005	-0.010	0.024	0.034	0.034	2.681	1.904	1.904	1.899	1.919	1.924	1.924
-0.005	0.010	0.000	-0.005	0.020	0.029	0.034	2.700	1.904	1.899	1.899	1.919	1.919	1.924
0.010	0.000	0.000	0.005	0.020	0.005	0.034	2.700	1.909	1.899	1.899	1.924	1.919	1.914
0.010	-0.005	0.005	0.000	0.024	0.000	0.029	2.705	1.909	1.899	1.899	1.919	1.919	1.914
0.000	-0.005	0.000	0.000	0.010	0.010	0.029	2.695	1.904	1.899	1.899	1.919	1.914	1.914
0.000	-0.005	0.005	0.005	-0.020	0.010	0.029	2.676	1.899	1.899	1.899	1.914	1.904	1.914
0.000	-0.010	0.005	0.000	-0.024	0.005	0.034	2.695	1.899	1.899	1.899	1.914	1.904	1.904
0.000	-0.005	0.005	0.000	-0.010	0.010	0.034	2.700	1.904	1.904	1.899	1.919	1.914	1.909
-0.005	-0.005	0.005	0.000	-0.010	-0.024	0.034	2.686	1.899	1.899	1.895	1.914	1.909	1.899
-0.010	0.005	0.005	0.000	-0.010	0.005	0.029	2.686	1.899	1.899	1.899	1.914	1.909	1.914
-0.005	0.005	-0.005	0.000	0.005	0.005	0.034	2.676	1.899	1.904	1.899	1.919	1.914	1.914
0.000	0.015	0.000	0.010	0.010	0.000	0.034	2.700	1.904	1.904	1.899	1.919	1.919	1.914
-0.005	0.015	-0.005	0.000	0.015	-0.015	0.034	2.671	1.899	1.904	1.899	1.914	1.919	1.909
0.000	0.010	-0.005	0.015	0.000	0.000	0.029	2.700	1.904	1.904	1.899	1.919	1.914	1.914
-0.005	0.015	0.005	0.015	0.005	-0.010	0.034	2.681	1.904	1.904	1.904	1.924	1.919	1.914
0.000	0.020	-0.005	0.020	0.015	-0.020	0.034	2.690	1.904	1.904	1.899	1.924	1.919	1.914
0.005	0.005	0.000	0.010	0.024	0.000	0.029	2.671	1.904	1.904	1.899	1.919	1.919	1.924
0.010	0.000	-0.005	0.005	0.015	0.010	0.034	2.700	1.909	1.899	1.899	1.919	1.914	1.924
0.010	-0.010	0.005	0.005	0.005	-0.005	0.029	2.681	1.904	1.895	1.899	1.919	1.909	1.914
0.015	-0.010	0.005	0.015	-0.015	-0.005	0.034	2.666	1.899	1.899	1.899	1.919	1.909	1.914
0.010	-0.005	0.005	0.020	-0.024	-0.005	0.034	2.686	1.899	1.895	1.895	1.919	1.909	1.909
0.020	-0.029	0.005	0.020	-0.029	0.000	0.029	2.803	1.914	1.895	1.895	1.919	1.909	1.909
0.015	-0.015	0.005	0.029	-0.010	0.000	0.034	2.656	1.909	1.904	1.899	1.919	1.914	1.909
0.010	-0.015	0.000	0.024	0.010	-0.005	0.034	2.661	1.899	1.899	1.895	1.919	1.919	1.914
0.000	-0.005	0.005	0.024	0.020	-0.010	0.029	2.773	1.909	1.904	1.895	1.919	1.919	1.914
0.000	0.005	0.000	0.029	0.024	-0.005	0.034	2.651	1.904	1.904	1.899	1.919	1.919	1.914
0.000	0.034	-0.005	0.029	0.015	0.000	0.034	2.734	1.909	1.914	1.904	1.919	1.914	1.919
0.000	0.024	0.000	0.024	0.015	0.005	0.034	2.695	1.909	1.914	1.904	1.919	1.914	1.919
-0.005	0.010	-0.005	0.029	0.015	-0.005	0.029	2.695	1.895	1.904	1.904	1.919	1.914	1.914
-0.005	0.020	0.000	0.024	-0.010	0.000	0.029	2.671	1.914	1.909	1.904	1.919	1.909	1.919
-0.005	0.029	0.000	0.015	-0.020	0.000	0.034	2.734	1.919	1.914	1.904	1.919	1.909	1.909
-0.005	0.034	0.000	0.015	0.000	-0.015	0.034	2.734	1.924	1.914	1.904	1.924	1.914	1.909
-0.015	0.039	0.000	0.020	0.000	0.020	0.029	2.725	1.919	1.914	1.909	1.924	1.919	1.924
-0.005	0.015	0.000	0.015	0.005	0.000	0.034	2.617	1.904	1.909	1.909	1.924	1.919	1.919
0.000	0.020	0.000	0.015	0.000	0.005	0.034	2.617	1.899	1.904	1.909	1.924	1.919	1.919
0.000	0.015	0.000	0.015	0.010	0.005	0.034	2.622	1.909	1.904	1.909	1.924	1.919	1.919
0.000	0.005	0.000	0.005	0.024	0.000	0.034	2.651	1.904	1.899	1.904	1.924	1.919	1.919
-0.005	-0.015	0.005	0.005	0.005	0.000	0.029	2.622	1.895	1.895	1.899	1.919	1.914	1.919
0.005	-0.015	0.005	0.010	-0.010	0.005	0.034	2.671	1.895	1.895	1.895	1.919	1.914	1.914
0.010	-0.015	0.000	0.010	-0.010	0.005	0.034	2.690	1.899	1.895	1.895	1.919	1.914	1.914
0.010	-0.005	0.010	0.010	-0.024	0.005	0.034	2.671	1.899	1.899	1.895	1.914	1.904	1.914
0.005	0.010	0.005	-0.015	-0.044	0.000	0.029	2.690	1.899	1.904	1.895	1.909	1.904	1.909
0.005	0.020	0.000	-0.005	-0.054	0.000	0.034	2.690	1.904	1.904	1.899	1.914	1.904	1.904
0.005	0.020	0.000	0.010	-0.024	0.000	0.029	2.686	1.904	1.904	1.899	1.919	1.909	1.904
0.000	0.024	-0.005	0.015	0.000	-0.010	0.029	2.705	1.904	1.904	1.899	1.924	1.919	1.909
0.000	0.015	-0.005	0.015	0.010	0.000	0.029	2.671	1.899	1.899	1.899	1.924	1.924	1.919
0.000	0.015	0.000	0.020	0.020	0.010	0.034	2.676	1.904	1.899	1.899	1.924	1.924	1.919
0.000	0.000	-0.005	0.024	0.020	0.000	0.034	2.695	1.899	1.895	1.899	1.924	1.924	1.919
-0.015	-0.010	-0.005	0.024	0.000	0.005	0.029	2.676	1.899	1.895	1.899	1.919	1.914	1.919
-0.010	-0.010	-0.005	0.015	-0.034	0.010	0.034	2.666	1.899	1.890	1.895	1.914	1.909	1.914
-0.010	-0.029	-0.005	0.015	-0.010	0.010	0.034	2.690	1.904	1.890	1.890	1.914	1.914	1.914
0.000	-0.034	-0.005	0.015	0.020	0.000	0.029	2.676	1.904	1.895	1.895	1.914	1.919	1.919
0.000	-0.029	0.005	0.020	0.024	0.005	0.034	2.676	1.904	1.895	1.895	1.914	1.914	1.914
0.005	-0.024	0.000	0.010	0.029	-0.005	0.029	2.695	1.904	1.899	1.895	1.909	1.914	1.914
0.005	-0.029	0.000	0.010	0.010	-0.005	0.034	2.671	1.899	1.899	1.895	1.914	1.909	1.909
0.005	-0.020	0.005	0.010	-0.005	-0.005	0.034	2.666	1.899	1.899	1.895	1.909	1.899	1.909
0.005	-0.010	0.000	0.005	0.000	-0.005	0.029	2.695	1.904	1.904	1.895	1.909	1.904	1.904
0.005	-0.005	0.005	0.005	0.005	-0.005	0.029	2.695	1.899	1.904	1.899	1.914	1.909	1.904
0.000	0.000	0.005	0.068	-0.015	-0.015	0.034	2.676	1.899	1.904	1.904	1.938	1.909	1.904
0.000	-0.005	0.000	0.229	0.000	-0.024	0.034	2.676	1.899	1.904	1.909	1.978	1.934	1.909
-0.005	0.010	0.000	0.254	0.073	-0.034	0.029	2.695	1.899	1.904	1.909	1.968	1.963	1.924
-0.005	0.015	0.005	0.234	0.029	-0.015	0.029	2.812	1.914	1.909	1.904	1.953	1.943	1.934
-0.010	0.024	0.005	0.210	0.020	0.005	0.034	2.778	1.929	1.914	1.909	1.938	1.943	1.943
0.005	0.039	-0.005	0.176	-0.005	0.010	0.034	2.681	1.924	1.919	1.904	1.924	1.929	1.938
0.005	0.005	-0.005	0.151	-0.059	0.015	0.034	2.651	1.914	1.909	1.904	1.914	1.909	1.929
-0.010	0.020	0.000	0.132	-0.068	0.015	0.029	2.656	1.904	1.914	1.909	1.914	1.909	1.924
0.000	0.000	0.000	0.107	0.078	-0.005	0.034	2.720	1.914	1.904	1.904	1.914	1.948	1.929
-0.005	-0.015	-0.005	0.078	0.151	0.005	0.029	2.661	1.904	1.904	1.904	1.909	1.948	1.938
0.000	-0.020	0.000	0.044	0.098	0.010	0.034	2.637	1.904	1.904	1.899	1.899	1.919	1.934
0.015	-0.015	0.005	0.020	0.029	-0.010	0.034	2.803	1.924	1.904	1.904	1.899	1.890	1.919
0.005	-0.010	0.005	-0.010	-0.010	0.020	0.029	2.739	1.914	1.904	1.899	1.895	1.880	1.909
0.015	-0.005	0.010	-0.034	-0.024	0.010	0.029	2.661	1.909	1.909	1.904	1.895	1.880	1.899
0.005	-0.010	0.010	-0.054	-0.010	0.015	0.034	2.622	1.904	1.909	1.904	1.895	1.885	1.899
0.015	-0.005	0.015	-0.068	-0.020	0.010	0.029	2.651	1.899	1.909	1.904	1.899	1.885	1.895
0.005	0.010	0.015	-0.073	-0.024	0.015	0.029	2.715	1.899	1.909	1.904	1.904	1.890	1.895
0.005	0.024	0.005	-0.083	-0.010	0.005	0.034	2.632	1.895	1.909	1.904	1.904	1.895	1.895
-0.005	0.010	0.005	-0.098	0.000	0.000	0.034	2.656	1.885	1.895	1.899	1.904	1.899	1.890
-0.010	0.005	0.000	-0.132	-0.005	-0.005	0.029	2.744	1.895	1.895	1.895	1.899	1.895	1.890
-0.005	0.005	0.000	-0.146	-0.029	-0.010	0.034	2.666	1.895	1.895	1.895	1.895	1.890	1.890
-0.005	-0.005	-0.005	-0.151	-0.034	0.000	0.034	2.695	1.895	1.890	1.895	1.899	1.890	1.895
0.000	-0.010	-0.005	-0.151	-0.034	-0.005	0.029	2.676	1.890	1.890	1.890	1.899	1.890	1.890
0.000	0.000	0.000	-0.151	-0.005	0.020	0.029	2.676	1.895	1.895	1.895	1.904	1.904	1.904
-0.010	0.005	0.005	-0.137	0.010	0.020	0.034	2.705	1.899	1.895	1.895	1.914	1.904	1.904
0.005	0.010	-0.005	-0.122	-0.049	0.020	0.034	2.700	1.899	1.899	1.895	1.909	1.895	1.899
-0.005	-0.005	0.000	-0.107	-0.059	0.010	0.034	2.695	1.895	1.890	1.895	1.914	1.895	1.890
-0.010	0.000	-0.005	-0.098	-0.078	0.005	0.034	2.676	1.895	1.895	1.895	1.919	1.895	1.895
-0.005	-0.015	0.005	-0.098	-0.068	0.000	0.034	2.676	1.895	1.885	1.890	1.919	1.904	1.895
-0.005	-0.020	0.000	-0.088	-0.039	-0.010	0.034	2.681	1.895	1.885	1.890	1.914	1.914	1.899
0.000	-0.010	0.000	-0.083	0.000	0.000	0.034	2.666	1.895	1.895	1.890	1.914	1.924	1.909
0.015	0.000	0.000	-0.073	0.005	-0.005	0.029	2.671	1.890	1.895	1.890	1.914	1.919	1.914
0.000	-0.005	0.005	-0.073	0.024	-0.010	0.034	2.700	1.890	1.890	1.895	1.919	1.924	1.914
0.015	0.000	0.000	-0.068	0.034	-0.020	0.029	2.671	1.899	1.895	1.895	1.919	1.924	1.914
0.010	-0.015	0.000	-0.059	0.083	0.000	0.034	2.690	1.899	1.895	1.890	1.919	1.938	1.929
0.000	-0.015	0.000	-0.049	0.132	0.005	0.034	2.700	1.899	1.895	1.890	1.919	1.943	1.934
0.005	-0.005	-0.005	-0.044	0.122	0.015	0.029	2.671	1.899	1.895	1.890	1.919	1.934	1.934
0.000	0.000	0.000	-0.039	0.117	0.010	0.029	2.681	1.899	1.904	1.895	1.919	1.924	1.934
-0.005	0.020	-0.005	-0.034	0.063	-0.010	0.034	2.710	1.904	1.904	1.895	1.919	1.909	1.914
-0.005	0.015	0.000	-0.024	0.005	0.010	0.034	2.700	1.904	1.904	1.899	1.919	1.895	1.919
-0.005	0.020	0.000	-0.029	-0.029	0.000	0.034	2.681	1.904	1.904	1.899	1.919	1.890	1.904
0.000	0.015	-0.005	-0.024	-0.034	0.010	0.034	2.676	1.899	1.899	1.895	1.919	1.899	1.904
-0.005	-0.005	0.000	-0.020	-0.039	0.005	0.034	2.681	1.895	1.895	1.899	1.919	1.899	1.904
0.000	-0.005	0.000	-0.024	-0.044	0.005	0.034	2.793	1.914	1.899	1.895	1.914	1.899	1.904
0.010	0.000	-0.005	-0.024	-0.054	0.005	0.034	2.651	1.909	1.904	1.899	1.914	1.899	1.899
0.005	-0.005	0.005	-0.020	-0.044	0.005	0.029	2.671	1.904	1.899	1.899	1.919	1.909	1.899
0.005	-0.015	0.005	-0.024	-0.029	0.000	0.034	2.778	1.909	1.899	1.899	1.914	1.914	1.904
0.005	-0.024	0.010	-0.024	-0.015	-0.005	0.029	2.646	1.899	1.895	1.895	1.914	1.914	1.904
0.005	-0.005	0.010	-0.039	0.005	-0.005	0.034	2.637	1.890	1.899	1.899	1.909	1.919	1.909
-0.005	-0.010	0.000	-0.049	0.010	-0.005	0.034	2.695	1.895	1.890	1.895	1.909	1.914	1.909
-0.010	-0.020	-0.005	-0.049	0.005	-0.029	0.034	2.617	1.885	1.890	1.890	1.909	1.909	1.909
-0.005	-0.015	0.000	-0.029	0.000	0.005	0.029	2.646	1.885	1.890	1.890	1.914	1.909	1.914
-0.005	-0.005	-0.005	-0.029	-0.010	0.005	0.029	2.749	1.899	1.895	1.890	1.914	1.909	1.914
-0.010	0.000	-0.005	-0.020	-0.015	0.000	0.034	2.661	1.890	1.895	1.890	1.914	1.909	1.909
-0.005	0.015	-0.010	-0.020	-0.005	0.000	0.034	2.710	1.899	1.899	1.890	1.909	1.904	1.909
-0.015	0.015	-0.005	-0.020	-0.005	0.005	0.029	2.720	1.899	1.904	1.895	1.914	1.909	1.909
-0.005	0.000	-0.005	-0.005	-0.010	0.000	0.029	2.622	1.909	1.899	1.895	1.914	1.909	1.909
-0.005	0.000	-0.005	-0.010	0.000	0.000	0.034	2.646	1.899	1.899	1.895	1.914	1.914	1.909
0.020	-0.010	-0.005	-0.010	0.005	0.005	0.034	2.651	1.904	1.899	1.895	1.914	1.914	1.914
0.015	-0.005	-0.005	-0.010	0.005	-0.005	0.029	2.734	1.909	1.899	1.899	1.914	1.909	1.909
0.020	-0.015	0.000	-0.015	-0.005	-0.005	0.034	2.666	1.904	1.899	1.895	1.914	1.909	1.909
0.010	-0.005	-0.005	-0.010	0.000	0.000	0.029	2.671	1.899	1.899	1.899	1.914	1.909	1.909
0.020	-0.015	0.000	-0.005	0.005	-0.010	0.034	2.671	1.899	1.895	1.899	1.914	1.909	1.909
0.015	-0.015	0.005	-0.005	0.000	-0.024	0.029	2.676	1.899	1.899	1.895	1.914	1.909	1.904
0.015	-0.020	0.005	-0.005	0.005	0.005	0.034	2.681	1.895	1.895	1.895	1.919	1.914	1.914
0.000	-0.005	0.010	-0.005	0.010	0.000	0.029	2.690	1.895	1.895	1.895	1.919	1.914	1.914
-0.005	-0.015	0.005	0.005	0.000	0.000	0.029	2.695	1.895	1.895	1.895	1.914	1.909	1.909
0.000	0.000	0.005	0.010	0.000	-0.005	0.034	2.671	1.899	1.899	1.895	1.914	1.909	1.909
-0.005	0.000	0.005	0.010	0.010	-0.010	0.029	2.695	1.899	1.899	1.895	1.919	1.909	1.909
-0.010	0.020	0.005	0.010	0.005	0.010	0.034	2.671	1.899	1.899	1.899	1.919	1.914	1.914
-0.015	0.015	0.005	0.020	-0.005	0.010	0.034	2.686	1.899	1.899	1.895	1.919	1.909	1.914
-0.010	0.029	-0.005	0.024	0.000	0.005	0.034	2.666	1.899	1.904	1.899	1.919	1.914	1.909
-0.005	0.034	-0.005	0.029	0.000	0.010	0.034	2.690	1.904	1.904	1.899	1.919	1.914	1.914
-0.010	0.049	0.000	0.029	-0.005	0.010	0.034	2.690	1.899	1.904	1.904	1.919	1.914	1.914
-0.010	0.034	0.005	0.029	-0.010	-0.010	0.034	2.695	1.904	1.904	1.904	1.919	1.909	1.909
-0.010	0.015	0.000	0.024	-0.015	0.010	0.034	2.705	1.904	1.895	1.899	1.919	1.909	1.914
-0.005	0.000	0.005	0.024	-0.005	-0.015	0.029	2.666	1.904	1.895	1.895	1.919	1.914	1.909
0.005	-0.020	0.000	0.020	-0.010	-0.010	0.034	2.695	1.899	1.890	1.895	1.914	1.909	1.909
-0.005	-0.034	0.005	0.015	0.000	0.010	0.029	2.666	1.895	1.885	1.890	1.909	1.914	1.914
0.000	-0.020	0.005	0.010	0.005	0.005	0.034	2.695	1.904	1.895	1.895	1.914	1.914	1.914
0.015	-0.020	0.000	0.020	0.015	0.010	0.034	2.681	1.904	1.895	1.890	1.914	1.914	1.914
0.005	-0.015	0.005	-0.146	0.015	-0.010	0.034	2.700	1.904	1.899	1.885	1.865	1.895	1.904
0.005	-0.010	0.005	-0.171	0.024	-0.005	0.034	2.681	1.899	1.899	1.885	1.870	1.890	1.899
