-0.010	0.000	-0.005	0.000	0.000	-0.005	0.000	2.681	5.703	3.711	3.291	2.822	2.979	2.808
-0.005	-0.005	0.000	-0.005	0.005	-0.005	0.000	2.681	4.873	4.058	3.496	3.003	2.979	2.852
-0.005	-0.005	-0.005	0.000	0.000	-0.029	0.000	2.676	4.263	4.136	3.672	3.188	3.027	2.891
0.000	-0.010	-0.005	0.000	0.000	-0.005	0.000	2.676	3.828	4.067	3.784	3.354	3.110	2.959
-0.005	-0.005	0.000	-0.005	-0.005	0.000	0.000	2.686	3.511	3.926	3.833	3.486	3.208	3.022
-0.005	-0.010	0.005	-0.005	-0.005	-0.005	0.000	2.681	3.286	3.760	3.818	3.584	3.311	3.101
0.000	-0.010	0.000	-0.005	0.005	-0.015	0.000	2.686	3.135	3.594	3.765	3.643	3.403	3.179
0.000	-0.010	-0.005	-0.005	0.000	0.010	0.000	2.686	3.027	3.442	3.682	3.657	3.472	3.267
0.005	0.000	-0.005	-0.005	-0.005	0.015	0.000	2.671	2.959	3.320	3.584	3.647	3.521	3.335
0.000	0.005	-0.005	-0.005	0.000	0.005	0.000	2.686	2.915	3.213	3.481	3.613	3.550	3.394
-0.010	0.000	0.000	-0.005	-0.005	-0.005	0.000	2.676	2.881	3.125	3.389	3.560	3.550	3.433
0.000	0.005	-0.005	-0.005	-0.005	-0.010	0.000	2.690	2.871	3.062	3.301	3.496	3.540	3.457
-0.010	0.005	-0.005	0.000	-0.005	0.005	0.000	2.686	2.856	3.008	3.223	3.428	3.511	3.481
0.000	0.010	-0.005	0.000	-0.010	0.010	0.000	2.666	2.856	2.974	3.149	3.359	3.467	3.477
-0.005	0.000	0.000	0.000	-0.005	0.000	0.000	2.681	2.852	2.944	3.096	3.291	3.423	3.462
-0.010	-0.015	0.005	0.000	0.000	0.000	0.000	2.686	2.852	2.920	3.047	3.232	3.369	3.437
-0.005	-0.005	-0.005	0.000	0.000	-0.005	0.000	2.690	2.856	2.910	3.003	3.174	3.315	3.408
0.000	-0.015	-0.005	0.000	0.000	0.000	0.000	2.681	2.847	2.896	2.974	3.120	3.262	3.369
0.005	-0.005	-0.005	0.000	-0.005	-0.020	0.000	2.671	2.847	2.886	2.949	3.081	3.208	3.320
0.000	-0.010	0.000	0.000	-0.005	-0.005	0.000	2.671	2.832	2.876	2.930	3.042	3.164	3.281
0.000	-0.015	0.000	0.000	0.000	0.000	0.000	2.676	2.822	2.866	2.910	3.013	3.120	3.242
-0.005	-0.010	0.005	-0.005	0.000	-0.005	0.000	2.686	2.817	2.856	2.896	2.983	3.081	3.198
0.000	0.000	0.000	-0.005	0.000	0.005	0.000	2.676	2.808	2.847	2.881	2.959	3.047	3.159
0.005	-0.005	-0.005	0.000	0.000	-0.005	0.000	2.681	2.793	2.837	2.866	2.939	3.018	3.120
0.000	-0.010	-0.005	-0.005	-0.005	-0.005	0.000	2.681	2.783	2.822	2.856	2.920	2.988	3.086
-0.010	-0.010	0.000	-0.005	0.005	-0.005	-0.005	2.676	2.773	2.808	2.842	2.905	2.964	3.052
0.000	-0.005	-0.005	-0.005	-0.005	0.000	0.000	2.686	2.764	2.803	2.832	2.891	2.939	3.022
-0.005	-0.005	-0.005	-0.005	0.000	0.000	0.000	2.686	2.749	2.788	2.817	2.876	2.925	2.993
-0.005	-0.005	-0.005	0.000	-0.005	0.000	0.000	2.676	2.734	2.778	2.808	2.861	2.905	2.974
0.000	0.000	-0.005	0.000	-0.010	0.000	0.000	2.690	2.729	2.769	2.798	2.852	2.891	2.949
-0.010	0.005	-0.005	0.000	0.005	-0.005	0.000	2.686	2.715	2.759	2.788	2.837	2.876	2.930
0.000	-0.005	-0.005	0.000	-0.005	-0.010	0.000	2.676	2.705	2.739	2.773	2.827	2.856	2.910
0.000	0.000	0.000	0.000	0.010	-0.010	0.000	2.686	2.690	2.734	2.764	2.812	2.847	2.896
-0.005	-0.005	-0.005	0.000	0.005	-0.010	0.000	2.676	2.681	2.720	2.749	2.803	2.832	2.876
-0.005	0.000	-0.005	0.000	-0.005	-0.005	0.000	2.681	2.666	2.705	2.734	2.788	2.817	2.861
0.000	-0.005	0.000	0.000	-0.005	-0.005	0.000	2.681	2.656	2.695	2.725	2.778	2.808	2.847
0.000	0.000	0.000	0.000	-0.005	0.005	0.000	2.681	2.646	2.681	2.715	2.764	2.793	2.832
0.000	0.000	-0.005	-0.005	-0.015	-0.015	0.000	2.676	2.632	2.671	2.700	2.749	2.778	2.808
-0.005	0.000	0.005	-0.005	-0.010	0.010	0.000	2.676	2.617	2.656	2.690	2.739	2.769	2.808
0.005	-0.010	-0.005	-0.005	-0.005	0.010	0.000	2.676	2.607	2.642	2.676	2.725	2.759	2.793
0.005	-0.005	-0.005	-0.005	0.000	0.010	0.000	2.671	2.598	2.637	2.661	2.715	2.744	2.783
0.000	0.005	-0.005	-0.005	-0.005	0.015	0.000	2.686	2.588	2.627	2.651	2.705	2.729	2.764
-0.005	0.000	-0.005	-0.005	-0.005	0.005	0.000	2.681	2.578	2.612	2.642	2.690	2.720	2.754
-0.005	-0.005	0.000	-0.005	0.000	0.000	0.000	2.676	2.568	2.603	2.632	2.681	2.710	2.739
0.000	0.000	-0.005	0.000	0.000	0.000	0.000	2.686	2.559	2.593	2.617	2.666	2.695	2.729
0.000	0.010	-0.005	0.000	0.000	-0.015	0.000	2.686	2.554	2.588	2.612	2.656	2.686	2.715
-0.005	0.000	-0.005	0.000	-0.005	-0.015	0.000	2.686	2.539	2.573	2.598	2.651	2.671	2.705
-0.005	0.000	-0.005	0.000	-0.010	-0.020	0.000	2.686	2.529	2.559	2.593	2.637	2.661	2.690
0.000	-0.005	-0.010	0.000	0.010	-0.015	0.000	2.681	2.520	2.549	2.578	2.627	2.656	2.681
0.005	-0.005	-0.005	0.000	0.015	-0.024	0.000	2.681	2.515	2.544	2.568	2.617	2.646	2.666
0.000	-0.005	0.000	0.000	0.000	-0.005	0.000	2.681	2.500	2.534	2.559	2.603	2.632	2.666
0.000	-0.005	0.000	0.000	0.000	0.000	0.000	2.681	2.495	2.524	2.549	2.593	2.622	2.651
-0.010	0.000	0.000	0.000	-0.005	-0.015	0.000	2.671	2.480	2.515	2.539	2.583	2.603	2.637
0.000	-0.005	0.000	0.000	-0.005	-0.010	0.000	2.676	2.476	2.505	2.529	2.573	2.598	2.632
-0.010	0.005	-0.005	0.000	-0.005	0.000	0.000	2.686	2.471	2.495	2.520	2.563	2.588	2.617
-0.010	-0.005	0.000	-0.005	-0.010	0.000	0.000	2.671	2.456	2.485	2.510	2.554	2.573	2.607
-0.005	0.000	0.000	-0.005	0.000	0.000	0.000	2.686	2.451	2.480	2.500	2.544	2.568	2.598
-0.010	-0.010	0.000	0.000	0.000	0.005	0.000	2.671	2.441	2.466	2.490	2.534	2.559	2.588
-0.005	0.000	0.000	-0.005	0.005	0.010	0.000	2.681	2.437	2.461	2.480	2.524	2.549	2.578
0.005	0.000	0.000	-0.005	0.005	0.020	0.000	2.690	2.432	2.456	2.476	2.515	2.539	2.573
-0.005	0.005	-0.005	-0.005	0.005	0.015	0.000	2.690	2.422	2.446	2.466	2.510	2.529	2.563
0.000	0.005	-0.005	-0.005	0.005	-0.010	0.000	2.681	2.412	2.441	2.461	2.500	2.520	2.544
0.005	0.005	-0.005	0.000	-0.005	0.020	0.000	2.671	2.407	2.432	2.451	2.490	2.510	2.539
-0.005	0.005	0.000	-0.005	-0.005	-0.005	0.000	2.686	2.397	2.422	2.441	2.485	2.500	2.524
-0.005	0.005	0.000	0.000	0.000	0.024	0.000	2.690	2.388	2.412	2.437	2.480	2.495	2.520
-0.005	0.005	-0.005	0.000	-0.010	0.015	-0.005	2.681	2.383	2.407	2.427	2.466	2.485	2.510
-0.005	0.000	0.000	0.000	-0.005	0.015	0.000	2.681	2.373	2.402	2.422	2.461	2.480	2.505
-0.005	0.000	0.005	0.000	-0.005	0.005	0.000	2.681	2.363	2.393	2.412	2.451	2.471	2.490
0.000	0.000	-0.005	-0.005	-0.005	-0.005	0.000	2.676	2.354	2.378	2.402	2.441	2.461	2.476
-0.005	-0.020	0.000	-0.005	-0.010	0.000	0.000	2.686	2.349	2.368	2.393	2.432	2.451	2.471
-0.015	-0.010	0.000	-0.005	-0.010	-0.010	0.000	2.681	2.344	2.363	2.383	2.422	2.441	2.461
-0.005	-0.005	0.000	-0.005	-0.010	0.000	0.000	2.676	2.334	2.358	2.378	2.412	2.432	2.461
-0.005	-0.020	0.000	-0.005	-0.010	-0.005	0.000	2.681	2.329	2.349	2.368	2.407	2.427	2.446
-0.010	-0.020	0.000	-0.005	-0.005	-0.015	0.000	2.686	2.329	2.339	2.358	2.402	2.417	2.437
0.000	-0.010	-0.005	-0.005	0.000	0.005	0.000	2.686	2.319	2.344	2.354	2.393	2.412	2.432
0.000	-0.010	-0.005	-0.005	0.005	-0.005	0.000	2.686	2.314	2.334	2.349	2.388	2.402	2.427
-0.005	-0.005	-0.005	-0.005	0.010	0.000	0.000	2.686	2.305	2.329	2.344	2.378	2.397	2.417
0.000	0.000	0.000	-0.005	0.010	-0.005	0.000	2.676	2.300	2.324	2.339	2.373	2.393	2.407
-0.005	0.005	0.000	0.000	0.000	-0.005	0.000	2.681	2.295	2.319	2.334	2.368	2.383	2.402
-0.005	0.000	0.005	-0.005	-0.005	-0.024	0.000	2.690	2.290	2.310	2.329	2.363	2.373	2.388
-0.005	0.000	0.000	0.000	0.000	0.000	0.000	2.681	2.280	2.305	2.319	2.354	2.373	2.388
-0.010	0.000	-0.005	0.000	-0.005	-0.029	0.000	2.686	2.275	2.295	2.314	2.349	2.363	2.373
0.000	0.000	-0.005	0.000	-0.005	-0.005	0.000	2.676	2.271	2.295	2.305	2.344	2.358	2.378
0.005	0.005	-0.010	0.005	0.000	0.010	0.000	2.671	2.261	2.285	2.300	2.339	2.354	2.373
0.000	-0.005	-0.005	0.000	0.000	0.010	-0.005	2.686	2.261	2.275	2.295	2.329	2.344	2.363
-0.005	-0.010	-0.005	0.000	-0.005	0.000	0.000	2.690	2.251	2.266	2.285	2.319	2.334	2.354
0.005	-0.015	0.000	-0.005	-0.005	0.000	0.000	2.676	2.246	2.261	2.280	2.314	2.329	2.344
0.005	-0.010	0.000	0.000	-0.005	-0.015	0.000	2.676	2.241	2.256	2.275	2.310	2.319	2.339
0.000	0.005	0.000	-0.005	-0.005	-0.024	0.000	2.676	2.236	2.256	2.266	2.300	2.314	2.329
0.000	0.010	0.005	-0.005	-0.005	0.010	0.000	2.681	2.231	2.251	2.266	2.295	2.310	2.329
0.005	0.010	0.005	-0.005	-0.005	0.000	0.000	2.681	2.227	2.246	2.261	2.290	2.305	2.324
0.000	0.000	-0.005	-0.005	-0.005	-0.010	0.000	2.676	2.222	2.236	2.251	2.285	2.295	2.310
-0.005	-0.005	-0.005	0.000	0.000	-0.005	0.000	2.676	2.212	2.231	2.246	2.280	2.295	2.310
0.000	-0.005	-0.005	-0.005	0.000	0.010	0.000	2.681	2.217	2.227	2.241	2.275	2.285	2.305
-0.005	-0.010	-0.005	-0.005	0.000	0.010	0.000	2.690	2.212	2.217	2.236	2.266	2.280	2.300
0.005	0.005	-0.005	-0.005	0.000	0.000	0.000	2.676	2.207	2.222	2.231	2.261	2.275	2.290
-0.005	0.000	-0.005	0.000	-0.005	0.000	0.000	2.681	2.202	2.217	2.227	2.261	2.271	2.285
-0.005	-0.005	0.000	0.000	0.000	-0.005	-0.005	2.686	2.197	2.212	2.227	2.256	2.266	2.280
0.000	0.005	0.000	0.000	0.000	-0.024	0.000	2.686	2.192	2.207	2.217	2.251	2.261	2.266
0.005	0.000	-0.005	0.000	0.000	-0.010	0.000	2.686	2.187	2.202	2.212	2.246	2.256	2.271
-0.010	-0.005	0.000	0.000	0.005	-0.005	0.000	2.676	2.183	2.197	2.207	2.241	2.251	2.266
-0.005	-0.010	-0.005	0.000	-0.005	-0.005	0.000	2.671	2.178	2.187	2.202	2.236	2.241	2.256
-0.010	-0.005	0.000	0.000	-0.015	-0.005	0.000	2.686	2.173	2.187	2.197	2.227	2.236	2.251
-0.010	-0.005	-0.005	-0.005	-0.020	-0.010	0.000	2.686	2.168	2.183	2.187	2.222	2.227	2.241
-0.010	-0.010	-0.010	-0.005	-0.005	-0.010	0.000	2.681	2.158	2.173	2.183	2.217	2.227	2.241
-0.005	-0.010	-0.010	-0.005	0.010	-0.010	0.000	2.676	2.163	2.173	2.183	2.212	2.227	2.236
0.000	-0.010	0.000	-0.005	0.000	0.000	0.000	2.681	2.153	2.168	2.178	2.207	2.217	2.231
-0.005	-0.005	0.005	-0.005	0.000	-0.005	0.000	2.681	2.153	2.168	2.178	2.202	2.212	2.222
0.000	-0.010	-0.005	-0.005	0.000	-0.020	0.000	2.686	2.153	2.163	2.173	2.202	2.207	2.217
-0.005	0.010	0.000	-0.005	0.000	0.000	0.000	2.681	2.144	2.163	2.168	2.192	2.202	2.217
0.000	0.020	0.000	-0.005	0.000	0.000	0.000	2.681	2.144	2.158	2.168	2.192	2.202	2.212
0.005	0.010	-0.005	0.000	0.000	0.005	0.000	2.690	2.144	2.153	2.163	2.192	2.197	2.212
-0.005	0.010	0.000	0.000	0.000	-0.005	0.000	2.686	2.134	2.153	2.158	2.187	2.192	2.202
-0.005	0.005	0.000	0.000	-0.005	0.005	0.000	2.690	2.129	2.144	2.153	2.183	2.187	2.197
0.005	0.000	-0.005	0.000	-0.005	-0.005	0.000	2.681	2.134	2.139	2.148	2.183	2.187	2.197
0.000	0.000	-0.005	0.000	-0.005	-0.010	0.000	2.681	2.124	2.139	2.144	2.173	2.183	2.187
0.000	0.000	-0.005	0.000	-0.015	0.005	0.000	2.686	2.119	2.129	2.139	2.168	2.178	2.187
-0.005	0.005	-0.005	0.000	0.000	0.005	0.000	2.681	2.119	2.129	2.134	2.168	2.178	2.183
0.000	0.000	-0.005	0.000	0.000	-0.005	0.000	2.676	2.114	2.124	2.134	2.163	2.168	2.183
-0.005	-0.010	0.000	0.000	0.000	-0.005	0.000	2.671	2.104	2.114	2.129	2.158	2.168	2.178
-0.005	-0.005	0.000	0.000	0.015	-0.005	0.000	2.681	2.109	2.114	2.124	2.153	2.168	2.173
-0.005	-0.005	0.000	-0.005	0.000	-0.020	0.000	2.681	2.104	2.109	2.119	2.148	2.153	2.163
0.000	-0.005	-0.005	-0.005	0.005	0.000	0.000	2.686	2.100	2.104	2.114	2.144	2.148	2.168
0.000	-0.010	0.000	-0.005	0.000	-0.020	0.000	2.676	2.095	2.104	2.114	2.139	2.144	2.158
0.000	-0.005	0.000	-0.005	-0.005	0.000	0.000	2.676	2.090	2.100	2.109	2.139	2.144	2.158
-0.005	-0.005	-0.005	-0.005	-0.005	0.000	0.000	2.686	2.090	2.100	2.104	2.134	2.139	2.148
0.000	-0.005	-0.005	-0.005	-0.005	0.000	0.000	2.686	2.090	2.095	2.104	2.134	2.134	2.144
0.000	0.005	0.000	-0.005	-0.005	0.005	0.000	2.686	2.090	2.095	2.104	2.129	2.134	2.144
-0.010	0.005	-0.005	0.000	-0.005	-0.005	0.000	2.681	2.080	2.095	2.100	2.129	2.129	2.139
-0.005	0.010	-0.005	0.005	0.000	0.000	0.000	2.686	2.080	2.090	2.095	2.124	2.129	2.134
-0.015	0.005	0.000	0.000	-0.005	0.005	0.000	2.686	2.075	2.085	2.095	2.119	2.124	2.134
0.000	-0.010	0.000	0.000	-0.010	-0.024	0.000	2.690	2.080	2.080	2.090	2.119	2.119	2.124
-0.010	0.000	-0.005	0.000	-0.005	0.010	0.000	2.681	2.070	2.075	2.085	2.114	2.119	2.129
0.000	-0.005	-0.010	0.000	-0.010	0.000	0.000	2.681	2.070	2.075	2.080	2.109	2.114	2.124
-0.005	-0.010	0.000	0.000	-0.005	-0.020	0.000	2.671	2.065	2.070	2.075	2.104	2.109	2.114
-0.010	-0.010	0.000	0.000	-0.005	-0.005	0.000	2.676	2.061	2.065	2.075	2.100	2.109	2.114
0.000	-0.015	0.000	-0.005	-0.005	0.010	0.000	2.690	2.061	2.065	2.070	2.100	2.104	2.114
-0.010	0.000	0.000	-0.005	-0.005	-0.005	-0.005	2.681	2.056	2.065	2.070	2.095	2.100	2.109
-0.005	0.005	0.000	-0.005	-0.005	0.000	0.000	2.681	2.056	2.065	2.065	2.090	2.095	2.104
0.000	-0.010	0.000	-0.005	-0.005	0.005	0.000	2.686	2.051	2.056	2.061	2.090	2.095	2.104
0.000	0.000	-0.005	-0.005	0.000	0.000	-0.005	2.676	2.051	2.056	2.061	2.085	2.090	2.100
0.010	0.000	0.000	-0.005	0.000	-0.010	0.000	2.681	2.051	2.056	2.061	2.085	2.090	2.095
0.000	-0.010	0.000	0.000	0.000	0.005	0.000	2.690	2.046	2.051	2.061	2.085	2.085	2.095
-0.005	0.000	-0.005	-0.005	-0.005	0.005	0.000	2.681	2.041	2.051	2.056	2.080	2.080	2.090
-0.005	-0.010	0.000	0.000	0.000	0.000	0.000	2.676	2.041	2.046	2.051	2.080	2.080	2.090
0.000	-0.005	-0.005	0.000	0.000	0.005	0.000	2.681	2.036	2.046	2.046	2.075	2.080	2.085
0.000	0.000	0.000	0.000	-0.005	0.005	0.000	2.681	2.041	2.046	2.051	2.075	2.075	2.085
-0.010	0.005	0.000	0.000	-0.005	0.005	0.000	2.690	2.036	2.046	2.046	2.070	2.075	2.080
-0.005	0.005	0.000	0.000	-0.005	0.000	0.000	2.686	2.031	2.041	2.046	2.070	2.070	2.080
0.000	-0.005	-0.005	0.000	0.000	0.000	0.000	2.671	2.026	2.036	2.046	2.065	2.070	2.080
0.000	-0.010	-0.005	0.000	-0.005	-0.005	0.000	2.681	2.026	2.031	2.036	2.065	2.065	2.070
-0.005	-0.005	-0.005	0.000	-0.010	0.010	0.000	2.676	2.026	2.026	2.036	2.061	2.061	2.070
0.005	-0.005	-0.005	-0.005	-0.005	0.005	0.000	2.686	2.026	2.026	2.031	2.061	2.061	2.065
-0.005	-0.015	-0.005	0.000	-0.005	-0.024	-0.005	2.676	2.021	2.026	2.026	2.051	2.061	2.056
-0.005	-0.010	-0.010	0.000	0.000	-0.010	0.000	2.676	2.017	2.021	2.026	2.051	2.056	2.061
0.000	-0.015	-0.005	-0.005	0.000	-0.005	0.000	2.676	2.017	2.021	2.026	2.051	2.051	2.061
0.000	-0.005	0.000	-0.005	0.000	-0.020	0.000	2.676	2.017	2.021	2.026	2.046	2.046	2.056
-0.005	-0.005	-0.005	-0.005	0.000	0.005	0.000	2.676	2.012	2.017	2.021	2.046	2.046	2.061
0.010	-0.005	0.000	-0.005	0.000	0.005	0.000	2.690	2.017	2.017	2.021	2.041	2.046	2.051
-0.010	-0.005	-0.005	-0.005	-0.005	0.000	0.000	2.686	2.012	2.017	2.017	2.041	2.041	2.051
-0.010	-0.005	0.000	-0.005	0.005	-0.015	0.000	2.686	2.007	2.012	2.017	2.041	2.041	2.046
0.005	0.005	-0.005	0.000	-0.005	0.000	0.000	2.676	2.007	2.017	2.017	2.041	2.041	2.046
0.000	0.005	0.000	0.000	-0.005	0.000	0.000	2.681	2.012	2.012	2.017	2.036	2.036	2.041
0.000	-0.005	0.000	0.000	-0.005	-0.029	0.000	2.690	2.007	2.007	2.012	2.036	2.036	2.031
0.000	0.000	0.000	0.000	0.005	-0.005	0.000	2.686	2.007	2.007	2.012	2.036	2.036	2.041
-0.005	0.000	-0.005	0.000	0.000	-0.010	0.000	2.681	2.002	2.007	2.012	2.031	2.031	2.041
0.005	0.000	-0.005	0.000	0.000	-0.005	0.000	2.686	2.002	2.007	2.007	2.031	2.031	2.036
-0.005	0.000	-0.005	0.000	-0.005	0.000	0.000	2.686	1.997	2.002	2.007	2.026	2.031	2.036
-0.010	-0.005	0.000	0.000	-0.005	-0.015	0.000	2.686	1.997	1.997	2.002	2.026	2.026	2.026
-0.005	-0.005	0.000	0.000	-0.005	-0.005	0.000	2.676	1.992	1.997	2.002	2.026	2.026	2.031
-0.005	-0.010	0.000	0.000	-0.005	0.005	0.000	2.671	1.987	1.992	1.997	2.021	2.021	2.031
0.000	-0.010	0.000	-0.005	-0.005	0.005	0.000	2.676	1.992	1.992	1.997	2.021	2.021	2.026
0.005	-0.010	0.000	-0.005	-0.005	0.000	0.000	2.686	1.992	1.987	1.992	2.017	2.017	2.026
-0.005	-0.010	0.000	-0.005	0.000	-0.005	0.000	2.676	1.987	1.992	1.992	2.017	2.017	2.021
-0.005	-0.005	0.000	-0.005	0.005	0.000	0.000	2.676	1.987	1.992	1.992	2.017	2.017	2.021
0.000	0.000	0.000	-0.005	0.000	-0.005	0.000	2.686	1.987	1.992	1.992	2.017	2.012	2.017
-0.010	-0.010	-0.005	-0.005	0.005	0.010	0.000	2.690	1.982	1.987	1.987	2.012	2.012	2.021
-0.005	0.000	-0.005	-0.005	0.000	0.000	0.000	2.686	1.987	1.992	1.987	2.012	2.012	2.017
-0.005	0.000	-0.005	0.000	-0.005	-0.005	0.000	2.681	1.982	1.987	1.987	2.012	2.007	2.012
0.005	0.000	-0.010	0.000	-0.010	-0.010	0.000	2.671	1.982	1.987	1.987	2.007	2.007	2.007
-0.005	0.005	0.000	0.000	-0.005	-0.010	0.000	2.690	1.982	1.987	1.987	2.012	2.007	2.007
0.000	0.010	0.000	0.000	0.000	-0.010	0.000	2.681	1.982	1.987	1.987	2.007	2.007	2.007
-0.010	0.010	-0.005	0.000	0.000	0.010	0.000	2.676	1.978	1.982	1.987	2.007	2.007	2.012
-0.005	0.005	0.000	0.000	0.000	0.015	0.000	2.686	1.978	1.978	1.982	2.007	2.007	2.012
-0.005	-0.010	0.000	-0.005	0.000	0.010	0.000	2.686	1.978	1.973	1.978	2.002	2.002	2.002
0.000	-0.010	0.000	-0.005	0.000	0.010	0.000	2.686	1.973	1.973	1.978	2.002	2.002	2.007
-0.010	-0.005	-0.005	0.000	-0.005	-0.010	0.000	2.681	1.968	1.973	1.973	1.997	1.997	1.997
0.000	-0.015	0.000	0.000	0.000	-0.015	-0.005	2.681	1.968	1.968	1.973	1.992	1.997	1.997
0.005	-0.005	0.000	0.000	0.005	0.015	0.000	2.676	1.968	1.968	1.968	1.992	1.997	2.002
-0.005	-0.005	-0.005	-0.005	-0.005	0.005	0.000	2.686	1.968	1.968	1.968	1.992	1.992	1.997
0.000	-0.005	0.000	-0.005	-0.005	0.000	0.000	2.681	1.963	1.968	1.968	1.992	1.987	1.992
0.005	0.000	0.000	-0.005	-0.005	0.010	0.000	2.666	1.963	1.968	1.968	1.992	1.987	1.992
0.000	0.005	-0.005	0.000	-0.005	0.010	0.000	2.671	1.963	1.968	1.968	1.987	1.987	1.992
0.000	0.000	-0.005	-0.005	-0.010	0.005	0.000	2.690	1.963	1.963	1.963	1.987	1.987	1.992
-0.005	0.005	-0.005	0.000	-0.010	0.010	0.000	2.686	1.963	1.963	1.968	1.987	1.987	1.992
-0.005	-0.005	-0.005	0.000	0.000	0.005	0.000	2.681	1.963	1.963	1.968	1.987	1.987	1.987
-0.005	0.005	-0.005	0.000	0.000	0.000	0.000	2.681	1.958	1.963	1.963	1.987	1.987	1.987
-0.010	0.010	0.000	0.000	0.000	-0.010	0.000	2.690	1.963	1.963	1.963	1.987	1.982	1.982
-0.010	0.005	0.000	0.000	-0.005	-0.024	0.000	2.686	1.963	1.958	1.963	1.982	1.982	1.978
0.000	0.000	0.000	0.000	-0.005	-0.005	0.000	2.690	1.963	1.958	1.958	1.982	1.982	1.987
-0.005	-0.020	0.000	0.000	-0.005	-0.015	0.000	2.686	1.958	1.953	1.958	1.982	1.978	1.982
-0.010	-0.020	-0.005	0.000	-0.015	-0.015	0.000	2.676	1.958	1.953	1.953	1.978	1.978	1.978
0.000	-0.020	-0.005	0.000	0.000	-0.029	0.000	2.681	1.953	1.953	1.953	1.973	1.978	1.973
-0.005	-0.015	-0.005	0.000	-0.005	-0.034	0.000	2.681	1.948	1.958	1.953	1.973	1.973	1.973
0.000	-0.015	0.000	-0.005	0.000	-0.015	0.000	2.681	1.948	1.953	1.953	1.973	1.973	1.978
0.000	-0.015	-0.005	-0.005	0.005	-0.029	0.000	2.671	1.948	1.948	1.953	1.973	1.973	1.978
0.005	-0.015	0.000	0.000	-0.005	0.000	0.000	2.681	1.948	1.948	1.948	1.973	1.968	1.978
0.005	0.000	-0.005	-0.005	0.005	-0.010	0.000	2.686	1.953	1.958	1.948	1.973	1.973	1.973
0.000	0.015	0.000	-0.005	0.015	0.000	0.000	2.686	1.948	1.953	1.953	1.973	1.973	1.978
0.000	0.005	0.000	-0.005	0.005	0.000	0.000	2.681	1.948	1.948	1.953	1.973	1.968	1.973
0.000	0.020	0.000	-0.005	0.000	0.005	0.000	2.671	1.948	1.958	1.953	1.973	1.968	1.973
0.005	0.010	-0.005	0.000	-0.005	0.005	0.000	2.681	1.948	1.948	1.948	1.973	1.968	1.968
0.000	0.005	-0.005	0.000	0.005	0.005	0.000	2.676	1.943	1.948	1.948	1.973	1.973	1.968
-0.005	0.010	-0.010	0.000	-0.005	0.015	0.000	2.690	1.943	1.948	1.948	1.968	1.968	1.973
-0.005	0.005	-0.005	0.000	-0.010	0.015	0.000	2.681	1.943	1.943	1.943	1.968	1.963	1.968
-0.010	0.000	-0.005	0.000	-0.005	0.000	0.000	2.671	1.938	1.943	1.943	1.968	1.963	1.963
-0.010	0.005	-0.005	0.000	0.005	-0.010	0.000	2.686	1.943	1.943	1.943	1.968	1.968	1.963
-0.005	0.005	0.000	-0.005	-0.005	0.005	0.000	2.686	1.943	1.943	1.943	1.963	1.963	1.963
-0.005	0.000	-0.005	-0.005	-0.005	-0.010	0.000	2.681	1.938	1.938	1.938	1.963	1.963	1.958
-0.005	-0.005	0.000	-0.005	-0.010	-0.005	0.000	2.686	1.938	1.938	1.938	1.963	1.958	1.963
0.000	-0.005	-0.005	0.000	-0.005	-0.029	0.000	2.676	1.938	1.938	1.934	1.958	1.958	1.953
-0.005	-0.005	0.000	0.000	-0.010	-0.005	0.000	2.676	1.934	1.938	1.938	1.958	1.953	1.958
-0.005	-0.005	0.005	-0.005	-0.010	0.015	0.000	2.686	1.938	1.934	1.934	1.958	1.958	1.963
0.000	-0.010	0.000	-0.005	-0.010	0.015	0.000	2.681	1.934	1.934	1.934	1.953	1.953	1.958
0.005	-0.005	0.000	-0.005	-0.005	0.005	0.000	2.671	1.934	1.934	1.934	1.953	1.953	1.958
-0.010	0.005	0.000	-0.005	-0.010	0.015	0.000	2.681	1.934	1.938	1.934	1.953	1.953	1.958
-0.005	0.000	0.000	-0.005	0.000	-0.015	0.000	2.681	1.934	1.934	1.934	1.953	1.953	1.948
0.000	0.010	-0.005	-0.005	-0.005	0.005	-0.005	2.681	1.934	1.938	1.934	1.953	1.953	1.958
-0.005	0.000	-0.005	0.000	0.000	0.005	0.000	2.681	1.934	1.934	1.934	1.953	1.953	1.953
0.005	-0.015	-0.005	0.000	0.000	-0.005	0.000	2.676	1.934	1.929	1.934	1.953	1.953	1.948
-0.010	-0.015	-0.005	0.000	-0.005	0.005	0.000	2.681	1.934	1.934	1.934	1.953	1.948	1.953
0.000	-0.010	-0.005	0.000	-0.005	-0.010	0.000	2.681	1.934	1.934	1.934	1.948	1.948	1.953
0.005	-0.010	0.000	0.000	-0.010	0.005	0.000	2.686	1.934	1.934	1.934	1.948	1.948	1.948
-0.005	0.000	0.000	0.000	-0.005	0.000	0.000	2.686	1.929	1.934	1.934	1.948	1.948	1.953
-0.010	-0.005	-0.005	0.000	0.000	0.000	0.000	2.671	1.929	1.929	1.934	1.948	1.948	1.948
0.005	-0.005	-0.005	0.000	0.000	0.010	0.000	2.676	1.929	1.929	1.929	1.948	1.948	1.953
0.000	-0.005	0.000	0.000	-0.005	0.010	0.000	2.681	1.924	1.924	1.929	1.948	1.948	1.948
-0.005	-0.005	0.005	-0.005	0.000	0.000	0.000	2.671	1.924	1.924	1.924	1.948	1.943	1.943
0.000	0.005	0.000	-0.005	-0.005	-0.020	0.000	2.686	1.924	1.929	1.929	1.948	1.943	1.938
0.000	0.000	-0.005	-0.005	0.000	0.005	0.000	2.676	1.924	1.924	1.924	1.943	1.943	1.948
-0.005	-0.005	0.000	-0.005	-0.005	0.005	0.000	2.676	1.924	1.924	1.924	1.943	1.943	1.948
0.005	0.005	-0.005	-0.005	-0.005	0.000	0.000	2.676	1.924	1.924	1.924	1.943	1.938	1.943
0.000	0.000	0.000	-0.005	0.000	-0.005	0.000	2.681	1.924	1.924	1.924	1.943	1.943	1.938
-0.005	0.010	0.000	-0.005	0.005	-0.005	0.000	2.686	1.924	1.924	1.929	1.943	1.943	1.943
0.000	0.020	-0.005	-0.005	0.005	-0.010	0.000	2.681	1.924	1.929	1.924	1.943	1.943	1.938
-0.005	0.010	-0.005	0.000	0.000	-0.005	0.000	2.681	1.919	1.924	1.924	1.943	1.943	1.943
0.005	0.020	0.000	0.000	0.010	-0.020	0.000	2.681	1.929	1.929	1.924	1.943	1.943	1.934
0.000	0.005	0.000	0.000	0.010	-0.010	0.000	2.690	1.924	1.919	1.924	1.943	1.943	1.943
-0.005	0.015	-0.010	0.000	0.015	-0.010	0.000	2.686	1.924	1.919	1.919	1.943	1.943	1.943
-0.010	0.010	-0.005	0.000	0.010	-0.024	0.000	2.676	1.919	1.924	1.924	1.943	1.938	1.938
0.005	0.000	0.000	0.000	0.015	-0.029	0.000	2.681	1.919	1.919	1.919	1.943	1.938	1.938
-0.005	-0.005	0.000	0.000	0.024	-0.039	0.000	2.690	1.919	1.914	1.919	1.938	1.938	1.934
-0.005	-0.005	0.000	0.000	0.024	-0.010	0.000	2.686	1.914	1.914	1.919	1.938	1.938	1.943
0.000	-0.005	0.000	0.000	0.034	-0.010	0.000	2.676	1.919	1.914	1.914	1.934	1.938	1.943
0.000	-0.020	0.000	-0.005	0.015	-0.005	0.000	2.671	1.914	1.914	1.914	1.934	1.934	1.938
0.000	-0.015	0.000	-0.005	0.010	-0.020	0.000	2.676	1.919	1.914	1.909	1.934	1.929	1.934
-0.010	-0.015	0.000	-0.005	0.000	0.000	-0.005	2.681	1.914	1.909	1.909	1.934	1.929	1.938
-0.015	-0.005	0.000	-0.005	-0.005	0.005	0.000	2.681	1.914	1.914	1.909	1.934	1.924	1.934
-0.010	-0.005	0.000	-0.005	-0.005	0.005	0.000	2.681	1.914	1.914	1.909	1.934	1.924	1.934
0.000	0.000	0.000	0.000	-0.010	0.000	0.000	2.686	1.919	1.919	1.914	1.934	1.924	1.929
-0.005	-0.005	-0.010	-0.005	-0.015	0.000	0.000	2.681	1.914	1.914	1.909	1.934	1.924	1.929
-0.005	0.005	0.000	-0.005	-0.020	0.010	0.000	2.690	1.919	1.914	1.914	1.934	1.924	1.929
-0.010	0.000	-0.005	0.000	-0.020	0.000	0.000	2.681	1.914	1.914	1.914	1.934	1.924	1.929
-0.010	-0.005	-0.005	0.005	-0.024	-0.010	0.000	2.671	1.914	1.914	1.914	1.934	1.924	1.919
-0.005	0.010	-0.005	0.000	-0.020	0.000	0.000	2.681	1.914	1.914	1.914	1.934	1.929	1.929
-0.010	0.000	0.000	0.000	-0.024	0.020	0.000	2.681	1.909	1.914	1.914	1.934	1.929	1.934
-0.005	-0.005	-0.005	0.000	-0.020	0.015	0.000	2.676	1.914	1.909	1.914	1.934	1.929	1.929
0.000	-0.005	0.000	0.000	-0.015	0.010	0.000	2.676	1.914	1.909	1.914	1.934	1.929	1.929
0.000	-0.005	0.000	0.000	-0.015	0.010	0.000	2.671	1.909	1.909	1.909	1.929	1.929	1.929
0.000	0.000	-0.005	0.000	-0.020	0.005	0.000	2.676	1.909	1.909	1.909	1.929	1.924	1.929
-0.005	0.000	0.000	-0.005	-0.020	0.005	0.000	2.681	1.909	1.909	1.909	1.929	1.924	1.924
-0.005	0.000	0.000	-0.005	-0.010	-0.005	0.000	2.686	1.909	1.904	1.909	1.929	1.929	1.924
0.000	-0.005	0.000	-0.005	-0.010	0.005	0.000	2.676	1.909	1.904	1.904	1.924	1.924	1.924
0.005	-0.015	0.005	-0.005	-0.010	-0.015	0.000	2.676	1.909	1.904	1.904	1.924	1.924	1.924
0.000	-0.015	0.000	-0.005	-0.005	-0.010	0.000	2.681	1.904	1.904	1.904	1.924	1.924	1.919
0.000	-0.010	-0.005	-0.005	-0.005	0.005	0.000	2.686	1.909	1.904	1.904	1.924	1.924	1.924
0.000	0.010	0.000	-0.005	-0.005	-0.020	0.000	2.681	1.909	1.909	1.909	1.924	1.924	1.924
0.005	0.000	-0.005	0.000	-0.005	-0.010	0.000	2.676	1.909	1.909	1.904	1.924	1.924	1.924
-0.005	-0.005	-0.005	-0.005	-0.005	0.005	0.000	2.686	1.904	1.904	1.904	1.924	1.924	1.929
-0.005	-0.005	-0.005	0.000	0.000	0.005	0.000	2.686	1.909	1.909	1.904	1.924	1.924	1.924
0.000	-0.020	0.000	0.000	-0.005	0.000	0.000	2.686	1.909	1.904	1.904	1.924	1.924	1.924
-0.005	-0.024	-0.005	-0.005	0.000	-0.015	0.000	2.681	1.909	1.899	1.904	1.924	1.924	1.919
-0.005	-0.015	0.000	0.000	0.005	0.010	0.000	2.681	1.904	1.904	1.904	1.924	1.924	1.924
0.000	-0.010	0.000	0.000	0.000	0.005	0.000	2.681	1.909	1.909	1.904	1.924	1.924	1.924
-0.005	-0.010	0.000	0.000	0.000	0.005	0.000	2.681	1.909	1.909	1.904	1.924	1.919	1.919
0.000	-0.015	-0.005	0.000	0.005	-0.005	0.000	2.686	1.909	1.904	1.904	1.924	1.919	1.919
-0.005	-0.015	0.000	-0.005	0.010	0.000	0.000	2.676	1.904	1.904	1.904	1.919	1.919	1.919
-0.005	-0.015	0.000	0.000	0.000	0.000	0.000	2.671	1.904	1.904	1.904	1.919	1.919	1.919
-0.005	-0.010	-0.005	-0.005	0.000	-0.005	0.000	2.686	1.904	1.904	1.899	1.919	1.914	1.919
-0.010	-0.010	0.000	-0.005	0.000	-0.010	0.000	2.690	1.904	1.904	1.899	1.919	1.919	1.914
-0.005	0.015	-0.005	-0.005	0.005	-0.010	0.000	2.671	1.904	1.909	1.904	1.924	1.914	1.909
0.005	0.000	0.000	-0.005	0.000	-0.010	0.000	2.676	1.904	1.904	1.904	1.919	1.914	1.914
0.000	0.000	0.000	-0.005	0.000	0.000	0.000	2.681	1.899	1.904	1.904	1.924	1.914	1.919
0.005	0.005	-0.005	0.000	-0.005	-0.005	0.000	2.686	1.904	1.904	1.904	1.919	1.914	1.919
0.000	0.010	-0.005	0.000	0.000	0.005	0.000	2.681	1.904	1.904	1.904	1.924	1.919	1.919
-0.005	0.000	-0.005	0.000	0.000	-0.005	0.000	2.690	1.899	1.899	1.899	1.919	1.919	1.914
-0.005	0.005	-0.005	0.000	0.000	0.005	0.000	2.686	1.904	1.904	1.899	1.919	1.919	1.919
-0.005	0.000	-0.010	0.000	0.000	0.010	0.000	2.681	1.904	1.899	1.899	1.924	1.919	1.919
0.000	0.000	-0.005	0.000	0.000	0.005	0.000	2.695	1.909	1.899	1.899	1.919	1.914	1.919
0.000	-0.005	0.000	0.000	0.005	-0.005	0.000	2.681	1.904	1.899	1.904	1.919	1.919	1.914
-0.005	0.000	0.000	0.000	0.000	-0.005	0.000	2.681	1.899	1.899	1.899	1.919	1.919	1.919
0.005	-0.005	0.005	0.000	0.000	-0.020	0.000	2.681	1.904	1.899	1.899	1.919	1.914	1.914
0.000	-0.005	0.000	0.000	-0.005	-0.010	0.000	2.686	1.904	1.895	1.899	1.919	1.914	1.914
-0.005	-0.010	0.000	-0.005	0.000	-0.024	0.000	2.681	1.899	1.895	1.895	1.919	1.914	1.909
-0.005	-0.010	0.000	-0.005	0.000	0.000	0.000	2.671	1.895	1.895	1.895	1.914	1.914	1.919
-0.005	-0.010	-0.005	0.000	-0.015	-0.024	0.000	2.676	1.899	1.895	1.895	1.914	1.909	1.909
-0.010	-0.010	-0.005	-0.005	-0.005	0.010	0.000	2.686	1.899	1.895	1.890	1.914	1.914	1.919
-0.005	-0.015	0.000	-0.005	-0.010	-0.005	0.000	2.676	1.899	1.895	1.895	1.914	1.909	1.914
0.000	-0.015	-0.005	-0.005	-0.005	0.005	0.000	2.686	1.899	1.895	1.895	1.914	1.909	1.914
0.000	0.000	0.000	-0.005	-0.005	0.005	0.000	2.671	1.899	1.904	1.899	1.914	1.909	1.914
0.000	-0.010	0.000	-0.005	-0.005	0.000	0.000	2.686	1.899	1.899	1.899	1.914	1.909	1.914
-0.015	0.010	0.000	-0.005	-0.005	0.010	0.000	2.695	1.904	1.904	1.899	1.919	1.909	1.914
-0.010	0.005	-0.005	0.000	0.000	-0.015	-0.005	2.690	1.899	1.899	1.899	1.914	1.909	1.904
-0.005	0.020	-0.005	0.000	0.000	0.000	0.000	2.681	1.904	1.904	1.899	1.919	1.914	1.914
0.005	0.029	-0.005	0.000	-0.005	0.000	0.000	2.686	1.904	1.909	1.899	1.919	1.914	1.909
0.000	0.020	0.000	0.000	0.000	-0.005	0.000	2.681	1.904	1.904	1.899	1.919	1.914	1.909
0.000	0.015	-0.005	0.000	0.000	-0.005	-0.005	2.681	1.895	1.899	1.899	1.919	1.914	1.909
-0.010	0.005	-0.005	0.000	0.000	-0.005	0.000	2.681	1.895	1.895	1.895	1.919	1.914	1.909
-0.005	0.000	-0.010	0.000	0.000	-0.015	0.000	2.676	1.895	1.895	1.895	1.914	1.914	1.909
-0.005	0.005	-0.005	0.000	0.000	-0.010	0.000	2.681	1.895	1.895	1.895	1.914	1.909	1.909
-0.005	0.005	-0.005	0.000	-0.005	-0.024	0.000	2.681	1.895	1.895	1.895	1.914	1.909	1.904
-0.005	0.000	0.000	-0.005	-0.005	-0.020	0.000	2.671	1.895	1.895	1.895	1.914	1.909	1.904
-0.005	0.000	0.000	0.000	-0.005	-0.020	0.000	2.676	1.895	1.890	1.890	1.914	1.909	1.909
-0.010	-0.005	-0.005	-0.005	0.000	-0.010	0.000	2.676	1.895	1.890	1.890	1.909	1.909	1.914
0.000	0.005	0.000	-0.005	0.005	0.000	0.000	2.671	1.895	1.895	1.895	1.909	1.909	1.914
0.000	-0.005	-0.005	-0.005	0.000	-0.005	0.000	2.681	1.895	1.890	1.890	1.909	1.909	1.909
-0.005	0.005	-0.005	-0.005	0.000	0.005	0.000	2.681	1.899	1.895	1.890	1.909	1.909	1.909
0.000	0.000	-0.005	0.000	0.005	0.005	0.000	2.681	1.899	1.895	1.890	1.909	1.909	1.909
0.000	-0.020	-0.005	0.000	-0.005	-0.005	0.000	2.671	1.895	1.890	1.890	1.909	1.904	1.909
0.005	-0.005	-0.005	0.000	-0.005	0.015	0.000	2.690	1.899	1.899	1.890	1.909	1.904	1.909
-0.010	-0.005	-0.005	0.000	0.000	-0.015	0.000	2.686	1.899	1.895	1.895	1.909	1.909	1.899
-0.015	0.010	-0.005	0.000	0.005	0.015	0.000	2.690	1.895	1.899	1.895	1.914	1.909	1.914
-0.010	0.010	-0.005	0.000	-0.005	0.015	0.000	2.686	1.895	1.899	1.895	1.914	1.904	1.909
0.005	0.010	0.000	0.000	0.005	-0.005	0.000	2.676	1.899	1.899	1.895	1.909	1.909	1.909
0.005	0.000	0.000	0.000	0.005	0.000	0.000	2.676	1.899	1.895	1.895	1.909	1.909	1.909
-0.010	-0.010	-0.005	0.000	0.000	0.010	0.000	2.686	1.895	1.890	1.895	1.909	1.904	1.909
-0.005	-0.005	0.000	-0.005	-0.005	0.000	0.000	2.686	1.895	1.895	1.890	1.909	1.904	1.904
-0.005	-0.010	0.000	0.000	-0.005	0.000	0.000	2.676	1.890	1.890	1.890	1.909	1.904	1.904
0.005	-0.015	0.000	-0.005	0.000	0.000	0.000	2.681	1.895	1.890	1.890	1.909	1.904	1.904
0.000	-0.020	0.000	-0.005	-0.010	0.000	0.000	2.676	1.895	1.885	1.890	1.909	1.899	1.899
0.000	-0.010	0.000	-0.005	-0.020	0.005	-0.005	2.686	1.895	1.890	1.890	1.909	1.899	1.904
-0.005	0.000	0.000	-0.005	-0.015	0.000	0.000	2.681	1.890	1.895	1.890	1.909	1.899	1.904
-0.005	0.000	0.000	-0.005	-0.010	-0.020	0.000	2.676	1.890	1.895	1.890	1.909	1.904	1.899
0.000	0.000	-0.005	-0.005	-0.005	-0.005	0.000	2.681	1.895	1.895	1.890	1.909	1.909	1.904
-0.005	0.000	0.000	-0.005	0.000	-0.005	0.000	2.686	1.895	1.890	1.890	1.909	1.904	1.904
0.005	0.000	-0.005	-0.005	0.000	-0.020	0.000	2.681	1.895	1.890	1.890	1.909	1.909	1.899
0.005	-0.005	-0.005	0.000	0.005	0.005	0.000	2.681	1.895	1.895	1.890	1.909	1.909	1.909
0.000	-0.005	0.000	0.000	-0.005	0.000	0.000	2.686	1.895	1.895	1.890	1.909	1.904	1.909
-0.005	-0.005	-0.005	0.000	-0.005	-0.005	0.000	2.690	1.895	1.890	1.890	1.909	1.904	1.904
-0.005	-0.005	-0.005	0.000	0.000	0.005	0.000	2.686	1.895	1.890	1.890	1.909	1.904	1.904
-0.005	-0.005	-0.005	0.000	-0.010	0.000	0.000	2.681	1.895	1.890	1.890	1.909	1.904	1.904
0.000	-0.010	-0.005	0.000	-0.005	0.000	0.000	2.676	1.895	1.890	1.890	1.904	1.904	1.904
-0.005	-0.005	0.000	-0.005	0.000	0.000	0.000	2.676	1.890	1.895	1.890	1.909	1.904	1.904
-0.005	0.000	-0.005	-0.005	0.005	0.000	0.000	2.686	1.895	1.890	1.890	1.909	1.904	1.904
-0.010	-0.029	-0.005	-0.005	0.005	0.000	0.000	2.676	1.885	1.880	1.885	1.909	1.904	1.909
-0.005	-0.020	-0.005	-0.005	0.000	-0.005	0.000	2.676	1.890	1.885	1.885	1.904	1.904	1.899
-0.005	-0.020	0.000	0.000	-0.005	-0.029	0.000	2.681	1.890	1.890	1.885	1.904	1.899	1.895
0.000	-0.005	-0.005	-0.005	-0.005	0.000	0.000	2.676	1.890	1.890	1.885	1.904	1.899	1.899
-0.010	-0.010	-0.005	-0.005	0.005	0.005	0.000	2.681	1.890	1.885	1.885	1.904	1.904	1.904
-0.010	-0.010	-0.005	-0.005	0.000	-0.005	0.000	2.681	1.890	1.885	1.890	1.904	1.904	1.899
0.000	0.000	-0.005	0.000	0.000	-0.010	0.000	2.681	1.895	1.895	1.885	1.904	1.899	1.899
0.000	-0.005	0.000	-0.005	-0.005	0.005	0.000	2.681	1.895	1.890	1.890	1.904	1.904	1.904
0.000	-0.005	-0.005	0.000	0.000	0.000	0.000	2.690	1.895	1.895	1.890	1.909	1.904	1.904
-0.005	0.015	0.000	0.000	0.000	-0.020	0.000	2.690	1.895	1.895	1.895	1.909	1.899	1.895
-0.005	0.000	-0.010	0.000	-0.005	0.005	0.000	2.671	1.895	1.895	1.890	1.909	1.899	1.904
0.000	0.000	-0.005	0.005	-0.010	-0.024	0.000	2.676	1.890	1.895	1.890	1.909	1.899	1.895
-0.005	0.005	0.000	0.000	-0.010	-0.015	0.000	2.686	1.890	1.895	1.890	1.909	1.899	1.899
-0.005	0.015	0.000	0.000	0.000	0.010	-0.005	2.686	1.895	1.890	1.890	1.909	1.904	1.904
-0.005	0.015	-0.005	-0.005	0.005	-0.005	0.000	2.681	1.890	1.890	1.890	1.909	1.904	1.904
0.000	-0.015	-0.005	0.000	0.000	-0.010	0.000	2.671	1.885	1.885	1.890	1.909	1.904	1.899
0.000	-0.020	-0.005	-0.005	0.000	-0.005	0.000	2.671	1.890	1.880	1.885	1.904	1.904	1.904
-0.005	-0.010	-0.005	-0.005	0.005	0.005	0.000	2.671	1.885	1.885	1.880	1.904	1.904	1.904
0.000	-0.005	-0.005	-0.005	0.000	0.005	0.000	2.686	1.885	1.885	1.885	1.904	1.899	1.904
-0.005	-0.010	-0.005	-0.005	0.000	0.000	0.000	2.671	1.890	1.885	1.885	1.904	1.899	1.899
-0.005	-0.015	0.000	-0.005	0.000	-0.010	0.000	2.686	1.890	1.885	1.880	1.904	1.899	1.899
0.000	-0.010	0.000	-0.005	-0.005	0.010	0.000	2.681	1.890	1.885	1.885	1.904	1.899	1.899
-0.005	0.005	-0.005	-0.005	-0.005	0.000	0.000	2.690	1.890	1.890	1.885	1.904	1.899	1.899
-0.005	0.000	-0.005	-0.005	-0.005	0.000	0.000	2.681	1.890	1.890	1.885	1.904	1.899	1.899
-0.005	0.020	-0.005	0.000	-0.005	-0.010	0.000	2.676	1.890	1.895	1.890	1.904	1.899	1.899
0.000	0.015	-0.005	0.000	-0.005	-0.005	0.000	2.686	1.895	1.895	1.890	1.904	1.899	1.899
-0.015	0.020	0.000	0.000	-0.005	0.005	0.000	2.676	1.890	1.895	1.890	1.909	1.899	1.899
-0.005	0.005	0.000	0.000	-0.005	0.000	0.000	2.686	1.890	1.885	1.890	1.909	1.904	1.899
-0.005	-0.010	0.005	0.000	0.000	0.000	0.000	2.681	1.890	1.885	1.890	1.909	1.904	1.904
0.000	-0.010	-0.005	0.000	-0.005	-0.020	0.000	2.676	1.890	1.885	1.885	1.904	1.904	1.895
0.000	-0.010	0.000	0.000	-0.005	0.005	0.000	2.681	1.890	1.885	1.885	1.904	1.904	1.899
-0.005	-0.005	0.000	-0.005	0.000	0.005	0.000	2.686	1.890	1.885	1.885	1.904	1.899	1.904
0.000	-0.010	0.000	-0.005	-0.010	-0.005	0.000	2.681	1.890	1.885	1.885	1.904	1.899	1.899
-0.005	-0.005	-0.005	-0.005	0.000	-0.005	0.000	2.676	1.885	1.885	1.885	1.904	1.899	1.899
0.000	-0.015	0.000	-0.005	-0.005	-0.015	0.000	2.676	1.890	1.885	1.885	1.899	1.899	1.895
0.005	-0.005	-0.005	0.000	0.000	0.010	0.000	2.681	1.885	1.885	1.885	1.904	1.899	1.904
0.000	-0.015	0.000	-0.005	0.000	0.010	0.000	2.671	1.885	1.885	1.880	1.904	1.899	1.899
-0.010	-0.010	0.000	-0.005	-0.005	0.005	0.000	2.690	1.885	1.885	1.880	1.904	1.899	1.899
0.000	0.005	-0.005	-0.005	-0.010	0.000	0.000	2.681	1.890	1.890	1.885	1.899	1.895	1.899
0.000	0.005	-0.005	0.000	-0.005	0.000	0.000	2.681	1.890	1.890	1.885	1.904	1.899	1.895
0.000	0.010	0.000	0.000	-0.005	0.005	0.000	2.686	1.890	1.890	1.890	1.904	1.899	1.899
0.000	0.005	0.000	-0.005	-0.005	0.000	0.000	2.690	1.890	1.885	1.890	1.904	1.899	1.899
-0.005	0.010	0.000	0.000	0.000	0.010	0.000	2.681	1.890	1.895	1.890	1.909	1.904	1.899
-0.005	0.010	-0.005	0.000	0.000	0.005	0.000	2.681	1.895	1.890	1.890	1.909	1.904	1.899
0.000	0.034	-0.005	0.000	0.015	-0.020	0.000	2.690	1.890	1.899	1.890	1.909	1.909	1.895
-0.005	0.024	0.000	0.000	0.024	-0.010	0.000	2.681	1.890	1.890	1.890	1.909	1.909	1.904
0.000	0.020	-0.005	0.000	0.024	-0.015	0.000	2.686	1.890	1.890	1.890	1.909	1.904	1.899
-0.005	0.010	-0.005	-0.005	0.015	-0.029	0.000	2.686	1.890	1.885	1.885	1.904	1.899	1.890
0.000	0.015	0.000	0.000	0.015	-0.029	0.000	2.676	1.885	1.885	1.885	1.904	1.899	1.899
0.000	-0.015	0.000	0.000	0.005	-0.059	0.000	2.676	1.885	1.880	1.880	1.904	1.899	1.890
0.000	-0.005	-0.005	0.000	-0.010	-0.054	0.000	2.681	1.885	1.880	1.880	1.904	1.895	1.890
-0.010	-0.005	-0.005	-0.005	-0.020	-0.029	0.000	2.681	1.880	1.880	1.880	1.899	1.895	1.895
0.005	0.000	-0.005	-0.005	-0.024	-0.010	0.000	2.681	1.890	1.885	1.880	1.899	1.890	1.899
0.000	-0.005	-0.005	-0.005	-0.015	0.005	0.000	2.671	1.885	1.880	1.880	1.899	1.895	1.904
0.000	-0.005	0.000	0.000	-0.005	0.015	0.000	2.676	1.885	1.885	1.880	1.899	1.899	1.904
0.000	-0.005	0.005	-0.005	-0.005	0.020	0.000	2.676	1.890	1.885	1.880	1.899	1.899	1.904
-0.005	0.005	-0.005	-0.005	-0.010	0.015	0.000	2.690	1.890	1.890	1.885	1.899	1.899	1.899
-0.005	-0.005	0.005	0.000	-0.010	0.015	0.000	2.681	1.890	1.885	1.885	1.904	1.899	1.899
-0.005	-0.005	0.000	0.000	-0.005	0.000	0.000	2.681	1.890	1.890	1.885	1.904	1.899	1.895
-0.005	-0.005	0.000	0.000	-0.015	0.005	-0.005	2.676	1.890	1.890	1.885	1.904	1.895	1.890
0.000	-0.005	0.000	0.000	-0.005	0.005	0.000	2.690	1.890	1.885	1.885	1.904	1.899	1.899
-0.010	-0.005	-0.005	0.000	0.005	0.010	0.000	2.686	1.890	1.885	1.885	1.904	1.899	1.899
-0.005	0.000	-0.005	0.005	0.000	0.000	0.000	2.676	1.890	1.890	1.885	1.904	1.899	1.899
0.000	-0.005	-0.005	0.000	0.000	0.005	0.000	2.681	1.890	1.885	1.885	1.904	1.899	1.899
-0.005	-0.010	-0.005	0.000	0.000	0.005	0.000	2.676	1.890	1.880	1.880	1.899	1.899	1.895
0.000	-0.010	-0.005	-0.005	0.005	0.005	0.000	2.690	1.890	1.885	1.885	1.904	1.899	1.895
-0.005	-0.010	-0.005	-0.005	-0.005	0.000	0.000	2.681	1.885	1.885	1.885	1.899	1.895	1.899
-0.010	-0.005	-0.005	-0.005	-0.015	-0.010	0.000	2.676	1.885	1.885	1.880	1.899	1.890	1.890
-0.010	-0.010	-0.005	-0.005	-0.005	0.000	0.000	2.690	1.885	1.880	1.880	1.899	1.895	1.895
-0.005	-0.010	0.000	-0.005	-0.005	0.005	-0.005	2.681	1.890	1.880	1.885	1.899	1.895	1.895
-0.005	-0.005	-0.005	-0.005	0.000	-0.005	-0.005	2.671	1.885	1.880	1.880	1.899	1.895	1.895
0.005	0.000	0.000	-0.005	-0.005	0.005	0.000	2.676	1.890	1.885	1.885	1.899	1.895	1.895
0.005	-0.010	0.000	0.000	0.005	-0.005	0.000	2.676	1.890	1.885	1.885	1.904	1.899	1.895
-0.005	0.000	0.000	-0.005	0.005	0.010	0.000	2.676	1.885	1.885	1.880	1.904	1.899	1.899
0.000	-0.005	-0.005	0.000	0.000	0.005	0.000	2.690	1.890	1.885	1.885	1.904	1.899	1.899
-0.005	-0.020	0.000	0.000	-0.005	0.005	0.000	2.686	1.885	1.880	1.885	1.904	1.895	1.899
-0.005	-0.015	-0.005	0.000	-0.005	0.000	0.000	2.671	1.890	1.885	1.885	1.899	1.899	1.899
0.000	-0.015	0.000	0.000	-0.005	0.000	0.000	2.686	1.890	1.885	1.885	1.904	1.895	1.895
-0.005	-0.005	0.000	-0.005	0.000	0.005	0.000	2.686	1.890	1.885	1.885	1.904	1.899	1.895
-0.005	-0.005	0.000	0.000	-0.005	-0.005	0.000	2.681	1.890	1.885	1.885	1.904	1.899	1.895
-0.010	0.015	0.000	0.000	-0.005	0.005	0.000	2.686	1.890	1.895	1.885	1.904	1.895	1.899
0.005	0.000	0.000	0.000	-0.005	-0.010	0.000	2.676	1.890	1.890	1.885	1.899	1.895	1.890
-0.005	0.015	-0.005	0.000	-0.005	0.000	0.000	2.681	1.890	1.890	1.885	1.904	1.899	1.899
-0.005	0.005	0.000	-0.005	-0.005	-0.005	0.000	2.676	1.885	1.885	1.885	1.904	1.899	1.895
0.000	0.000	0.000	0.000	0.000	-0.005	0.000	2.671	1.885	1.880	1.885	1.904	1.899	1.899
-0.005	-0.005	-0.005	-0.005	0.000	-0.029	0.000	2.676	1.885	1.880	1.880	1.899	1.895	1.890
0.005	0.005	-0.005	-0.005	0.000	-0.005	0.000	2.671	1.885	1.885	1.885	1.899	1.895	1.895
0.005	0.005	-0.005	-0.005	-0.005	-0.005	0.000	2.681	1.885	1.885	1.885	1.899	1.895	1.899
-0.005	-0.005	0.000	-0.005	-0.005	-0.005	0.000	2.681	1.880	1.880	1.880	1.899	1.895	1.895
-0.005	0.010	-0.005	-0.005	-0.010	-0.005	0.000	2.686	1.885	1.885	1.880	1.899	1.895	1.895
-0.005	0.005	-0.005	-0.005	0.000	-0.005	0.000	2.690	1.885	1.885	1.880	1.899	1.899	1.895
-0.005	0.000	-0.005	0.000	0.000	-0.005	0.000	2.686	1.885	1.885	1.885	1.899	1.899	1.899
-0.005	-0.005	-0.005	0.000	0.000	-0.020	0.000	2.681	1.885	1.880	1.880	1.899	1.899	1.895
0.000	0.000	-0.005	0.000	0.000	0.000	0.000	2.686	1.890	1.885	1.880	1.899	1.899	1.899
0.000	-0.015	-0.005	0.000	0.005	0.000	0.000	2.690	1.890	1.880	1.880	1.899	1.899	1.899
-0.005	0.000	-0.005	0.000	0.000	-0.010	0.000	2.686	1.890	1.885	1.885	1.899	1.895	1.895
0.005	-0.005	0.000	0.000	0.000	-0.010	0.000	2.681	1.885	1.885	1.885	1.899	1.895	1.895
-0.010	-0.005	-0.005	0.000	-0.005	0.000	0.000	2.671	1.885	1.885	1.880	1.899	1.895	1.895
0.000	-0.015	0.000	0.000	-0.005	-0.005	0.000	2.686	1.890	1.880	1.880	1.899	1.895	1.895
-0.005	-0.010	0.000	-0.005	0.000	-0.005	0.000	2.686	1.885	1.885	1.880	1.899	1.895	1.895
-0.005	-0.010	0.000	-0.005	-0.005	-0.005	0.000	2.681	1.885	1.885	1.880	1.899	1.895	1.895
0.005	-0.005	-0.005	-0.005	-0.005	0.010	0.000	2.681	1.885	1.885	1.880	1.899	1.895	1.899
-0.005	0.000	-0.005	-0.005	0.000	0.005	0.000	2.686	1.885	1.885	1.880	1.899	1.895	1.895
-0.010	0.005	-0.005	-0.005	0.000	0.000	0.000	2.671	1.885	1.885	1.885	1.899	1.895	1.895
0.000	0.000	-0.005	-0.005	-0.010	0.000	0.000	2.681	1.885	1.885	1.880	1.899	1.895	1.890
-0.010	0.000	0.000	-0.005	-0.005	0.010	0.000	2.681	1.885	1.885	1.885	1.899	1.895	1.895
-0.015	-0.005	0.000	-0.005	0.000	0.000	0.000	2.681	1.885	1.885	1.880	1.899	1.899	1.895
0.000	0.000	-0.005	-0.005	-0.005	-0.024	0.000	2.681	1.885	1.885	1.885	1.899	1.895	1.890
0.000	0.005	0.000	0.005	-0.005	0.010	0.000	2.681	1.885	1.890	1.885	1.904	1.899	1.899
-0.005	-0.005	-0.005	0.000	-0.005	0.010	0.000	2.681	1.890	1.885	1.885	1.904	1.899	1.899
-0.005	-0.005	-0.005	0.000	0.000	-0.010	0.000	2.676	1.890	1.885	1.885	1.904	1.899	1.895
0.000	0.000	-0.005	0.000	0.000	0.005	0.000	2.681	1.885	1.885	1.885	1.904	1.899	1.899
0.000	0.000	0.000	0.000	0.000	-0.010	0.000	2.686	1.890	1.885	1.885	1.904	1.899	1.895
-0.005	0.000	0.000	0.000	0.000	-0.010	0.000	2.686	1.885	1.885	1.885	1.904	1.895	1.895
0.010	-0.015	-0.005	0.000	-0.005	0.010	0.000	2.671	1.885	1.880	1.880	1.899	1.895	1.899
-0.005	-0.015	-0.005	-0.005	0.000	0.000	0.000	2.681	1.885	1.880	1.880	1.899	1.899	1.895
-0.005	-0.010	0.000	-0.005	0.000	0.000	0.000	2.676	1.885	1.880	1.880	1.899	1.895	1.895
-0.005	-0.010	-0.005	-0.005	0.005	0.005	0.000	2.686	1.885	1.880	1.880	1.899	1.895	1.895
0.000	-0.015	0.000	-0.005	-0.005	-0.024	-0.005	2.681	1.885	1.880	1.880	1.899	1.890	1.890
0.005	-0.010	0.000	-0.005	-0.005	0.005	0.000	2.676	1.885	1.885	1.880	1.899	1.895	1.899
0.000	-0.010	-0.005	-0.005	0.000	0.005	0.000	2.686	1.885	1.885	1.880	1.899	1.895	1.895
-0.010	0.000	0.000	-0.005	0.005	0.000	0.000	2.686	1.890	1.885	1.880	1.899	1.895	1.890
-0.005	0.005	0.000	-0.005	0.005	-0.015	0.000	2.686	1.885	1.885	1.885	1.899	1.895	1.890
-0.010	0.005	-0.005	0.000	0.000	-0.005	0.000	2.681	1.885	1.890	1.885	1.899	1.895	1.895
-0.010	0.000	0.000	0.000	-0.010	-0.005	0.000	2.676	1.885	1.885	1.885	1.899	1.895	1.895
0.000	0.005	-0.005	0.000	-0.005	-0.005	0.000	2.681	1.890	1.885	1.885	1.899	1.895	1.895
-0.005	-0.005	0.000	0.000	-0.005	0.010	0.000	2.690	1.885	1.880	1.885	1.904	1.895	1.895
-0.005	0.005	-0.005	0.000	-0.005	0.005	0.000	2.686	1.890	1.885	1.885	1.904	1.895	1.895
-0.005	-0.005	-0.005	0.000	-0.005	0.000	0.000	2.686	1.885	1.885	1.885	1.899	1.895	1.895
0.000	-0.005	-0.005	0.000	-0.005	-0.005	0.000	2.676	1.890	1.885	1.885	1.899	1.895	1.890
-0.005	0.000	-0.005	0.000	-0.010	-0.005	0.000	2.671	1.885	1.885	1.885	1.899	1.895	1.895
0.000	0.005	0.000	0.000	-0.005	-0.005	0.000	2.681	1.885	1.885	1.885	1.899	1.899	1.895
-0.005	0.005	-0.010	-0.005	-0.005	-0.010	0.000	2.686	1.885	1.885	1.880	1.899	1.895	1.895
0.000	0.000	-0.005	0.000	0.000	0.000	0.000	2.681	1.885	1.880	1.885	1.899	1.895	1.899
0.000	-0.005	-0.005	-0.005	-0.005	-0.005	0.000	2.676	1.880	1.880	1.880	1.899	1.895	1.895
0.000	-0.005	-0.005	-0.005	-0.005	-0.015	0.000	2.681	1.885	1.880	1.880	1.895	1.895	1.885
-0.005	-0.010	0.000	-0.005	-0.010	-0.015	0.000	2.686	1.885	1.880	1.880	1.899	1.895	1.890
0.000	-0.005	0.000	-0.005	-0.010	-0.020	0.000	2.686	1.885	1.880	1.880	1.899	1.890	1.890
0.000	0.010	-0.005	-0.005	-0.010	-0.010	0.000	2.676	1.885	1.885	1.880	1.899	1.890	1.895
0.000	-0.010	-0.005	-0.005	-0.010	0.000	0.000	2.686	1.885	1.880	1.880	1.899	1.895	1.895
0.000	0.000	0.000	0.000	0.015	-0.005	0.000	2.686	1.885	1.885	1.880	1.899	1.904	1.895
-0.005	-0.010	0.005	-0.005	0.015	-0.015	0.000	2.690	1.885	1.880	1.880	1.899	1.899	1.895
-0.005	0.005	-0.005	0.000	0.010	-0.005	0.000	2.686	1.890	1.885	1.880	1.899	1.899	1.899
-0.005	0.005	-0.005	0.000	0.000	-0.010	0.000	2.686	1.885	1.885	1.880	1.899	1.895	1.895
-0.005	-0.015	0.000	0.000	0.010	0.010	-0.005	2.676	1.885	1.880	1.880	1.899	1.899	1.899
-0.005	-0.005	-0.005	0.000	0.000	0.005	0.000	2.686	1.890	1.880	1.880	1.899	1.895	1.895
-0.005	0.000	-0.005	0.000	0.000	0.010	0.000	2.686	1.885	1.880	1.880	1.899	1.895	1.899
-0.005	-0.010	-0.005	0.000	-0.005	0.005	0.000	2.681	1.890	1.880	1.880	1.899	1.895	1.895
-0.005	-0.010	-0.010	-0.005	-0.005	0.005	0.000	2.686	1.885	1.880	1.880	1.895	1.895	1.895
0.005	-0.010	-0.005	-0.005	0.005	0.005	0.000	2.671	1.880	1.880	1.880	1.895	1.895	1.895
-0.005	-0.010	-0.005	-0.005	0.000	0.000	0.000	2.681	1.885	1.880	1.880	1.895	1.890	1.890
-0.010	-0.015	0.000	-0.005	-0.010	0.000	0.000	2.676	1.885	1.880	1.880	1.899	1.890	1.890
-0.005	-0.010	0.000	-0.005	-0.020	0.005	0.000	2.681	1.885	1.880	1.880	1.895	1.885	1.890
-0.005	0.000	0.000	-0.005	-0.010	0.000	0.000	2.686	1.885	1.885	1.880	1.899	1.895	1.890
-0.005	0.000	0.005	-0.005	0.000	0.005	0.000	2.686	1.885	1.885	1.885	1.895	1.895	1.890
0.000	-0.005	0.000	-0.005	-0.005	0.000	0.000	2.681	1.885	1.885	1.880	1.899	1.895	1.890
0.000	-0.015	-0.005	0.000	-0.010	0.005	0.000	2.681	1.885	1.880	1.880	1.899	1.895	1.895
-0.010	-0.010	-0.005	-0.005	-0.005	0.005	0.000	2.690	1.885	1.880	1.880	1.899	1.895	1.895
0.000	-0.005	-0.005	0.000	0.000	0.005	0.000	2.686	1.885	1.885	1.885	1.899	1.895	1.895
-0.005	-0.005	0.000	0.000	0.000	0.000	0.000	2.676	1.885	1.885	1.880	1.899	1.895	1.895
-0.005	-0.005	0.000	0.000	-0.005	-0.005	0.000	2.686	1.890	1.885	1.880	1.899	1.895	1.895
-0.005	0.000	0.005	0.000	0.000	-0.005	0.000	2.690	1.890	1.890	1.880	1.899	1.899	1.895
-0.005	-0.005	0.000	0.000	0.005	-0.005	0.000	2.681	1.890	1.885	1.880	1.899	1.895	1.895
0.005	0.000	0.000	0.000	0.005	-0.005	-0.005	2.681	1.890	1.885	1.885	1.899	1.895	1.895
0.000	-0.005	-0.005	0.000	0.000	0.000	0.000	2.681	1.880	1.885	1.880	1.899	1.895	1.895
0.000	-0.010	0.000	-0.005	-0.005	0.000	-0.005	2.681	1.885	1.880	1.880	1.899	1.895	1.895
-0.005	-0.005	0.000	-0.005	0.000	0.000	0.000	2.681	1.885	1.885	1.880	1.899	1.895	1.895
-0.005	0.010	-0.005	-0.005	0.000	0.000	0.000	2.681	1.880	1.885	1.880	1.899	1.895	1.890
0.000	0.015	0.005	-0.005	-0.005	-0.005	0.000	2.676	1.885	1.890	1.885	1.899	1.890	1.895
0.000	0.015	0.000	-0.005	0.000	0.000	0.000	2.681	1.885	1.885	1.885	1.899	1.895	1.895
-0.010	0.015	-0.005	-0.005	-0.010	-0.005	0.000	2.681	1.880	1.885	1.880	1.899	1.895	1.890
-0.005	0.010	-0.005	-0.005	-0.015	0.005	0.000	2.686	1.885	1.880	1.880	1.899	1.890	1.895
0.000	0.020	-0.005	-0.005	-0.010	-0.015	0.000	2.686	1.885	1.880	1.880	1.899	1.890	1.890
0.000	0.000	-0.010	0.000	-0.010	0.000	0.000	2.671	1.885	1.880	1.880	1.899	1.895	1.895
-0.010	0.005	-0.005	0.000	-0.005	0.005	0.000	2.686	1.890	1.880	1.880	1.899	1.895	1.899
-0.005	-0.020	-0.005	0.000	-0.005	0.005	0.000	2.690	1.890	1.875	1.880	1.899	1.895	1.895
-0.010	-0.015	-0.005	0.000	0.000	-0.010	0.000	2.686	1.890	1.885	1.880	1.899	1.895	1.890
0.005	0.015	-0.005	0.000	-0.005	-0.005	0.000	2.686	1.890	1.890	1.885	1.899	1.895	1.895
-0.005	0.010	0.000	0.000	0.000	-0.010	0.000	2.681	1.885	1.890	1.885	1.899	1.895	1.895
-0.005	-0.005	0.000	0.000	0.000	-0.010	0.000	2.681	1.885	1.880	1.885	1.899	1.899	1.895
-0.010	0.000	0.005	0.000	-0.005	-0.005	0.000	2.729	1.899	1.885	1.885	1.904	1.895	1.895
-0.010	-0.005	0.000	-0.005	0.000	-0.005	0.000	2.656	1.890	1.885	1.885	1.899	1.895	1.890
-0.005	-0.005	-0.005	0.000	-0.005	-0.005	0.000	2.676	1.885	1.885	1.880	1.899	1.899	1.895
-0.010	-0.010	0.000	-0.005	0.000	-0.005	0.000	2.773	1.895	1.885	1.880	1.899	1.899	1.899
0.000	-0.020	-0.005	-0.005	0.000	-0.010	0.000	2.715	1.899	1.885	1.880	1.899	1.895	1.895
0.000	-0.015	0.000	-0.005	0.000	0.005	0.000	2.710	1.895	1.890	1.885	1.899	1.895	1.899
-0.005	-0.015	0.000	-0.005	-0.005	-0.010	0.000	2.617	1.885	1.890	1.880	1.899	1.895	1.895
-0.005	0.000	-0.005	-0.005	0.000	0.005	0.000	2.671	1.885	1.890	1.885	1.899	1.895	1.899
0.000	0.000	-0.010	-0.005	0.005	0.000	0.000	2.754	1.895	1.890	1.885	1.904	1.895	1.895
0.000	0.000	0.000	-0.005	0.005	0.005	0.000	2.661	1.890	1.890	1.890	1.904	1.899	1.899
-0.005	0.005	-0.005	-0.005	-0.005	0.015	0.000	2.715	1.885	1.890	1.885	1.904	1.899	1.899
0.000	-0.005	-0.005	0.000	-0.020	0.005	0.000	2.808	1.885	1.885	1.885	1.904	1.895	1.895
-0.005	0.005	-0.005	0.000	-0.015	0.000	-0.005	2.651	1.880	1.885	1.885	1.904	1.899	1.895
-0.010	0.005	-0.005	0.000	-0.005	-0.015	0.000	2.622	1.890	1.885	1.885	1.904	1.899	1.895
0.000	-0.005	0.005	-0.005	-0.010	-0.005	0.000	2.744	1.895	1.885	1.885	1.904	1.899	1.895
-0.005	-0.010	0.000	0.000	-0.005	-0.015	0.000	2.651	1.890	1.885	1.885	1.904	1.899	1.895
-0.005	-0.005	0.000	0.000	0.000	-0.005	0.000	2.744	1.895	1.890	1.885	1.904	1.904	1.899
-0.005	-0.005	-0.005	0.000	0.000	-0.015	0.000	2.690	1.890	1.890	1.885	1.899	1.899	1.899
-0.005	0.000	-0.005	-0.005	0.010	0.000	0.000	2.666	1.885	1.890	1.885	1.899	1.904	1.899
0.005	-0.020	0.005	-0.005	0.000	-0.010	0.000	2.676	1.890	1.885	1.885	1.904	1.899	1.899
-0.005	-0.005	0.000	-0.005	0.005	-0.010	0.000	2.695	1.885	1.885	1.885	1.899	1.899	1.895
-0.005	-0.029	0.000	-0.005	0.000	0.000	0.000	2.695	1.890	1.875	1.880	1.899	1.895	1.899
-0.005	-0.020	-0.005	-0.005	0.000	0.005	0.000	2.686	1.885	1.880	1.880	1.899	1.895	1.899
0.000	-0.020	-0.005	-0.005	-0.005	0.005	0.000	2.671	1.885	1.885	1.880	1.899	1.895	1.899
0.005	-0.005	-0.005	0.000	-0.005	0.000	0.000	2.666	1.890	1.890	1.880	1.899	1.895	1.899
0.000	-0.005	-0.005	-0.005	-0.005	-0.020	0.000	2.671	1.885	1.885	1.880	1.899	1.895	1.890
-0.005	0.000	0.000	-0.005	0.010	0.010	0.000	2.656	1.880	1.885	1.885	1.904	1.899	1.899
0.000	0.010	-0.005	0.000	0.010	-0.015	0.000	2.681	1.885	1.885	1.885	1.904	1.899	1.895
-0.020	0.005	0.000	-0.005	0.000	0.000	0.000	2.700	1.885	1.885	1.885	1.899	1.895	1.899
0.000	0.005	0.000	0.000	0.005	-0.020	0.000	2.666	1.885	1.885	1.885	1.904	1.895	1.895
0.005	0.020	-0.005	0.000	0.000	0.010	0.000	2.690	1.890	1.890	1.890	1.904	1.899	1.899
0.005	0.029	-0.005	0.000	-0.010	0.000	0.000	2.671	1.890	1.895	1.885	1.904	1.895	1.899
0.000	0.005	-0.005	0.000	-0.010	0.010	0.000	2.695	1.885	1.885	1.885	1.899	1.895	1.895
-0.010	0.010	0.000	0.000	-0.005	0.000	0.000	2.690	1.890	1.885	1.885	1.904	1.899	1.890
0.000	0.000	0.000	0.000	-0.005	0.000	0.000	2.671	1.885	1.880	1.880	1.904	1.899	1.895
0.000	0.000	0.000	0.000	0.000	-0.010	0.000	2.676	1.885	1.880	1.880	1.904	1.899	1.895
-0.005	-0.010	-0.005	-0.005	0.000	0.000	0.000	2.686	1.880	1.880	1.880	1.899	1.899	1.895
-0.005	0.000	0.000	-0.005	0.000	0.000	0.000	2.695	1.885	1.880	1.880	1.899	1.895	1.895
0.000	-0.005	0.000	-0.005	0.000	0.000	0.000	2.676	1.885	1.880	1.875	1.899	1.895	1.899
0.005	-0.005	-0.005	-0.005	0.000	0.005	0.000	2.676	1.890	1.885	1.880	1.899	1.895	1.899
-0.005	0.005	0.000	-0.005	-0.005	0.005	0.000	2.646	1.899	1.890	1.885	1.899	1.895	1.895
-0.005	0.000	0.000	-0.005	-0.005	0.005	0.000	2.637	1.890	1.885	1.880	1.899	1.895	1.895
-0.010	0.000	-0.005	-0.005	-0.005	0.000	0.000	2.695	1.890	1.890	1.880	1.899	1.895	1.895
-0.010	0.000	0.000	-0.005	0.000	0.000	0.000	2.637	1.885	1.885	1.885	1.899	1.895	1.895
0.005	0.000	-0.005	0.000	0.000	-0.010	0.000	2.710	1.895	1.890	1.885	1.899	1.899	1.895
-0.005	0.000	0.000	0.000	0.000	-0.005	0.000	2.744	1.899	1.890	1.885	1.904	1.899	1.895
-0.015	-0.015	-0.005	0.000	0.005	0.000	0.000	2.632	1.885	1.885	1.885	1.904	1.899	1.895
-0.015	-0.020	-0.005	0.000	0.000	0.000	0.000	2.656	1.885	1.880	1.885	1.904	1.899	1.895
0.000	-0.005	-0.005	0.000	-0.005	-0.015	0.000	2.715	1.895	1.890	1.885	1.904	1.899	1.895
0.000	0.005	-0.005	0.000	0.000	-0.010	0.000	2.690	1.890	1.895	1.885	1.904	1.899	1.895
0.000	0.005	-0.010	0.000	-0.005	-0.005	0.000	2.642	1.880	1.890	1.885	1.899	1.899	1.899
0.000	-0.005	-0.005	0.000	-0.005	0.010	0.000	2.729	1.899	1.890	1.885	1.904	1.895	1.899
0.000	-0.005	-0.005	-0.005	0.000	0.000	0.000	2.642	1.890	1.885	1.885	1.899	1.895	1.895
0.005	-0.015	0.000	0.000	-0.005	-0.020	0.000	2.710	1.890	1.885	1.885	1.899	1.899	1.890
0.000	-0.005	0.005	-0.005	-0.010	0.005	0.000	2.720	1.895	1.890	1.890	1.904	1.895	1.899
-0.005	-0.005	0.005	-0.005	-0.024	-0.015	0.000	2.739	1.895	1.885	1.885	1.899	1.890	1.895
0.000	-0.005	-0.005	-0.005	-0.005	0.005	0.000	2.637	1.890	1.890	1.885	1.904	1.899	1.899
0.000	-0.005	-0.005	-0.005	0.005	0.000	0.000	2.759	1.899	1.890	1.885	1.904	1.899	1.899
-0.005	0.005	0.000	-0.005	0.000	0.000	0.000	2.710	1.895	1.895	1.885	1.904	1.899	1.899
0.000	-0.005	-0.005	-0.005	0.000	0.000	0.000	2.666	1.890	1.890	1.885	1.904	1.904	1.899
0.000	0.000	0.000	-0.005	0.005	-0.010	0.000	2.666	1.890	1.890	1.890	1.904	1.899	1.895
-0.005	0.005	0.000	0.000	0.005	-0.015	-0.005	2.681	1.890	1.890	1.890	1.909	1.904	1.895
-0.005	-0.005	0.000	-0.005	0.000	0.005	0.000	2.700	1.890	1.890	1.885	1.909	1.899	1.899
0.000	0.010	0.000	0.000	0.000	0.000	0.000	2.666	1.890	1.890	1.890	1.904	1.904	1.904
-0.005	-0.010	-0.005	0.000	0.000	0.000	0.000	2.671	1.885	1.885	1.890	1.904	1.904	1.904
-0.005	0.000	-0.005	0.000	0.005	-0.005	0.000	2.666	1.885	1.885	1.885	1.904	1.904	1.899
-0.005	-0.010	-0.010	0.000	-0.010	-0.010	-0.005	2.695	1.890	1.880	1.885	1.904	1.895	1.899
0.000	-0.024	0.000	-0.005	-0.029	-0.010	0.000	2.671	1.885	1.880	1.885	1.899	1.895	1.899
0.000	-0.024	0.000	-0.005	-0.010	-0.024	0.000	2.681	1.890	1.880	1.880	1.899	1.895	1.890
0.005	-0.010	-0.005	-0.005	-0.010	0.005	0.000	2.700	1.890	1.885	1.880	1.899	1.895	1.899
-0.005	-0.015	-0.005	-0.005	-0.010	0.000	0.005	2.671	1.885	1.885	1.880	1.899	1.899	1.895
-0.005	-0.015	0.000	-0.005	0.000	-0.005	0.000	2.671	1.880	1.885	1.885	1.899	1.899	1.895
-0.005	-0.010	0.000	-0.005	0.005	-0.010	0.000	2.656	1.880	1.885	1.885	1.899	1.899	1.899
0.005	-0.005	-0.005	-0.005	0.005	0.005	0.000	2.690	1.885	1.885	1.885	1.899	1.899	1.899
-0.005	-0.010	0.000	-0.005	0.010	-0.015	0.000	2.700	1.885	1.885	1.885	1.899	1.895	1.895
0.005	0.000	0.000	-0.005	0.015	0.000	0.000	2.666	1.885	1.890	1.885	1.904	1.899	1.899
-0.005	0.000	-0.005	-0.005	0.010	0.000	0.000	2.681	1.885	1.885	1.885	1.904	1.899	1.899
-0.005	0.000	-0.005	-0.005	0.000	-0.005	0.000	2.690	1.885	1.885	1.885	1.904	1.895	1.895
-0.010	0.000	0.000	0.000	-0.010	-0.005	0.000	2.710	1.890	1.885	1.885	1.904	1.895	1.895
0.005	0.000	0.000	0.000	-0.005	0.010	0.000	2.690	1.895	1.890	1.885	1.904	1.899	1.899
-0.005	-0.005	-0.005	0.000	-0.005	0.000	0.000	2.671	1.885	1.885	1.885	1.904	1.895	1.899
0.000	0.000	0.000	0.000	-0.010	0.010	0.000	2.686	1.890	1.885	1.885	1.904	1.895	1.899
0.000	0.000	0.000	0.000	-0.005	0.000	0.000	2.686	1.890	1.885	1.885	1.899	1.895	1.895
-0.005	-0.010	0.000	0.000	-0.010	0.005	0.000	2.671	1.880	1.885	1.885	1.904	1.899	1.895
-0.005	-0.010	-0.005	0.000	-0.005	0.000	0.000	2.686	1.885	1.880	1.880	1.904	1.895	1.895
-0.015	-0.015	-0.005	-0.005	-0.005	0.000	0.000	2.695	1.885	1.880	1.880	1.899	1.899	1.895
-0.005	-0.005	-0.005	-0.005	-0.005	-0.010	0.000	2.681	1.885	1.885	1.885	1.899	1.895	1.890
-0.005	0.000	-0.005	-0.005	0.000	-0.024	0.000	2.681	1.885	1.885	1.880	1.899	1.895	1.890
0.005	0.000	0.000	-0.005	0.000	0.005	0.000	2.695	1.890	1.885	1.880	1.899	1.895	1.899
0.000	-0.005	-0.005	-0.005	0.000	-0.015	0.000	2.686	1.885	1.885	1.880	1.899	1.895	1.895
-0.005	-0.005	0.000	-0.005	0.000	0.005	0.000	2.676	1.885	1.885	1.885	1.899	1.895	1.899
-0.005	0.000	0.000	-0.005	0.000	0.005	0.000	2.681	1.885	1.885	1.885	1.899	1.895	1.899
-0.005	-0.005	0.000	0.000	-0.005	0.000	0.000	2.686	1.885	1.885	1.885	1.904	1.895	1.895
-0.005	0.010	-0.005	-0.005	0.000	-0.024	0.000	2.676	1.890	1.885	1.885	1.904	1.895	1.885
0.000	0.010	-0.005	0.000	-0.010	0.005	0.000	2.690	1.890	1.890	1.885	1.904	1.895	1.899
0.000	0.000	-0.005	0.000	-0.005	0.005	0.000	2.686	1.890	1.885	1.885	1.904	1.899	1.899
-0.005	-0.005	-0.005	0.000	-0.005	0.000	0.000	2.671	1.890	1.885	1.885	1.904	1.899	1.899
0.000	0.000	-0.005	0.000	0.000	0.010	0.000	2.686	1.890	1.890	1.885	1.904	1.899	1.899
-0.005	0.005	0.000	-0.005	0.000	0.000	0.000	2.681	1.885	1.885	1.885	1.904	1.899	1.899
-0.005	0.000	-0.005	0.000	-0.005	0.000	0.000	2.681	1.885	1.885	1.885	1.904	1.899	1.895
-0.005	0.015	0.000	-0.005	0.005	0.005	0.000	2.671	1.885	1.890	1.885	1.904	1.899	1.899
-0.010	0.015	0.000	-0.005	-0.005	-0.005	0.000	2.676	1.880	1.885	1.885	1.899	1.895	1.895
-0.005	0.005	-0.005	-0.005	0.000	-0.020	-0.005	2.661	1.885	1.880	1.880	1.899	1.895	1.890
-0.005	0.005	0.000	-0.005	-0.005	0.000	0.000	2.666	1.880	1.880	1.880	1.899	1.895	1.899
-0.015	-0.005	0.000	-0.005	-0.005	0.000	0.000	2.656	1.875	1.875	1.880	1.899	1.895	1.899
0.000	-0.005	-0.005	-0.005	0.000	-0.005	0.000	2.681	1.885	1.880	1.880	1.899	1.895	1.895
0.010	0.005	0.000	-0.010	-0.005	0.005	-0.005	2.681	1.885	1.880	1.880	1.899	1.895	1.899
0.000	0.010	-0.005	-0.005	0.000	0.010	0.000	2.676	1.885	1.880	1.880	1.899	1.895	1.899
-0.015	-0.005	0.000	-0.005	-0.010	-0.020	0.000	2.686	1.880	1.880	1.880	1.899	1.890	1.890
-0.005	0.000	-0.005	-0.005	-0.005	0.010	0.000	2.676	1.885	1.880	1.880	1.895	1.895	1.899
0.000	-0.010	-0.005	-0.005	0.005	0.000	0.000	2.676	1.880	1.875	1.880	1.899	1.899	1.895
-0.005	-0.010	-0.005	0.000	-0.005	0.005	0.000	2.676	1.885	1.880	1.880	1.899	1.895	1.895
0.000	-0.005	-0.005	0.000	-0.005	0.000	0.000	2.676	1.890	1.885	1.880	1.899	1.895	1.895
0.005	-0.015	-0.005	0.000	0.000	-0.005	0.000	2.681	1.885	1.880	1.880	1.899	1.895	1.895
-0.010	-0.010	-0.005	0.000	0.000	-0.020	0.000	2.681	1.885	1.880	1.880	1.899	1.895	1.890
-0.010	-0.005	-0.005	0.000	0.000	-0.020	0.000	2.671	1.880	1.880	1.880	1.899	1.895	1.890
-0.005	-0.015	0.000	-0.005	0.000	-0.010	0.000	2.671	1.880	1.880	1.880	1.899	1.895	1.890
-0.005	-0.005	-0.005	-0.005	-0.005	-0.005	0.000	2.681	1.885	1.880	1.880	1.899	1.895	1.895
0.000	-0.005	0.000	-0.005	-0.005	-0.015	0.000	2.681	1.885	1.880	1.880	1.899	1.895	1.890
-0.005	0.000	-0.005	-0.005	0.005	-0.005	0.000	2.666	1.880	1.885	1.880	1.895	1.895	1.890
-0.005	0.000	-0.005	-0.005	-0.010	-0.005	0.000	2.681	1.880	1.875	1.880	1.895	1.890	1.890
-0.005	0.000	-0.005	-0.010	-0.010	-0.020	0.000	2.676	1.880	1.880	1.880	1.895	1.890	1.890
-0.005	-0.020	0.005	-0.005	-0.015	-0.005	0.000	2.681	1.880	1.875	1.880	1.895	1.890	1.890
0.000	0.000	0.000	-0.005	0.000	0.000	0.000	2.666	1.880	1.885	1.875	1.895	1.895	1.895
0.000	-0.010	0.000	-0.005	-0.005	-0.005	0.000	2.681	1.885	1.880	1.875	1.895	1.895	1.895
0.000	-0.005	0.000	-0.005	0.000	0.010	0.000	2.666	1.880	1.880	1.880	1.895	1.895	1.895
-0.010	0.005	0.000	-0.005	0.005	0.005	0.000	2.671	1.885	1.885	1.880	1.899	1.895	1.895
0.000	0.005	0.005	0.000	0.010	0.010	0.000	2.666	1.885	1.885	1.880	1.899	1.899	1.899
0.000	0.005	0.000	0.000	0.000	0.005	0.000	2.671	1.880	1.880	1.885	1.899	1.895	1.895
-0.010	-0.005	-0.005	0.000	-0.005	0.000	-0.005	2.661	1.880	1.880	1.880	1.899	1.895	1.890
0.000	0.000	-0.005	0.000	-0.005	0.005	0.000	2.681	1.885	1.885	1.880	1.899	1.890	1.895
-0.005	0.010	-0.005	0.000	0.000	0.005	0.000	2.676	1.880	1.885	1.880	1.899	1.895	1.895
0.000	-0.015	-0.010	0.000	0.000	0.000	0.000	2.686	1.885	1.875	1.875	1.899	1.895	1.895
-0.005	-0.010	-0.005	0.000	0.000	0.015	0.000	2.686	1.885	1.875	1.880	1.899	1.895	1.899
-0.005	-0.005	-0.005	0.000	0.000	0.005	0.000	2.666	1.880	1.880	1.880	1.895	1.895	1.895
-0.010	0.005	-0.005	-0.005	-0.005	-0.005	0.000	2.676	1.885	1.880	1.880	1.895	1.890	1.890
-0.005	0.000	0.000	-0.005	-0.005	0.000	0.000	2.666	1.880	1.880	1.880	1.895	1.890	1.895
0.000	-0.005	-0.005	-0.005	0.000	-0.005	0.000	2.676	1.880	1.875	1.875	1.895	1.890	1.890
0.000	-0.005	0.000	-0.005	0.000	-0.020	-0.005	2.676	1.885	1.875	1.875	1.895	1.890	1.885
-0.005	-0.015	-0.005	-0.005	-0.005	-0.005	0.000	2.666	1.875	1.875	1.875	1.895	1.890	1.890
0.005	-0.010	0.005	-0.005	-0.010	0.000	0.000	2.676	1.885	1.880	1.875	1.895	1.890	1.890
0.000	0.000	0.000	-0.005	0.000	-0.010	0.000	2.666	1.880	1.880	1.875	1.895	1.890	1.890
-0.005	0.005	0.000	-0.005	-0.005	-0.010	-0.005	2.666	1.880	1.880	1.880	1.895	1.890	1.890
-0.005	0.000	0.000	0.000	-0.010	0.000	-0.005	2.676	1.880	1.880	1.875	1.895	1.890	1.890
-0.005	0.010	-0.005	0.000	-0.015	-0.010	0.000	2.681	1.885	1.880	1.880	1.895	1.890	1.890
-0.005	-0.005	-0.005	0.000	-0.010	0.005	0.000	2.676	1.880	1.880	1.875	1.895	1.895	1.890
-0.005	0.000	-0.005	-0.005	-0.005	-0.024	0.000	2.671	1.880	1.880	1.880	1.895	1.895	1.885
-0.005	-0.005	-0.005	0.000	0.000	-0.005	0.000	2.671	1.880	1.880	1.880	1.899	1.895	1.895
0.000	-0.005	0.000	0.000	-0.005	0.000	0.000	2.681	1.880	1.875	1.875	1.895	1.895	1.895
-0.010	-0.005	-0.005	0.000	-0.005	0.005	0.000	2.676	1.880	1.880	1.875	1.895	1.895	1.895
-0.010	-0.005	-0.005	-0.005	0.000	0.005	0.000	2.671	1.880	1.875	1.875	1.895	1.895	1.895
-0.005	0.005	-0.005	0.000	0.000	-0.005	0.000	2.671	1.880	1.880	1.875	1.895	1.890	1.890
0.000	-0.005	0.000	0.000	-0.005	-0.010	0.000	2.656	1.880	1.875	1.875	1.895	1.890	1.890
0.000	0.000	-0.005	-0.005	0.000	-0.010	0.000	2.671	1.880	1.880	1.875	1.895	1.890	1.890
0.005	0.005	0.000	-0.005	0.000	-0.005	0.000	2.671	1.880	1.880	1.875	1.895	1.890	1.890
0.005	0.005	0.000	-0.005	-0.005	0.000	0.000	2.676	1.885	1.875	1.875	1.895	1.890	1.890
-0.005	0.010	-0.005	-0.005	-0.005	0.005	0.000	2.686	1.880	1.880	1.875	1.895	1.890	1.890
0.000	-0.005	0.000	-0.005	-0.005	-0.005	0.000	2.666	1.880	1.875	1.875	1.895	1.890	1.885
-0.005	-0.010	-0.005	-0.005	-0.005	-0.015	0.000	2.671	1.875	1.875	1.875	1.895	1.890	1.885
-0.005	-0.010	-0.005	0.000	-0.010	0.010	0.000	2.671	1.880	1.875	1.875	1.890	1.890	1.895
0.005	-0.005	-0.005	0.000	0.000	0.000	0.000	2.676	1.880	1.875	1.875	1.895	1.890	1.890
-0.010	-0.005	-0.005	-0.005	0.005	-0.015	0.000	2.686	1.880	1.875	1.875	1.895	1.895	1.885
0.005	0.000	-0.005	0.005	0.000	0.000	0.000	2.661	1.885	1.880	1.875	1.895	1.890	1.895
0.005	0.015	-0.005	-0.005	0.000	0.000	0.000	2.686	1.885	1.885	1.880	1.895	1.890	1.890
-0.005	0.010	0.000	-0.005	-0.010	0.000	0.000	2.686	1.880	1.880	1.880	1.895	1.890	1.890
0.000	0.010	-0.005	0.000	0.000	0.005	0.000	2.681	1.885	1.880	1.880	1.895	1.890	1.890
0.000	0.000	0.000	0.000	-0.005	0.005	0.000	2.681	1.885	1.880	1.880	1.895	1.890	1.890
-0.005	0.005	0.000	0.000	-0.005	0.010	0.000	2.671	1.880	1.880	1.880	1.895	1.890	1.890
-0.010	0.000	-0.005	-0.005	-0.005	-0.024	0.000	2.671	1.880	1.875	1.875	1.895	1.890	1.880
-0.005	-0.005	0.000	-0.005	-0.005	0.005	0.000	2.676	1.880	1.875	1.875	1.895	1.890	1.890
-0.010	-0.005	0.000	-0.005	0.000	0.005	0.000	2.681	1.880	1.875	1.875	1.895	1.890	1.890
-0.005	-0.005	-0.005	-0.005	0.000	0.000	0.000	2.681	1.880	1.875	1.875	1.890	1.890	1.890
0.000	-0.010	-0.005	-0.005	0.000	0.005	0.000	2.681	1.885	1.875	1.875	1.890	1.890	1.890
0.000	-0.005	-0.005	-0.005	-0.010	-0.010	0.000	2.676	1.880	1.880	1.875	1.890	1.890	1.885
-0.015	0.005	-0.005	-0.005	-0.005	0.000	0.000	2.666	1.875	1.880	1.875	1.895	1.890	1.890
0.000	-0.010	-0.005	0.000	-0.005	-0.010	0.000	2.671	1.880	1.875	1.875	1.895	1.890	1.885
-0.005	-0.005	-0.005	-0.005	0.005	0.000	0.000	2.671	1.875	1.880	1.875	1.895	1.890	1.890
-0.010	0.000	0.000	-0.005	0.000	0.010	0.000	2.686	1.885	1.875	1.880	1.895	1.890	1.890
0.000	0.005	-0.005	0.000	-0.005	0.000	0.000	2.661	1.880	1.880	1.875	1.895	1.890	1.890
0.000	-0.005	-0.005	0.000	-0.005	0.005	0.000	2.681	1.880	1.880	1.875	1.895	1.890	1.890
0.000	-0.005	-0.005	0.000	-0.010	0.000	0.000	2.681	1.885	1.880	1.880	1.895	1.890	1.890
0.005	-0.005	-0.005	0.000	0.000	-0.005	0.000	2.676	1.880	1.880	1.875	1.895	1.895	1.890
-0.005	-0.005	0.000	0.000	-0.005	0.000	0.000	2.676	1.875	1.875	1.875	1.895	1.890	1.890
-0.015	-0.005	-0.005	0.000	-0.005	0.000	0.000	2.676	1.875	1.875	1.875	1.895	1.890	1.890
-0.010	-0.015	-0.005	0.000	-0.005	-0.015	0.000	2.671	1.880	1.875	1.875	1.895	1.890	1.885
0.000	-0.015	-0.005	-0.005	-0.005	-0.005	0.000	2.666	1.880	1.875	1.875	1.895	1.890	1.890
0.000	-0.020	-0.005	-0.005	0.005	0.000	0.000	2.671	1.880	1.875	1.875	1.890	1.890	1.890
-0.005	-0.024	-0.005	-0.005	0.000	-0.005	0.000	2.661	1.875	1.875	1.875	1.890	1.890	1.885
0.000	-0.010	0.000	-0.005	0.000	-0.005	0.000	2.676	1.875	1.875	1.875	1.890	1.885	1.890
-0.010	0.000	0.005	-0.005	-0.005	-0.010	0.000	2.661	1.875	1.875	1.875	1.890	1.885	1.885
0.005	0.000	0.000	-0.005	-0.005	-0.020	0.000	2.671	1.880	1.880	1.875	1.890	1.885	1.885
0.010	0.000	-0.005	-0.005	0.000	0.005	-0.005	2.690	1.885	1.880	1.875	1.890	1.890	1.890
-0.010	0.005	0.000	-0.005	-0.005	-0.029	0.000	2.690	1.880	1.880	1.875	1.895	1.885	1.880
-0.005	0.015	-0.005	0.000	-0.005	0.000	0.000	2.671	1.880	1.880	1.875	1.895	1.890	1.885
0.000	-0.005	-0.010	0.005	-0.005	0.005	0.000	2.671	1.875	1.875	1.875	1.895	1.890	1.895
-0.005	-0.005	-0.010	0.000	-0.005	-0.005	0.000	2.666	1.880	1.875	1.875	1.895	1.890	1.890
-0.005	-0.010	-0.005	0.000	-0.005	-0.020	0.000	2.676	1.880	1.875	1.875	1.895	1.890	1.885
-0.005	-0.005	-0.005	0.000	0.000	0.005	-0.005	2.676	1.880	1.875	1.875	1.895	1.890	1.895
-0.005	-0.005	0.000	0.000	0.000	0.010	0.000	2.681	1.880	1.880	1.875	1.895	1.890	1.895
0.005	-0.005	0.000	0.000	0.000	0.005	0.000	2.676	1.885	1.880	1.875	1.895	1.895	1.890
-0.005	-0.005	0.000	0.000	0.005	0.005	0.000	2.676	1.880	1.875	1.875	1.895	1.890	1.890
-0.005	-0.015	-0.005	-0.005	0.000	-0.015	0.000	2.676	1.880	1.875	1.875	1.895	1.890	1.885
0.000	-0.020	0.000	-0.005	-0.005	0.000	0.000	2.671	1.875	1.870	1.875	1.895	1.890	1.890
0.000	0.005	-0.005	-0.005	-0.005	0.000	0.000	2.676	1.880	1.880	1.875	1.890	1.890	1.890
-0.005	0.000	-0.005	-0.005	0.000	0.000	0.000	2.666	1.875	1.875	1.875	1.890	1.890	1.890
-0.010	-0.005	-0.005	-0.005	-0.005	0.000	0.000	2.686	1.875	1.875	1.875	1.890	1.885	1.885
0.010	0.000	-0.005	-0.005	-0.005	-0.005	0.000	2.676	1.885	1.880	1.875	1.895	1.885	1.885
0.000	0.000	0.000	-0.005	-0.005	-0.005	0.000	2.676	1.880	1.880	1.880	1.890	1.890	1.885
0.000	0.005	0.005	-0.005	-0.005	-0.005	0.000	2.651	1.875	1.880	1.875	1.895	1.890	1.890
0.000	0.000	0.000	-0.005	-0.005	-0.005	0.000	2.646	1.875	1.875	1.875	1.895	1.890	1.890
-0.005	0.010	0.000	0.000	-0.010	-0.005	0.000	2.637	1.875	1.880	1.875	1.895	1.890	1.890
0.000	0.015	-0.005	0.000	-0.010	0.000	0.000	2.661	1.875	1.875	1.875	1.895	1.890	1.890
0.000	-0.005	-0.005	0.000	-0.015	-0.015	0.000	2.671	1.875	1.875	1.875	1.895	1.890	1.890
0.000	0.010	-0.005	0.000	-0.010	0.005	0.000	2.676	1.875	1.875	1.875	1.895	1.890	1.890
-0.005	-0.005	-0.005	0.000	0.000	-0.010	0.000	2.661	1.875	1.870	1.875	1.895	1.890	1.885
0.000	-0.010	-0.005	0.000	-0.005	0.005	0.000	2.661	1.875	1.870	1.875	1.890	1.890	1.890
-0.005	-0.010	-0.010	0.000	0.000	0.000	0.000	2.646	1.875	1.870	1.870	1.890	1.890	1.890
0.000	-0.010	-0.005	0.000	0.000	0.000	0.000	2.637	1.870	1.870	1.870	1.890	1.890	1.890
0.005	-0.010	0.000	0.000	0.000	0.010	0.000	2.642	1.870	1.870	1.870	1.890	1.885	1.890
-0.005	-0.005	0.000	-0.005	0.005	0.005	0.000	2.686	1.875	1.870	1.870	1.890	1.885	1.885
0.000	-0.005	-0.005	0.000	0.005	0.000	0.000	2.622	1.870	1.870	1.870	1.885	1.885	1.885
-0.005	-0.005	0.000	-0.005	-0.005	0.005	-0.005	2.642	1.870	1.870	1.870	1.885	1.885	1.885
-0.010	-0.010	0.000	-0.005	0.000	-0.020	0.000	2.827	1.890	1.875	1.870	1.885	1.880	1.880
0.000	-0.005	0.000	-0.005	-0.005	0.000	0.000	2.661	1.885	1.875	1.870	1.885	1.880	1.885
0.005	0.000	-0.005	-0.005	0.000	-0.010	0.000	2.661	1.880	1.880	1.870	1.890	1.885	1.880
-0.005	0.000	0.000	-0.005	-0.005	-0.015	0.000	2.671	1.875	1.880	1.875	1.890	1.880	1.880
-0.005	0.000	0.000	-0.005	-0.005	-0.005	0.000	2.676	1.880	1.880	1.875	1.890	1.885	1.880
0.000	-0.005	-0.005	0.000	0.000	0.010	0.000	2.676	1.880	1.875	1.875	1.890	1.885	1.890
-0.015	0.005	-0.005	-0.005	0.000	-0.005	0.000	2.661	1.875	1.875	1.875	1.895	1.890	1.880
-0.005	0.005	-0.005	0.000	0.000	0.000	0.000	2.661	1.875	1.875	1.875	1.890	1.890	1.885
-0.010	0.000	-0.005	0.000	-0.005	0.000	-0.005	2.651	1.875	1.875	1.875	1.895	1.885	1.885
-0.005	0.000	0.000	0.000	0.005	-0.034	0.000	2.642	1.875	1.875	1.875	1.895	1.890	1.875
-0.005	0.000	0.000	0.000	0.005	0.005	-0.005	2.637	1.870	1.870	1.875	1.890	1.890	1.890
-0.005	-0.005	0.000	0.000	-0.005	0.000	0.000	2.676	1.875	1.870	1.870	1.890	1.885	1.885
0.000	-0.010	0.000	-0.005	-0.005	-0.005	0.000	2.817	1.895	1.875	1.875	1.890	1.885	1.885
-0.005	-0.015	-0.005	0.000	-0.010	0.010	0.000	2.617	1.880	1.875	1.870	1.890	1.885	1.890
0.000	-0.005	-0.005	-0.005	-0.010	0.015	0.000	2.817	1.895	1.880	1.875	1.890	1.885	1.890
-0.010	-0.015	-0.005	-0.005	-0.005	0.005	0.000	2.676	1.890	1.880	1.870	1.890	1.885	1.885
0.000	-0.010	0.000	-0.005	0.000	0.000	0.000	2.676	1.885	1.880	1.875	1.890	1.885	1.885
-0.005	-0.005	-0.005	-0.005	-0.005	-0.005	0.000	2.671	1.880	1.880	1.875	1.890	1.885	1.885
0.005	0.000	0.005	-0.005	-0.010	0.010	0.000	2.676	1.885	1.885	1.880	1.895	1.885	1.885
-0.005	-0.005	-0.005	-0.005	0.000	-0.005	-0.005	2.666	1.875	1.880	1.875	1.895	1.890	1.885
-0.005	0.000	-0.005	-0.005	0.005	0.005	0.000	2.666	1.875	1.880	1.880	1.895	1.890	1.890
0.000	0.000	-0.005	0.000	-0.005	-0.005	0.000	2.646	1.875	1.880	1.880	1.895	1.890	1.885
-0.005	0.010	-0.010	0.000	-0.005	0.000	0.000	2.651	1.870	1.880	1.875	1.895	1.890	1.890
-0.005	0.000	-0.005	-0.005	0.000	0.010	0.000	2.646	1.870	1.875	1.875	1.895	1.890	1.890
-0.010	0.000	-0.005	0.000	-0.005	0.000	0.000	2.637	1.870	1.875	1.875	1.895	1.890	1.890
0.000	-0.005	-0.005	0.000	0.000	-0.010	0.000	2.676	1.870	1.870	1.875	1.895	1.890	1.885
-0.005	0.005	0.000	0.005	-0.005	-0.015	0.000	2.808	1.875	1.875	1.875	1.895	1.890	1.890
-0.010	0.000	0.000	0.000	0.000	0.005	0.000	2.642	1.870	1.870	1.875	1.895	1.890	1.895
-0.005	0.000	0.000	-0.005	0.000	0.000	0.000	2.773	1.870	1.870	1.870	1.890	1.890	1.890
-0.005	0.000	0.000	-0.005	-0.010	-0.005	0.000	2.666	1.875	1.870	1.870	1.890	1.885	1.885
-0.005	-0.005	0.000	-0.005	-0.015	-0.005	0.000	2.676	1.880	1.870	1.870	1.885	1.885	1.885
0.005	-0.005	0.000	-0.005	-0.005	0.000	0.000	2.666	1.880	1.870	1.870	1.885	1.885	1.890
0.000	0.000	0.000	-0.005	0.000	0.005	0.000	2.681	1.875	1.870	1.870	1.890	1.885	1.885
0.000	0.005	0.000	-0.005	-0.005	0.005	0.000	2.656	1.875	1.875	1.870	1.885	1.885	1.885
0.000	-0.010	0.000	-0.005	0.005	0.005	0.000	2.671	1.875	1.870	1.870	1.885	1.885	1.885
0.000	-0.015	-0.005	-0.005	0.005	0.000	0.000	2.666	1.875	1.870	1.870	1.885	1.880	1.880
-0.005	-0.010	-0.005	-0.005	-0.005	-0.005	0.000	2.646	1.870	1.875	1.870	1.885	1.880	1.880
0.000	-0.010	-0.005	0.000	-0.010	-0.005	0.000	2.646	1.870	1.870	1.870	1.890	1.880	1.880
0.000	-0.015	0.000	-0.005	-0.005	-0.020	-0.005	2.646	1.870	1.870	1.870	1.885	1.885	1.880
0.000	-0.005	-0.005	0.000	-0.005	0.010	0.000	2.666	1.875	1.870	1.870	1.890	1.885	1.885
0.000	0.000	-0.005	-0.005	-0.010	0.010	-0.005	2.817	1.895	1.875	1.870	1.890	1.885	1.885
-0.005	0.010	-0.005	0.000	-0.010	-0.015	0.000	2.637	1.880	1.880	1.875	1.890	1.885	1.880
-0.005	0.020	-0.005	0.000	-0.005	0.000	0.000	2.803	1.895	1.885	1.875	1.890	1.885	1.885
0.000	0.015	-0.005	0.000	-0.005	0.005	0.000	2.661	1.890	1.885	1.880	1.890	1.885	1.885
0.000	0.015	0.000	0.000	-0.005	0.000	0.000	2.671	1.880	1.885	1.875	1.890	1.890	1.885
-0.010	0.010	0.000	0.000	0.005	-0.005	0.000	2.661	1.875	1.880	1.880	1.895	1.890	1.885
-0.005	0.000	0.000	-0.005	0.010	-0.010	0.000	2.661	1.870	1.875	1.875	1.895	1.890	1.885
-0.005	-0.010	0.000	-0.005	0.010	-0.005	0.000	2.666	1.875	1.870	1.875	1.895	1.890	1.890
-0.010	-0.015	0.000	-0.005	0.010	-0.005	0.000	2.656	1.870	1.870	1.870	1.895	1.890	1.885
0.000	-0.005	-0.005	-0.005	0.010	-0.005	0.000	2.666	1.875	1.870	1.870	1.890	1.890	1.885
-0.005	-0.010	0.000	-0.005	0.024	-0.005	0.000	2.651	1.870	1.870	1.870	1.890	1.895	1.885
-0.005	-0.010	0.000	-0.005	0.020	-0.005	0.000	2.651	1.870	1.870	1.870	1.890	1.890	1.890
-0.005	-0.015	-0.005	-0.005	0.029	-0.010	0.000	2.637	1.870	1.870	1.870	1.890	1.890	1.890
-0.005	0.000	-0.005	-0.005	0.020	-0.015	0.000	2.666	1.870	1.870	1.870	1.885	1.885	1.885
0.000	-0.005	-0.005	-0.005	0.020	-0.015	0.000	2.808	1.895	1.875	1.870	1.890	1.885	1.885
0.000	-0.010	-0.005	0.000	0.010	-0.020	0.000	2.681	1.880	1.875	1.870	1.890	1.880	1.885
-0.005	0.000	-0.005	0.000	0.010	-0.010	0.000	2.808	1.899	1.885	1.875	1.890	1.885	1.885
-0.015	-0.005	0.000	0.000	0.000	-0.010	0.000	2.681	1.890	1.880	1.875	1.890	1.880	1.885
0.000	0.005	0.000	0.000	0.005	-0.005	0.000	2.671	1.890	1.890	1.880	1.890	1.885	1.885
-0.005	-0.005	-0.005	0.000	-0.005	-0.020	0.000	2.671	1.880	1.880	1.880	1.895	1.885	1.880
-0.010	0.005	0.000	0.000	-0.010	0.005	0.000	2.676	1.880	1.885	1.880	1.895	1.885	1.890
-0.010	-0.010	0.000	-0.005	-0.010	0.010	0.000	2.681	1.880	1.880	1.875	1.895	1.885	1.890
-0.005	0.005	-0.010	0.000	-0.015	0.015	0.000	2.661	1.880	1.885	1.875	1.895	1.885	1.890
0.000	-0.010	-0.005	0.005	-0.020	0.010	0.000	2.651	1.875	1.875	1.875	1.895	1.885	1.885
0.000	-0.024	0.000	0.000	-0.029	0.005	0.000	2.651	1.870	1.870	1.875	1.895	1.885	1.880
0.000	-0.029	-0.005	-0.010	-0.034	0.000	0.000	2.646	1.870	1.870	1.870	1.890	1.885	1.880
0.000	-0.010	0.000	-0.005	-0.029	0.000	0.000	2.632	1.870	1.875	1.870	1.890	1.885	1.885
0.000	0.005	0.005	-0.005	-0.015	-0.010	-0.005	2.651	1.870	1.875	1.875	1.890	1.890	1.885
0.000	-0.010	0.000	-0.005	-0.020	0.010	0.000	2.632	1.865	1.870	1.870	1.890	1.885	1.885
-0.005	0.005	0.000	-0.005	-0.020	0.015	0.000	2.632	1.870	1.870	1.870	1.890	1.890	1.890
0.000	0.015	-0.005	0.000	-0.015	-0.005	0.000	2.632	1.865	1.870	1.870	1.890	1.890	1.885
0.000	-0.005	-0.005	0.000	-0.020	0.005	0.000	2.666	1.865	1.865	1.870	1.890	1.890	1.890
-0.005	-0.015	0.000	-0.005	-0.010	-0.005	0.000	2.686	1.870	1.865	1.870	1.890	1.890	1.885
-0.010	-0.020	0.000	0.000	-0.010	0.015	0.000	2.681	1.875	1.865	1.870	1.885	1.890	1.890
0.000	-0.020	-0.005	0.000	0.005	0.015	0.000	2.671	1.875	1.870	1.865	1.885	1.890	1.890
-0.005	-0.015	-0.010	0.000	0.000	0.010	0.000	2.661	1.875	1.870	1.865	1.885	1.885	1.890
-0.005	0.005	-0.010	-0.005	-0.005	-0.005	0.000	2.671	1.880	1.875	1.870	1.885	1.880	1.880
-0.005	-0.005	0.000	0.000	-0.015	0.015	0.000	2.676	1.875	1.875	1.870	1.885	1.880	1.885
-0.010	-0.010	0.000	0.000	-0.015	0.015	0.000	2.661	1.875	1.870	1.870	1.885	1.880	1.885
0.000	0.000	0.000	0.000	-0.024	0.005	0.000	2.651	1.875	1.875	1.870	1.885	1.880	1.880
0.000	-0.015	-0.005	-0.005	0.000	0.010	0.000	2.646	1.870	1.870	1.870	1.885	1.885	1.880
-0.010	-0.005	0.000	-0.005	0.000	-0.005	0.000	2.651	1.870	1.870	1.870	1.885	1.885	1.880
0.005	-0.010	0.000	-0.005	-0.005	-0.010	0.000	2.817	1.885	1.870	1.870	1.885	1.880	1.875
-0.005	-0.010	0.000	-0.005	0.010	-0.005	0.000	2.642	1.875	1.870	1.870	1.885	1.885	1.880
0.000	-0.015	-0.005	-0.005	0.005	-0.010	0.000	2.808	1.895	1.875	1.870	1.885	1.880	1.880
0.005	-0.005	-0.005	0.000	0.005	-0.029	0.000	2.642	1.885	1.880	1.870	1.885	1.880	1.875
0.000	0.005	-0.005	-0.005	0.000	-0.005	0.000	2.661	1.880	1.880	1.875	1.890	1.880	1.880
-0.005	-0.005	0.000	-0.005	0.000	0.005	0.000	2.646	1.875	1.875	1.875	1.890	1.885	1.885
0.000	0.005	0.000	-0.005	0.005	0.005	0.000	2.637	1.870	1.880	1.875	1.890	1.885	1.885
-0.005	0.010	0.000	0.000	-0.005	-0.010	0.000	2.690	1.875	1.880	1.875	1.895	1.885	1.880
-0.005	-0.005	-0.005	0.000	0.005	-0.005	0.000	2.827	1.890	1.875	1.875	1.895	1.890	1.885
-0.005	0.000	-0.005	0.000	0.000	-0.005	0.000	2.808	1.899	1.885	1.875	1.895	1.890	1.880
0.000	-0.005	-0.005	0.000	0.005	-0.005	-0.005	2.661	1.890	1.885	1.880	1.895	1.890	1.885
-0.005	0.010	-0.005	0.000	0.000	-0.010	0.000	2.666	1.890	1.885	1.880	1.895	1.890	1.885
-0.005	-0.005	0.000	0.000	-0.005	-0.024	0.000	2.651	1.880	1.880	1.880	1.895	1.890	1.880
-0.010	-0.005	-0.005	-0.005	-0.005	0.000	0.000	2.646	1.870	1.875	1.880	1.895	1.890	1.890
0.000	-0.005	-0.005	0.000	-0.005	-0.005	0.000	2.642	1.870	1.875	1.875	1.895	1.890	1.890
0.000	-0.010	-0.005	-0.005	0.000	0.010	0.000	2.778	1.885	1.875	1.875	1.895	1.890	1.890
-0.005	-0.005	-0.005	-0.005	0.000	-0.005	0.000	2.632	1.875	1.875	1.875	1.895	1.890	1.885
-0.010	-0.005	-0.005	-0.005	-0.005	0.000	0.000	2.812	1.890	1.875	1.875	1.895	1.890	1.890
-0.005	-0.010	0.000	-0.005	0.000	0.005	0.000	2.666	1.885	1.880	1.875	1.895	1.890	1.895
0.000	-0.005	0.000	-0.005	0.005	0.000	0.000	2.651	1.880	1.880	1.875	1.895	1.890	1.890
-0.005	0.015	-0.005	-0.005	-0.005	-0.005	0.000	2.651	1.880	1.885	1.875	1.895	1.885	1.890
-0.005	0.020	-0.005	-0.005	-0.005	0.000	0.000	2.651	1.875	1.880	1.880	1.895	1.885	1.890
-0.005	0.024	0.000	-0.005	0.000	-0.005	0.000	2.676	1.880	1.880	1.880	1.895	1.890	1.890
-0.005	0.005	-0.005	-0.005	0.000	-0.005	0.000	2.637	1.875	1.875	1.875	1.895	1.890	1.890
-0.005	0.015	0.000	0.000	-0.005	-0.010	0.000	2.632	1.870	1.875	1.875	1.895	1.890	1.890
0.000	0.005	-0.005	0.000	-0.005	0.000	0.000	2.705	1.875	1.870	1.875	1.895	1.890	1.890
-0.005	0.010	-0.005	0.000	0.005	0.000	0.000	2.681	1.875	1.875	1.875	1.895	1.895	1.890
-0.005	0.005	-0.005	0.000	0.000	0.000	0.000	2.676	1.875	1.870	1.870	1.895	1.890	1.890
-0.005	0.005	-0.005	0.005	-0.005	0.000	0.000	2.666	1.875	1.870	1.870	1.890	1.890	1.890
-0.010	0.005	-0.005	-0.005	0.005	-0.005	0.000	2.759	1.885	1.875	1.870	1.890	1.890	1.885
-0.005	-0.010	0.000	-0.005	0.000	0.005	0.000	2.759	1.890	1.870	1.870	1.890	1.890	1.890
-0.010	-0.010	0.005	-0.005	0.000	0.000	0.000	2.642	1.880	1.875	1.875	1.890	1.885	1.890
-0.005	-0.010	-0.005	-0.005	-0.005	-0.010	-0.005	2.812	1.899	1.880	1.870	1.890	1.885	1.880
-0.005	-0.005	-0.010	-0.005	0.005	-0.010	0.000	2.651	1.890	1.880	1.875	1.890	1.885	1.885
-0.005	0.000	-0.010	-0.005	-0.005	0.010	0.000	2.651	1.880	1.880	1.875	1.890	1.885	1.890
-0.005	-0.005	-0.005	-0.010	0.005	0.010	0.000	2.651	1.880	1.880	1.875	1.890	1.885	1.885
-0.015	-0.005	0.000	-0.005	0.000	0.005	0.000	2.646	1.875	1.875	1.875	1.895	1.885	1.885
0.005	-0.010	0.000	-0.005	-0.005	0.005	0.000	2.666	1.880	1.875	1.875	1.895	1.885	1.885
0.000	-0.005	0.000	-0.005	0.000	-0.005	0.000	2.632	1.875	1.875	1.875	1.895	1.890	1.885
0.005	0.000	0.000	-0.005	-0.005	0.000	0.000	2.632	1.875	1.875	1.875	1.895	1.890	1.885
0.005	0.000	-0.005	0.000	-0.005	-0.005	0.000	2.803	1.885	1.880	1.875	1.895	1.890	1.890
0.000	0.005	-0.005	0.000	-0.005	-0.024	0.000	2.681	1.885	1.880	1.880	1.895	1.885	1.880
-0.005	0.000	-0.005	0.000	-0.015	-0.005	0.000	2.686	1.885	1.880	1.875	1.899	1.890	1.885
-0.005	0.010	-0.005	0.000	-0.015	-0.010	0.000	2.681	1.880	1.880	1.875	1.895	1.890	1.885
-0.005	0.000	-0.010	0.000	-0.010	-0.010	0.000	2.637	1.875	1.875	1.875	1.895	1.890	1.885
0.000	-0.005	-0.010	-0.005	-0.005	-0.010	0.000	2.681	1.875	1.875	1.875	1.895	1.890	1.890
-0.005	-0.015	-0.005	0.000	0.000	-0.024	0.000	2.651	1.875	1.870	1.875	1.895	1.890	1.885
-0.005	-0.010	0.000	-0.005	0.005	-0.010	0.000	2.651	1.875	1.870	1.875	1.895	1.890	1.890
-0.010	-0.015	0.000	-0.005	0.005	-0.029	0.000	2.705	1.875	1.870	1.875	1.890	1.890	1.885
0.000	-0.010	0.000	0.000	0.000	0.005	0.000	2.656	1.880	1.875	1.875	1.890	1.890	1.895
-0.005	-0.010	0.005	-0.005	0.000	0.000	0.000	2.661	1.875	1.875	1.870	1.890	1.885	1.890
-0.005	-0.005	0.000	-0.005	0.000	0.010	-0.005	2.686	1.880	1.875	1.870	1.890	1.890	1.890
0.005	0.005	0.000	-0.005	0.005	0.005	0.000	2.681	1.885	1.880	1.870	1.890	1.890	1.890
-0.005	0.000	-0.005	-0.005	0.000	0.010	0.000	2.681	1.880	1.880	1.870	1.890	1.885	1.890
0.000	-0.010	-0.005	-0.005	-0.010	-0.010	0.000	2.671	1.880	1.875	1.875	1.890	1.880	1.880
-0.010	-0.005	-0.005	-0.005	-0.005	0.010	0.000	2.681	1.875	1.875	1.875	1.890	1.885	1.890
-0.015	-0.005	0.000	0.000	-0.010	0.010	0.000	2.671	1.875	1.880	1.875	1.890	1.890	1.890
0.000	0.005	-0.005	0.000	-0.005	0.010	-0.005	2.681	1.880	1.880	1.875	1.895	1.885	1.885
-0.010	-0.005	0.000	0.000	-0.010	-0.020	0.000	2.671	1.880	1.880	1.875	1.895	1.890	1.880
-0.010	-0.005	-0.005	0.000	0.000	0.010	0.000	2.681	1.880	1.875	1.875	1.895	1.890	1.890
0.000	-0.010	-0.005	0.000	-0.005	0.000	0.000	2.671	1.880	1.880	1.875	1.895	1.890	1.890
-0.010	-0.010	-0.005	0.000	-0.005	0.005	0.000	2.759	1.885	1.880	1.875	1.895	1.890	1.890
-0.010	-0.015	-0.005	-0.005	-0.005	0.000	0.000	2.676	1.885	1.875	1.875	1.895	1.890	1.885
-0.010	-0.024	-0.005	0.000	0.000	-0.015	-0.005	2.671	1.880	1.875	1.875	1.890	1.890	1.885
-0.005	-0.024	-0.005	-0.005	-0.005	-0.015	0.000	2.666	1.875	1.875	1.870	1.890	1.890	1.880
0.000	-0.020	0.000	0.000	-0.005	0.000	0.000	2.681	1.880	1.875	1.875	1.895	1.890	1.890
0.005	-0.010	0.000	-0.005	0.000	-0.005	0.000	2.671	1.880	1.880	1.875	1.890	1.890	1.885
0.005	-0.005	0.000	-0.005	0.000	-0.010	0.000	2.656	1.875	1.880	1.875	1.890	1.890	1.890
-0.010	-0.010	0.000	-0.005	-0.005	0.005	0.000	2.676	1.875	1.875	1.875	1.895	1.885	1.890
-0.005	-0.005	-0.005	-0.005	0.000	0.000	0.000	2.622	1.870	1.875	1.875	1.890	1.890	1.890
0.000	-0.005	-0.005	-0.005	-0.005	-0.005	-0.005	2.666	1.875	1.875	1.875	1.890	1.885	1.885
-0.010	0.005	-0.005	-0.005	-0.005	0.000	0.000	2.671	1.875	1.880	1.875	1.890	1.885	1.885
0.000	-0.005	-0.010	0.000	-0.010	-0.029	0.000	2.676	1.875	1.875	1.875	1.890	1.885	1.880
0.000	0.000	-0.005	0.000	-0.005	0.005	0.000	2.666	1.880	1.875	1.875	1.895	1.890	1.885
-0.010	0.005	-0.005	0.000	0.000	0.005	0.000	2.681	1.880	1.875	1.875	1.895	1.890	1.890
0.000	0.000	0.000	0.000	-0.010	0.005	0.000	2.681	1.880	1.875	1.875	1.895	1.890	1.890
0.005	-0.005	-0.005	0.000	-0.010	-0.005	0.000	2.671	1.880	1.880	1.875	1.895	1.890	1.885
-0.005	0.010	-0.005	0.000	0.000	-0.005	0.000	2.749	1.885	1.880	1.875	1.895	1.890	1.885
0.000	0.005	0.000	0.000	-0.005	-0.005	0.000	2.671	1.885	1.880	1.875	1.895	1.890	1.885
-0.005	0.000	-0.005	-0.005	-0.005	0.005	0.000	2.671	1.880	1.880	1.875	1.895	1.890	1.890
-0.005	0.000	-0.005	0.000	0.000	0.000	0.000	2.666	1.880	1.880	1.875	1.895	1.890	1.890
-0.010	-0.005	-0.005	-0.005	0.005	-0.005	0.000	2.681	1.875	1.870	1.875	1.890	1.890	1.890
0.000	-0.005	-0.005	-0.005	-0.005	-0.010	0.000	2.681	1.875	1.875	1.875	1.890	1.890	1.890
0.000	-0.010	0.000	-0.005	0.005	0.005	0.000	2.686	1.880	1.875	1.875	1.890	1.890	1.890
0.000	-0.010	-0.005	-0.005	0.005	0.005	0.000	2.676	1.875	1.875	1.875	1.890	1.890	1.890
-0.005	-0.005	-0.005	-0.005	0.000	0.000	0.000	2.754	1.885	1.875	1.875	1.890	1.890	1.890
-0.005	-0.005	-0.005	-0.005	0.000	-0.015	0.000	2.676	1.890	1.880	1.875	1.895	1.885	1.885
-0.005	-0.005	0.000	0.000	-0.005	-0.005	0.000	2.676	1.890	1.880	1.875	1.890	1.885	1.885
-0.005	0.010	0.000	-0.005	0.000	-0.010	0.000	2.676	1.885	1.885	1.880	1.895	1.890	1.890
-0.005	0.015	0.000	-0.005	-0.005	0.010	-0.005	2.681	1.885	1.885	1.880	1.895	1.890	1.895
0.000	0.010	0.000	0.000	-0.010	-0.005	0.000	2.681	1.885	1.885	1.880	1.899	1.890	1.885
-0.005	0.005	-0.005	0.000	-0.005	0.005	0.000	2.671	1.880	1.880	1.880	1.895	1.890	1.890
-0.010	0.000	0.000	0.000	-0.005	0.000	0.000	2.676	1.880	1.880	1.880	1.899	1.890	1.890
0.000	-0.005	-0.005	0.000	-0.010	-0.010	0.000	2.759	1.890	1.880	1.880	1.899	1.890	1.890
0.000	-0.015	0.000	0.000	0.000	-0.024	0.000	2.661	1.885	1.875	1.880	1.899	1.895	1.885
-0.010	-0.010	-0.005	0.000	-0.005	-0.005	0.000	2.666	1.880	1.880	1.880	1.895	1.895	1.890
0.000	-0.005	-0.010	0.000	-0.005	0.000	0.000	2.686	1.880	1.880	1.875	1.895	1.890	1.890
-0.010	-0.010	0.000	-0.005	0.000	-0.005	0.000	2.671	1.880	1.880	1.880	1.895	1.895	1.895
-0.010	-0.010	-0.010	-0.005	0.000	-0.005	0.000	2.671	1.875	1.875	1.875	1.890	1.890	1.890
-0.005	0.000	0.000	-0.005	-0.005	0.000	0.000	2.676	1.880	1.880	1.875	1.895	1.890	1.890
0.005	-0.005	0.000	-0.005	-0.005	0.005	0.000	2.671	1.880	1.875	1.875	1.895	1.890	1.895
-0.005	0.010	-0.005	-0.005	0.000	0.010	0.000	2.749	1.890	1.880	1.875	1.895	1.890	1.895
0.005	0.005	0.000	-0.005	0.005	0.005	0.000	2.676	1.885	1.885	1.880	1.895	1.890	1.890
0.000	0.000	-0.010	-0.005	0.000	-0.010	0.000	2.671	1.880	1.880	1.875	1.895	1.890	1.890
0.000	0.010	-0.005	-0.005	-0.005	-0.005	0.000	2.676	1.880	1.885	1.880	1.895	1.890	1.890
0.000	0.010	0.000	0.000	0.000	0.000	0.000	2.656	1.875	1.885	1.880	1.899	1.895	1.890
-0.005	0.015	-0.005	-0.005	-0.005	-0.010	0.000	2.676	1.875	1.880	1.880	1.899	1.895	1.890
-0.010	0.020	-0.010	0.000	-0.005	-0.005	0.000	2.671	1.875	1.880	1.880	1.899	1.890	1.890
-0.005	-0.010	0.000	0.000	0.000	-0.005	0.000	2.681	1.880	1.870	1.875	1.899	1.895	1.890
0.000	-0.020	0.000	0.000	0.005	-0.015	0.000	2.793	1.895	1.875	1.875	1.899	1.895	1.890
0.000	-0.015	0.000	0.000	0.005	-0.010	0.000	2.661	1.885	1.880	1.875	1.895	1.895	1.890
-0.005	-0.015	-0.005	0.000	0.005	-0.024	0.000	2.676	1.880	1.880	1.875	1.895	1.895	1.890
-0.005	-0.010	-0.010	0.000	-0.005	-0.010	0.000	2.661	1.880	1.880	1.875	1.895	1.890	1.895
-0.010	-0.010	-0.010	0.000	-0.010	0.000	0.000	2.676	1.875	1.880	1.875	1.895	1.890	1.895
0.000	0.010	0.000	0.000	-0.005	-0.010	0.000	2.671	1.880	1.880	1.880	1.895	1.890	1.890
-0.005	-0.005	0.000	0.000	-0.010	0.005	0.000	2.681	1.880	1.875	1.880	1.895	1.890	1.895
-0.010	-0.015	-0.005	-0.005	0.000	0.005	0.000	2.671	1.880	1.875	1.875	1.895	1.895	1.890
-0.005	-0.005	-0.005	-0.005	0.000	-0.010	0.000	2.744	1.890	1.875	1.870	1.890	1.890	1.890
0.000	0.000	0.000	-0.005	-0.005	0.010	0.000	2.656	1.885	1.880	1.875	1.895	1.890	1.895
-0.010	-0.005	-0.005	-0.005	-0.005	0.010	0.000	2.671	1.880	1.880	1.875	1.890	1.890	1.895
0.000	-0.005	0.000	-0.005	-0.005	-0.005	0.000	2.646	1.880	1.880	1.875	1.895	1.890	1.885
-0.005	-0.005	0.000	-0.005	-0.015	0.000	0.000	2.666	1.880	1.880	1.880	1.895	1.885	1.890
0.000	0.005	-0.005	0.000	-0.010	-0.005	-0.005	2.676	1.880	1.885	1.880	1.895	1.890	1.885
0.000	0.010	-0.005	0.000	-0.010	-0.005	0.000	2.676	1.875	1.880	1.880	1.895	1.890	1.890
0.005	0.005	0.000	0.000	-0.005	0.000	0.000	2.666	1.880	1.880	1.880	1.899	1.895	1.890
-0.005	0.010	-0.005	0.000	-0.005	-0.015	0.000	2.798	1.890	1.880	1.880	1.899	1.890	1.885
-0.010	-0.005	0.000	0.000	-0.005	-0.005	0.000	2.681	1.885	1.880	1.880	1.899	1.895	1.890
-0.015	-0.005	-0.005	0.000	0.000	-0.010	0.000	2.686	1.885	1.880	1.880	1.895	1.895	1.890
-0.005	-0.005	-0.005	-0.005	0.005	-0.015	0.000	2.676	1.885	1.880	1.880	1.895	1.895	1.890
-0.005	-0.005	-0.005	0.000	0.024	-0.010	0.000	2.666	1.880	1.880	1.875	1.895	1.899	1.895
-0.005	-0.005	-0.005	0.000	0.020	0.000	0.000	2.681	1.885	1.880	1.880	1.895	1.895	1.895
0.000	0.000	-0.005	-0.005	0.010	0.000	0.000	2.661	1.880	1.885	1.875	1.895	1.890	1.890
0.005	-0.020	-0.005	-0.005	-0.005	0.000	0.000	2.666	1.880	1.875	1.875	1.895	1.890	1.895
-0.005	-0.015	0.000	-0.005	-0.005	0.005	0.000	2.803	1.895	1.880	1.875	1.895	1.885	1.890
-0.005	-0.024	0.000	-0.005	-0.005	0.000	0.000	2.671	1.890	1.880	1.875	1.895	1.890	1.890
-0.005	-0.015	-0.005	-0.005	0.000	0.000	0.000	2.676	1.885	1.880	1.880	1.895	1.890	1.890
0.000	-0.015	0.000	-0.005	-0.005	-0.020	0.000	2.666	1.885	1.880	1.880	1.895	1.890	1.885
0.000	-0.010	-0.005	-0.005	-0.005	0.000	0.000	2.676	1.885	1.885	1.880	1.895	1.890	1.890
0.000	-0.005	-0.005	0.000	-0.005	-0.020	0.000	2.686	1.885	1.880	1.880	1.899	1.890	1.880
-0.005	-0.010	-0.005	-0.005	-0.010	-0.005	0.000	2.671	1.880	1.880	1.880	1.899	1.890	1.890
-0.005	-0.005	-0.005	0.000	-0.005	0.015	0.000	2.744	1.890	1.885	1.880	1.899	1.895	1.899
0.000	0.000	-0.005	0.000	-0.005	0.010	0.000	2.676	1.890	1.885	1.885	1.899	1.895	1.895
-0.005	-0.005	-0.010	0.005	-0.005	0.005	0.000	2.666	1.885	1.885	1.880	1.899	1.895	1.895
-0.010	0.000	-0.005	-0.005	-0.005	0.010	0.000	2.681	1.880	1.885	1.885	1.899	1.895	1.895
-0.005	0.000	-0.005	-0.005	0.000	-0.005	0.000	2.676	1.880	1.885	1.880	1.899	1.895	1.890
-0.005	0.005	-0.005	0.000	-0.010	0.000	0.000	2.666	1.880	1.880	1.880	1.899	1.895	1.895
-0.010	-0.005	-0.005	0.000	-0.005	-0.005	0.000	2.676	1.875	1.880	1.880	1.899	1.895	1.890
0.000	-0.010	0.000	-0.005	-0.005	0.000	0.000	2.681	1.880	1.875	1.880	1.899	1.890	1.895
0.000	-0.015	0.000	-0.005	-0.005	0.000	0.000	2.783	1.895	1.880	1.875	1.899	1.895	1.895
-0.005	-0.005	-0.005	-0.005	-0.005	-0.020	0.000	2.676	1.885	1.880	1.875	1.895	1.890	1.890
0.010	0.000	-0.010	-0.005	-0.010	0.000	0.000	2.666	1.885	1.885	1.875	1.895	1.890	1.895
-0.005	-0.005	0.000	-0.005	-0.010	0.005	0.000	2.651	1.880	1.885	1.880	1.895	1.890	1.895
-0.005	0.000	0.005	-0.005	0.000	-0.010	0.000	2.681	1.880	1.880	1.880	1.895	1.895	1.890
-0.005	0.005	0.000	-0.005	0.000	-0.010	0.000	2.681	1.880	1.880	1.880	1.899	1.895	1.890
-0.005	0.000	-0.005	-0.005	0.000	0.005	0.000	2.666	1.880	1.875	1.880	1.899	1.895	1.895
0.000	0.005	0.000	0.000	-0.005	-0.015	-0.005	2.681	1.885	1.880	1.880	1.899	1.890	1.890
0.000	0.005	-0.005	-0.005	-0.005	0.010	0.000	2.808	1.895	1.880	1.880	1.899	1.895	1.899
0.000	0.005	0.000	-0.005	0.000	-0.005	0.000	2.681	1.895	1.885	1.885	1.899	1.895	1.890
0.000	0.005	-0.005	0.000	0.000	-0.005	-0.005	2.671	1.890	1.885	1.880	1.899	1.895	1.895
-0.005	-0.005	0.000	0.000	0.005	-0.020	0.000	2.690	1.890	1.885	1.885	1.899	1.895	1.890
0.000	0.010	0.000	0.000	-0.005	0.005	0.000	2.686	1.890	1.890	1.885	1.899	1.895	1.895
-0.005	0.005	-0.005	0.000	0.000	-0.015	0.000	2.661	1.885	1.890	1.880	1.899	1.895	1.895
-0.005	0.005	-0.010	0.000	0.000	0.000	0.000	2.676	1.880	1.885	1.885	1.899	1.895	1.899
0.000	0.005	0.000	0.000	-0.005	0.005	0.000	2.676	1.885	1.880	1.885	1.899	1.895	1.895
-0.015	-0.015	-0.005	0.000	-0.005	-0.020	0.000	2.729	1.885	1.875	1.880	1.895	1.895	1.890
0.005	-0.015	0.000	-0.005	-0.005	-0.005	0.000	2.666	1.885	1.880	1.880	1.899	1.895	1.895
-0.005	-0.020	-0.005	-0.005	-0.005	-0.010	0.000	2.676	1.885	1.880	1.880	1.895	1.895	1.890
0.000	-0.005	0.000	-0.005	-0.005	0.005	0.000	2.676	1.885	1.880	1.880	1.895	1.895	1.899
0.000	0.005	0.000	-0.005	-0.005	-0.010	0.000	2.666	1.880	1.885	1.880	1.899	1.890	1.895
0.005	0.005	0.000	-0.005	0.000	0.010	0.000	2.666	1.880	1.880	1.880	1.899	1.895	1.895
-0.005	0.005	0.000	-0.005	-0.005	-0.010	0.000	2.681	1.880	1.880	1.880	1.895	1.890	1.890
0.000	0.010	-0.005	-0.005	0.000	-0.020	0.000	2.681	1.880	1.880	1.880	1.899	1.890	1.890
-0.010	0.000	-0.005	-0.005	-0.005	0.005	0.000	2.798	1.890	1.880	1.880	1.899	1.895	1.895
0.000	-0.015	-0.005	0.000	0.000	0.000	0.000	2.661	1.890	1.880	1.880	1.899	1.895	1.895
0.000	0.000	-0.005	0.000	-0.005	0.005	0.000	2.676	1.890	1.885	1.875	1.899	1.895	1.895
-0.010	0.005	-0.010	0.000	-0.005	0.000	0.000	2.676	1.885	1.890	1.885	1.899	1.895	1.895
0.000	0.010	-0.005	0.000	0.000	0.005	0.000	2.686	1.890	1.890	1.885	1.904	1.899	1.895
0.000	0.000	-0.005	0.000	0.000	0.000	0.000	2.681	1.885	1.880	1.885	1.899	1.895	1.895
0.000	-0.010	-0.005	0.000	-0.005	0.000	0.000	2.671	1.885	1.880	1.880	1.899	1.895	1.890
0.000	-0.010	0.000	0.000	-0.005	0.005	0.000	2.666	1.885	1.880	1.880	1.899	1.895	1.895
-0.010	0.000	-0.005	0.000	-0.005	0.005	0.000	2.720	1.880	1.885	1.880	1.899	1.895	1.890
0.000	-0.005	0.000	-0.005	0.000	-0.015	0.000	2.681	1.885	1.880	1.880	1.899	1.895	1.890
0.000	-0.005	0.000	-0.005	-0.005	0.005	0.000	2.671	1.885	1.880	1.880	1.895	1.895	1.895
0.005	0.000	-0.005	-0.005	0.000	-0.010	0.000	2.671	1.885	1.880	1.880	1.899	1.895	1.890
-0.005	-0.020	-0.005	-0.005	-0.005	0.005	0.000	2.695	1.885	1.875	1.875	1.895	1.890	1.890
-0.005	-0.005	-0.005	-0.005	-0.005	0.010	0.000	2.690	1.885	1.880	1.875	1.895	1.895	1.895
0.005	-0.005	-0.005	-0.005	-0.005	-0.010	0.000	2.671	1.880	1.880	1.880	1.895	1.890	1.890
0.000	0.000	0.000	-0.005	-0.005	0.000	0.000	2.676	1.880	1.880	1.880	1.895	1.895	1.895
-0.005	0.000	-0.005	-0.005	0.000	0.000	0.000	2.720	1.890	1.885	1.880	1.895	1.895	1.895
0.000	0.000	0.000	-0.005	-0.005	-0.005	0.000	2.661	1.885	1.880	1.880	1.895	1.890	1.890
-0.005	-0.005	-0.005	0.000	-0.005	-0.020	0.000	2.686	1.885	1.880	1.880	1.899	1.895	1.890
-0.010	0.000	-0.005	0.000	-0.010	-0.024	0.000	2.671	1.885	1.885	1.880	1.899	1.895	1.890
0.000	0.005	-0.005	0.000	-0.005	0.015	0.000	2.686	1.885	1.885	1.885	1.899	1.895	1.899
-0.005	0.005	-0.005	0.005	-0.005	-0.005	0.000	2.681	1.885	1.885	1.880	1.899	1.895	1.895
0.000	-0.005	-0.005	0.000	-0.005	0.010	0.000	2.681	1.885	1.880	1.880	1.899	1.895	1.899
0.000	-0.005	0.000	0.000	-0.005	-0.005	0.000	2.656	1.880	1.885	1.880	1.899	1.895	1.895
0.000	-0.005	-0.005	0.000	0.000	-0.010	0.000	2.788	1.890	1.885	1.880	1.899	1.895	1.890
-0.005	-0.015	-0.005	0.000	0.005	-0.005	0.000	2.666	1.885	1.880	1.880	1.899	1.895	1.895
0.005	-0.010	-0.005	-0.005	0.000	-0.005	0.000	2.676	1.885	1.880	1.880	1.899	1.895	1.890
-0.010	-0.010	0.000	-0.005	-0.005	-0.005	0.000	2.661	1.880	1.880	1.880	1.895	1.890	1.895
-0.005	-0.010	-0.005	-0.005	-0.005	0.005	0.000	2.651	1.875	1.880	1.875	1.895	1.895	1.895
0.000	-0.024	-0.005	-0.005	0.000	0.005	0.000	2.666	1.875	1.875	1.875	1.895	1.890	1.895
0.000	-0.020	-0.005	-0.005	-0.005	-0.020	0.000	2.676	1.880	1.875	1.875	1.895	1.890	1.890
0.005	-0.005	0.000	-0.005	0.000	-0.005	0.000	2.666	1.880	1.880	1.875	1.895	1.890	1.890
0.005	0.000	0.000	-0.005	0.005	-0.010	0.000	2.715	1.885	1.880	1.880	1.895	1.895	1.890
0.000	-0.015	-0.005	-0.005	0.000	0.000	0.000	2.681	1.885	1.880	1.875	1.895	1.890	1.890
-0.005	0.000	-0.005	0.000	0.000	0.000	0.000	2.671	1.880	1.885	1.880	1.899	1.895	1.895
-0.005	-0.005	-0.005	0.000	0.000	-0.010	0.000	2.686	1.885	1.885	1.880	1.899	1.890	1.890
0.000	-0.005	-0.005	0.000	-0.010	0.000	0.000	2.671	1.885	1.885	1.880	1.899	1.890	1.895
-0.005	0.010	-0.005	0.000	0.000	-0.015	0.000	2.681	1.885	1.885	1.880	1.899	1.895	1.885
0.000	0.000	0.000	0.000	-0.005	0.000	0.000	2.671	1.885	1.885	1.880	1.899	1.895	1.895
0.000	0.000	-0.005	0.000	-0.005	-0.005	0.000	2.681	1.885	1.880	1.880	1.899	1.890	1.890
-0.005	-0.010	0.000	0.000	-0.005	0.005	0.000	2.715	1.890	1.880	1.880	1.899	1.895	1.895
-0.015	-0.010	0.000	-0.005	0.000	0.005	0.000	2.666	1.880	1.880	1.880	1.899	1.895	1.895
-0.005	0.000	0.000	0.000	0.005	0.000	0.000	2.681	1.885	1.880	1.880	1.899	1.895	1.895
-0.010	0.015	0.000	-0.005	0.000	0.000	0.000	2.671	1.880	1.885	1.880	1.899	1.895	1.895
-0.005	0.005	0.000	-0.005	0.000	0.000	0.000	2.671	1.880	1.880	1.880	1.899	1.890	1.890
-0.005	-0.015	-0.005	-0.005	-0.005	0.000	0.000	2.666	1.880	1.875	1.875	1.895	1.890	1.890
-0.005	-0.010	-0.005	-0.005	-0.005	0.000	0.000	2.671	1.880	1.875	1.875	1.895	1.890	1.890
-0.005	-0.010	0.005	-0.005	-0.005	-0.005	0.000	2.676	1.880	1.875	1.875	1.895	1.890	1.890
-0.010	-0.005	0.000	-0.005	-0.005	-0.015	0.000	2.773	1.890	1.880	1.875	1.895	1.890	1.890
-0.005	0.000	0.000	-0.005	-0.005	0.015	0.000	2.681	1.890	1.885	1.880	1.895	1.890	1.895
0.000	0.005	-0.005	-0.005	0.000	0.015	0.000	2.686	1.890	1.890	1.880	1.899	1.895	1.895
-0.010	0.020	0.000	0.000	-0.005	-0.005	-0.005	2.676	1.885	1.890	1.880	1.899	1.895	1.890
-0.005	-0.005	-0.005	0.000	0.005	0.010	0.000	2.676	1.885	1.880	1.885	1.899	1.895	1.895
0.000	0.000	0.000	0.000	-0.005	0.005	0.000	2.681	1.885	1.885	1.885	1.899	1.895	1.895
-0.005	-0.005	0.000	0.000	0.000	-0.005	0.000	2.681	1.885	1.885	1.880	1.899	1.895	1.890
-0.005	0.005	-0.005	0.000	0.010	-0.005	0.000	2.681	1.885	1.885	1.885	1.904	1.895	1.895
-0.005	0.000	0.005	0.000	0.005	-0.005	0.000	2.676	1.880	1.880	1.885	1.904	1.895	1.895
-0.005	0.010	-0.005	0.000	0.005	-0.005	0.000	2.671	1.880	1.885	1.880	1.899	1.899	1.890
-0.005	0.000	-0.005	-0.005	-0.005	-0.005	0.000	2.671	1.880	1.875	1.880	1.899	1.895	1.890
0.005	0.000	0.000	-0.005	-0.010	-0.010	0.000	2.676	1.880	1.880	1.880	1.899	1.890	1.890
-0.005	0.005	-0.005	-0.005	-0.015	-0.024	0.000	2.666	1.875	1.875	1.875	1.895	1.890	1.885
0.005	-0.005	-0.010	-0.005	-0.020	-0.024	0.000	2.676	1.880	1.875	1.875	1.895	1.885	1.885
0.000	-0.020	-0.010	-0.005	-0.010	-0.029	0.000	2.676	1.880	1.870	1.875	1.895	1.890	1.880
-0.005	0.005	-0.005	-0.005	0.010	0.005	0.000	2.681	1.880	1.880	1.875	1.895	1.899	1.899
0.005	0.010	-0.005	-0.005	0.010	-0.005	0.000	2.666	1.880	1.880	1.880	1.895	1.895	1.895
0.000	0.005	-0.005	0.000	0.010	0.005	0.000	2.676	1.875	1.880	1.875	1.895	1.895	1.899
0.000	-0.010	0.005	-0.005	0.000	0.005	0.000	2.681	1.880	1.875	1.875	1.895	1.895	1.895
0.000	0.015	-0.005	0.000	0.000	-0.010	0.000	2.676	1.885	1.880	1.880	1.895	1.890	1.895
-0.005	0.000	0.000	-0.005	-0.005	0.005	0.000	2.681	1.880	1.875	1.880	1.895	1.890	1.890
-0.005	-0.010	-0.005	0.000	0.000	0.010	0.000	2.661	1.880	1.875	1.875	1.895	1.895	1.895
0.005	0.005	-0.005	0.000	-0.005	-0.005	0.000	2.676	1.885	1.880	1.880	1.895	1.890	1.890
-0.005	0.000	0.005	0.000	-0.010	-0.015	0.000	2.666	1.880	1.880	1.880	1.895	1.890	1.885
-0.005	0.000	0.000	0.000	-0.010	-0.010	0.000	2.681	1.885	1.880	1.880	1.895	1.890	1.890
-0.010	-0.005	-0.005	-0.005	0.000	0.015	0.000	2.686	1.880	1.875	1.875	1.895	1.890	1.895
0.005	0.005	-0.005	-0.005	0.005	0.005	0.000	2.671	1.885	1.880	1.880	1.895	1.895	1.895
-0.005	-0.010	0.000	-0.005	0.005	0.015	0.000	2.676	1.880	1.875	1.875	1.895	1.890	1.895
-0.005	-0.010	-0.005	0.000	0.000	-0.005	0.000	2.666	1.880	1.880	1.875	1.895	1.890	1.890
0.005	-0.015	0.000	-0.005	-0.005	0.015	0.000	2.676	1.880	1.875	1.875	1.890	1.890	1.895
-0.005	-0.005	-0.005	-0.005	-0.010	-0.005	0.000	2.676	1.880	1.880	1.875	1.890	1.885	1.885
0.000	-0.015	-0.005	-0.005	-0.005	0.005	0.000	2.671	1.880	1.875	1.875	1.895	1.890	1.885
0.000	-0.005	0.000	-0.005	-0.005	-0.010	0.000	2.666	1.880	1.880	1.875	1.895	1.890	1.885
0.000	-0.005	0.000	-0.005	-0.010	0.010	0.000	2.686	1.880	1.875	1.875	1.895	1.890	1.890
-0.005	-0.005	0.000	-0.005	-0.015	0.000	0.000	2.686	1.885	1.880	1.875	1.895	1.885	1.890
0.000	0.000	-0.005	-0.005	-0.005	0.000	0.000	2.686	1.885	1.880	1.875	1.895	1.890	1.890
-0.005	0.005	0.000	-0.005	-0.005	-0.005	0.000	2.681	1.885	1.880	1.880	1.895	1.890	1.885
-0.005	0.000	0.000	-0.005	0.000	-0.015	0.000	2.676	1.880	1.880	1.880	1.899	1.890	1.885
0.000	-0.005	-0.005	0.005	-0.005	0.005	-0.005	2.671	1.880	1.880	1.875	1.899	1.895	1.895
-0.010	0.010	-0.005	0.000	0.000	0.000	0.000	2.681	1.880	1.885	1.875	1.899	1.895	1.890
-0.010	0.000	-0.005	0.000	-0.005	-0.029	0.000	2.661	1.880	1.880	1.875	1.895	1.890	1.880
0.000	0.005	0.000	0.000	-0.005	-0.005	0.000	2.671	1.880	1.880	1.875	1.895	1.895	1.895
-0.005	-0.005	-0.005	0.000	0.000	-0.010	0.000	2.666	1.880	1.875	1.875	1.895	1.890	1.890
-0.005	-0.020	0.000	0.000	0.000	0.005	0.000	2.686	1.880	1.875	1.875	1.895	1.895	1.890
-0.010	-0.005	-0.010	-0.005	0.000	0.005	0.000	2.681	1.875	1.875	1.875	1.890	1.890	1.895
0.000	-0.010	-0.005	0.000	0.000	-0.010	0.000	2.656	1.880	1.875	1.875	1.890	1.890	1.890
0.000	-0.010	0.000	-0.005	0.000	0.000	0.000	2.666	1.880	1.875	1.875	1.890	1.885	1.890
-0.010	-0.015	-0.005	-0.005	-0.005	0.000	0.000	2.681	1.875	1.870	1.875	1.890	1.885	1.890
-0.005	-0.020	0.000	-0.005	0.000	-0.005	0.000	2.676	1.875	1.875	1.875	1.890	1.890	1.890
0.000	-0.010	0.000	-0.005	-0.005	0.000	0.000	2.686	1.880	1.880	1.875	1.890	1.890	1.890
-0.005	-0.010	0.000	-0.005	-0.005	-0.020	0.000	2.661	1.875	1.875	1.875	1.890	1.885	1.880
-0.005	-0.005	0.000	-0.005	-0.005	-0.005	0.000	2.676	1.875	1.875	1.875	1.890	1.885	1.890
0.000	-0.010	0.000	-0.005	-0.005	-0.005	0.000	2.676	1.880	1.875	1.875	1.890	1.890	1.890
0.000	-0.005	-0.010	-0.005	0.000	0.000	0.000	2.671	1.880	1.880	1.875	1.895	1.890	1.890
0.000	0.000	-0.005	0.000	0.000	0.000	0.000	2.681	1.885	1.880	1.875	1.895	1.890	1.890
-0.005	0.005	-0.005	-0.005	-0.005	-0.005	0.000	2.686	1.880	1.880	1.880	1.895	1.885	1.885
-0.005	-0.005	-0.005	0.000	0.000	-0.005	0.000	2.681	1.880	1.880	1.875	1.895	1.890	1.890
-0.005	0.005	-0.005	0.000	-0.005	-0.010	0.000	2.681	1.885	1.880	1.875	1.895	1.890	1.885
-0.010	0.000	-0.005	0.000	0.000	0.000	0.000	2.681	1.880	1.875	1.880	1.895	1.895	1.890
0.000	-0.005	0.000	-0.005	-0.005	0.000	0.000	2.681	1.880	1.875	1.875	1.895	1.890	1.890
-0.005	0.000	0.000	-0.005	0.000	-0.024	0.000	2.681	1.880	1.880	1.875	1.895	1.890	1.880
-0.015	-0.010	0.000	0.000	-0.005	0.000	0.000	2.676	1.875	1.875	1.875	1.895	1.890	1.890
-0.005	-0.010	0.000	-0.005	0.000	-0.010	0.000	2.666	1.875	1.875	1.875	1.890	1.890	1.885
-0.005	-0.005	0.000	-0.005	-0.015	0.000	0.000	2.666	1.880	1.875	1.875	1.890	1.885	1.890
-0.010	-0.005	0.000	-0.005	-0.015	0.005	0.000	2.666	1.875	1.875	1.875	1.890	1.885	1.890
0.000	-0.015	-0.005	-0.005	0.000	-0.010	0.000	2.671	1.875	1.875	1.870	1.890	1.890	1.890
-0.005	0.000	0.000	-0.005	-0.005	-0.010	0.000	2.681	1.880	1.880	1.875	1.890	1.885	1.885
0.005	-0.015	-0.005	0.000	0.000	-0.015	0.000	2.676	1.880	1.875	1.875	1.895	1.890	1.885
0.000	-0.015	-0.005	-0.005	-0.005	-0.005	0.000	2.676	1.880	1.875	1.875	1.895	1.890	1.890
0.005	-0.010	-0.005	0.000	0.000	0.005	0.000	2.681	1.880	1.875	1.875	1.895	1.890	1.890
0.000	-0.010	0.000	-0.005	0.010	-0.020	0.000	2.676	1.880	1.880	1.875	1.895	1.890	1.885
0.000	-0.010	-0.005	0.000	0.005	-0.020	0.000	2.681	1.880	1.880	1.875	1.895	1.890	1.890
0.005	-0.010	-0.005	0.000	0.000	0.005	0.000	2.671	1.885	1.875	1.875	1.895	1.890	1.895
-0.005	0.000	-0.005	0.000	-0.005	0.005	0.000	2.676	1.880	1.880	1.875	1.895	1.890	1.890
0.000	0.005	-0.005	0.000	0.000	-0.005	0.000	2.666	1.880	1.880	1.875	1.895	1.890	1.890
0.005	0.005	-0.005	0.000	-0.005	0.010	0.000	2.671	1.885	1.880	1.880	1.895	1.890	1.895
0.000	-0.005	0.000	0.000	-0.005	0.005	0.000	2.661	1.875	1.875	1.875	1.895	1.890	1.890
-0.010	-0.005	-0.005	0.000	0.000	0.005	0.000	2.671	1.875	1.875	1.875	1.895	1.890	1.890
-0.005	-0.015	-0.005	-0.005	-0.010	0.000	0.000	2.681	1.880	1.870	1.875	1.890	1.885	1.885
0.000	0.015	-0.005	-0.005	0.000	-0.020	0.000	2.671	1.880	1.880	1.875	1.890	1.885	1.880
-0.005	0.000	-0.005	-0.005	0.005	0.005	0.000	2.681	1.875	1.875	1.875	1.895	1.890	1.890
-0.010	0.005	0.005	-0.005	0.005	0.010	0.000	2.671	1.875	1.875	1.875	1.890	1.890	1.890
0.005	0.010	-0.005	-0.005	0.000	-0.005	0.000	2.671	1.880	1.880	1.875	1.890	1.890	1.885
0.000	0.005	-0.005	-0.005	-0.005	0.000	-0.005	2.671	1.875	1.875	1.875	1.890	1.890	1.890
0.005	0.015	-0.005	-0.005	-0.010	0.005	0.000	2.676	1.880	1.880	1.875	1.890	1.885	1.885
0.000	0.000	0.000	-0.005	0.000	0.000	0.000	2.681	1.880	1.875	1.875	1.895	1.890	1.885
-0.005	-0.005	0.000	0.000	0.000	-0.005	0.000	2.671	1.875	1.875	1.875	1.895	1.890	1.890
0.000	0.005	-0.005	0.000	0.000	-0.015	0.000	2.676	1.880	1.880	1.875	1.895	1.890	1.880
0.000	0.010	-0.005	0.000	-0.005	0.000	0.000	2.681	1.885	1.880	1.875	1.895	1.890	1.890
-0.005	0.005	0.000	0.000	-0.010	-0.005	0.000	2.676	1.880	1.880	1.875	1.895	1.890	1.885
-0.005	0.010	-0.005	0.000	-0.010	-0.010	-0.005	2.671	1.880	1.880	1.875	1.895	1.890	1.885
-0.010	0.005	-0.005	0.000	0.000	-0.005	0.000	2.681	1.880	1.875	1.875	1.895	1.890	1.890
-0.005	-0.005	-0.005	0.000	0.000	-0.005	0.000	2.671	1.875	1.875	1.880	1.890	1.890	1.890
-0.015	-0.010	-0.005	-0.005	-0.005	-0.015	0.000	2.681	1.875	1.870	1.875	1.890	1.890	1.885
-0.010	-0.005	-0.005	-0.005	-0.005	0.000	-0.005	2.671	1.875	1.875	1.875	1.890	1.890	1.890
-0.005	-0.005	-0.005	0.000	-0.005	0.010	0.000	2.666	1.875	1.875	1.870	1.890	1.890	1.890
-0.005	-0.005	-0.005	-0.005	-0.005	0.005	0.000	2.661	1.875	1.870	1.870	1.890	1.885	1.890
0.000	-0.005	0.005	-0.005	0.005	-0.015	0.000	2.671	1.875	1.875	1.875	1.890	1.885	1.885
0.005	-0.005	0.000	-0.005	0.000	0.000	0.000	2.666	1.875	1.875	1.870	1.890	1.885	1.890
0.000	-0.005	-0.005	-0.005	-0.005	-0.005	0.000	2.656	1.875	1.875	1.875	1.890	1.885	1.890
-0.005	0.005	-0.005	-0.005	0.000	0.000	0.000	2.676	1.875	1.875	1.875	1.890	1.885	1.885
0.000	0.005	-0.005	-0.005	0.000	-0.010	0.000	2.671	1.875	1.875	1.875	1.890	1.890	1.885
-0.010	-0.010	-0.005	-0.005	0.000	0.005	0.000	2.686	1.875	1.870	1.870	1.890	1.890	1.890
-0.010	-0.010	-0.005	0.000	-0.005	-0.005	0.000	2.676	1.875	1.870	1.870	1.890	1.885	1.885
-0.005	-0.010	0.000	-0.005	-0.005	-0.005	0.000	2.681	1.880	1.875	1.875	1.890	1.885	1.885
-0.005	-0.005	-0.005	0.000	-0.005	0.000	0.000	2.671	1.880	1.875	1.875	1.890	1.890	1.890
-0.005	-0.015	-0.005	0.000	0.000	0.000	0.000	2.681	1.880	1.875	1.875	1.890	1.890	1.885
0.005	-0.005	-0.005	0.000	-0.005	0.000	0.000	2.666	1.885	1.880	1.875	1.895	1.885	1.885
-0.005	-0.005	-0.005	0.000	0.005	-0.005	0.000	2.676	1.875	1.875	1.875	1.890	1.890	1.885
-0.005	-0.015	-0.005	0.000	0.000	-0.005	0.000	2.676	1.875	1.875	1.875	1.890	1.890	1.885
0.005	-0.010	0.005	0.000	-0.005	-0.005	0.000	2.656	1.875	1.880	1.875	1.890	1.885	1.885
-0.010	-0.015	0.005	-0.005	-0.005	0.000	0.000	2.681	1.875	1.875	1.875	1.890	1.885	1.890
-0.005	-0.020	0.000	0.000	-0.005	0.000	0.000	2.681	1.875	1.875	1.875	1.890	1.885	1.890
0.000	-0.015	0.000	-0.005	0.000	0.010	0.000	2.676	1.875	1.870	1.875	1.890	1.885	1.885
-0.005	-0.005	-0.005	-0.005	0.000	0.010	0.000	2.666	1.875	1.875	1.870	1.890	1.885	1.885
-0.010	-0.010	-0.005	-0.005	0.005	0.000	0.000	2.690	1.875	1.875	1.870	1.890	1.885	1.885
-0.005	-0.010	-0.005	-0.005	-0.005	-0.005	0.000	2.676	1.875	1.875	1.875	1.890	1.885	1.885
0.005	-0.010	-0.005	0.000	-0.010	0.000	0.000	2.656	1.880	1.880	1.875	1.890	1.885	1.885
0.000	0.020	-0.010	-0.005	-0.010	-0.005	0.000	2.671	1.875	1.880	1.875	1.890	1.885	1.880
0.000	0.015	-0.005	-0.005	-0.020	0.000	-0.005	2.686	1.880	1.880	1.875	1.895	1.880	1.885
0.000	0.015	-0.005	-0.005	-0.010	-0.010	0.000	2.676	1.880	1.880	1.875	1.895	1.885	1.880
-0.015	0.010	-0.005	0.000	-0.005	-0.024	0.000	2.681	1.875	1.875	1.875	1.895	1.890	1.880
0.000	0.010	-0.005	0.000	-0.005	-0.024	0.000	2.666	1.875	1.875	1.880	1.895	1.890	1.885
-0.010	0.000	-0.005	0.000	-0.005	-0.005	0.000	2.686	1.880	1.870	1.875	1.895	1.890	1.890
0.005	0.000	0.000	0.000	0.000	-0.010	-0.005	2.676	1.880	1.875	1.875	1.895	1.890	1.885
0.005	0.005	0.000	0.000	0.000	-0.015	0.000	2.676	1.885	1.880	1.875	1.895	1.890	1.885
-0.005	-0.005	0.000	0.000	0.005	-0.010	0.000	2.681	1.880	1.875	1.870	1.895	1.895	1.890
-0.005	-0.005	0.005	0.000	0.005	-0.005	0.000	2.676	1.880	1.875	1.875	1.890	1.890	1.890
-0.005	0.000	0.005	-0.005	0.010	0.005	0.000	2.681	1.875	1.875	1.875	1.890	1.890	1.895
-0.005	-0.015	0.005	-0.005	0.005	-0.005	0.000	2.671	1.875	1.870	1.875	1.890	1.890	1.890
0.000	-0.020	-0.005	-0.005	0.000	0.010	0.000	2.651	1.875	1.875	1.870	1.890	1.885	1.890
0.000	-0.005	-0.005	-0.005	-0.015	-0.010	0.000	2.676	1.875	1.875	1.870	1.890	1.880	1.880
0.005	0.005	0.000	-0.005	-0.005	0.015	0.000	2.681	1.880	1.880	1.875	1.890	1.885	1.890
0.005	-0.005	0.000	-0.005	0.000	0.010	0.000	2.676	1.875	1.875	1.875	1.890	1.890	1.890
0.005	-0.005	-0.005	-0.005	-0.005	-0.005	0.000	2.676	1.875	1.875	1.875	1.895	1.885	1.880
0.000	-0.010	-0.005	0.000	0.000	-0.005	0.000	2.681	1.880	1.875	1.875	1.890	1.890	1.885
-0.005	-0.005	-0.005	0.000	-0.005	0.010	0.000	2.676	1.875	1.875	1.875	1.890	1.885	1.890
-0.005	0.005	-0.005	0.000	0.000	-0.005	0.000	2.646	1.875	1.875	1.875	1.890	1.890	1.885
-0.005	0.000	0.000	0.000	-0.005	-0.010	0.000	2.642	1.875	1.875	1.875	1.895	1.885	1.885
0.000	0.000	-0.005	0.000	-0.010	0.005	0.000	2.627	1.870	1.875	1.875	1.895	1.890	1.885
-0.010	0.005	-0.005	-0.005	0.000	-0.010	0.000	2.671	1.870	1.870	1.875	1.890	1.890	1.885
0.005	-0.005	-0.005	0.000	-0.005	-0.024	0.000	2.651	1.875	1.870	1.870	1.890	1.885	1.880
0.000	0.000	-0.005	0.000	0.000	0.010	0.000	2.656	1.870	1.870	1.875	1.890	1.890	1.890
-0.005	0.000	-0.005	-0.005	0.005	0.010	0.000	2.661	1.870	1.870	1.870	1.890	1.890	1.890
0.000	-0.015	-0.005	0.000	-0.005	-0.015	0.000	2.656	1.875	1.865	1.870	1.885	1.885	1.880
-0.005	-0.015	-0.005	-0.005	-0.010	0.000	0.000	2.642	1.875	1.870	1.870	1.885	1.880	1.885
-0.005	-0.015	-0.005	-0.005	-0.005	0.000	0.000	2.642	1.870	1.870	1.870	1.885	1.880	1.885
0.000	-0.015	0.000	-0.005	0.000	-0.005	0.000	2.637	1.870	1.870	1.870	1.885	1.880	1.880
0.000	-0.005	-0.005	-0.005	-0.005	-0.005	0.000	2.783	1.880	1.870	1.870	1.885	1.880	1.880
-0.005	-0.010	0.000	-0.005	-0.005	0.000	0.000	2.637	1.875	1.870	1.870	1.885	1.880	1.885
0.000	-0.010	-0.005	-0.005	0.000	0.000	0.000	2.642	1.875	1.870	1.870	1.885	1.880	1.880
-0.005	-0.010	0.005	-0.005	0.005	0.000	0.000	2.671	1.880	1.870	1.870	1.885	1.880	1.880
0.010	-0.005	-0.005	-0.005	0.000	-0.024	0.000	2.671	1.875	1.875	1.870	1.890	1.880	1.875
0.000	0.005	-0.010	-0.005	0.000	0.005	0.000	2.671	1.875	1.880	1.870	1.890	1.885	1.885
-0.010	0.005	-0.005	-0.005	-0.005	-0.010	0.000	2.676	1.875	1.875	1.875	1.890	1.880	1.880
-0.005	0.005	-0.005	0.000	-0.005	0.000	0.000	2.676	1.875	1.875	1.875	1.890	1.885	1.885
-0.010	0.000	-0.005	0.000	0.000	0.005	0.000	2.666	1.875	1.875	1.870	1.890	1.885	1.885
-0.005	0.000	-0.005	0.000	0.000	0.000	0.000	2.651	1.875	1.875	1.870	1.890	1.890	1.885
0.000	-0.010	-0.005	-0.005	-0.005	0.000	0.000	2.661	1.875	1.870	1.870	1.890	1.880	1.885
-0.010	-0.005	0.000	0.000	-0.005	0.000	0.000	2.651	1.870	1.870	1.870	1.890	1.885	1.885
-0.010	-0.005	0.005	-0.005	-0.005	-0.005	0.000	2.656	1.870	1.870	1.870	1.890	1.885	1.880
-0.010	-0.005	0.000	-0.005	0.000	0.000	0.000	2.646	1.870	1.870	1.870	1.890	1.885	1.885
-0.005	-0.005	-0.005	-0.005	0.000	-0.010	0.000	2.754	1.875	1.870	1.870	1.885	1.880	1.880
0.000	0.000	-0.005	-0.005	-0.005	-0.015	0.000	2.642	1.875	1.870	1.870	1.885	1.880	1.880
0.000	-0.015	0.000	-0.005	0.000	0.000	0.000	2.803	1.890	1.870	1.870	1.885	1.880	1.880
-0.010	-0.024	0.000	-0.005	0.000	0.000	0.000	2.827	1.899	1.875	1.870	1.890	1.880	1.885
-0.005	-0.015	-0.010	-0.005	0.000	0.000	0.000	2.671	1.890	1.880	1.870	1.885	1.880	1.880
0.005	0.005	0.000	-0.005	0.000	0.000	0.000	2.676	1.890	1.890	1.875	1.890	1.885	1.885
0.000	0.005	-0.005	0.000	0.000	0.000	0.000	2.656	1.885	1.890	1.880	1.890	1.885	1.885
-0.005	0.010	-0.005	-0.005	-0.005	-0.010	0.000	2.671	1.880	1.885	1.880	1.895	1.885	1.880
0.005	0.005	0.000	-0.005	0.000	-0.015	0.000	2.671	1.885	1.885	1.885	1.895	1.885	1.885
0.000	0.020	-0.005	0.000	-0.010	-0.024	0.000	2.656	1.880	1.885	1.885	1.899	1.885	1.880
0.005	0.000	-0.005	0.000	-0.005	0.005	0.000	2.646	1.875	1.875	1.880	1.895	1.890	1.890
-0.005	-0.010	-0.005	0.000	0.000	0.005	0.000	2.646	1.870	1.875	1.875	1.899	1.890	1.890
0.000	-0.010	-0.005	0.000	-0.005	-0.005	0.000	2.632	1.870	1.870	1.875	1.895	1.890	1.890
0.000	-0.005	-0.005	0.000	0.005	0.005	0.000	2.651	1.870	1.870	1.875	1.895	1.895	1.895
-0.005	0.000	-0.005	0.000	0.015	-0.015	0.000	2.720	1.875	1.870	1.870	1.895	1.895	1.885
-0.005	-0.005	-0.005	0.000	0.010	-0.005	0.000	2.627	1.870	1.870	1.870	1.890	1.890	1.890
-0.005	-0.010	0.000	-0.005	-0.005	0.000	0.000	2.622	1.870	1.870	1.870	1.890	1.885	1.890
-0.005	-0.010	0.000	-0.005	-0.005	-0.015	0.000	2.759	1.885	1.870	1.870	1.890	1.885	1.885
-0.005	-0.010	-0.005	-0.005	-0.005	-0.005	0.000	2.676	1.885	1.875	1.870	1.890	1.885	1.885
-0.005	0.010	0.000	-0.005	-0.010	-0.005	0.000	2.671	1.880	1.880	1.870	1.885	1.885	1.885
0.000	0.015	-0.005	-0.005	0.000	-0.010	0.000	2.666	1.880	1.880	1.875	1.890	1.885	1.885
-0.005	0.005	-0.005	-0.005	-0.005	0.000	0.000	2.666	1.875	1.875	1.875	1.890	1.885	1.885
0.000	0.015	0.000	-0.005	0.005	-0.010	0.000	2.676	1.875	1.875	1.875	1.890	1.885	1.880
-0.005	0.015	0.000	-0.005	-0.005	-0.005	0.000	2.676	1.875	1.875	1.875	1.890	1.885	1.885
-0.005	0.010	-0.005	-0.005	-0.010	0.000	0.000	2.656	1.875	1.875	1.875	1.890	1.885	1.885
-0.005	0.010	-0.005	-0.005	-0.005	-0.005	0.000	2.651	1.875	1.875	1.875	1.890	1.885	1.885
0.000	0.010	0.000	0.000	-0.005	0.000	0.000	2.651	1.870	1.870	1.875	1.895	1.890	1.890
-0.010	0.010	-0.005	0.000	-0.010	-0.005	0.000	2.642	1.870	1.870	1.870	1.890	1.885	1.885
-0.005	0.005	0.000	0.000	-0.010	-0.015	0.000	2.700	1.875	1.870	1.870	1.890	1.890	1.880
-0.005	0.005	-0.010	0.000	-0.005	0.000	0.000	2.817	1.890	1.875	1.870	1.890	1.890	1.890
0.005	-0.005	-0.005	0.000	0.000	-0.005	0.000	2.632	1.885	1.875	1.870	1.890	1.890	1.885
-0.005	-0.005	-0.010	-0.005	0.000	0.000	0.000	2.808	1.895	1.875	1.870	1.890	1.890	1.890
0.000	-0.005	0.000	-0.005	0.010	0.010	0.000	2.671	1.890	1.880	1.875	1.890	1.890	1.890
-0.005	0.000	-0.005	-0.005	-0.005	0.005	0.000	2.676	1.885	1.880	1.875	1.890	1.885	1.885
-0.005	-0.010	0.000	-0.005	0.000	0.005	0.000	2.666	1.880	1.880	1.875	1.890	1.885	1.885
-0.005	-0.010	0.005	-0.005	-0.005	-0.005	0.000	2.676	1.875	1.875	1.875	1.890	1.885	1.885
0.010	-0.005	0.000	-0.005	-0.010	-0.005	0.000	2.676	1.885	1.880	1.875	1.890	1.885	1.880
-0.005	-0.010	-0.005	-0.005	-0.005	0.000	0.000	2.671	1.875	1.875	1.875	1.890	1.885	1.890
-0.010	-0.010	0.000	-0.005	0.000	-0.015	0.000	2.651	1.870	1.875	1.875	1.895	1.885	1.885
0.005	-0.005	-0.010	-0.005	-0.005	-0.020	0.000	2.656	1.875	1.875	1.875	1.890	1.885	1.880
0.000	0.000	-0.005	-0.005	-0.010	0.005	0.000	2.651	1.875	1.875	1.875	1.895	1.890	1.890
0.000	0.005	-0.005	0.000	-0.005	0.005	0.000	2.642	1.870	1.875	1.875	1.895	1.890	1.890
0.000	-0.005	-0.005	0.000	-0.005	0.005	0.000	2.695	1.875	1.875	1.875	1.895	1.890	1.890
-0.005	-0.005	-0.005	0.000	-0.005	0.000	-0.005	2.642	1.870	1.870	1.875	1.895	1.890	1.890
-0.005	-0.005	-0.005	0.000	0.005	0.000	0.000	2.651	1.870	1.870	1.875	1.895	1.890	1.890
-0.010	-0.029	-0.005	0.000	0.000	-0.015	0.000	2.822	1.885	1.870	1.870	1.890	1.890	1.885
-0.005	-0.024	0.000	0.000	-0.005	-0.005	0.000	2.676	1.885	1.875	1.870	1.890	1.885	1.885
0.000	-0.020	-0.005	0.000	0.000	-0.029	0.000	2.676	1.880	1.875	1.870	1.890	1.885	1.880
0.000	-0.020	-0.005	0.000	-0.005	-0.005	0.000	2.656	1.875	1.875	1.870	1.890	1.885	1.885
-0.005	-0.010	-0.005	-0.005	-0.005	0.010	0.000	2.671	1.875	1.875	1.870	1.885	1.885	1.890
0.000	-0.010	-0.010	-0.005	-0.010	0.000	0.000	2.666	1.875	1.875	1.870	1.890	1.885	1.885
0.000	-0.010	-0.005	-0.005	-0.005	0.010	0.000	2.656	1.875	1.870	1.870	1.890	1.885	1.885
-0.005	-0.010	-0.005	-0.005	-0.005	0.010	0.000	2.666	1.875	1.870	1.870	1.890	1.885	1.885
-0.005	0.005	-0.005	-0.005	0.000	-0.005	0.000	2.656	1.875	1.875	1.870	1.890	1.885	1.880
0.000	-0.005	0.005	-0.005	-0.005	0.000	0.000	2.651	1.875	1.870	1.870	1.890	1.885	1.885
0.000	-0.005	0.000	-0.005	0.000	0.005	0.000	2.632	1.870	1.870	1.875	1.890	1.885	1.885
0.005	-0.005	0.000	-0.005	0.010	-0.005	0.000	2.690	1.875	1.870	1.870	1.890	1.885	1.885
0.005	0.000	0.000	0.000	0.015	0.000	0.000	2.798	1.890	1.875	1.875	1.890	1.890	1.885
0.005	0.005	0.000	0.000	0.000	0.005	0.000	2.617	1.880	1.880	1.875	1.890	1.885	1.885
0.000	0.015	-0.005	0.000	-0.005	-0.010	0.000	2.808	1.895	1.885	1.875	1.890	1.885	1.880
-0.005	0.005	-0.005	0.000	0.000	-0.005	0.000	2.676	1.885	1.885	1.875	1.895	1.885	1.880
-0.005	0.005	0.000	0.000	-0.005	0.000	0.000	2.671	1.885	1.880	1.875	1.890	1.885	1.885
-0.005	0.005	-0.005	0.000	-0.015	-0.024	0.000	2.671	1.880	1.880	1.875	1.890	1.880	1.880
-0.005	0.020	-0.010	0.000	-0.005	-0.005	0.000	2.661	1.880	1.885	1.875	1.895	1.890	1.885
0.000	0.005	-0.005	0.000	-0.005	-0.005	0.000	2.656	1.875	1.880	1.880	1.895	1.890	1.885
-0.005	0.010	0.000	-0.005	-0.010	-0.010	0.000	2.661	1.875	1.875	1.875	1.895	1.885	1.885
-0.005	0.005	0.000	0.000	-0.005	0.005	0.000	2.656	1.870	1.875	1.875	1.895	1.890	1.890
0.000	0.010	0.000	-0.005	0.000	-0.010	0.000	2.656	1.875	1.875	1.875	1.895	1.890	1.885
-0.005	0.005	0.000	-0.005	0.000	0.000	0.000	2.632	1.870	1.875	1.875	1.890	1.890	1.885
-0.005	0.005	0.000	-0.010	0.000	-0.015	0.000	2.642	1.865	1.870	1.875	1.890	1.885	1.880
-0.005	0.005	0.000	-0.005	-0.005	0.000	0.000	2.671	1.870	1.870	1.870	1.890	1.885	1.890
-0.005	0.000	0.000	-0.005	-0.010	-0.005	0.000	2.822	1.885	1.870	1.870	1.890	1.885	1.890
-0.015	0.010	-0.005	-0.005	-0.005	-0.010	0.000	2.642	1.880	1.875	1.870	1.890	1.885	1.885
0.000	0.000	0.000	-0.005	-0.005	-0.015	0.000	2.646	1.880	1.875	1.875	1.890	1.885	1.885
-0.005	0.000	0.000	-0.005	-0.010	-0.005	0.000	2.656	1.875	1.875	1.870	1.890	1.885	1.885
0.000	-0.005	-0.005	0.000	-0.010	-0.029	0.000	2.651	1.880	1.875	1.870	1.890	1.885	1.880
0.000	0.000	-0.005	-0.005	-0.005	0.005	0.000	2.651	1.875	1.875	1.875	1.890	1.885	1.890
0.000	-0.005	0.000	0.000	-0.005	0.005	0.000	2.642	1.875	1.875	1.870	1.890	1.885	1.890
-0.005	0.005	-0.010	0.000	0.005	-0.005	0.000	2.744	1.880	1.875	1.875	1.890	1.890	1.885
0.000	-0.010	-0.005	0.000	0.005	0.000	0.000	2.646	1.880	1.870	1.870	1.890	1.890	1.890
0.000	-0.005	-0.005	0.000	0.000	0.005	0.000	2.803	1.890	1.875	1.875	1.890	1.885	1.885
-0.010	-0.005	-0.005	-0.005	0.005	0.005	0.000	2.656	1.885	1.875	1.875	1.890	1.885	1.885
0.000	-0.015	-0.005	-0.005	0.000	0.000	0.000	2.661	1.885	1.875	1.870	1.890	1.885	1.885
0.000	-0.015	-0.005	-0.005	-0.005	0.005	0.000	2.646	1.875	1.875	1.875	1.890	1.880	1.885
-0.005	-0.005	0.000	-0.005	-0.005	0.010	0.000	2.637	1.870	1.875	1.875	1.890	1.885	1.885
-0.010	-0.015	-0.005	-0.005	-0.005	0.010	0.000	2.661	1.870	1.870	1.870	1.890	1.885	1.885
-0.005	-0.010	0.000	-0.005	0.000	-0.015	0.000	2.808	1.890	1.875	1.870	1.890	1.885	1.880
0.005	-0.005	0.000	-0.005	0.000	-0.010	0.000	2.627	1.880	1.880	1.875	1.890	1.885	1.880
-0.005	-0.005	0.000	-0.005	0.000	-0.005	0.000	2.827	1.895	1.880	1.875	1.890	1.885	1.885
0.010	-0.005	0.000	-0.005	-0.005	-0.005	0.000	2.666	1.890	1.885	1.875	1.895	1.885	1.885
-0.005	0.005	0.000	-0.005	0.000	-0.010	0.000	2.661	1.885	1.885	1.880	1.895	1.885	1.885
0.000	0.000	0.000	-0.005	-0.005	0.000	0.000	2.656	1.880	1.880	1.880	1.899	1.890	1.890
-0.005	0.010	0.000	0.000	-0.010	-0.005	0.000	2.656	1.875	1.880	1.880	1.899	1.890	1.885
-0.010	-0.005	0.000	0.000	-0.005	-0.005	0.000	2.725	1.880	1.875	1.880	1.895	1.890	1.890
0.000	-0.005	-0.005	0.005	-0.005	-0.005	0.000	2.642	1.875	1.875	1.875	1.895	1.890	1.885
-0.005	-0.005	-0.005	0.000	-0.010	0.000	0.000	2.622	1.870	1.875	1.875	1.895	1.890	1.890
0.000	0.000	-0.005	0.000	-0.005	0.000	0.000	2.808	1.895	1.875	1.875	1.895	1.890	1.890
-0.005	-0.005	-0.005	-0.005	-0.005	0.000	0.000	2.666	1.885	1.880	1.875	1.895	1.890	1.890
-0.010	-0.020	-0.005	0.000	0.005	0.000	-0.005	2.681	1.880	1.875	1.875	1.895	1.895	1.890
-0.010	-0.005	0.000	-0.005	0.000	-0.005	0.000	2.671	1.880	1.875	1.875	1.895	1.890	1.890
0.000	-0.005	0.000	-0.005	-0.010	0.005	0.000	2.632	1.875	1.875	1.875	1.890	1.885	1.890
0.000	-0.010	0.000	0.000	-0.005	0.005	0.000	2.642	1.870	1.875	1.875	1.890	1.890	1.885
0.000	-0.005	0.000	-0.005	0.000	-0.010	0.000	2.651	1.870	1.875	1.875	1.890	1.890	1.880
0.005	-0.005	0.000	-0.005	0.005	0.005	0.000	2.803	1.890	1.875	1.875	1.890	1.890	1.890
-0.005	-0.005	-0.005	-0.005	0.010	-0.005	0.000	2.646	1.880	1.875	1.875	1.890	1.890	1.890
0.000	-0.010	-0.005	-0.005	0.010	0.000	0.000	2.642	1.880	1.875	1.875	1.890	1.890	1.890
0.000	0.000	-0.010	0.000	0.000	0.000	0.000	2.646	1.875	1.875	1.875	1.895	1.885	1.890
0.000	0.000	-0.010	0.000	-0.005	-0.010	0.000	2.642	1.875	1.875	1.875	1.890	1.885	1.885
0.005	-0.005	-0.005	0.000	-0.005	0.000	0.000	2.705	1.885	1.880	1.875	1.890	1.885	1.885
0.000	0.005	-0.005	0.000	-0.005	0.005	0.000	2.812	1.899	1.880	1.880	1.895	1.890	1.890
0.000	-0.005	0.005	0.000	-0.005	-0.005	0.000	2.622	1.885	1.880	1.880	1.895	1.890	1.890
-0.005	-0.005	0.000	-0.005	0.000	0.000	0.000	2.837	1.904	1.885	1.880	1.895	1.890	1.890
0.000	-0.010	-0.005	0.000	0.005	-0.015	0.000	2.656	1.890	1.885	1.880	1.895	1.895	1.885
0.000	0.005	0.000	0.000	0.010	-0.010	0.000	2.661	1.885	1.890	1.885	1.895	1.895	1.890
-0.005	0.000	0.000	0.000	0.000	0.005	0.000	2.759	1.890	1.890	1.880	1.899	1.890	1.895
-0.005	-0.010	-0.005	-0.005	-0.010	0.000	0.000	2.666	1.885	1.885	1.880	1.895	1.885	1.890
0.000	-0.005	-0.005	-0.005	-0.015	-0.024	0.000	2.656	1.880	1.885	1.880	1.895	1.890	1.880
-0.005	-0.005	-0.005	-0.005	-0.020	0.005	0.000	2.651	1.875	1.880	1.875	1.895	1.885	1.890
-0.010	-0.005	0.000	-0.005	-0.034	0.010	0.000	2.681	1.875	1.880	1.880	1.895	1.885	1.890
0.005	-0.005	0.005	-0.010	0.000	0.005	0.000	2.749	1.885	1.880	1.880	1.899	1.895	1.890
-0.005	-0.010	0.005	-0.005	-0.005	0.005	0.000	2.656	1.880	1.880	1.880	1.899	1.895	1.890
0.000	0.005	-0.005	0.000	0.000	-0.005	0.000	2.637	1.880	1.885	1.880	1.895	1.895	1.890
0.000	-0.005	0.000	-0.005	-0.005	0.000	0.000	2.676	1.880	1.880	1.880	1.899	1.895	1.890
-0.005	0.010	-0.005	-0.005	-0.005	-0.020	0.000	2.671	1.880	1.880	1.880	1.899	1.890	1.890
-0.005	-0.005	0.000	-0.005	0.000	0.000	0.000	2.666	1.885	1.880	1.880	1.899	1.899	1.895
0.005	0.000	-0.005	-0.005	-0.005	0.015	0.000	2.681	1.885	1.880	1.880	1.899	1.895	1.895
-0.005	0.000	-0.005	0.000	0.000	0.015	0.000	2.666	1.880	1.880	1.880	1.899	1.895	1.895
0.000	0.000	-0.005	-0.005	-0.005	0.010	0.000	2.676	1.885	1.880	1.880	1.899	1.895	1.895
-0.005	0.005	-0.005	0.000	-0.005	-0.010	0.000	2.676	1.880	1.880	1.880	1.899	1.895	1.890
0.000	0.000	-0.005	0.000	-0.005	-0.010	0.000	2.681	1.880	1.880	1.880	1.899	1.895	1.885
0.000	0.005	0.000	0.000	-0.005	0.005	0.000	2.676	1.880	1.880	1.880	1.899	1.895	1.895
-0.005	0.000	-0.005	-0.005	-0.005	-0.015	0.000	2.681	1.880	1.875	1.875	1.899	1.890	1.885
-0.015	-0.005	0.000	-0.005	0.005	0.000	0.000	2.676	1.875	1.875	1.875	1.895	1.895	1.895
-0.015	-0.010	0.000	-0.005	-0.005	-0.015	0.000	2.671	1.880	1.875	1.875	1.895	1.890	1.890
-0.005	-0.010	0.000	-0.005	0.010	0.005	0.000	2.666	1.875	1.875	1.875	1.895	1.895	1.895
-0.005	-0.015	-0.005	-0.005	0.005	-0.010	0.000	2.686	1.880	1.875	1.870	1.890	1.890	1.890
0.000	-0.005	-0.005	-0.005	0.000	-0.005	0.000	2.681	1.880	1.875	1.875	1.895	1.890	1.890
-0.005	0.000	-0.005	-0.005	-0.010	-0.005	0.000	2.676	1.880	1.880	1.875	1.895	1.885	1.890
0.000	-0.005	0.000	-0.005	-0.005	-0.005	0.000	2.666	1.880	1.880	1.875	1.890	1.890	1.885
-0.005	0.000	-0.005	-0.005	0.010	-0.010	0.000	2.671	1.880	1.880	1.875	1.895	1.890	1.890
