-0.010	0.010	-0.005	-0.005	0.000	-0.020	0.000	2.671	2.534	2.178	2.119	2.031	2.061	2.046
0.015	-0.005	0.000	0.000	0.000	-0.005	0.000	2.671	2.402	2.241	2.153	2.065	2.061	2.056
0.010	-0.005	0.000	0.000	-0.005	0.010	0.000	2.666	2.300	2.261	2.183	2.104	2.070	2.061
-0.005	-0.005	0.000	0.000	-0.010	0.010	0.000	2.651	2.217	2.246	2.197	2.134	2.080	2.065
-0.010	-0.005	0.000	0.000	-0.005	-0.005	0.000	2.671	2.168	2.227	2.207	2.158	2.104	2.075
-0.010	-0.015	0.000	-0.005	0.000	0.000	0.000	2.681	2.129	2.197	2.202	2.178	2.119	2.085
0.000	-0.015	0.000	-0.005	-0.010	0.000	0.000	2.676	2.109	2.178	2.197	2.187	2.139	2.100
-0.010	0.000	0.000	-0.005	0.005	-0.005	0.000	2.676	2.090	2.158	2.187	2.192	2.153	2.114
-0.005	-0.005	0.000	-0.005	-0.010	-0.010	0.000	2.671	2.080	2.134	2.173	2.192	2.158	2.124
-0.005	-0.005	0.000	-0.005	-0.005	-0.010	0.000	2.681	2.070	2.119	2.158	2.187	2.168	2.139
-0.010	0.000	0.000	-0.005	-0.005	-0.010	0.000	2.676	2.065	2.104	2.144	2.183	2.173	2.148
-0.005	0.000	-0.005	-0.005	0.000	0.005	0.000	2.676	2.065	2.095	2.129	2.173	2.173	2.158
0.000	0.000	-0.005	0.000	-0.005	0.005	0.000	2.671	2.061	2.085	2.119	2.163	2.168	2.163
0.000	-0.005	-0.005	0.000	0.000	0.000	0.000	2.681	2.061	2.080	2.104	2.153	2.168	2.163
0.000	0.020	-0.005	-0.005	0.000	0.000	0.000	2.676	2.061	2.080	2.100	2.144	2.158	2.163
0.000	0.005	-0.005	0.000	0.000	-0.010	0.000	2.666	2.056	2.070	2.090	2.134	2.153	2.158
0.000	0.000	-0.005	0.000	0.005	-0.020	0.000	2.681	2.061	2.065	2.085	2.124	2.144	2.148
0.000	-0.005	-0.005	0.000	0.000	0.000	0.000	2.671	2.056	2.061	2.075	2.119	2.134	2.153
0.000	-0.005	-0.010	0.000	-0.005	0.005	0.000	2.666	2.051	2.061	2.070	2.109	2.124	2.148
0.005	-0.005	-0.005	0.000	0.005	0.000	0.000	2.661	2.051	2.056	2.065	2.100	2.119	2.139
0.000	-0.010	-0.005	0.000	0.000	-0.005	0.000	2.651	2.041	2.056	2.061	2.095	2.109	2.129
-0.020	-0.015	0.000	-0.005	-0.005	-0.010	0.000	2.686	2.041	2.046	2.056	2.090	2.100	2.119
0.000	-0.020	0.000	0.000	-0.005	-0.005	0.000	2.666	2.046	2.046	2.051	2.085	2.095	2.114
0.000	-0.029	-0.005	-0.005	-0.005	-0.005	0.000	2.651	2.036	2.041	2.046	2.075	2.085	2.104
-0.005	-0.024	0.000	-0.005	-0.005	0.010	0.000	2.686	2.036	2.041	2.046	2.075	2.080	2.100
0.000	-0.034	-0.005	-0.005	-0.005	0.000	0.000	2.676	2.036	2.041	2.041	2.070	2.080	2.095
0.000	-0.029	-0.005	-0.005	-0.010	0.005	0.000	2.671	2.041	2.036	2.041	2.065	2.075	2.090
-0.005	-0.010	-0.005	-0.005	-0.005	-0.005	0.000	2.676	2.036	2.046	2.041	2.065	2.070	2.085
-0.005	-0.005	0.000	-0.005	-0.005	-0.005	0.000	2.681	2.041	2.046	2.041	2.065	2.070	2.080
0.000	-0.010	0.000	-0.005	-0.005	0.005	0.000	2.676	2.036	2.046	2.041	2.065	2.070	2.080
-0.005	0.020	-0.005	0.000	-0.010	-0.005	0.000	2.700	2.041	2.051	2.046	2.065	2.065	2.075
-0.010	0.020	0.000	-0.005	-0.005	0.000	0.000	2.661	2.036	2.046	2.046	2.065	2.065	2.070
0.000	0.010	-0.005	-0.005	-0.005	-0.010	0.000	2.681	2.031	2.036	2.041	2.065	2.065	2.065
-0.015	0.015	-0.005	0.000	-0.005	0.000	0.000	2.671	2.026	2.036	2.041	2.061	2.061	2.070
-0.010	0.015	0.000	0.000	-0.005	0.005	0.000	2.681	2.026	2.031	2.036	2.061	2.061	2.065
-0.005	0.015	0.000	0.000	0.000	0.010	-0.005	2.681	2.026	2.031	2.036	2.061	2.061	2.065
-0.010	0.000	0.000	0.000	0.000	0.005	0.000	2.671	2.021	2.021	2.031	2.056	2.056	2.061
-0.005	-0.005	0.000	-0.005	0.000	-0.024	0.000	2.676	2.021	2.021	2.026	2.051	2.051	2.051
-0.005	-0.010	0.000	-0.005	-0.005	-0.015	-0.005	2.671	2.017	2.017	2.021	2.051	2.051	2.051
-0.005	-0.010	0.005	-0.005	-0.005	-0.005	0.000	2.651	2.012	2.017	2.021	2.046	2.046	2.056
-0.005	-0.010	-0.005	-0.005	-0.005	-0.015	0.000	2.676	2.012	2.012	2.017	2.041	2.041	2.051
-0.005	-0.020	-0.005	-0.005	-0.005	-0.010	0.000	2.671	2.007	2.007	2.012	2.041	2.041	2.051
-0.005	-0.005	-0.005	-0.005	-0.005	0.000	0.000	2.676	2.012	2.012	2.017	2.036	2.036	2.051
-0.005	0.005	-0.005	-0.005	0.000	-0.020	0.000	2.700	2.017	2.017	2.012	2.036	2.036	2.041
0.000	0.000	-0.005	0.000	0.000	0.005	0.000	2.666	2.012	2.017	2.017	2.036	2.036	2.046
-0.005	0.005	-0.005	-0.005	0.005	0.000	0.000	2.676	2.012	2.017	2.017	2.036	2.036	2.041
-0.005	-0.005	-0.005	0.000	0.005	-0.010	0.000	2.656	2.002	2.007	2.012	2.031	2.036	2.041
0.000	0.005	-0.005	0.000	-0.005	0.000	-0.005	2.666	2.007	2.012	2.012	2.036	2.031	2.036
-0.010	0.010	-0.010	0.000	-0.005	-0.005	0.000	2.666	2.002	2.012	2.012	2.031	2.031	2.036
-0.005	-0.005	-0.005	0.000	-0.005	-0.005	0.000	2.671	1.997	2.002	2.007	2.031	2.031	2.036
-0.005	0.000	-0.005	0.000	0.000	0.000	0.000	2.681	1.997	1.997	2.007	2.031	2.026	2.036
-0.005	0.000	-0.005	0.000	0.000	-0.005	0.000	2.676	1.997	1.997	2.002	2.026	2.026	2.031
-0.005	-0.005	0.000	0.000	0.005	0.000	0.000	2.676	1.992	1.997	2.002	2.026	2.026	2.031
0.005	-0.005	-0.005	0.000	-0.005	0.005	0.000	2.661	1.992	1.992	1.997	2.021	2.021	2.026
-0.005	-0.005	-0.005	0.000	0.000	0.005	0.000	2.646	1.982	1.992	1.992	2.017	2.021	2.026
-0.005	-0.005	0.000	-0.005	0.000	0.005	0.000	2.671	1.982	1.987	1.992	2.017	2.017	2.026
0.000	-0.010	0.000	-0.005	0.000	0.010	0.000	2.666	1.982	1.987	1.992	2.012	2.017	2.021
-0.005	-0.005	0.000	-0.005	-0.005	-0.020	0.000	2.676	1.982	1.987	1.987	2.012	2.012	2.012
0.000	0.000	-0.005	-0.005	-0.005	-0.010	0.000	2.666	1.982	1.987	1.987	2.007	2.007	2.012
0.000	-0.005	-0.005	-0.005	-0.005	0.015	0.000	2.661	1.982	1.987	1.982	2.007	2.007	2.017
0.000	-0.010	-0.010	-0.005	-0.005	0.010	0.000	2.686	1.982	1.978	1.982	2.007	2.007	2.017
0.000	-0.010	-0.010	-0.005	0.000	-0.010	0.000	2.681	1.978	1.982	1.982	2.007	2.007	2.007
0.005	0.000	-0.005	-0.005	-0.005	0.010	0.000	2.671	1.982	1.987	1.982	2.007	2.007	2.012
0.000	0.000	-0.005	0.000	-0.005	0.000	0.000	2.676	1.978	1.982	1.982	2.007	2.002	2.007
-0.005	0.000	-0.005	0.000	-0.005	0.005	0.000	2.666	1.978	1.982	1.987	2.007	2.002	2.007
0.000	0.005	0.000	0.000	-0.005	0.000	0.000	2.671	1.978	1.982	1.982	2.002	2.002	2.007
-0.005	-0.010	0.000	0.000	0.000	-0.005	0.000	2.671	1.973	1.978	1.982	2.002	2.002	2.002
0.000	0.000	-0.005	0.000	-0.005	-0.005	0.000	2.676	1.973	1.978	1.978	2.002	2.002	2.002
-0.005	0.000	-0.005	0.000	-0.005	0.000	-0.005	2.676	1.973	1.978	1.978	1.997	1.997	2.002
0.000	0.000	-0.010	0.000	0.000	-0.020	0.000	2.646	1.968	1.973	1.973	1.997	1.997	1.992
-0.005	0.000	-0.005	-0.005	-0.005	0.005	0.000	2.686	1.968	1.968	1.968	1.992	1.992	2.002
-0.010	-0.010	-0.005	-0.005	0.000	-0.005	0.000	2.656	1.963	1.968	1.968	1.992	1.992	1.992
0.000	-0.010	-0.005	-0.005	0.000	0.000	0.000	2.666	1.968	1.968	1.963	1.987	1.992	1.992
-0.010	-0.010	-0.005	-0.005	-0.005	0.000	0.000	2.656	1.958	1.963	1.968	1.987	1.987	1.992
-0.005	-0.015	0.000	-0.005	0.000	0.000	0.000	2.681	1.963	1.963	1.963	1.987	1.987	1.992
-0.005	0.000	0.000	-0.005	-0.005	-0.029	0.000	2.656	1.958	1.963	1.968	1.987	1.982	1.982
-0.005	0.000	-0.005	-0.005	0.000	0.010	0.000	2.681	1.963	1.963	1.963	1.987	1.982	1.992
-0.015	-0.010	-0.005	-0.005	0.000	-0.005	0.000	2.681	1.963	1.963	1.958	1.987	1.982	1.982
-0.005	-0.010	-0.005	-0.005	-0.005	-0.005	0.000	2.676	1.963	1.963	1.963	1.982	1.982	1.987
-0.005	0.005	0.000	-0.005	-0.005	0.000	0.000	2.686	1.963	1.968	1.963	1.982	1.982	1.987
-0.005	0.000	-0.005	0.000	-0.005	-0.005	0.000	2.666	1.963	1.968	1.963	1.982	1.982	1.987
-0.005	0.000	0.000	0.000	0.000	-0.005	0.000	2.671	1.958	1.963	1.963	1.982	1.982	1.987
-0.005	0.005	-0.005	0.000	-0.005	0.000	0.000	2.666	1.958	1.963	1.963	1.982	1.982	1.982
-0.010	0.005	-0.010	0.005	-0.005	0.005	0.000	2.671	1.958	1.963	1.963	1.982	1.982	1.982
0.005	-0.005	-0.005	0.000	0.000	0.000	0.000	2.676	1.958	1.958	1.958	1.982	1.982	1.982
-0.005	0.000	-0.005	0.000	0.000	-0.005	0.000	2.671	1.953	1.958	1.958	1.978	1.978	1.978
-0.005	-0.005	-0.005	0.000	0.000	0.005	-0.005	2.656	1.953	1.953	1.958	1.978	1.978	1.978
-0.005	-0.005	-0.005	0.000	-0.005	-0.010	0.000	2.686	1.948	1.953	1.953	1.973	1.973	1.973
0.005	-0.015	-0.005	0.000	-0.010	-0.024	0.000	2.666	1.953	1.948	1.948	1.973	1.968	1.968
0.000	-0.010	-0.005	-0.005	0.000	0.005	0.000	2.671	1.943	1.948	1.948	1.973	1.973	1.978
0.000	-0.015	0.000	-0.005	-0.005	0.010	0.000	2.681	1.948	1.948	1.948	1.968	1.968	1.978
0.000	-0.005	0.000	-0.005	-0.005	0.005	0.000	2.666	1.948	1.953	1.948	1.968	1.968	1.973
-0.005	0.000	0.000	-0.005	-0.010	-0.020	0.000	2.681	1.948	1.948	1.948	1.968	1.968	1.963
0.000	-0.010	0.000	-0.005	-0.005	0.000	0.000	2.656	1.948	1.948	1.948	1.968	1.973	1.973
-0.005	0.005	-0.005	-0.005	0.000	-0.010	0.000	2.690	1.948	1.953	1.948	1.968	1.968	1.968
0.000	-0.005	0.000	-0.005	0.000	0.005	0.000	2.671	1.948	1.948	1.948	1.968	1.968	1.973
0.000	0.005	0.000	-0.005	0.000	0.005	-0.005	2.686	1.948	1.953	1.948	1.973	1.968	1.973
-0.005	-0.005	-0.005	0.000	-0.005	-0.024	0.000	2.686	1.948	1.948	1.943	1.968	1.968	1.963
-0.010	0.005	-0.005	0.000	-0.005	0.005	0.000	2.676	1.948	1.948	1.948	1.968	1.968	1.973
-0.010	0.005	-0.005	0.000	-0.005	0.000	0.000	2.681	1.948	1.948	1.948	1.968	1.968	1.968
-0.010	0.010	-0.005	0.000	0.000	0.000	0.000	2.671	1.943	1.948	1.948	1.968	1.968	1.968
-0.010	0.000	-0.005	-0.005	-0.005	0.005	0.000	2.681	1.943	1.943	1.948	1.968	1.963	1.968
-0.005	0.005	-0.005	0.000	-0.005	-0.010	0.000	2.681	1.943	1.943	1.943	1.963	1.963	1.963
0.000	-0.005	-0.010	0.000	0.000	-0.020	0.000	2.681	1.938	1.943	1.938	1.963	1.958	1.958
-0.005	-0.010	-0.005	0.000	-0.005	-0.005	0.000	2.671	1.938	1.938	1.938	1.958	1.958	1.963
0.005	0.000	-0.005	-0.005	-0.005	-0.005	0.000	2.661	1.938	1.943	1.938	1.958	1.958	1.963
-0.005	-0.020	0.000	-0.005	0.000	0.005	0.000	2.671	1.934	1.934	1.938	1.958	1.958	1.963
0.005	-0.029	-0.005	-0.005	-0.005	0.000	0.000	2.661	1.938	1.934	1.934	1.958	1.953	1.958
0.000	-0.024	-0.005	-0.005	0.000	-0.015	0.000	2.676	1.934	1.934	1.934	1.958	1.958	1.953
0.000	-0.015	0.005	-0.005	0.000	-0.010	0.000	2.681	1.934	1.938	1.934	1.953	1.953	1.953
0.000	-0.005	-0.005	-0.005	-0.005	-0.024	0.000	2.681	1.934	1.938	1.934	1.953	1.953	1.948
-0.005	-0.015	-0.005	-0.005	0.000	-0.010	0.000	2.646	1.929	1.934	1.934	1.953	1.953	1.958
-0.005	-0.005	-0.005	-0.005	0.000	0.000	0.000	2.681	1.934	1.938	1.938	1.953	1.953	1.958
-0.005	-0.010	-0.005	0.000	-0.010	-0.010	0.000	2.686	1.934	1.934	1.934	1.953	1.953	1.953
0.000	0.000	-0.005	0.000	0.000	0.000	-0.005	2.690	1.938	1.938	1.934	1.953	1.953	1.953
-0.010	0.005	-0.010	0.000	-0.005	-0.005	0.000	2.661	1.934	1.938	1.934	1.953	1.953	1.953
-0.010	0.024	-0.005	-0.005	-0.005	-0.024	0.000	2.676	1.934	1.943	1.938	1.958	1.948	1.948
-0.005	0.020	-0.005	0.000	0.000	-0.024	0.000	2.661	1.934	1.938	1.938	1.953	1.953	1.948
0.000	0.005	-0.005	-0.005	-0.005	0.010	0.000	2.676	1.934	1.934	1.934	1.953	1.953	1.958
0.000	0.005	0.000	-0.005	-0.005	0.000	0.000	2.686	1.934	1.934	1.934	1.953	1.948	1.953
-0.010	-0.005	-0.005	-0.005	-0.005	0.005	0.000	2.681	1.929	1.929	1.929	1.953	1.948	1.953
0.000	0.000	-0.005	0.000	-0.005	-0.005	0.000	2.681	1.934	1.924	1.929	1.948	1.948	1.948
0.000	-0.005	-0.005	-0.005	0.000	-0.005	0.000	2.671	1.929	1.924	1.929	1.948	1.943	1.948
-0.005	-0.005	0.000	-0.005	-0.005	0.000	0.000	2.651	1.929	1.929	1.929	1.948	1.943	1.948
0.000	-0.005	0.005	-0.005	0.000	-0.010	0.000	2.676	1.929	1.924	1.924	1.943	1.943	1.943
-0.005	0.000	0.000	-0.010	0.000	0.000	0.000	2.690	1.929	1.929	1.924	1.943	1.943	1.948
0.000	-0.005	0.005	-0.005	0.000	0.000	0.000	2.705	1.934	1.924	1.929	1.948	1.943	1.943
-0.005	0.005	0.005	-0.005	0.000	0.000	-0.005	2.681	1.934	1.929	1.929	1.948	1.943	1.943
0.000	0.010	-0.005	-0.005	-0.005	-0.005	0.000	2.686	1.934	1.934	1.929	1.948	1.943	1.948
-0.010	0.010	-0.010	-0.005	0.000	-0.005	0.000	2.681	1.929	1.934	1.929	1.948	1.943	1.943
-0.010	0.010	-0.005	-0.005	-0.005	-0.010	0.000	2.676	1.929	1.929	1.929	1.948	1.943	1.943
-0.010	0.015	-0.005	-0.005	-0.005	0.005	0.000	2.676	1.929	1.934	1.929	1.948	1.943	1.948
-0.005	0.000	-0.005	0.000	-0.005	0.000	0.000	2.681	1.929	1.929	1.929	1.948	1.943	1.948
-0.005	0.005	-0.005	-0.005	0.000	-0.005	0.000	2.671	1.929	1.924	1.924	1.948	1.943	1.943
0.000	0.000	0.000	0.000	-0.005	-0.005	0.000	2.686	1.929	1.929	1.929	1.943	1.943	1.943
0.000	-0.005	-0.005	0.000	-0.005	-0.005	0.000	2.666	1.924	1.924	1.924	1.943	1.943	1.938
0.005	-0.005	0.000	0.000	0.000	-0.024	0.000	2.676	1.924	1.924	1.924	1.943	1.943	1.934
0.000	-0.010	-0.005	0.000	0.000	0.000	0.000	2.656	1.919	1.919	1.919	1.943	1.938	1.943
-0.005	-0.015	-0.005	-0.005	0.000	0.000	0.000	2.676	1.919	1.914	1.919	1.938	1.938	1.943
-0.005	-0.010	0.000	-0.005	0.000	-0.015	0.000	2.676	1.919	1.919	1.919	1.938	1.934	1.938
-0.005	-0.005	-0.005	-0.005	0.000	-0.015	0.000	2.681	1.924	1.919	1.919	1.938	1.934	1.934
0.005	-0.015	-0.005	-0.005	0.000	0.005	0.000	2.666	1.924	1.919	1.919	1.938	1.934	1.943
0.000	0.000	0.000	-0.005	0.000	-0.005	0.000	2.686	1.924	1.924	1.919	1.938	1.934	1.938
-0.005	0.005	0.000	-0.005	0.005	0.005	0.000	2.676	1.924	1.924	1.919	1.938	1.934	1.943
0.000	0.005	0.000	-0.005	0.000	0.005	0.000	2.666	1.924	1.924	1.924	1.938	1.934	1.938
0.000	0.005	-0.005	0.000	-0.010	-0.005	0.000	2.671	1.919	1.924	1.924	1.938	1.934	1.934
-0.015	0.010	-0.005	-0.005	0.000	0.000	0.000	2.686	1.919	1.924	1.924	1.943	1.934	1.938
-0.005	0.000	0.000	0.000	0.000	0.005	0.000	2.646	1.919	1.919	1.919	1.938	1.938	1.938
-0.005	0.005	-0.005	0.000	-0.005	-0.005	0.000	2.681	1.919	1.919	1.919	1.938	1.934	1.934
-0.005	0.005	0.000	0.000	-0.005	-0.015	0.000	2.661	1.914	1.919	1.924	1.938	1.934	1.934
0.000	-0.005	0.000	0.000	0.000	-0.024	0.000	2.666	1.919	1.914	1.919	1.938	1.934	1.929
0.000	-0.015	-0.005	0.000	-0.005	0.005	0.000	2.681	1.914	1.909	1.914	1.938	1.934	1.938
0.000	-0.015	-0.005	0.000	0.000	0.005	0.000	2.676	1.919	1.914	1.914	1.934	1.934	1.938
0.000	-0.010	0.000	-0.005	0.000	0.000	0.000	2.690	1.919	1.914	1.909	1.934	1.934	1.934
0.000	-0.020	0.000	0.000	-0.005	0.010	0.000	2.661	1.914	1.914	1.909	1.929	1.929	1.934
-0.005	-0.020	-0.010	0.000	-0.005	-0.015	-0.005	2.676	1.914	1.909	1.909	1.929	1.929	1.924
0.000	-0.010	-0.010	-0.005	-0.005	0.000	0.000	2.676	1.914	1.914	1.909	1.929	1.929	1.929
-0.010	-0.005	-0.005	-0.005	-0.005	0.000	0.000	2.676	1.914	1.909	1.909	1.929	1.924	1.929
0.005	-0.010	0.000	-0.005	0.000	0.000	0.000	2.681	1.914	1.914	1.909	1.929	1.929	1.929
0.000	-0.010	-0.010	-0.005	-0.005	-0.005	0.000	2.681	1.909	1.914	1.909	1.929	1.924	1.929
0.000	-0.010	0.000	-0.005	-0.010	0.000	0.000	2.671	1.914	1.914	1.914	1.929	1.929	1.929
-0.005	0.024	-0.005	-0.005	0.005	-0.010	0.000	2.661	1.914	1.924	1.914	1.929	1.929	1.924
0.010	0.020	0.000	-0.005	0.000	0.000	0.000	2.651	1.919	1.919	1.919	1.934	1.929	1.934
0.000	0.020	-0.005	0.000	-0.005	-0.010	0.000	2.676	1.919	1.919	1.919	1.934	1.924	1.929
0.005	0.015	-0.005	0.000	-0.005	-0.005	0.000	2.671	1.919	1.914	1.914	1.934	1.929	1.929
-0.005	0.015	-0.005	-0.005	-0.005	0.000	-0.005	2.700	1.919	1.919	1.919	1.934	1.929	1.929
0.000	0.005	-0.005	0.000	-0.005	0.000	0.000	2.700	1.924	1.914	1.919	1.934	1.929	1.929
-0.005	0.000	-0.010	0.000	-0.005	-0.005	0.000	2.681	1.914	1.914	1.914	1.934	1.929	1.929
0.000	0.005	-0.005	0.000	0.000	-0.020	0.000	2.671	1.914	1.914	1.914	1.934	1.929	1.929
0.000	-0.010	0.000	0.000	-0.005	0.005	0.000	2.681	1.914	1.909	1.909	1.934	1.929	1.934
-0.005	-0.005	0.000	0.000	-0.005	-0.005	0.000	2.666	1.909	1.909	1.914	1.929	1.929	1.929
0.000	-0.015	-0.005	0.000	-0.005	0.000	0.000	2.676	1.909	1.904	1.909	1.929	1.924	1.929
-0.005	-0.005	0.000	-0.005	0.000	0.005	0.000	2.671	1.909	1.909	1.909	1.929	1.924	1.929
-0.005	-0.005	0.000	-0.005	-0.005	0.000	0.000	2.651	1.904	1.904	1.909	1.929	1.924	1.924
-0.005	-0.005	0.000	-0.005	0.000	0.005	0.000	2.681	1.904	1.904	1.904	1.924	1.924	1.929
-0.010	0.000	-0.005	-0.005	-0.005	-0.010	0.000	2.671	1.904	1.909	1.904	1.924	1.924	1.924
0.000	0.000	-0.005	-0.005	-0.005	0.005	0.000	2.681	1.909	1.909	1.904	1.929	1.924	1.929
-0.010	-0.005	-0.005	-0.005	0.000	0.000	0.000	2.676	1.909	1.909	1.909	1.924	1.924	1.924
-0.005	-0.005	0.000	-0.005	0.000	-0.010	0.000	2.671	1.914	1.909	1.909	1.929	1.924	1.924
-0.005	-0.005	0.000	-0.005	-0.005	-0.005	0.000	2.676	1.909	1.909	1.909	1.929	1.924	1.929
-0.005	0.000	-0.005	-0.005	-0.005	0.000	0.000	2.681	1.914	1.909	1.909	1.924	1.924	1.924
-0.015	0.005	-0.005	-0.005	0.000	-0.005	0.000	2.676	1.914	1.914	1.909	1.929	1.924	1.924
-0.015	0.005	0.000	-0.005	0.000	-0.020	-0.005	2.690	1.914	1.914	1.909	1.929	1.924	1.924
0.000	0.005	-0.005	0.000	-0.005	0.000	0.000	2.686	1.919	1.914	1.909	1.929	1.924	1.924
0.005	0.000	0.000	0.000	-0.005	-0.005	0.000	2.676	1.914	1.914	1.909	1.929	1.924	1.924
0.005	-0.010	-0.005	0.000	0.000	0.000	0.000	2.681	1.909	1.909	1.909	1.929	1.924	1.924
-0.005	-0.010	-0.005	-0.005	-0.005	-0.005	0.000	2.661	1.904	1.904	1.904	1.924	1.919	1.919
0.000	-0.010	0.005	-0.005	-0.005	0.000	0.000	2.681	1.909	1.904	1.909	1.924	1.919	1.924
-0.005	-0.010	0.000	-0.005	0.000	-0.005	0.000	2.666	1.904	1.904	1.904	1.924	1.919	1.919
0.000	-0.010	0.000	-0.005	-0.005	-0.020	0.000	2.690	1.904	1.904	1.904	1.924	1.919	1.914
-0.005	-0.015	-0.005	-0.005	-0.005	-0.005	0.000	2.661	1.904	1.904	1.899	1.919	1.919	1.924
0.005	-0.010	-0.005	-0.005	-0.010	-0.010	0.000	2.681	1.904	1.904	1.899	1.919	1.919	1.919
-0.005	-0.010	-0.010	-0.005	-0.005	0.000	0.000	2.681	1.904	1.904	1.904	1.919	1.919	1.919
-0.005	-0.005	-0.010	-0.005	-0.005	0.000	0.000	2.681	1.909	1.904	1.904	1.924	1.919	1.924
-0.010	-0.015	0.000	-0.005	0.000	0.000	0.000	2.676	1.904	1.904	1.904	1.924	1.919	1.919
-0.005	-0.005	-0.005	-0.005	0.005	0.010	0.000	2.681	1.909	1.909	1.904	1.924	1.924	1.924
-0.005	0.000	0.000	0.000	-0.005	-0.005	-0.005	2.671	1.909	1.909	1.909	1.924	1.919	1.924
0.000	0.000	0.000	0.000	-0.005	0.000	0.000	2.676	1.909	1.909	1.909	1.924	1.919	1.924
-0.005	0.000	0.000	-0.005	-0.005	-0.015	0.000	2.676	1.909	1.909	1.904	1.924	1.919	1.919
0.000	0.005	-0.005	0.000	-0.010	0.005	0.000	2.681	1.909	1.909	1.904	1.924	1.919	1.924
0.005	0.005	-0.010	0.000	0.000	-0.005	0.000	2.671	1.909	1.909	1.904	1.924	1.924	1.919
-0.005	0.000	-0.005	0.000	0.000	0.005	-0.005	2.681	1.909	1.909	1.904	1.924	1.924	1.924
-0.005	-0.005	-0.005	-0.005	-0.005	0.005	0.000	2.637	1.904	1.904	1.904	1.924	1.919	1.919
0.000	-0.020	0.000	0.000	0.000	-0.005	0.000	2.656	1.899	1.899	1.904	1.924	1.919	1.919
-0.010	-0.020	0.000	-0.005	-0.005	0.000	0.000	2.681	1.899	1.895	1.899	1.924	1.914	1.919
-0.005	-0.015	0.000	-0.005	-0.005	0.000	0.000	2.651	1.899	1.899	1.899	1.919	1.919	1.919
-0.005	-0.020	0.000	-0.005	-0.005	-0.005	0.000	2.656	1.904	1.899	1.899	1.919	1.914	1.914
-0.005	-0.015	-0.005	-0.005	0.000	-0.005	0.000	2.681	1.904	1.899	1.895	1.919	1.914	1.919
-0.005	-0.020	-0.005	-0.005	-0.005	-0.010	0.000	2.676	1.904	1.904	1.899	1.914	1.914	1.909
-0.005	-0.020	0.000	-0.005	-0.005	-0.020	0.000	2.686	1.909	1.904	1.899	1.919	1.914	1.914
0.005	-0.010	0.000	-0.005	0.005	0.000	0.000	2.681	1.909	1.909	1.899	1.919	1.919	1.914
0.000	-0.005	0.000	-0.005	-0.005	-0.010	0.000	2.666	1.909	1.909	1.904	1.919	1.914	1.919
-0.005	-0.010	-0.005	0.000	-0.005	0.005	0.000	2.676	1.909	1.909	1.904	1.924	1.919	1.919
0.000	-0.005	-0.010	0.000	-0.005	-0.005	0.000	2.700	1.914	1.909	1.909	1.924	1.914	1.919
0.000	-0.010	-0.005	0.000	-0.005	0.000	0.000	2.642	1.904	1.909	1.904	1.924	1.919	1.914
-0.005	-0.010	-0.005	0.000	-0.005	0.005	0.000	2.646	1.904	1.909	1.909	1.924	1.919	1.919
0.000	0.000	-0.005	0.000	-0.005	0.000	0.000	2.671	1.904	1.904	1.904	1.924	1.919	1.919
0.015	-0.010	-0.005	0.000	-0.005	-0.020	0.000	2.773	1.914	1.909	1.904	1.924	1.919	1.914
0.000	-0.010	-0.005	0.000	-0.005	-0.005	0.000	2.642	1.904	1.909	1.909	1.924	1.919	1.919
0.000	0.005	0.000	0.000	0.005	0.000	0.000	2.715	1.909	1.909	1.909	1.924	1.919	1.919
0.005	-0.010	0.000	-0.005	0.000	0.000	0.000	2.720	1.914	1.904	1.904	1.924	1.919	1.919
-0.010	-0.005	-0.005	-0.005	0.000	-0.005	0.000	2.734	1.909	1.909	1.899	1.924	1.919	1.919
-0.005	-0.005	0.000	-0.005	0.000	0.000	0.000	2.715	1.909	1.904	1.904	1.919	1.919	1.919
-0.010	-0.020	0.000	-0.005	-0.005	0.005	0.000	2.646	1.899	1.899	1.904	1.919	1.919	1.919
-0.005	-0.015	0.000	-0.005	-0.005	0.005	0.000	2.715	1.909	1.904	1.899	1.919	1.914	1.919
-0.005	-0.005	0.000	-0.005	-0.010	0.000	0.000	2.646	1.904	1.904	1.904	1.919	1.914	1.914
-0.005	0.015	-0.005	-0.005	-0.005	0.000	0.000	2.646	1.899	1.909	1.904	1.919	1.914	1.919
-0.005	0.010	-0.005	-0.005	-0.005	-0.015	0.000	2.734	1.914	1.909	1.904	1.924	1.914	1.914
0.000	0.020	-0.005	-0.005	-0.010	0.005	0.000	2.642	1.909	1.909	1.904	1.924	1.919	1.919
0.005	0.010	-0.005	0.000	0.000	0.000	0.000	2.646	1.909	1.909	1.909	1.924	1.919	1.919
-0.005	0.020	-0.010	0.000	0.000	0.005	0.000	2.646	1.899	1.909	1.909	1.924	1.919	1.924
-0.005	0.010	-0.010	0.000	0.000	0.005	0.000	2.666	1.895	1.904	1.909	1.924	1.924	1.924
-0.005	0.005	-0.010	0.000	0.005	-0.005	0.000	2.642	1.895	1.899	1.904	1.924	1.924	1.919
-0.005	0.010	-0.010	0.000	0.000	0.005	0.000	2.646	1.895	1.899	1.899	1.924	1.919	1.924
-0.005	-0.005	-0.005	0.000	0.000	0.005	0.000	2.720	1.904	1.895	1.899	1.924	1.919	1.924
-0.010	0.005	0.000	0.000	0.000	0.000	0.000	2.646	1.899	1.895	1.899	1.919	1.914	1.919
-0.005	0.010	0.000	0.000	-0.005	0.000	0.000	2.637	1.895	1.899	1.899	1.919	1.914	1.919
0.000	0.000	0.005	0.000	0.005	-0.005	0.000	2.627	1.890	1.895	1.895	1.919	1.914	1.914
-0.005	-0.005	0.000	-0.005	0.000	0.000	0.000	2.637	1.890	1.895	1.890	1.914	1.914	1.919
-0.005	0.000	0.000	-0.005	0.005	0.000	0.000	2.710	1.899	1.895	1.890	1.914	1.909	1.914
-0.005	-0.010	-0.005	-0.005	-0.005	-0.005	0.000	2.671	1.895	1.890	1.890	1.914	1.909	1.909
-0.010	-0.015	-0.005	-0.005	-0.005	0.000	0.000	2.656	1.899	1.890	1.890	1.909	1.909	1.909
-0.005	-0.005	0.000	-0.005	-0.005	-0.010	0.000	2.681	1.899	1.895	1.890	1.909	1.909	1.909
0.010	0.000	0.000	-0.005	0.000	-0.005	0.000	2.646	1.909	1.899	1.895	1.909	1.909	1.909
-0.010	-0.005	0.000	0.000	0.000	0.000	0.000	2.666	1.909	1.899	1.895	1.914	1.909	1.914
-0.005	0.000	-0.005	-0.005	0.000	-0.005	0.000	2.720	1.909	1.904	1.899	1.914	1.909	1.909
0.000	0.005	0.000	0.000	0.000	-0.005	0.000	2.666	1.909	1.909	1.904	1.914	1.909	1.909
-0.005	0.000	0.000	0.000	0.000	-0.005	0.000	2.671	1.909	1.909	1.904	1.919	1.914	1.909
0.000	0.000	-0.005	-0.005	-0.005	-0.005	0.000	2.695	1.909	1.909	1.904	1.919	1.909	1.909
0.000	0.000	-0.005	0.000	0.005	0.000	-0.005	2.671	1.904	1.909	1.904	1.919	1.914	1.914
-0.005	0.020	0.000	0.000	-0.005	-0.005	0.000	2.666	1.904	1.909	1.904	1.919	1.914	1.914
0.005	0.000	-0.005	0.000	-0.010	-0.005	0.000	2.666	1.899	1.899	1.904	1.919	1.914	1.909
-0.005	0.005	0.000	0.000	-0.005	-0.005	0.000	2.690	1.899	1.904	1.904	1.919	1.914	1.914
-0.020	0.000	0.000	-0.005	-0.005	0.000	0.000	2.695	1.899	1.895	1.899	1.919	1.914	1.914
0.000	-0.044	0.000	0.000	0.000	0.005	0.000	2.690	1.899	1.885	1.895	1.914	1.914	1.914
0.000	-0.039	0.000	-0.005	0.000	0.010	0.000	2.695	1.899	1.890	1.895	1.914	1.914	1.914
-0.010	-0.029	-0.005	-0.005	0.005	0.005	-0.005	2.661	1.899	1.895	1.890	1.909	1.909	1.914
-0.005	-0.024	-0.005	-0.005	-0.005	-0.005	0.000	2.686	1.899	1.895	1.890	1.909	1.909	1.909
-0.010	-0.024	0.000	-0.005	-0.005	0.005	0.000	2.690	1.899	1.899	1.895	1.914	1.909	1.914
0.000	-0.005	0.000	-0.005	-0.005	-0.005	0.000	2.700	1.909	1.904	1.895	1.914	1.909	1.909
-0.005	-0.005	0.005	-0.005	0.000	0.005	-0.005	2.671	1.904	1.904	1.899	1.914	1.909	1.914
0.010	0.000	-0.005	0.000	0.005	-0.034	0.000	2.686	1.909	1.909	1.899	1.914	1.909	1.904
-0.005	0.010	-0.005	-0.005	-0.005	-0.005	0.000	2.686	1.904	1.909	1.899	1.919	1.909	1.914
0.005	0.010	-0.005	0.000	-0.005	-0.015	0.000	2.690	1.909	1.909	1.904	1.919	1.914	1.914
-0.005	0.000	-0.005	0.000	-0.010	0.010	0.000	2.700	1.909	1.909	1.904	1.919	1.914	1.919
0.000	0.005	0.000	0.000	-0.005	0.005	0.000	2.676	1.909	1.909	1.909	1.924	1.914	1.914
-0.010	0.005	-0.005	0.000	-0.005	0.000	0.000	2.676	1.899	1.904	1.904	1.924	1.914	1.914
0.000	0.000	-0.005	0.000	-0.005	0.005	0.000	2.671	1.904	1.904	1.904	1.919	1.914	1.919
0.000	0.000	0.000	0.000	-0.005	0.000	0.000	2.686	1.904	1.904	1.904	1.919	1.914	1.914
0.010	0.010	0.005	-0.005	0.000	-0.015	0.000	2.661	1.904	1.904	1.904	1.919	1.914	1.914
-0.005	0.005	0.000	0.000	-0.010	0.000	0.000	2.661	1.895	1.899	1.899	1.919	1.914	1.914
0.005	0.000	0.000	-0.005	0.000	-0.005	0.000	2.661	1.895	1.895	1.895	1.914	1.914	1.914
-0.005	0.010	-0.005	-0.005	-0.010	-0.010	0.000	2.744	1.909	1.899	1.895	1.914	1.909	1.909
-0.005	0.000	-0.005	-0.005	-0.005	0.000	0.000	2.651	1.899	1.899	1.895	1.914	1.914	1.914
-0.005	-0.005	-0.005	-0.005	-0.005	0.005	0.000	2.632	1.895	1.895	1.895	1.914	1.909	1.914
-0.005	-0.005	-0.005	-0.005	0.005	-0.020	0.000	2.734	1.904	1.899	1.895	1.914	1.914	1.909
0.000	0.000	-0.005	-0.005	0.005	0.010	0.000	2.637	1.899	1.899	1.899	1.914	1.914	1.919
0.000	0.005	-0.005	-0.005	0.010	0.015	0.000	2.671	1.899	1.899	1.899	1.914	1.914	1.919
-0.005	0.000	-0.005	-0.005	0.000	-0.010	0.000	2.622	1.895	1.899	1.899	1.914	1.909	1.914
-0.005	0.005	-0.005	0.000	-0.005	0.010	0.000	2.744	1.904	1.904	1.899	1.919	1.909	1.914
0.005	-0.005	0.000	0.000	-0.005	-0.015	0.000	2.651	1.899	1.899	1.899	1.919	1.914	1.909
-0.005	0.005	-0.005	0.000	-0.005	0.000	0.000	2.607	1.890	1.899	1.899	1.919	1.914	1.914
-0.005	0.005	-0.005	0.000	0.000	0.000	0.000	2.666	1.895	1.899	1.899	1.919	1.914	1.914
-0.005	-0.005	0.000	0.000	-0.005	0.005	0.000	2.651	1.890	1.895	1.895	1.919	1.914	1.914
0.000	0.005	-0.005	0.000	0.000	0.000	0.000	2.666	1.895	1.895	1.899	1.919	1.914	1.914
-0.010	0.015	0.000	0.000	-0.005	-0.015	0.000	2.632	1.890	1.895	1.895	1.914	1.909	1.904
-0.005	0.000	-0.005	-0.005	-0.005	0.000	0.000	2.671	1.890	1.890	1.890	1.914	1.909	1.914
0.000	-0.010	-0.005	0.000	-0.010	0.000	0.000	2.666	1.895	1.885	1.890	1.909	1.909	1.909
0.000	-0.015	-0.005	0.000	-0.015	0.000	0.000	2.651	1.890	1.890	1.885	1.909	1.904	1.909
0.005	-0.010	-0.005	-0.005	-0.015	-0.005	0.000	2.671	1.890	1.890	1.885	1.909	1.904	1.904
-0.005	-0.005	0.000	-0.005	-0.015	-0.010	0.000	2.671	1.895	1.890	1.885	1.904	1.904	1.904
-0.005	-0.015	0.000	-0.005	0.005	-0.015	0.000	2.700	1.899	1.890	1.885	1.904	1.909	1.899
0.000	-0.005	0.000	-0.005	0.005	0.000	0.000	2.661	1.895	1.895	1.890	1.909	1.909	1.909
-0.005	-0.005	-0.005	-0.005	0.005	0.005	0.000	2.705	1.899	1.895	1.890	1.909	1.904	1.909
-0.010	0.010	0.000	-0.005	0.005	-0.005	0.000	2.690	1.899	1.899	1.895	1.909	1.904	1.909
-0.005	0.005	0.005	-0.005	0.000	0.000	0.000	2.695	1.904	1.904	1.899	1.909	1.904	1.904
0.005	0.000	0.000	0.000	-0.005	-0.010	0.000	2.666	1.909	1.904	1.899	1.909	1.904	1.904
0.000	0.005	0.000	0.000	-0.005	0.000	0.000	2.671	1.899	1.904	1.899	1.914	1.909	1.909
0.000	-0.005	-0.005	0.000	-0.005	-0.010	0.000	2.686	1.904	1.899	1.899	1.914	1.909	1.904
0.005	0.005	-0.005	0.000	-0.005	0.000	0.000	2.681	1.904	1.904	1.899	1.914	1.909	1.909
0.005	0.000	-0.010	0.000	0.000	-0.005	0.000	2.666	1.899	1.899	1.899	1.914	1.909	1.909
-0.005	-0.005	-0.010	0.000	-0.005	-0.005	0.000	2.695	1.895	1.895	1.895	1.914	1.909	1.909
-0.010	-0.005	-0.005	0.000	0.000	-0.005	0.000	2.666	1.899	1.895	1.895	1.914	1.909	1.909
0.005	-0.015	-0.005	0.000	-0.005	0.000	0.000	2.686	1.895	1.895	1.895	1.909	1.909	1.909
-0.005	-0.010	-0.005	-0.005	-0.005	-0.005	-0.005	2.666	1.895	1.895	1.890	1.909	1.909	1.909
0.000	-0.005	0.005	-0.005	0.000	0.000	0.000	2.686	1.899	1.895	1.895	1.909	1.904	1.909
0.000	-0.005	-0.005	-0.005	-0.005	0.005	0.000	2.705	1.904	1.899	1.890	1.909	1.904	1.909
-0.005	-0.005	0.000	-0.005	0.000	0.000	0.000	2.681	1.899	1.899	1.895	1.909	1.909	1.909
-0.005	-0.005	-0.005	-0.005	0.005	-0.010	0.000	2.686	1.899	1.899	1.895	1.909	1.909	1.904
-0.015	0.000	0.000	-0.005	0.000	-0.020	0.000	2.642	1.895	1.895	1.895	1.909	1.909	1.904
-0.005	0.000	-0.005	-0.005	-0.005	-0.005	0.000	2.651	1.895	1.895	1.895	1.914	1.909	1.909
-0.005	0.000	-0.005	-0.005	0.000	-0.015	-0.005	2.666	1.895	1.895	1.899	1.914	1.909	1.904
-0.005	-0.005	-0.005	-0.005	0.000	0.000	0.000	2.646	1.904	1.895	1.895	1.914	1.909	1.914
-0.010	-0.015	0.000	0.000	-0.005	0.005	0.000	2.637	1.899	1.895	1.895	1.914	1.909	1.914
0.000	0.000	-0.005	0.000	0.000	-0.015	0.000	2.725	1.909	1.904	1.895	1.914	1.909	1.909
0.000	0.005	-0.005	0.000	0.000	0.005	0.000	2.734	1.909	1.909	1.899	1.914	1.914	1.914
-0.005	-0.005	-0.005	0.000	0.000	-0.010	0.000	2.642	1.904	1.904	1.899	1.919	1.909	1.904
-0.010	0.000	-0.005	0.000	0.000	-0.020	0.000	2.651	1.895	1.904	1.899	1.919	1.914	1.909
-0.005	-0.015	0.000	-0.005	-0.005	0.005	0.000	2.715	1.895	1.895	1.895	1.919	1.909	1.914
-0.005	-0.005	-0.005	0.000	-0.005	-0.010	0.000	2.715	1.899	1.895	1.895	1.914	1.909	1.909
0.000	-0.010	-0.005	0.000	0.000	0.005	0.000	2.642	1.895	1.895	1.895	1.914	1.909	1.914
0.005	-0.015	0.000	0.000	-0.005	0.005	0.000	2.642	1.895	1.895	1.895	1.914	1.909	1.909
-0.010	-0.015	-0.005	0.000	-0.005	-0.010	0.000	2.656	1.890	1.890	1.890	1.914	1.909	1.909
-0.010	-0.020	-0.005	-0.005	0.000	-0.015	0.000	2.632	1.885	1.885	1.890	1.909	1.904	1.904
0.010	-0.015	-0.005	-0.005	-0.005	0.005	0.000	2.686	1.895	1.890	1.890	1.909	1.904	1.909
-0.010	-0.010	0.000	-0.005	-0.010	0.010	0.000	2.725	1.899	1.895	1.890	1.909	1.904	1.914
0.005	-0.015	0.005	-0.005	-0.005	0.005	0.000	2.681	1.904	1.890	1.890	1.909	1.904	1.909
-0.010	-0.010	0.000	0.000	-0.005	-0.005	0.000	2.666	1.899	1.899	1.890	1.909	1.904	1.909
-0.005	-0.005	0.000	-0.005	-0.005	-0.010	0.000	2.695	1.904	1.899	1.895	1.909	1.909	1.909
-0.005	0.000	0.000	-0.005	-0.005	0.005	-0.005	2.671	1.904	1.899	1.899	1.914	1.909	1.909
-0.005	-0.005	0.000	-0.005	-0.010	0.010	0.000	2.671	1.904	1.904	1.895	1.914	1.909	1.909
0.000	0.015	-0.005	0.000	-0.010	0.000	0.000	2.690	1.904	1.904	1.899	1.914	1.909	1.909
0.005	0.010	-0.010	0.000	-0.005	-0.005	0.000	2.676	1.899	1.904	1.899	1.914	1.909	1.909
0.000	0.000	-0.005	0.000	0.000	-0.005	0.000	2.690	1.899	1.899	1.899	1.914	1.909	1.909
0.000	0.000	0.000	0.000	0.000	0.005	0.000	2.690	1.904	1.899	1.899	1.914	1.909	1.909
0.000	0.005	0.000	-0.005	-0.005	0.000	0.000	2.695	1.904	1.899	1.895	1.914	1.909	1.909
0.000	-0.010	0.000	0.000	-0.010	0.000	0.000	2.690	1.904	1.899	1.895	1.914	1.909	1.909
0.005	-0.005	-0.005	0.000	-0.010	-0.005	0.000	2.681	1.899	1.899	1.895	1.914	1.909	1.909
0.000	-0.010	-0.005	0.000	0.000	-0.015	0.000	2.686	1.899	1.895	1.895	1.909	1.909	1.909
0.000	-0.010	0.005	-0.005	0.000	-0.020	0.000	2.671	1.895	1.895	1.895	1.914	1.909	1.904
-0.005	-0.005	-0.005	-0.005	-0.005	0.005	0.000	2.681	1.899	1.895	1.890	1.914	1.909	1.909
-0.005	-0.005	0.000	-0.005	0.000	0.010	0.000	2.666	1.899	1.895	1.895	1.914	1.909	1.914
0.000	-0.015	0.000	-0.005	-0.005	0.000	0.000	2.686	1.895	1.895	1.895	1.914	1.909	1.909
0.005	-0.005	0.000	-0.005	0.000	0.000	0.000	2.690	1.899	1.899	1.899	1.914	1.909	1.914
0.005	0.000	-0.005	-0.005	-0.005	0.005	0.000	2.686	1.904	1.899	1.895	1.914	1.909	1.909
-0.005	0.000	0.000	-0.005	-0.005	0.005	0.000	2.656	1.899	1.899	1.899	1.914	1.909	1.909
-0.005	-0.005	-0.005	-0.005	-0.010	0.000	0.000	2.671	1.899	1.899	1.895	1.914	1.909	1.909
-0.015	0.015	-0.005	0.000	-0.005	0.005	0.000	2.671	1.895	1.904	1.895	1.914	1.909	1.909
-0.010	0.010	-0.010	0.000	-0.005	-0.005	0.000	2.676	1.899	1.899	1.899	1.914	1.909	1.909
-0.005	0.005	-0.005	0.000	-0.010	0.005	0.000	2.661	1.899	1.895	1.895	1.914	1.914	1.914
-0.010	0.010	-0.005	0.000	-0.005	-0.010	-0.005	2.651	1.895	1.895	1.895	1.919	1.914	1.909
-0.005	0.005	0.000	0.000	0.000	0.000	0.000	2.666	1.895	1.895	1.895	1.914	1.914	1.914
0.000	0.000	0.000	-0.005	0.005	-0.005	0.000	2.642	1.890	1.895	1.895	1.914	1.909	1.909
-0.010	0.000	-0.005	0.000	0.000	-0.029	0.000	2.642	1.890	1.890	1.890	1.914	1.909	1.904
-0.005	-0.005	0.000	0.000	0.000	-0.010	0.000	2.627	1.885	1.885	1.890	1.909	1.909	1.909
0.000	-0.010	-0.005	-0.005	0.005	-0.020	0.000	2.734	1.890	1.885	1.885	1.909	1.909	1.904
-0.005	-0.005	-0.005	0.000	0.010	-0.010	0.000	2.612	1.895	1.890	1.885	1.909	1.909	1.909
-0.005	-0.020	0.000	-0.005	0.005	-0.010	0.000	2.744	1.899	1.885	1.890	1.904	1.904	1.909
-0.005	-0.015	0.000	-0.005	0.015	-0.024	-0.005	2.617	1.895	1.890	1.890	1.904	1.909	1.909
-0.005	0.000	0.000	-0.005	0.015	-0.015	0.000	2.744	1.904	1.899	1.890	1.909	1.904	1.909
-0.005	-0.010	-0.005	-0.005	0.015	-0.010	0.000	2.666	1.904	1.895	1.890	1.909	1.909	1.909
0.000	0.000	0.000	-0.005	0.020	-0.015	0.000	2.749	1.904	1.899	1.895	1.909	1.904	1.909
-0.005	0.005	0.000	0.000	0.020	-0.034	0.000	2.656	1.904	1.904	1.899	1.914	1.904	1.904
0.000	0.010	0.000	-0.005	0.010	-0.015	0.000	2.627	1.895	1.904	1.895	1.914	1.909	1.909
-0.010	0.000	0.000	0.000	0.010	-0.024	0.000	2.671	1.895	1.899	1.895	1.914	1.909	1.904
-0.010	-0.005	0.000	-0.005	0.005	0.005	0.000	2.705	1.904	1.899	1.895	1.914	1.909	1.914
-0.005	-0.005	0.000	0.000	-0.005	-0.005	0.000	2.661	1.899	1.899	1.899	1.914	1.904	1.909
0.000	-0.015	-0.005	0.000	-0.010	-0.005	0.000	2.661	1.899	1.895	1.895	1.909	1.904	1.909
-0.010	-0.015	-0.005	0.000	-0.020	0.000	0.000	2.671	1.895	1.895	1.895	1.909	1.904	1.909
-0.010	-0.015	0.000	0.000	-0.015	0.015	-0.005	2.671	1.895	1.895	1.895	1.909	1.904	1.909
-0.005	-0.024	-0.005	-0.005	-0.020	0.015	0.000	2.671	1.895	1.890	1.890	1.909	1.904	1.909
-0.010	-0.020	-0.005	0.000	-0.020	0.020	0.000	2.666	1.899	1.890	1.890	1.909	1.904	1.909
0.000	-0.005	-0.005	-0.005	-0.020	0.010	0.000	2.666	1.895	1.895	1.890	1.909	1.899	1.904
0.005	-0.005	-0.005	-0.005	-0.015	0.005	-0.005	2.695	1.904	1.899	1.890	1.909	1.904	1.904
0.000	0.005	0.000	-0.005	-0.015	0.000	0.000	2.695	1.899	1.904	1.895	1.909	1.904	1.904
0.005	0.005	0.000	-0.005	-0.020	-0.005	0.000	2.686	1.899	1.904	1.895	1.909	1.904	1.899
-0.005	0.000	0.000	-0.005	-0.015	0.000	0.000	2.666	1.895	1.895	1.895	1.914	1.904	1.904
-0.015	0.010	-0.005	-0.005	-0.020	0.005	0.000	2.671	1.895	1.899	1.895	1.914	1.904	1.909
0.000	0.005	-0.005	-0.005	-0.015	0.010	0.000	2.695	1.899	1.899	1.895	1.914	1.909	1.909
-0.005	0.000	-0.005	0.000	-0.005	0.010	0.000	2.690	1.899	1.899	1.895	1.914	1.909	1.909
0.000	0.010	0.005	-0.005	-0.010	0.005	0.000	2.690	1.904	1.904	1.899	1.914	1.909	1.909
-0.010	0.000	0.000	0.000	-0.020	0.005	0.000	2.700	1.904	1.899	1.899	1.919	1.909	1.909
0.000	0.000	0.000	0.000	-0.005	0.000	0.000	2.681	1.904	1.904	1.899	1.919	1.914	1.909
-0.005	0.005	-0.005	0.000	-0.010	-0.010	0.000	2.686	1.904	1.904	1.899	1.914	1.909	1.904
-0.005	0.010	-0.005	0.000	-0.010	-0.005	0.000	2.695	1.904	1.904	1.899	1.919	1.914	1.909
0.000	-0.020	0.000	0.000	-0.005	0.005	0.000	2.695	1.904	1.895	1.895	1.914	1.914	1.914
0.010	-0.024	-0.005	-0.005	-0.005	0.010	0.000	2.695	1.899	1.895	1.895	1.914	1.914	1.914
0.000	-0.010	-0.005	-0.005	0.000	0.010	0.000	2.690	1.899	1.899	1.895	1.914	1.909	1.914
0.000	-0.005	-0.005	-0.005	0.000	-0.020	-0.005	2.681	1.899	1.899	1.895	1.909	1.909	1.904
-0.005	-0.015	0.000	-0.005	0.000	0.005	0.000	2.651	1.895	1.895	1.890	1.909	1.909	1.909
0.000	-0.020	-0.005	0.000	0.000	-0.015	0.000	2.642	1.895	1.895	1.890	1.909	1.909	1.909
-0.005	-0.005	-0.005	-0.005	-0.010	0.000	0.000	2.661	1.895	1.895	1.890	1.909	1.904	1.909
-0.005	-0.005	-0.010	-0.005	-0.005	0.000	0.000	2.690	1.904	1.899	1.895	1.909	1.909	1.909
0.005	-0.005	-0.005	-0.005	0.000	-0.010	0.000	2.646	1.899	1.899	1.895	1.914	1.909	1.909
0.000	-0.005	-0.005	-0.005	0.000	-0.020	0.000	2.720	1.890	1.899	1.899	1.914	1.909	1.904
0.000	0.005	0.000	-0.005	0.005	0.005	0.000	2.710	1.895	1.899	1.899	1.914	1.909	1.914
0.005	0.000	-0.005	0.000	0.000	0.005	0.000	2.617	1.890	1.899	1.899	1.914	1.909	1.914
-0.005	0.010	-0.005	0.000	0.000	0.005	0.000	2.754	1.895	1.899	1.899	1.919	1.909	1.914
-0.010	0.005	0.000	0.000	0.005	-0.005	0.000	2.627	1.890	1.895	1.895	1.919	1.909	1.909
0.000	0.010	-0.005	0.005	-0.010	-0.010	0.000	2.642	1.899	1.895	1.895	1.914	1.909	1.909
-0.005	0.005	0.000	0.000	0.005	0.000	0.000	2.642	1.895	1.895	1.895	1.914	1.914	1.914
-0.005	-0.005	0.005	0.000	0.005	0.005	0.000	2.622	1.890	1.890	1.895	1.914	1.914	1.914
-0.005	0.000	0.000	0.000	-0.005	-0.010	0.000	2.651	1.890	1.890	1.890	1.909	1.909	1.909
0.010	0.015	-0.005	-0.005	-0.005	-0.010	0.000	2.622	1.890	1.890	1.890	1.909	1.904	1.904
0.000	0.010	-0.010	0.000	0.005	0.000	0.000	2.661	1.885	1.885	1.885	1.909	1.909	1.909
-0.010	-0.005	-0.010	-0.005	0.000	-0.005	0.000	2.661	1.885	1.885	1.885	1.904	1.904	1.904
-0.005	-0.005	-0.005	-0.005	0.005	-0.020	0.000	2.666	1.885	1.880	1.885	1.904	1.904	1.899
0.000	0.000	-0.005	-0.005	0.000	0.000	0.000	2.666	1.890	1.885	1.885	1.904	1.899	1.909
0.000	-0.005	-0.005	-0.005	-0.005	-0.024	0.000	2.690	1.895	1.890	1.885	1.904	1.899	1.899
-0.005	-0.005	0.005	-0.005	0.000	-0.005	0.000	2.666	1.890	1.890	1.890	1.904	1.904	1.909
-0.005	0.010	0.000	-0.005	0.000	0.000	0.000	2.671	1.890	1.895	1.890	1.904	1.899	1.909
-0.005	0.005	0.000	-0.005	0.000	0.005	0.000	2.700	1.904	1.890	1.890	1.909	1.904	1.909
-0.010	0.000	0.000	-0.005	0.000	0.000	0.000	2.671	1.899	1.895	1.890	1.909	1.904	1.904
-0.005	0.005	0.000	-0.005	-0.005	0.000	0.000	2.690	1.899	1.895	1.890	1.909	1.904	1.904
-0.005	0.005	0.000	-0.005	0.000	0.000	0.000	2.690	1.909	1.899	1.895	1.909	1.904	1.904
0.000	0.000	-0.005	0.005	0.000	0.010	0.000	2.695	1.904	1.899	1.895	1.909	1.904	1.909
0.000	0.010	-0.010	0.000	-0.005	0.010	0.000	2.666	1.899	1.899	1.895	1.909	1.904	1.909
-0.005	0.005	-0.010	0.000	0.000	0.000	0.000	2.661	1.895	1.895	1.895	1.909	1.904	1.904
0.005	0.010	0.000	0.000	0.000	0.005	0.000	2.681	1.899	1.895	1.895	1.914	1.909	1.909
-0.010	-0.005	0.000	0.000	0.000	-0.010	0.000	2.686	1.895	1.895	1.895	1.909	1.904	1.904
-0.005	-0.010	0.000	0.000	-0.005	-0.005	0.000	2.686	1.899	1.890	1.890	1.909	1.904	1.904
0.000	-0.005	0.000	-0.005	-0.005	-0.005	0.000	2.671	1.895	1.890	1.890	1.909	1.899	1.904
-0.005	-0.005	-0.005	-0.005	0.000	0.005	0.000	2.666	1.895	1.890	1.890	1.909	1.904	1.904
-0.005	-0.020	-0.005	-0.005	-0.005	0.000	0.000	2.676	1.890	1.885	1.890	1.904	1.899	1.904
0.010	-0.010	-0.005	-0.005	-0.005	-0.015	0.000	2.671	1.895	1.890	1.890	1.904	1.899	1.899
0.010	-0.015	-0.005	-0.005	0.000	-0.005	0.000	2.686	1.895	1.890	1.885	1.904	1.904	1.899
0.005	-0.005	0.000	-0.005	-0.005	0.000	0.000	2.666	1.895	1.890	1.890	1.909	1.904	1.904
0.005	0.000	-0.005	-0.005	-0.005	-0.015	0.000	2.690	1.899	1.895	1.895	1.909	1.904	1.899
0.000	0.000	0.000	-0.005	-0.005	0.000	0.000	2.681	1.895	1.895	1.895	1.909	1.904	1.909
0.000	0.000	0.000	-0.005	0.000	0.000	0.000	2.646	1.895	1.895	1.895	1.909	1.909	1.904
-0.005	-0.005	-0.005	0.000	0.000	-0.005	0.000	2.651	1.890	1.890	1.890	1.909	1.904	1.904
-0.005	0.000	-0.005	0.000	-0.005	-0.015	0.000	2.656	1.890	1.895	1.890	1.909	1.904	1.899
-0.005	0.005	0.000	0.000	0.005	0.000	0.000	2.637	1.890	1.895	1.890	1.909	1.909	1.909
-0.010	0.005	0.000	-0.005	0.005	-0.005	0.000	2.646	1.885	1.890	1.890	1.909	1.909	1.909
0.000	0.000	-0.010	0.000	-0.005	-0.010	0.000	2.690	1.895	1.890	1.890	1.909	1.904	1.904
0.000	-0.005	0.000	0.000	-0.005	-0.010	0.000	2.720	1.904	1.890	1.890	1.909	1.904	1.904
-0.005	-0.005	-0.005	0.000	-0.005	0.005	0.000	2.739	1.904	1.890	1.890	1.909	1.904	1.904
-0.010	-0.010	-0.005	0.000	-0.005	0.010	0.000	2.734	1.904	1.895	1.890	1.909	1.904	1.909
0.000	-0.005	0.000	-0.005	-0.005	-0.015	0.000	2.656	1.895	1.895	1.890	1.904	1.899	1.899
-0.005	-0.015	0.000	-0.005	0.000	0.005	0.000	2.642	1.890	1.890	1.890	1.909	1.904	1.909
-0.015	-0.005	0.000	-0.005	-0.005	0.000	0.000	2.642	1.885	1.890	1.890	1.904	1.899	1.904
0.000	-0.015	0.000	-0.005	-0.005	-0.005	0.000	2.632	1.885	1.890	1.890	1.904	1.899	1.899
-0.005	-0.010	-0.005	-0.005	0.000	0.005	-0.005	2.651	1.885	1.885	1.885	1.909	1.899	1.904
0.000	-0.005	0.000	-0.005	-0.005	-0.005	0.000	2.603	1.880	1.890	1.890	1.904	1.899	1.899
0.000	0.000	0.000	-0.005	-0.005	0.005	0.000	2.681	1.890	1.890	1.890	1.909	1.904	1.904
0.005	-0.005	-0.010	-0.005	-0.005	-0.005	0.000	2.710	1.895	1.890	1.885	1.909	1.899	1.904
-0.005	-0.005	0.000	0.000	-0.005	0.000	0.000	2.666	1.895	1.890	1.890	1.909	1.904	1.904
-0.005	0.005	0.000	0.000	-0.005	-0.005	0.000	2.666	1.895	1.895	1.890	1.904	1.899	1.899
-0.005	0.000	-0.005	0.000	-0.005	0.000	0.000	2.695	1.899	1.895	1.890	1.909	1.899	1.899
-0.005	0.005	0.000	0.000	-0.005	-0.010	0.000	2.661	1.899	1.895	1.890	1.909	1.904	1.904
-0.010	-0.005	-0.010	0.000	-0.005	0.005	0.000	2.671	1.890	1.895	1.890	1.909	1.904	1.909
-0.010	-0.005	-0.005	0.000	-0.005	0.000	0.000	2.666	1.895	1.890	1.890	1.904	1.904	1.904
0.000	0.000	0.000	-0.005	-0.005	0.000	0.000	2.700	1.899	1.895	1.890	1.909	1.899	1.899
0.000	-0.005	0.000	0.000	-0.005	-0.020	0.000	2.695	1.895	1.890	1.890	1.904	1.899	1.899
0.005	-0.015	0.005	-0.005	-0.005	0.010	0.000	2.686	1.895	1.890	1.890	1.904	1.899	1.904
-0.005	-0.005	-0.005	-0.005	0.000	-0.005	0.000	2.681	1.895	1.890	1.885	1.904	1.904	1.899
0.000	-0.015	-0.005	0.000	0.000	-0.010	0.000	2.690	1.895	1.890	1.885	1.904	1.899	1.899
-0.005	-0.015	-0.005	-0.005	-0.005	0.005	0.000	2.700	1.895	1.890	1.885	1.904	1.899	1.904
0.000	-0.015	0.005	-0.005	-0.005	-0.020	-0.005	2.686	1.899	1.890	1.890	1.904	1.899	1.895
0.000	-0.015	0.000	-0.005	-0.005	-0.005	0.000	2.666	1.895	1.890	1.890	1.904	1.899	1.899
0.000	-0.020	0.005	-0.005	-0.005	0.005	0.000	2.695	1.899	1.890	1.890	1.909	1.904	1.904
-0.010	-0.005	-0.005	-0.005	-0.005	-0.015	0.000	2.690	1.899	1.899	1.890	1.909	1.904	1.899
-0.010	0.000	0.000	0.000	-0.005	0.005	0.000	2.690	1.899	1.904	1.895	1.909	1.904	1.904
-0.015	-0.005	0.000	0.000	-0.005	-0.005	0.000	2.681	1.899	1.899	1.895	1.914	1.904	1.899
-0.005	0.005	0.000	0.000	-0.005	0.005	0.000	2.700	1.904	1.904	1.895	1.914	1.909	1.909
-0.005	0.005	0.000	0.000	-0.005	-0.010	0.000	2.695	1.899	1.899	1.895	1.914	1.909	1.904
-0.005	0.010	-0.005	0.000	0.000	0.000	0.000	2.671	1.899	1.904	1.899	1.914	1.909	1.909
-0.010	-0.005	0.000	0.000	0.000	0.000	0.000	2.686	1.899	1.895	1.899	1.914	1.909	1.909
0.005	-0.005	0.000	0.000	-0.005	-0.010	0.000	2.676	1.899	1.899	1.895	1.914	1.904	1.904
0.000	0.000	0.000	0.000	0.000	0.000	-0.005	2.622	1.890	1.899	1.895	1.914	1.909	1.909
-0.005	-0.005	-0.005	-0.005	-0.005	-0.005	0.000	2.646	1.885	1.890	1.890	1.909	1.904	1.909
-0.005	-0.005	-0.005	-0.005	-0.005	-0.020	0.000	2.671	1.890	1.885	1.890	1.909	1.904	1.899
-0.015	-0.010	-0.005	-0.005	-0.005	-0.005	0.000	2.632	1.880	1.885	1.885	1.909	1.904	1.909
0.000	-0.010	-0.005	-0.005	-0.005	-0.020	0.000	2.651	1.885	1.880	1.885	1.904	1.904	1.899
-0.005	-0.005	0.000	-0.005	-0.005	0.010	-0.005	2.725	1.899	1.885	1.885	1.904	1.904	1.909
0.005	0.000	-0.005	-0.005	0.000	-0.005	0.000	2.700	1.904	1.895	1.885	1.904	1.904	1.904
0.000	0.005	-0.010	-0.005	-0.005	-0.010	0.000	2.651	1.895	1.895	1.890	1.904	1.904	1.904
-0.005	-0.005	-0.005	-0.005	-0.005	-0.005	0.000	2.739	1.899	1.895	1.890	1.909	1.904	1.904
0.000	0.000	-0.010	-0.005	0.000	0.000	0.000	2.632	1.895	1.895	1.890	1.909	1.904	1.909
0.005	-0.024	-0.005	0.000	-0.010	0.000	0.000	2.749	1.904	1.890	1.890	1.909	1.899	1.904
-0.010	-0.024	0.000	0.000	0.000	-0.024	0.000	2.637	1.895	1.895	1.895	1.909	1.904	1.899
-0.010	-0.010	-0.005	0.000	0.000	0.010	0.000	2.651	1.890	1.895	1.890	1.909	1.904	1.914
0.000	0.005	-0.005	0.000	-0.005	0.005	0.000	2.651	1.890	1.899	1.895	1.909	1.909	1.909
-0.005	0.020	-0.005	0.000	0.000	0.005	0.000	2.637	1.890	1.899	1.895	1.909	1.904	1.909
-0.005	0.010	-0.010	0.005	-0.005	0.000	0.000	2.686	1.890	1.895	1.895	1.909	1.904	1.904
-0.015	0.015	-0.005	0.000	-0.005	0.000	0.000	2.744	1.899	1.895	1.895	1.914	1.904	1.909
-0.005	0.000	-0.005	0.000	-0.005	0.005	0.000	2.671	1.899	1.890	1.890	1.909	1.904	1.904
0.005	0.000	-0.005	-0.005	-0.005	-0.005	0.000	2.681	1.899	1.895	1.890	1.909	1.904	1.899
0.000	0.000	-0.010	-0.005	0.000	0.000	0.000	2.651	1.895	1.895	1.890	1.909	1.904	1.904
0.000	-0.005	-0.005	0.000	-0.005	0.000	0.000	2.671	1.895	1.890	1.890	1.909	1.904	1.904
0.000	-0.010	0.000	0.000	0.000	-0.010	0.000	2.666	1.890	1.890	1.890	1.909	1.904	1.899
-0.005	-0.005	0.000	-0.005	-0.005	0.005	0.000	2.681	1.895	1.890	1.890	1.904	1.904	1.904
-0.005	-0.015	0.005	-0.005	0.000	0.000	0.000	2.656	1.895	1.890	1.890	1.909	1.904	1.904
-0.005	0.005	0.000	0.000	-0.010	-0.010	0.000	2.690	1.890	1.890	1.890	1.909	1.899	1.904
0.000	0.000	0.000	-0.005	0.000	0.005	0.000	2.686	1.899	1.895	1.890	1.909	1.904	1.909
-0.005	0.010	-0.005	-0.005	0.000	-0.010	0.000	2.700	1.904	1.899	1.890	1.909	1.904	1.904
0.000	-0.005	-0.005	0.000	0.000	-0.020	0.000	2.666	1.895	1.895	1.895	1.909	1.904	1.899
0.000	0.010	0.000	0.000	0.000	0.005	0.000	2.695	1.899	1.899	1.895	1.914	1.909	1.909
-0.005	0.010	0.000	-0.005	-0.005	0.010	0.000	2.700	1.899	1.899	1.895	1.914	1.909	1.909
0.000	0.010	0.000	0.000	0.000	0.005	0.000	2.661	1.899	1.899	1.895	1.914	1.909	1.909
-0.005	0.005	0.000	0.000	-0.005	0.000	0.000	2.695	1.899	1.899	1.895	1.914	1.909	1.909
0.005	0.015	0.000	0.000	0.000	0.000	0.000	2.690	1.904	1.899	1.895	1.914	1.909	1.904
0.000	0.000	0.000	-0.005	-0.005	-0.029	0.000	2.661	1.895	1.895	1.895	1.914	1.904	1.895
0.000	-0.010	0.000	0.000	-0.005	-0.005	0.000	2.681	1.895	1.890	1.895	1.909	1.904	1.904
0.000	-0.010	-0.005	-0.005	-0.005	0.000	0.000	2.666	1.890	1.890	1.890	1.909	1.904	1.909
0.000	-0.015	-0.010	-0.005	-0.005	0.005	0.000	2.695	1.895	1.885	1.890	1.909	1.909	1.909
-0.005	-0.010	-0.005	-0.005	0.000	0.005	0.000	2.695	1.895	1.890	1.890	1.909	1.904	1.904
0.000	-0.015	0.000	-0.005	0.000	-0.010	0.000	2.695	1.895	1.890	1.890	1.904	1.904	1.899
-0.005	-0.010	0.000	-0.005	-0.005	-0.010	0.000	2.671	1.895	1.895	1.890	1.909	1.904	1.904
-0.005	-0.010	0.005	-0.005	-0.005	-0.005	0.000	2.651	1.895	1.895	1.890	1.909	1.904	1.904
-0.005	-0.005	0.000	-0.010	-0.005	-0.005	-0.005	2.666	1.895	1.895	1.890	1.909	1.904	1.904
-0.005	-0.005	0.000	-0.005	0.000	-0.005	0.000	2.681	1.895	1.895	1.895	1.909	1.904	1.904
-0.005	0.005	0.000	0.000	-0.005	-0.005	0.000	2.764	1.909	1.899	1.895	1.909	1.904	1.904
-0.005	-0.005	-0.005	0.000	-0.015	-0.005	0.000	2.646	1.895	1.899	1.895	1.909	1.904	1.909
-0.010	0.005	0.000	0.000	-0.005	0.000	0.000	2.720	1.899	1.899	1.895	1.914	1.909	1.909
-0.005	-0.010	-0.005	0.000	-0.005	-0.015	0.000	2.734	1.909	1.899	1.895	1.914	1.909	1.899
-0.005	-0.015	-0.010	0.000	0.000	0.005	0.000	2.725	1.895	1.895	1.895	1.914	1.909	1.914
0.000	-0.010	-0.005	0.000	0.005	-0.005	0.000	2.622	1.895	1.895	1.895	1.914	1.909	1.909
-0.005	-0.010	-0.005	0.000	0.000	-0.010	0.000	2.627	1.880	1.890	1.895	1.909	1.909	1.904
-0.005	-0.020	-0.005	0.000	0.000	0.015	0.000	2.729	1.890	1.890	1.890	1.909	1.909	1.914
-0.005	-0.010	0.000	0.000	-0.005	0.010	0.000	2.646	1.885	1.890	1.890	1.909	1.904	1.909
-0.015	0.000	-0.005	-0.005	-0.005	0.005	0.000	2.656	1.890	1.890	1.890	1.909	1.904	1.904
-0.005	0.000	0.000	-0.005	0.000	0.005	0.000	2.686	1.890	1.890	1.885	1.909	1.904	1.904
-0.010	0.005	-0.005	-0.005	-0.005	0.005	0.000	2.710	1.895	1.890	1.890	1.904	1.904	1.909
-0.005	-0.005	0.000	-0.005	-0.010	-0.015	0.000	2.681	1.899	1.895	1.885	1.904	1.899	1.895
-0.010	0.000	0.000	-0.005	-0.010	0.005	0.000	2.744	1.904	1.895	1.890	1.904	1.899	1.904
0.000	0.000	0.005	-0.005	-0.015	-0.005	0.000	2.651	1.899	1.899	1.890	1.909	1.899	1.904
0.005	0.005	-0.005	-0.005	0.000	0.000	0.000	2.690	1.904	1.899	1.895	1.909	1.904	1.904
-0.015	0.010	0.000	-0.005	0.005	-0.005	0.000	2.681	1.899	1.899	1.895	1.909	1.909	1.904
-0.005	0.015	0.000	-0.005	0.010	-0.005	0.000	2.661	1.904	1.904	1.899	1.914	1.909	1.909
0.000	0.015	-0.005	0.000	0.005	0.000	0.000	2.671	1.899	1.904	1.895	1.914	1.909	1.909
-0.005	0.005	-0.005	0.000	0.005	0.000	0.000	2.661	1.895	1.895	1.899	1.914	1.909	1.909
0.000	0.005	-0.010	-0.005	0.000	-0.010	0.000	2.705	1.904	1.899	1.895	1.914	1.909	1.904
-0.005	0.000	-0.005	0.000	0.000	-0.029	0.000	2.666	1.895	1.895	1.899	1.914	1.909	1.904
-0.005	0.000	-0.005	0.000	0.000	0.000	0.000	2.695	1.899	1.890	1.895	1.914	1.909	1.914
-0.015	0.005	0.000	0.000	-0.005	-0.005	0.000	2.695	1.899	1.895	1.895	1.909	1.909	1.909
0.000	-0.024	-0.005	0.000	-0.005	0.000	0.000	2.686	1.895	1.885	1.890	1.909	1.909	1.909
0.000	-0.024	-0.005	-0.005	-0.005	0.000	0.000	2.695	1.899	1.890	1.890	1.909	1.904	1.909
0.000	-0.029	0.000	-0.005	-0.005	0.010	0.000	2.695	1.904	1.890	1.885	1.909	1.904	1.904
-0.005	-0.034	0.000	-0.005	-0.005	0.005	0.000	2.651	1.895	1.890	1.885	1.904	1.904	1.909
0.000	-0.024	0.000	-0.005	-0.005	0.005	0.000	2.676	1.895	1.890	1.890	1.904	1.904	1.904
0.005	-0.015	-0.005	-0.005	0.000	0.000	0.000	2.666	1.899	1.895	1.890	1.909	1.899	1.904
-0.005	-0.015	-0.005	-0.005	0.000	0.015	-0.005	2.681	1.899	1.895	1.890	1.909	1.904	1.904
0.000	-0.010	-0.005	-0.005	-0.010	0.000	0.000	2.686	1.899	1.899	1.890	1.909	1.904	1.904
0.000	-0.020	0.000	0.000	0.000	-0.005	0.000	2.661	1.899	1.899	1.895	1.909	1.904	1.904
-0.005	-0.005	0.000	-0.005	-0.005	-0.015	0.000	2.671	1.895	1.899	1.895	1.914	1.904	1.904
-0.005	-0.005	0.000	-0.005	-0.005	-0.010	0.000	2.700	1.904	1.899	1.895	1.914	1.909	1.904
-0.005	-0.005	-0.005	0.000	-0.010	0.000	0.000	2.671	1.895	1.899	1.895	1.914	1.904	1.909
-0.005	0.000	0.000	0.000	-0.005	0.005	0.000	2.671	1.899	1.899	1.899	1.914	1.909	1.909
-0.005	0.005	-0.005	0.000	-0.005	0.000	0.000	2.651	1.895	1.899	1.899	1.914	1.909	1.909
0.000	0.020	-0.005	0.000	-0.005	0.000	0.000	2.656	1.895	1.904	1.899	1.914	1.909	1.909
-0.005	0.024	0.000	0.000	0.000	0.000	0.000	2.661	1.895	1.899	1.899	1.914	1.909	1.909
-0.005	0.005	-0.005	0.000	0.000	-0.005	0.000	2.632	1.890	1.890	1.890	1.914	1.909	1.909
-0.005	0.005	0.000	0.000	-0.005	-0.005	0.000	2.637	1.885	1.885	1.895	1.909	1.909	1.904
0.000	0.000	0.000	0.000	-0.005	-0.015	0.000	2.720	1.890	1.885	1.890	1.909	1.904	1.904
0.005	0.010	-0.005	-0.005	0.000	0.005	0.000	2.734	1.899	1.890	1.890	1.909	1.904	1.909
-0.005	0.010	0.000	-0.005	-0.005	0.005	0.000	2.739	1.904	1.890	1.890	1.909	1.904	1.909
-0.010	0.005	0.000	-0.005	0.000	-0.024	0.000	2.749	1.909	1.895	1.890	1.909	1.904	1.899
-0.005	0.000	0.000	-0.005	0.000	0.005	0.000	2.627	1.899	1.895	1.890	1.909	1.904	1.909
0.000	-0.020	-0.005	-0.005	-0.005	0.005	0.000	2.744	1.909	1.895	1.890	1.909	1.904	1.904
-0.005	-0.020	0.000	-0.005	0.000	-0.005	0.000	2.666	1.899	1.895	1.890	1.909	1.904	1.904
-0.005	-0.015	0.000	-0.005	-0.005	-0.015	0.000	2.642	1.909	1.899	1.895	1.909	1.904	1.904
-0.005	-0.015	0.000	-0.005	-0.005	0.000	0.000	2.661	1.904	1.899	1.895	1.914	1.904	1.909
-0.005	-0.010	-0.005	0.000	-0.005	0.005	0.000	2.627	1.895	1.899	1.899	1.914	1.909	1.909
-0.005	-0.005	0.000	0.000	-0.005	0.005	0.000	2.671	1.899	1.904	1.899	1.914	1.909	1.909
0.000	-0.005	0.000	0.000	0.000	0.005	0.000	2.739	1.904	1.904	1.899	1.914	1.909	1.909
-0.005	0.020	0.000	0.000	-0.005	-0.005	0.000	2.671	1.904	1.909	1.904	1.919	1.909	1.909
-0.005	0.020	0.000	0.000	-0.010	-0.015	0.000	2.671	1.899	1.904	1.899	1.919	1.909	1.904
-0.015	0.020	-0.010	0.000	0.000	0.000	0.000	2.656	1.895	1.899	1.899	1.919	1.914	1.909
-0.010	0.005	-0.010	0.000	0.000	-0.015	0.000	2.666	1.895	1.895	1.895	1.914	1.909	1.909
-0.005	-0.010	-0.005	0.000	0.000	-0.005	0.000	2.671	1.890	1.890	1.890	1.914	1.909	1.909
0.000	0.000	0.000	-0.005	0.000	-0.005	0.000	2.656	1.890	1.895	1.890	1.909	1.909	1.904
0.000	0.000	-0.005	-0.005	0.000	-0.005	0.000	2.700	1.899	1.890	1.890	1.909	1.909	1.909
0.000	-0.015	-0.005	-0.005	0.000	-0.010	0.000	2.686	1.899	1.890	1.890	1.909	1.909	1.909
-0.005	-0.020	0.000	-0.005	-0.005	-0.005	-0.005	2.690	1.899	1.890	1.890	1.909	1.904	1.909
-0.005	-0.015	0.000	-0.005	0.000	0.000	0.000	2.686	1.895	1.895	1.890	1.909	1.909	1.909
-0.005	-0.005	-0.005	-0.005	-0.005	-0.005	0.000	2.666	1.895	1.895	1.895	1.909	1.904	1.909
0.000	-0.005	0.000	-0.005	0.000	0.005	0.000	2.700	1.904	1.899	1.895	1.914	1.904	1.909
-0.005	-0.015	0.000	-0.005	-0.005	0.000	0.000	2.686	1.904	1.899	1.890	1.909	1.909	1.909
0.005	0.000	0.000	0.000	-0.005	0.005	0.000	2.695	1.909	1.904	1.899	1.909	1.909	1.909
0.005	0.005	-0.005	0.000	-0.005	0.005	0.000	2.695	1.909	1.904	1.899	1.914	1.909	1.909
-0.015	0.015	0.000	0.000	-0.005	0.005	0.000	2.681	1.904	1.909	1.899	1.914	1.909	1.909
-0.005	0.010	-0.005	0.000	0.000	0.000	0.000	2.676	1.899	1.904	1.899	1.914	1.914	1.909
0.000	0.015	0.000	0.000	-0.005	0.000	0.000	2.690	1.904	1.904	1.904	1.919	1.909	1.909
0.000	0.015	0.000	0.000	0.000	-0.010	0.000	2.666	1.899	1.904	1.899	1.914	1.909	1.909
0.000	-0.005	-0.005	0.000	0.000	-0.005	0.000	2.690	1.899	1.895	1.899	1.919	1.909	1.909
0.005	0.015	-0.005	-0.005	-0.005	0.000	0.000	2.690	1.899	1.899	1.899	1.914	1.909	1.909
0.005	-0.005	0.000	0.000	-0.005	0.005	0.000	2.666	1.899	1.895	1.899	1.914	1.909	1.914
0.005	-0.010	-0.005	-0.005	0.000	-0.015	0.000	2.681	1.895	1.890	1.895	1.914	1.909	1.904
-0.005	-0.010	-0.005	-0.005	0.000	0.000	0.000	2.651	1.890	1.890	1.890	1.909	1.909	1.909
-0.005	-0.010	0.000	0.000	-0.005	-0.015	0.000	2.651	1.890	1.890	1.890	1.909	1.909	1.904
-0.005	-0.010	-0.005	-0.005	-0.005	0.010	0.000	2.671	1.890	1.885	1.890	1.909	1.909	1.909
0.000	-0.005	-0.005	-0.005	0.000	0.000	0.000	2.632	1.890	1.890	1.890	1.909	1.909	1.909
-0.005	-0.005	-0.005	-0.005	0.000	0.005	0.000	2.646	1.890	1.890	1.890	1.909	1.909	1.909
-0.005	0.000	-0.005	-0.005	0.000	-0.015	0.000	2.729	1.895	1.895	1.890	1.909	1.909	1.909
-0.005	0.005	-0.005	0.000	0.000	0.000	0.000	2.725	1.904	1.899	1.895	1.909	1.909	1.909
-0.010	-0.005	-0.005	-0.005	-0.005	-0.024	0.000	2.627	1.899	1.895	1.895	1.909	1.904	1.899
-0.005	0.005	0.000	0.000	-0.005	0.005	0.000	2.749	1.904	1.899	1.895	1.914	1.909	1.909
-0.010	0.005	-0.005	0.000	0.000	-0.010	0.000	2.622	1.899	1.899	1.895	1.909	1.909	1.904
-0.010	0.005	0.000	0.000	-0.010	0.005	0.000	2.715	1.904	1.904	1.899	1.914	1.909	1.909
-0.010	-0.005	-0.005	0.000	-0.005	-0.010	0.000	2.646	1.899	1.899	1.895	1.914	1.909	1.904
-0.015	0.000	-0.010	0.000	-0.005	0.000	0.000	2.642	1.895	1.899	1.895	1.914	1.909	1.909
-0.005	-0.005	-0.005	0.000	-0.005	0.005	0.000	2.661	1.890	1.895	1.895	1.914	1.909	1.909
-0.005	0.000	-0.005	0.000	0.000	-0.020	0.000	2.607	1.885	1.890	1.890	1.909	1.909	1.904
-0.005	-0.010	-0.005	0.000	-0.005	0.005	0.000	2.666	1.890	1.885	1.890	1.909	1.909	1.909
-0.010	-0.005	0.000	-0.005	0.000	0.000	0.000	2.646	1.885	1.885	1.890	1.909	1.904	1.909
0.000	-0.015	-0.005	-0.005	0.000	-0.005	0.000	2.671	1.890	1.880	1.885	1.909	1.904	1.904
-0.005	-0.005	0.000	-0.005	0.000	-0.010	0.000	2.666	1.895	1.890	1.885	1.904	1.904	1.904
0.005	-0.020	-0.005	-0.005	0.000	-0.005	0.000	2.661	1.895	1.885	1.885	1.904	1.904	1.909
-0.005	-0.020	0.000	-0.005	-0.005	-0.005	0.000	2.671	1.895	1.890	1.885	1.904	1.904	1.904
0.000	-0.015	-0.005	-0.005	-0.005	-0.020	0.000	2.676	1.895	1.890	1.885	1.909	1.904	1.899
0.020	-0.010	-0.005	-0.005	-0.005	0.000	0.000	2.676	1.904	1.895	1.890	1.904	1.904	1.909
0.005	-0.005	-0.005	-0.005	-0.005	-0.005	0.000	2.705	1.899	1.895	1.890	1.909	1.904	1.904
0.000	-0.005	-0.005	0.000	-0.005	0.005	0.000	2.700	1.899	1.895	1.890	1.909	1.904	1.909
0.005	-0.005	0.000	0.000	0.000	-0.015	0.000	2.690	1.904	1.899	1.895	1.909	1.904	1.899
-0.005	-0.015	-0.005	0.000	0.000	0.000	0.000	2.690	1.899	1.899	1.895	1.909	1.904	1.909
-0.010	0.005	-0.005	0.000	-0.005	0.005	0.000	2.695	1.899	1.904	1.895	1.909	1.904	1.909
-0.010	0.020	-0.005	0.000	-0.005	-0.015	0.000	2.700	1.899	1.904	1.899	1.914	1.904	1.899
-0.005	0.010	-0.005	0.000	0.000	0.005	0.000	2.690	1.904	1.899	1.895	1.914	1.909	1.909
-0.005	0.000	-0.005	0.000	-0.005	-0.010	0.000	2.690	1.899	1.895	1.895	1.914	1.904	1.899
0.010	0.000	-0.005	0.000	0.000	0.005	0.000	2.661	1.899	1.895	1.899	1.909	1.904	1.909
0.000	0.000	0.000	0.000	0.000	0.005	0.000	2.695	1.899	1.895	1.895	1.909	1.909	1.909
0.000	0.000	0.000	-0.005	-0.005	0.000	0.000	2.695	1.899	1.895	1.895	1.914	1.909	1.904
-0.005	0.000	0.005	-0.005	-0.005	-0.015	0.000	2.690	1.899	1.895	1.895	1.909	1.904	1.904
0.000	0.005	0.000	-0.005	0.000	0.000	0.000	2.695	1.904	1.895	1.895	1.914	1.904	1.904
0.005	-0.010	-0.005	-0.005	0.000	-0.020	0.000	2.661	1.895	1.895	1.890	1.914	1.909	1.904
0.010	-0.005	-0.005	-0.005	-0.005	-0.005	0.000	2.690	1.899	1.895	1.890	1.914	1.909	1.909
0.000	0.000	-0.005	-0.005	-0.005	0.000	0.000	2.676	1.899	1.899	1.890	1.914	1.909	1.909
0.000	-0.005	0.000	-0.005	-0.005	-0.020	0.000	2.676	1.895	1.895	1.895	1.914	1.909	1.904
-0.005	0.000	-0.005	-0.005	-0.005	0.000	0.000	2.666	1.895	1.899	1.895	1.914	1.909	1.909
-0.005	0.000	-0.005	0.000	-0.005	0.010	0.000	2.651	1.895	1.899	1.895	1.914	1.909	1.914
-0.005	0.010	-0.010	0.000	-0.005	-0.015	0.000	2.676	1.895	1.899	1.895	1.914	1.909	1.904
-0.005	0.000	-0.005	0.000	-0.005	0.005	0.000	2.676	1.909	1.895	1.895	1.914	1.909	1.914
-0.005	0.005	-0.005	0.000	0.000	0.000	0.000	2.637	1.899	1.899	1.895	1.914	1.909	1.909
0.000	0.005	0.000	0.000	-0.005	0.000	0.000	2.720	1.890	1.895	1.895	1.914	1.909	1.909
-0.005	-0.029	-0.005	0.000	-0.005	-0.029	0.000	2.612	1.885	1.880	1.885	1.914	1.909	1.904
0.000	-0.020	-0.005	-0.005	0.000	0.000	0.000	2.671	1.890	1.885	1.890	1.909	1.909	1.909
-0.005	-0.029	0.000	0.000	-0.005	-0.024	0.000	2.734	1.885	1.885	1.885	1.909	1.904	1.899
0.000	-0.015	0.000	-0.005	-0.005	0.005	0.000	2.612	1.885	1.885	1.885	1.909	1.904	1.909
-0.010	-0.010	-0.005	-0.005	0.000	0.010	0.000	2.715	1.885	1.885	1.885	1.904	1.904	1.909
-0.010	-0.010	-0.005	-0.005	0.000	0.005	0.000	2.666	1.890	1.885	1.885	1.904	1.904	1.909
-0.005	0.005	-0.005	-0.005	-0.005	0.010	0.000	2.715	1.899	1.895	1.885	1.904	1.899	1.904
-0.005	0.010	-0.005	-0.005	-0.005	0.010	0.000	2.651	1.895	1.895	1.890	1.904	1.899	1.904
0.005	0.005	0.000	-0.005	-0.005	0.005	0.000	2.729	1.895	1.895	1.890	1.909	1.899	1.904
0.005	0.010	-0.005	-0.005	0.000	-0.024	0.000	2.686	1.899	1.899	1.895	1.909	1.904	1.899
0.000	0.000	0.005	-0.005	-0.005	0.005	0.000	2.642	1.895	1.890	1.895	1.909	1.904	1.904
0.005	0.005	-0.010	0.000	-0.005	-0.010	0.000	2.666	1.895	1.895	1.890	1.909	1.904	1.904
0.000	0.005	-0.005	0.000	-0.005	-0.005	0.000	2.681	1.895	1.895	1.890	1.909	1.904	1.904
0.000	-0.010	0.000	0.000	-0.005	-0.010	0.000	2.695	1.899	1.885	1.890	1.914	1.904	1.904
-0.010	-0.005	0.000	-0.005	-0.005	-0.005	0.000	2.676	1.895	1.890	1.890	1.909	1.904	1.909
-0.010	-0.005	-0.005	0.000	0.005	0.000	0.000	2.661	1.890	1.890	1.890	1.909	1.904	1.904
-0.010	-0.010	0.000	0.000	0.005	0.000	0.000	2.686	1.890	1.890	1.890	1.909	1.909	1.909
-0.015	-0.010	0.000	0.000	0.000	-0.005	0.000	2.671	1.895	1.890	1.890	1.909	1.904	1.904
-0.015	-0.015	-0.005	-0.005	-0.010	-0.005	0.000	2.700	1.895	1.890	1.885	1.904	1.899	1.904
-0.015	-0.010	-0.005	-0.005	-0.005	-0.005	0.000	2.686	1.895	1.890	1.885	1.904	1.899	1.904
-0.015	0.000	-0.005	-0.005	0.000	0.000	0.000	2.690	1.899	1.895	1.890	1.904	1.899	1.904
-0.005	-0.005	-0.005	-0.005	0.005	-0.005	0.000	2.671	1.899	1.895	1.890	1.904	1.899	1.899
-0.010	-0.005	-0.005	-0.005	0.005	-0.005	0.000	2.671	1.890	1.890	1.890	1.904	1.899	1.899
-0.005	-0.005	-0.005	-0.005	-0.005	-0.020	0.000	2.690	1.899	1.895	1.890	1.904	1.899	1.895
-0.010	0.000	0.000	-0.005	-0.015	0.000	0.000	2.676	1.895	1.895	1.890	1.909	1.899	1.899
0.000	-0.005	0.000	-0.005	-0.005	0.005	0.000	2.681	1.899	1.895	1.890	1.909	1.904	1.904
-0.005	0.000	0.000	-0.005	-0.005	0.010	0.000	2.676	1.899	1.899	1.895	1.909	1.904	1.904
-0.005	0.000	-0.005	0.000	-0.005	-0.005	-0.005	2.686	1.899	1.899	1.895	1.909	1.909	1.899
0.000	0.005	-0.005	0.000	0.000	0.000	0.000	2.686	1.904	1.904	1.895	1.914	1.909	1.909
0.005	0.005	-0.005	0.000	-0.010	0.005	0.000	2.690	1.904	1.904	1.895	1.914	1.904	1.909
0.000	-0.005	-0.005	-0.005	-0.015	-0.005	0.000	2.695	1.904	1.895	1.895	1.914	1.904	1.899
0.005	0.000	-0.005	0.000	-0.005	0.000	0.000	2.695	1.899	1.899	1.899	1.914	1.909	1.909
0.000	-0.005	-0.005	0.000	-0.010	-0.010	0.000	2.700	1.899	1.895	1.899	1.914	1.909	1.904
0.005	0.024	0.000	0.000	-0.015	0.000	0.000	2.681	1.899	1.904	1.899	1.914	1.904	1.909
0.000	0.010	0.000	0.000	0.000	0.000	0.000	2.646	1.895	1.895	1.895	1.914	1.909	1.909
-0.005	0.010	-0.005	-0.005	-0.005	-0.010	0.000	2.646	1.890	1.895	1.895	1.914	1.909	1.909
0.000	0.005	0.000	-0.005	-0.005	0.010	0.000	2.666	1.890	1.890	1.890	1.909	1.904	1.914
0.000	-0.010	-0.005	0.000	0.000	-0.029	0.000	2.637	1.885	1.885	1.890	1.909	1.904	1.899
0.000	0.005	-0.010	-0.005	0.005	0.005	0.000	2.651	1.885	1.890	1.885	1.909	1.909	1.914
-0.010	0.010	-0.005	-0.005	0.010	0.005	0.000	2.632	1.880	1.890	1.885	1.904	1.909	1.909
-0.010	0.005	-0.010	-0.005	0.020	0.000	0.000	2.622	1.880	1.885	1.885	1.904	1.904	1.909
-0.010	0.000	-0.005	-0.005	0.005	-0.015	0.000	2.725	1.890	1.885	1.885	1.904	1.904	1.904
-0.015	0.005	-0.005	-0.005	0.005	-0.010	0.000	2.749	1.895	1.890	1.890	1.909	1.904	1.904
-0.005	-0.005	0.000	-0.005	0.000	-0.015	0.000	2.627	1.895	1.890	1.885	1.904	1.899	1.904
-0.005	0.010	-0.005	0.000	-0.015	0.000	0.000	2.715	1.899	1.895	1.890	1.909	1.899	1.904
-0.010	0.000	-0.005	0.000	-0.020	-0.005	0.000	2.666	1.895	1.890	1.890	1.904	1.899	1.904
-0.005	0.000	-0.005	0.000	-0.005	-0.010	0.000	2.749	1.904	1.895	1.890	1.909	1.904	1.904
-0.005	0.000	-0.005	0.000	0.000	0.000	0.000	2.666	1.899	1.895	1.890	1.909	1.909	1.909
-0.005	0.005	-0.005	0.000	0.015	-0.020	0.000	2.637	1.909	1.899	1.895	1.909	1.909	1.899
0.000	0.005	-0.005	0.000	-0.005	-0.020	0.000	2.690	1.909	1.904	1.895	1.909	1.904	1.904
-0.010	-0.005	0.000	0.000	0.000	0.000	0.000	2.715	1.904	1.899	1.895	1.909	1.909	1.909
0.000	-0.010	-0.005	0.000	0.005	-0.010	0.000	2.666	1.899	1.895	1.895	1.909	1.904	1.904
0.000	-0.005	0.000	0.000	0.000	0.005	0.000	2.676	1.899	1.895	1.895	1.909	1.904	1.909
0.010	-0.010	0.005	-0.005	-0.005	-0.010	0.000	2.686	1.904	1.899	1.895	1.909	1.904	1.899
0.015	-0.015	0.005	-0.005	0.000	0.010	0.000	2.666	1.899	1.895	1.895	1.909	1.904	1.909
0.015	-0.024	0.000	-0.005	-0.005	-0.005	0.000	2.666	1.895	1.890	1.890	1.909	1.904	1.904
0.000	-0.024	-0.010	-0.005	-0.005	0.005	0.000	2.671	1.890	1.890	1.890	1.909	1.904	1.909
0.000	-0.020	0.005	-0.005	-0.005	0.005	0.000	2.700	1.895	1.895	1.890	1.909	1.904	1.904
-0.005	-0.015	-0.010	0.000	-0.005	-0.005	0.000	2.686	1.895	1.895	1.890	1.909	1.904	1.904
-0.005	-0.015	-0.005	-0.005	-0.005	0.005	0.000	2.690	1.904	1.895	1.895	1.909	1.909	1.909
-0.010	-0.005	0.000	-0.005	-0.005	0.005	0.000	2.695	1.899	1.899	1.895	1.914	1.904	1.909
-0.005	-0.005	0.000	0.000	-0.005	0.000	0.000	2.681	1.904	1.904	1.899	1.914	1.909	1.909
0.000	0.010	-0.005	0.000	-0.005	-0.015	0.000	2.690	1.899	1.904	1.899	1.919	1.909	1.904
-0.005	0.010	0.000	0.000	-0.005	-0.010	-0.005	2.690	1.904	1.904	1.899	1.919	1.909	1.904
-0.010	0.010	-0.005	0.000	-0.005	-0.020	0.000	2.676	1.899	1.904	1.899	1.919	1.909	1.904
-0.005	0.010	-0.005	0.000	-0.005	-0.010	0.000	2.666	1.895	1.904	1.899	1.919	1.914	1.909
-0.010	0.005	-0.005	0.000	-0.010	-0.020	0.000	2.676	1.890	1.899	1.895	1.914	1.909	1.909
-0.005	0.010	-0.005	-0.005	-0.005	-0.010	0.000	2.671	1.899	1.895	1.895	1.914	1.909	1.914
-0.005	-0.005	0.000	0.000	-0.005	0.005	0.000	2.690	1.895	1.890	1.895	1.914	1.909	1.914
-0.005	-0.010	0.000	0.000	-0.005	0.005	0.000	2.656	1.895	1.895	1.890	1.914	1.909	1.914
0.005	-0.005	-0.005	-0.005	0.000	-0.005	0.000	2.666	1.895	1.890	1.890	1.909	1.909	1.909
0.000	-0.005	0.000	-0.005	-0.010	-0.005	0.000	2.681	1.895	1.890	1.890	1.909	1.904	1.909
0.010	0.000	-0.005	-0.005	-0.005	-0.005	0.000	2.671	1.899	1.890	1.890	1.909	1.909	1.909
0.005	-0.010	0.000	0.000	-0.005	0.005	0.000	2.676	1.899	1.895	1.890	1.909	1.909	1.914
0.005	-0.010	-0.005	-0.005	-0.010	0.005	-0.005	2.642	1.895	1.895	1.890	1.909	1.904	1.909
-0.005	0.000	-0.005	-0.005	0.000	0.010	0.000	2.651	1.895	1.895	1.890	1.909	1.909	1.909
0.005	0.005	-0.005	-0.005	0.000	0.005	0.000	2.666	1.890	1.895	1.895	1.909	1.909	1.909
-0.005	-0.005	0.000	-0.005	0.000	-0.010	0.000	2.637	1.890	1.890	1.895	1.909	1.904	1.904
-0.005	0.000	-0.005	-0.005	-0.005	-0.020	0.000	2.651	1.890	1.890	1.895	1.914	1.904	1.899
0.000	0.000	-0.005	0.000	0.000	-0.005	0.000	2.729	1.899	1.895	1.890	1.914	1.909	1.909
-0.005	0.005	0.000	0.000	0.000	0.000	0.000	2.651	1.899	1.899	1.895	1.914	1.909	1.909
0.000	0.000	-0.005	0.000	0.000	0.005	0.000	2.622	1.890	1.895	1.890	1.909	1.909	1.909
0.000	0.000	0.000	0.000	-0.010	-0.015	0.000	2.744	1.904	1.895	1.890	1.914	1.904	1.904
0.000	-0.015	0.000	-0.005	-0.005	0.010	0.000	2.632	1.895	1.890	1.890	1.909	1.909	1.909
-0.005	-0.024	0.000	-0.005	0.000	0.000	0.000	2.744	1.899	1.885	1.890	1.909	1.904	1.909
-0.005	-0.034	0.000	0.000	0.000	0.005	0.000	2.646	1.895	1.890	1.885	1.909	1.904	1.904
-0.005	-0.015	0.000	0.000	-0.005	0.000	0.000	2.749	1.899	1.895	1.890	1.904	1.904	1.904
-0.005	-0.020	0.005	-0.005	0.000	-0.015	0.000	2.666	1.899	1.895	1.890	1.904	1.904	1.899
-0.005	-0.005	-0.005	-0.005	-0.005	-0.010	0.000	2.715	1.899	1.895	1.885	1.904	1.904	1.904
-0.005	-0.020	0.000	-0.005	-0.005	0.000	0.000	2.666	1.899	1.895	1.890	1.909	1.904	1.904
-0.005	-0.015	0.000	-0.005	0.000	-0.020	0.000	2.622	1.895	1.899	1.895	1.904	1.904	1.899
-0.010	0.005	-0.005	-0.005	0.000	0.000	0.000	2.666	1.895	1.899	1.895	1.909	1.904	1.904
0.005	-0.005	-0.005	-0.005	0.000	-0.010	0.000	2.671	1.899	1.895	1.895	1.909	1.904	1.904
-0.005	-0.005	-0.005	-0.005	-0.005	0.005	0.000	2.661	1.895	1.895	1.895	1.914	1.909	1.904
0.000	0.000	-0.005	0.000	-0.005	0.000	0.000	2.666	1.899	1.899	1.895	1.914	1.904	1.909
-0.005	0.005	0.000	0.000	-0.005	-0.005	0.000	2.676	1.899	1.899	1.899	1.914	1.909	1.904
0.010	0.000	-0.005	0.000	0.000	-0.005	0.000	2.695	1.904	1.899	1.895	1.914	1.909	1.909
-0.015	-0.005	-0.005	0.000	-0.005	0.005	0.000	2.690	1.899	1.895	1.899	1.914	1.909	1.909
0.000	0.000	0.000	0.000	-0.005	0.005	0.000	2.695	1.904	1.899	1.895	1.914	1.909	1.909
-0.005	0.015	0.000	-0.005	0.000	0.000	0.000	2.690	1.904	1.904	1.895	1.914	1.909	1.909
-0.010	0.000	-0.005	0.000	-0.005	-0.005	0.000	2.681	1.899	1.895	1.895	1.914	1.909	1.909
-0.010	0.005	-0.005	0.000	0.000	-0.015	0.000	2.681	1.899	1.895	1.895	1.914	1.909	1.904
0.000	0.015	-0.005	-0.005	-0.005	0.005	0.000	2.671	1.899	1.899	1.895	1.914	1.909	1.909
0.000	0.010	0.000	-0.005	0.000	0.000	0.000	2.695	1.899	1.899	1.895	1.909	1.909	1.904
0.005	0.000	-0.005	-0.005	0.000	-0.020	0.000	2.681	1.899	1.899	1.895	1.909	1.909	1.904
0.000	0.005	-0.005	-0.005	0.000	0.000	0.000	2.686	1.899	1.895	1.895	1.909	1.909	1.909
0.005	-0.005	-0.005	-0.005	-0.005	0.005	0.000	2.676	1.899	1.895	1.895	1.909	1.909	1.909
-0.005	0.005	0.000	-0.005	0.000	-0.020	0.000	2.690	1.899	1.895	1.895	1.914	1.909	1.904
0.000	0.005	0.000	-0.005	-0.005	0.005	0.000	2.700	1.899	1.899	1.895	1.914	1.909	1.909
0.000	0.000	-0.005	-0.005	0.000	-0.005	0.000	2.666	1.895	1.899	1.895	1.914	1.909	1.909
-0.005	0.005	-0.005	-0.005	0.000	0.005	0.000	2.690	1.899	1.899	1.895	1.914	1.909	1.914
-0.005	0.015	-0.005	-0.005	0.000	0.005	0.000	2.695	1.899	1.899	1.899	1.914	1.909	1.909
-0.005	0.010	0.000	-0.005	0.000	-0.020	0.000	2.695	1.904	1.899	1.899	1.914	1.909	1.904
-0.010	0.005	0.000	0.000	-0.005	0.000	0.000	2.695	1.904	1.899	1.899	1.914	1.909	1.909
-0.010	0.005	0.000	0.000	-0.005	-0.010	0.000	2.656	1.895	1.899	1.899	1.914	1.909	1.909
-0.010	0.010	-0.005	0.000	0.000	-0.015	0.000	2.651	1.895	1.895	1.895	1.914	1.909	1.909
-0.010	-0.015	0.000	-0.005	0.000	0.005	0.000	2.686	1.895	1.890	1.890	1.914	1.914	1.914
0.000	-0.010	-0.005	0.000	0.000	0.000	0.000	2.778	1.909	1.895	1.895	1.909	1.909	1.914
-0.005	-0.024	-0.005	0.000	0.005	0.005	0.000	2.651	1.904	1.890	1.890	1.909	1.909	1.914
-0.005	-0.029	-0.005	0.000	-0.005	0.000	0.000	2.705	1.904	1.890	1.890	1.909	1.904	1.909
0.000	-0.039	-0.005	-0.005	-0.005	-0.005	0.000	2.710	1.904	1.890	1.890	1.909	1.904	1.904
-0.005	-0.020	-0.005	-0.005	-0.005	-0.015	0.000	2.729	1.909	1.904	1.895	1.909	1.904	1.899
-0.005	0.020	-0.005	-0.005	0.000	0.000	-0.005	2.617	1.899	1.914	1.899	1.909	1.904	1.904
0.000	0.005	0.000	-0.005	0.005	-0.010	0.000	2.632	1.890	1.904	1.899	1.914	1.909	1.904
0.000	0.005	-0.005	-0.005	0.005	-0.005	0.000	2.705	1.904	1.899	1.899	1.914	1.909	1.909
-0.005	0.005	-0.005	-0.005	-0.005	0.005	0.000	2.646	1.895	1.899	1.899	1.914	1.909	1.914
0.005	0.005	0.000	-0.005	0.000	0.000	0.000	2.661	1.899	1.904	1.899	1.919	1.909	1.909
-0.005	0.010	0.000	0.000	-0.005	-0.005	0.000	2.681	1.899	1.899	1.899	1.919	1.909	1.909
-0.005	0.010	0.000	-0.005	-0.005	0.005	0.000	2.734	1.904	1.899	1.899	1.919	1.909	1.909
-0.005	0.015	0.000	-0.005	-0.005	0.005	0.000	2.695	1.904	1.904	1.904	1.919	1.914	1.909
-0.005	0.015	-0.005	0.000	-0.005	0.005	0.000	2.720	1.909	1.904	1.899	1.919	1.914	1.914
0.000	0.005	0.000	-0.005	0.000	0.005	0.000	2.681	1.904	1.899	1.899	1.919	1.914	1.909
0.005	0.005	-0.005	0.000	-0.010	-0.005	0.000	2.686	1.904	1.904	1.899	1.919	1.909	1.914
-0.005	0.000	0.000	0.000	-0.005	-0.005	0.000	2.666	1.899	1.899	1.899	1.919	1.914	1.909
-0.010	-0.005	-0.010	0.000	-0.005	0.000	-0.005	2.661	1.895	1.895	1.895	1.919	1.909	1.914
-0.005	-0.005	0.005	-0.005	-0.005	0.005	0.000	2.666	1.895	1.895	1.895	1.914	1.909	1.914
-0.005	-0.005	0.000	0.000	-0.005	0.005	0.000	2.666	1.895	1.895	1.895	1.914	1.909	1.914
-0.005	-0.010	0.000	-0.005	0.005	0.000	0.000	2.686	1.895	1.890	1.890	1.914	1.909	1.909
0.000	-0.010	-0.005	-0.005	0.000	-0.005	0.000	2.666	1.899	1.895	1.890	1.909	1.909	1.909
-0.015	-0.005	0.000	-0.005	0.000	0.000	-0.005	2.690	1.899	1.895	1.890	1.914	1.909	1.914
-0.005	-0.010	0.000	-0.005	-0.005	0.005	0.000	2.700	1.899	1.895	1.890	1.909	1.909	1.909
-0.015	-0.015	0.000	-0.005	0.000	0.000	0.000	2.671	1.899	1.895	1.890	1.909	1.909	1.909
0.000	0.005	0.000	-0.005	0.000	-0.005	0.000	2.690	1.904	1.904	1.899	1.914	1.909	1.909
0.000	0.010	-0.005	0.000	-0.005	-0.010	0.000	2.695	1.904	1.904	1.899	1.914	1.909	1.909
-0.005	0.000	-0.005	0.000	-0.005	0.005	0.000	2.666	1.899	1.899	1.899	1.914	1.909	1.909
0.000	0.000	-0.005	-0.005	-0.005	0.000	0.000	2.686	1.904	1.904	1.899	1.919	1.909	1.909
0.000	0.005	0.000	0.000	-0.010	0.000	0.000	2.681	1.904	1.904	1.899	1.919	1.909	1.909
-0.005	0.000	-0.005	0.000	0.000	-0.015	0.000	2.661	1.899	1.899	1.899	1.919	1.914	1.909
0.005	-0.010	-0.005	0.000	-0.005	-0.005	0.000	2.676	1.899	1.895	1.899	1.919	1.914	1.914
0.000	0.000	-0.005	0.000	0.000	-0.010	0.000	2.700	1.904	1.899	1.899	1.914	1.914	1.909
-0.005	-0.010	-0.005	0.000	-0.005	-0.010	0.000	2.661	1.895	1.895	1.895	1.914	1.909	1.909
0.000	-0.010	0.000	0.000	-0.010	0.005	0.000	2.666	1.895	1.895	1.895	1.914	1.909	1.914
0.000	-0.010	-0.005	0.000	-0.005	-0.010	0.000	2.661	1.895	1.895	1.895	1.914	1.909	1.904
-0.005	-0.005	0.000	-0.005	-0.005	0.010	0.000	2.681	1.895	1.895	1.890	1.914	1.909	1.914
0.000	-0.015	0.000	-0.005	0.000	0.005	0.000	2.646	1.890	1.890	1.890	1.909	1.909	1.914
-0.010	-0.015	0.000	-0.005	0.000	0.010	0.000	2.646	1.890	1.890	1.890	1.914	1.904	1.909
-0.005	-0.015	-0.005	-0.005	0.000	0.000	0.000	2.671	1.895	1.895	1.885	1.909	1.909	1.904
0.000	-0.005	-0.005	0.000	0.000	0.005	0.000	2.637	1.890	1.895	1.890	1.909	1.909	1.909
0.000	-0.005	-0.005	-0.005	0.000	-0.010	0.000	2.651	1.890	1.895	1.890	1.909	1.904	1.904
-0.005	0.005	-0.005	-0.005	0.000	0.000	0.000	2.725	1.899	1.895	1.890	1.909	1.909	1.909
-0.005	0.005	-0.005	0.000	0.000	-0.010	0.000	2.651	1.895	1.895	1.895	1.909	1.909	1.909
-0.005	0.010	0.000	-0.005	0.000	0.000	0.000	2.646	1.899	1.899	1.895	1.914	1.909	1.909
-0.005	0.000	0.000	0.000	-0.005	-0.010	0.000	2.739	1.904	1.899	1.895	1.914	1.909	1.909
0.000	0.005	-0.005	0.005	-0.005	0.005	0.000	2.681	1.899	1.899	1.895	1.914	1.909	1.914
0.000	0.005	-0.005	-0.005	-0.005	0.005	0.000	2.729	1.909	1.899	1.895	1.914	1.909	1.909
-0.010	0.010	0.000	0.000	-0.010	0.000	0.000	2.666	1.899	1.899	1.895	1.914	1.909	1.909
0.000	-0.005	0.000	0.000	0.000	-0.020	0.000	2.749	1.904	1.899	1.895	1.914	1.909	1.904
-0.005	-0.005	0.000	0.000	-0.005	0.005	0.000	2.666	1.904	1.899	1.895	1.914	1.909	1.909
0.005	-0.005	-0.005	0.000	-0.005	0.005	0.000	2.617	1.890	1.895	1.895	1.914	1.909	1.909
-0.005	-0.015	-0.005	-0.005	0.005	0.005	0.000	2.671	1.890	1.890	1.890	1.909	1.909	1.909
-0.010	-0.020	-0.005	0.000	0.000	0.000	0.000	2.700	1.895	1.890	1.885	1.909	1.909	1.909
0.005	-0.015	-0.005	0.000	-0.005	-0.010	0.000	2.666	1.899	1.895	1.890	1.909	1.904	1.899
0.005	-0.010	0.000	-0.005	-0.005	-0.005	0.000	2.671	1.895	1.895	1.890	1.909	1.904	1.904
0.000	-0.010	-0.005	-0.005	-0.005	-0.005	-0.005	2.681	1.899	1.895	1.890	1.909	1.904	1.904
0.000	0.000	-0.005	-0.005	-0.005	0.005	0.000	2.666	1.895	1.899	1.890	1.909	1.904	1.909
0.000	0.000	0.000	-0.005	0.000	0.000	0.000	2.666	1.895	1.899	1.895	1.909	1.909	1.909
-0.010	0.000	-0.005	-0.005	0.000	0.005	0.000	2.676	1.899	1.899	1.895	1.914	1.909	1.909
-0.005	0.000	0.000	-0.005	0.000	0.000	0.000	2.681	1.899	1.899	1.895	1.914	1.909	1.909
0.000	0.005	-0.005	-0.005	-0.005	-0.005	0.000	2.695	1.904	1.899	1.895	1.914	1.904	1.909
0.000	0.005	0.000	-0.005	0.000	-0.005	0.000	2.695	1.909	1.899	1.895	1.914	1.909	1.909
0.000	0.005	-0.005	0.000	0.000	-0.020	0.000	2.686	1.904	1.904	1.899	1.914	1.909	1.904
0.005	0.015	-0.010	0.000	-0.005	0.005	0.000	2.676	1.904	1.904	1.899	1.914	1.909	1.909
0.015	0.000	-0.005	0.000	-0.005	-0.010	0.000	2.681	1.904	1.899	1.899	1.914	1.909	1.909
0.010	-0.005	-0.005	0.000	-0.005	0.005	0.000	2.686	1.899	1.899	1.899	1.914	1.914	1.909
0.000	0.000	0.000	-0.005	0.000	0.000	0.000	2.666	1.895	1.899	1.899	1.914	1.914	1.909
-0.010	0.000	0.005	-0.005	-0.010	0.000	0.000	2.666	1.895	1.895	1.899	1.914	1.909	1.909
-0.005	-0.005	-0.005	-0.005	0.000	0.000	0.000	2.676	1.890	1.890	1.895	1.914	1.909	1.909
0.000	-0.010	-0.005	-0.005	0.000	-0.005	0.000	2.666	1.895	1.890	1.890	1.909	1.909	1.909
0.000	-0.010	-0.005	-0.005	0.000	-0.010	0.000	2.681	1.895	1.890	1.895	1.909	1.909	1.904
-0.005	-0.020	-0.005	-0.005	0.000	-0.029	0.000	2.686	1.895	1.890	1.890	1.909	1.904	1.899
-0.005	-0.010	-0.010	-0.005	-0.005	-0.005	0.000	2.661	1.895	1.895	1.890	1.909	1.904	1.914
-0.005	-0.005	-0.005	0.000	0.000	0.000	0.000	2.661	1.890	1.895	1.895	1.909	1.909	1.909
-0.015	0.000	0.000	-0.005	0.005	0.000	0.000	2.671	1.895	1.895	1.895	1.914	1.909	1.909
-0.020	0.000	0.000	-0.005	-0.005	0.000	0.000	2.686	1.895	1.895	1.895	1.914	1.909	1.909
-0.015	-0.010	-0.005	0.000	-0.005	0.000	0.000	2.646	1.890	1.890	1.890	1.909	1.909	1.909
-0.010	-0.020	-0.005	-0.005	-0.005	0.000	0.000	2.656	1.895	1.890	1.890	1.914	1.904	1.909
-0.029	-0.015	-0.005	-0.005	-0.005	-0.005	0.000	2.671	1.890	1.890	1.890	1.909	1.909	1.909
0.000	-0.005	-0.005	0.000	-0.010	-0.015	0.000	2.627	1.895	1.895	1.890	1.909	1.904	1.904
-0.015	0.005	-0.005	0.000	-0.005	0.000	0.000	2.651	1.890	1.895	1.895	1.909	1.904	1.909
0.000	0.005	0.000	0.000	-0.005	-0.005	0.000	2.734	1.904	1.899	1.895	1.909	1.909	1.909
-0.010	-0.010	-0.005	0.000	0.000	-0.010	0.000	2.637	1.895	1.890	1.890	1.909	1.909	1.904
-0.005	0.005	0.000	0.000	-0.005	-0.015	0.000	2.642	1.890	1.890	1.890	1.909	1.904	1.904
-0.005	-0.015	-0.005	-0.005	-0.005	-0.005	-0.005	2.729	1.895	1.885	1.890	1.909	1.904	1.904
0.005	-0.020	-0.005	-0.005	-0.005	-0.005	0.000	2.725	1.895	1.885	1.885	1.904	1.899	1.904
0.000	-0.020	-0.005	-0.005	-0.005	0.005	0.000	2.725	1.895	1.890	1.885	1.904	1.899	1.909
0.005	-0.020	0.000	0.000	-0.005	0.005	0.000	2.671	1.899	1.895	1.890	1.904	1.899	1.904
0.000	-0.015	-0.005	-0.005	-0.005	0.005	0.000	2.739	1.904	1.895	1.890	1.904	1.899	1.904
0.010	-0.010	-0.005	-0.005	-0.005	-0.010	0.000	2.651	1.899	1.899	1.890	1.909	1.904	1.899
0.015	-0.005	-0.005	-0.005	0.000	0.005	0.000	2.720	1.904	1.904	1.895	1.909	1.904	1.904
0.005	-0.005	0.000	-0.005	-0.005	-0.010	0.000	2.666	1.899	1.899	1.899	1.914	1.904	1.904
0.000	-0.005	-0.010	-0.005	-0.005	-0.015	0.000	2.617	1.895	1.899	1.895	1.914	1.904	1.899
0.000	-0.005	0.000	0.000	-0.010	0.005	0.000	2.686	1.895	1.899	1.899	1.914	1.904	1.904
0.000	-0.005	0.000	0.000	-0.010	0.010	0.000	2.666	1.895	1.899	1.899	1.914	1.909	1.909
0.010	0.010	0.000	0.000	-0.010	0.015	0.000	2.656	1.899	1.899	1.899	1.914	1.909	1.909
0.005	0.005	0.000	0.000	-0.010	0.010	0.000	2.661	1.895	1.899	1.899	1.919	1.909	1.909
0.010	0.010	-0.005	0.000	0.000	-0.029	0.000	2.666	1.895	1.895	1.895	1.919	1.914	1.899
0.000	0.000	0.005	0.000	0.000	-0.005	0.000	2.671	1.890	1.890	1.895	1.914	1.914	1.909
-0.005	0.005	0.005	0.000	0.000	0.000	0.000	2.695	1.895	1.890	1.895	1.914	1.914	1.914
-0.010	-0.010	-0.005	-0.005	0.015	0.010	0.000	2.690	1.890	1.885	1.890	1.914	1.914	1.914
-0.020	-0.005	-0.005	-0.005	0.005	0.005	0.000	2.690	1.895	1.890	1.885	1.909	1.909	1.909
-0.010	-0.015	-0.005	-0.005	-0.005	0.000	0.000	2.681	1.890	1.885	1.885	1.904	1.904	1.909
-0.024	0.000	-0.005	-0.005	-0.005	0.000	0.000	2.661	1.890	1.890	1.890	1.904	1.904	1.909
-0.020	0.005	0.000	-0.005	-0.005	0.000	0.000	2.690	1.899	1.895	1.890	1.904	1.904	1.904
0.000	0.005	0.000	-0.005	0.000	-0.010	0.000	2.695	1.904	1.895	1.890	1.909	1.904	1.899
-0.005	0.005	0.000	-0.005	-0.005	0.000	0.000	2.681	1.899	1.899	1.895	1.909	1.904	1.904
0.005	0.010	-0.005	-0.005	0.010	-0.010	-0.005	2.690	1.904	1.899	1.895	1.909	1.909	1.904
0.005	0.005	-0.010	0.000	0.010	-0.005	0.000	2.686	1.904	1.904	1.895	1.909	1.909	1.909
0.010	0.020	-0.005	0.000	0.005	0.000	0.000	2.695	1.909	1.909	1.899	1.914	1.909	1.909
-0.005	0.000	0.000	-0.005	0.015	-0.010	0.000	2.700	1.904	1.899	1.899	1.914	1.909	1.909
0.005	0.000	-0.005	-0.005	0.010	-0.010	0.000	2.666	1.904	1.904	1.899	1.914	1.909	1.909
-0.010	0.005	-0.005	0.000	0.015	-0.010	0.000	2.671	1.899	1.899	1.899	1.919	1.909	1.909
-0.010	0.000	0.000	0.000	0.015	-0.020	0.000	2.666	1.895	1.899	1.899	1.919	1.914	1.909
-0.020	0.000	-0.005	0.000	0.015	-0.015	0.000	2.661	1.890	1.895	1.895	1.919	1.914	1.909
-0.024	-0.010	0.000	0.000	0.015	-0.034	0.000	2.681	1.890	1.890	1.895	1.914	1.914	1.904
-0.015	-0.020	0.000	0.000	0.015	-0.024	0.000	2.646	1.890	1.890	1.890	1.909	1.909	1.909
-0.010	-0.020	0.000	0.000	0.010	-0.034	-0.005	2.642	1.890	1.890	1.890	1.909	1.904	1.904
-0.024	-0.020	-0.005	-0.005	0.000	0.000	0.000	2.666	1.890	1.885	1.885	1.909	1.904	1.914
-0.005	-0.015	-0.005	-0.005	-0.005	0.005	0.000	2.637	1.890	1.885	1.885	1.904	1.899	1.914
-0.005	-0.020	-0.005	-0.005	-0.015	-0.005	0.000	2.646	1.890	1.885	1.885	1.904	1.899	1.904
-0.010	-0.005	0.000	-0.005	-0.015	0.010	0.000	2.729	1.895	1.890	1.885	1.904	1.899	1.909
0.000	-0.010	0.000	-0.005	-0.020	0.015	0.000	2.637	1.895	1.890	1.885	1.909	1.899	1.904
-0.005	0.005	-0.010	-0.005	-0.010	0.010	0.000	2.734	1.899	1.899	1.890	1.909	1.904	1.904
0.000	0.005	0.005	-0.005	-0.015	0.010	0.000	2.749	1.914	1.904	1.895	1.909	1.904	1.904
0.005	-0.005	-0.005	-0.005	-0.020	0.015	0.000	2.622	1.899	1.899	1.895	1.909	1.899	1.904
0.010	-0.005	-0.005	-0.005	-0.024	0.015	0.000	2.729	1.909	1.899	1.895	1.909	1.904	1.904
0.005	-0.005	-0.005	0.000	-0.020	0.005	0.000	2.676	1.909	1.904	1.895	1.914	1.904	1.904
0.000	-0.005	0.000	0.000	-0.024	0.000	0.000	2.749	1.904	1.904	1.899	1.914	1.904	1.899
0.000	0.005	-0.005	0.000	-0.020	0.005	0.000	2.676	1.904	1.904	1.904	1.914	1.904	1.904
-0.010	0.000	0.000	0.000	-0.015	0.005	0.000	2.720	1.904	1.904	1.899	1.914	1.909	1.909
0.005	-0.005	0.000	0.000	-0.015	-0.005	0.000	2.690	1.909	1.899	1.899	1.919	1.909	1.904
0.005	0.000	-0.005	0.000	-0.015	0.005	-0.005	2.617	1.899	1.899	1.899	1.914	1.909	1.909
-0.005	0.015	0.000	0.000	-0.010	0.005	0.000	2.676	1.895	1.899	1.899	1.914	1.909	1.909
0.000	0.015	-0.005	-0.005	-0.010	-0.005	0.000	2.666	1.895	1.899	1.899	1.914	1.909	1.909
0.000	0.000	0.005	-0.005	-0.015	0.000	0.000	2.686	1.895	1.895	1.895	1.914	1.909	1.909
0.005	0.005	0.000	-0.005	-0.010	0.000	0.000	2.666	1.895	1.895	1.895	1.914	1.909	1.909
0.000	0.015	0.000	-0.005	-0.005	0.000	-0.005	2.671	1.895	1.895	1.895	1.914	1.909	1.909
-0.005	-0.020	0.000	-0.005	0.000	-0.005	0.000	2.676	1.899	1.885	1.885	1.914	1.914	1.909
0.005	-0.020	-0.005	-0.005	0.000	0.005	0.000	2.690	1.899	1.890	1.890	1.909	1.909	1.909
0.005	0.010	0.000	-0.005	0.005	-0.005	0.000	2.690	1.899	1.899	1.895	1.909	1.909	1.914
0.000	0.000	-0.005	-0.005	0.000	0.000	0.000	2.690	1.904	1.899	1.895	1.914	1.909	1.909
-0.005	-0.005	0.000	-0.005	0.005	0.000	0.000	2.700	1.909	1.899	1.895	1.914	1.909	1.909
0.000	0.000	-0.005	0.000	0.000	-0.010	0.000	2.666	1.909	1.904	1.899	1.914	1.909	1.909
-0.020	0.005	-0.005	0.000	0.000	0.005	0.000	2.671	1.899	1.904	1.899	1.914	1.909	1.914
-0.010	0.015	-0.010	-0.005	0.005	-0.015	0.000	2.700	1.909	1.904	1.899	1.919	1.909	1.909
0.000	0.000	-0.005	0.000	-0.005	0.000	0.000	2.671	1.904	1.904	1.899	1.919	1.909	1.914
0.000	0.000	-0.005	0.000	-0.005	0.005	0.000	2.671	1.904	1.904	1.899	1.914	1.909	1.914
0.000	0.000	0.000	0.000	0.000	0.010	0.000	2.681	1.895	1.904	1.899	1.919	1.914	1.914
0.005	0.000	-0.005	0.000	0.005	-0.010	0.000	2.666	1.895	1.895	1.899	1.914	1.909	1.909
0.000	-0.005	0.005	-0.005	0.000	-0.005	0.000	2.681	1.899	1.895	1.895	1.914	1.909	1.909
0.000	-0.010	-0.005	-0.005	-0.005	0.000	0.000	2.676	1.895	1.895	1.890	1.914	1.909	1.909
0.000	-0.005	-0.005	-0.005	-0.005	-0.005	0.000	2.690	1.899	1.890	1.890	1.909	1.909	1.909
0.000	-0.024	-0.005	0.000	0.000	-0.005	0.000	2.686	1.895	1.890	1.890	1.909	1.909	1.909
-0.005	-0.029	0.000	-0.005	0.005	0.010	0.000	2.676	1.895	1.890	1.890	1.909	1.909	1.909
0.005	-0.015	0.000	-0.005	0.000	0.000	0.000	2.676	1.899	1.899	1.890	1.909	1.909	1.909
-0.010	-0.010	0.005	-0.005	0.000	-0.005	0.000	2.651	1.890	1.895	1.895	1.909	1.909	1.909
-0.010	-0.005	-0.005	-0.005	0.000	0.005	0.000	2.651	1.890	1.899	1.890	1.914	1.904	1.909
0.000	-0.015	-0.005	-0.005	0.000	-0.015	0.000	2.676	1.895	1.895	1.890	1.909	1.904	1.904
-0.010	-0.005	0.000	-0.005	-0.005	0.005	-0.005	2.642	1.890	1.895	1.895	1.914	1.909	1.909
-0.005	-0.005	-0.005	-0.005	-0.005	0.000	0.000	2.651	1.895	1.895	1.890	1.914	1.909	1.909
-0.010	-0.010	-0.005	0.000	0.000	0.000	0.000	2.715	1.899	1.895	1.895	1.914	1.909	1.909
-0.005	0.010	0.000	-0.005	0.000	0.000	0.000	2.632	1.895	1.899	1.895	1.914	1.909	1.909
-0.005	0.010	0.000	0.000	-0.005	-0.010	0.000	2.627	1.890	1.899	1.895	1.914	1.909	1.909
-0.015	0.000	0.005	0.000	-0.005	0.000	0.000	2.749	1.899	1.890	1.895	1.914	1.909	1.909
-0.010	0.005	-0.005	0.000	-0.005	-0.005	0.000	2.661	1.890	1.895	1.890	1.909	1.909	1.909
-0.005	0.020	-0.005	0.000	0.000	-0.015	0.000	2.715	1.899	1.899	1.890	1.914	1.909	1.904
-0.020	0.015	-0.005	-0.005	0.000	0.005	-0.005	2.671	1.890	1.890	1.895	1.909	1.904	1.909
-0.005	-0.005	0.000	-0.005	0.000	-0.005	0.000	2.734	1.899	1.890	1.890	1.909	1.904	1.904
-0.010	0.005	0.000	0.000	0.000	-0.005	0.000	2.656	1.895	1.895	1.890	1.909	1.909	1.904
-0.010	0.010	0.000	-0.005	0.000	-0.005	0.000	2.656	1.895	1.895	1.890	1.909	1.904	1.909
0.000	-0.010	0.005	-0.005	-0.005	0.000	0.000	2.661	1.895	1.895	1.890	1.909	1.904	1.904
-0.005	-0.010	-0.005	-0.005	0.005	0.000	0.000	2.710	1.899	1.895	1.890	1.909	1.909	1.909
-0.005	-0.010	-0.005	-0.005	0.000	-0.010	0.000	2.651	1.899	1.895	1.890	1.909	1.904	1.904
-0.010	-0.005	-0.005	-0.005	0.005	-0.005	0.000	2.671	1.895	1.895	1.895	1.909	1.904	1.904
-0.005	-0.005	0.000	-0.005	0.000	-0.005	0.000	2.700	1.904	1.895	1.895	1.909	1.904	1.904
-0.005	0.000	0.000	-0.005	-0.005	-0.005	0.000	2.690	1.904	1.899	1.895	1.914	1.909	1.904
0.000	0.000	-0.005	0.000	0.000	-0.005	0.000	2.676	1.899	1.899	1.895	1.914	1.909	1.909
-0.005	-0.005	-0.005	0.000	-0.005	-0.020	0.000	2.661	1.895	1.895	1.895	1.909	1.904	1.904
-0.005	0.005	-0.005	0.000	-0.005	0.005	0.000	2.661	1.895	1.899	1.899	1.914	1.909	1.909
0.000	0.005	0.000	0.000	-0.005	0.000	0.000	2.686	1.899	1.899	1.899	1.914	1.909	1.909
-0.005	-0.005	0.000	0.000	-0.005	0.000	0.000	2.690	1.899	1.895	1.895	1.914	1.909	1.909
0.005	-0.020	0.000	0.000	-0.005	-0.005	0.000	2.690	1.899	1.890	1.890	1.909	1.909	1.909
0.005	-0.024	-0.005	0.000	-0.005	-0.010	0.000	2.661	1.899	1.890	1.890	1.909	1.909	1.904
0.005	-0.010	-0.005	0.000	-0.005	0.000	0.000	2.690	1.899	1.895	1.890	1.909	1.909	1.909
0.005	-0.015	-0.005	0.000	0.000	0.005	0.000	2.681	1.895	1.895	1.890	1.909	1.904	1.909
0.000	-0.020	0.000	-0.005	0.000	0.005	0.000	2.676	1.895	1.895	1.895	1.909	1.904	1.909
0.005	-0.020	0.000	-0.005	-0.005	0.000	0.000	2.666	1.895	1.890	1.890	1.909	1.904	1.904
0.005	-0.020	-0.005	-0.005	0.000	-0.010	0.000	2.686	1.895	1.895	1.890	1.909	1.904	1.904
0.005	-0.020	-0.010	-0.005	-0.005	-0.010	0.000	2.681	1.895	1.895	1.890	1.909	1.904	1.904
-0.005	-0.015	0.000	0.000	-0.010	-0.005	0.000	2.695	1.899	1.895	1.890	1.909	1.904	1.904
-0.005	-0.010	-0.005	-0.005	0.000	0.000	0.000	2.705	1.904	1.899	1.895	1.909	1.909	1.909
-0.005	0.000	-0.005	-0.005	-0.005	-0.005	0.000	2.666	1.899	1.904	1.895	1.909	1.909	1.909
0.005	-0.010	0.000	-0.005	0.000	0.000	0.000	2.700	1.904	1.899	1.899	1.914	1.909	1.914
-0.005	0.010	-0.010	0.000	0.000	-0.005	0.000	2.695	1.904	1.904	1.895	1.914	1.909	1.909
-0.010	0.005	0.000	0.000	-0.005	0.000	0.000	2.686	1.904	1.899	1.899	1.914	1.909	1.914
-0.010	0.010	0.000	0.000	-0.005	0.000	0.000	2.656	1.899	1.904	1.899	1.919	1.909	1.914
0.000	-0.010	-0.005	0.000	0.000	-0.005	0.000	2.642	1.895	1.899	1.899	1.914	1.909	1.909
-0.005	0.000	-0.005	0.000	-0.005	0.000	0.000	2.661	1.895	1.899	1.899	1.914	1.909	1.909
-0.005	0.024	-0.005	0.000	0.000	0.000	0.000	2.637	1.895	1.899	1.899	1.914	1.909	1.914
-0.005	0.015	-0.005	0.000	-0.010	0.005	0.000	2.651	1.890	1.895	1.895	1.914	1.909	1.909
-0.005	0.005	-0.005	-0.005	-0.005	-0.010	0.000	2.720	1.885	1.890	1.890	1.909	1.909	1.904
-0.010	0.010	-0.005	-0.005	-0.005	-0.020	0.000	2.739	1.895	1.890	1.890	1.909	1.909	1.904
0.000	0.000	-0.005	-0.005	0.000	0.000	0.000	2.729	1.904	1.890	1.890	1.909	1.909	1.909
0.000	0.000	0.000	0.000	-0.005	0.000	0.000	2.725	1.904	1.895	1.890	1.909	1.909	1.909
-0.010	-0.005	0.005	-0.005	-0.005	-0.010	0.000	2.715	1.890	1.895	1.890	1.909	1.904	1.904
0.000	0.005	0.000	-0.005	0.000	-0.010	-0.005	2.681	1.899	1.899	1.895	1.914	1.909	1.909
0.000	0.000	-0.005	-0.005	-0.005	0.010	0.000	2.637	1.899	1.895	1.895	1.909	1.909	1.914
-0.010	-0.020	-0.005	-0.005	-0.005	0.005	0.000	2.744	1.904	1.895	1.895	1.914	1.909	1.909
0.000	0.005	-0.005	0.000	-0.005	0.005	0.000	2.666	1.904	1.904	1.895	1.914	1.909	1.909
0.000	0.000	-0.005	-0.005	0.005	-0.010	0.000	2.700	1.909	1.904	1.895	1.914	1.909	1.909
-0.005	0.029	-0.005	0.000	0.000	0.005	0.000	2.690	1.909	1.909	1.899	1.914	1.909	1.909
-0.010	0.000	-0.005	0.000	-0.005	0.000	0.000	2.720	1.909	1.904	1.899	1.919	1.909	1.909
-0.005	0.000	-0.005	0.005	-0.005	-0.010	0.000	2.671	1.904	1.904	1.899	1.914	1.909	1.904
-0.005	0.005	0.000	0.000	0.000	0.000	0.000	2.666	1.904	1.904	1.899	1.919	1.909	1.914
0.000	-0.005	0.000	0.000	0.000	0.000	0.000	2.700	1.904	1.899	1.899	1.919	1.909	1.909
-0.010	-0.010	-0.005	0.000	0.000	-0.005	0.000	2.676	1.899	1.895	1.895	1.914	1.909	1.909
0.000	-0.005	0.000	0.000	0.000	0.000	0.000	2.661	1.895	1.899	1.895	1.914	1.914	1.909
-0.005	-0.020	-0.005	-0.005	-0.005	-0.005	0.000	2.666	1.895	1.895	1.895	1.914	1.909	1.909
0.000	-0.010	0.000	-0.005	-0.005	-0.010	0.000	2.666	1.895	1.895	1.895	1.909	1.909	1.904
-0.005	-0.015	-0.005	-0.005	0.000	-0.015	0.000	2.700	1.895	1.890	1.890	1.909	1.909	1.904
-0.010	-0.005	-0.005	-0.005	-0.005	-0.005	0.000	2.686	1.899	1.895	1.890	1.909	1.909	1.909
0.000	-0.010	-0.005	-0.005	-0.005	0.010	0.000	2.686	1.899	1.899	1.890	1.909	1.909	1.914
0.000	-0.010	-0.005	-0.005	-0.005	0.005	-0.005	2.686	1.899	1.895	1.895	1.909	1.904	1.909
-0.010	0.000	0.000	-0.005	0.000	0.000	0.000	2.676	1.904	1.899	1.895	1.914	1.909	1.909
-0.005	-0.005	-0.005	-0.005	-0.005	0.005	0.000	2.700	1.904	1.899	1.895	1.914	1.909	1.909
0.000	-0.005	0.005	0.000	-0.005	-0.015	0.000	2.671	1.899	1.899	1.899	1.914	1.909	1.909
0.000	-0.005	-0.005	0.000	-0.010	-0.015	0.000	2.666	1.899	1.899	1.899	1.914	1.909	1.909
-0.015	0.000	-0.005	0.000	-0.005	0.005	0.000	2.676	1.899	1.899	1.899	1.914	1.909	1.914
-0.005	-0.005	-0.005	0.005	-0.010	0.000	0.000	2.695	1.899	1.899	1.895	1.914	1.909	1.909
0.000	-0.015	0.000	0.000	0.000	-0.005	0.000	2.686	1.904	1.895	1.899	1.914	1.914	1.909
0.000	-0.010	-0.010	0.000	0.000	-0.010	0.000	2.690	1.904	1.895	1.895	1.919	1.909	1.909
-0.010	-0.005	0.000	0.000	0.000	-0.010	0.000	2.671	1.899	1.899	1.895	1.914	1.909	1.904
0.005	-0.010	0.000	0.000	0.000	0.000	0.000	2.656	1.895	1.895	1.895	1.914	1.909	1.914
-0.005	0.000	0.005	-0.005	-0.010	0.015	0.000	2.676	1.895	1.895	1.895	1.914	1.909	1.914
0.005	-0.010	-0.005	0.000	-0.005	-0.010	0.000	2.681	1.899	1.895	1.895	1.914	1.904	1.904
0.000	-0.015	0.000	-0.005	-0.005	-0.005	0.000	2.651	1.895	1.890	1.890	1.909	1.909	1.909
-0.005	-0.005	0.000	0.000	0.000	-0.010	0.000	2.651	1.890	1.899	1.890	1.909	1.909	1.904
-0.010	-0.005	-0.005	-0.005	0.000	0.005	0.000	2.666	1.890	1.890	1.890	1.909	1.909	1.914
-0.010	-0.005	0.000	-0.005	-0.005	0.000	0.000	2.778	1.904	1.895	1.895	1.909	1.904	1.909
-0.005	-0.010	0.000	-0.005	-0.005	0.005	0.000	2.671	1.904	1.895	1.895	1.909	1.909	1.909
0.005	0.000	-0.005	-0.005	0.000	0.000	0.000	2.729	1.899	1.899	1.895	1.909	1.909	1.909
0.000	0.005	-0.005	-0.005	-0.005	-0.005	0.000	2.710	1.909	1.904	1.895	1.914	1.909	1.909
-0.005	0.005	-0.005	0.000	-0.010	-0.005	0.000	2.646	1.899	1.904	1.895	1.914	1.909	1.909
0.000	0.005	0.000	0.000	-0.005	-0.024	0.000	2.642	1.895	1.899	1.899	1.914	1.909	1.899
-0.020	0.005	-0.010	0.000	0.000	-0.010	0.000	2.700	1.895	1.899	1.899	1.919	1.909	1.914
-0.005	0.005	0.000	-0.005	-0.010	-0.005	0.000	2.632	1.904	1.899	1.899	1.919	1.909	1.909
-0.010	0.000	-0.005	0.000	0.000	-0.010	-0.005	2.671	1.899	1.899	1.895	1.914	1.909	1.909
-0.005	-0.010	-0.005	0.000	-0.005	-0.005	0.000	2.725	1.909	1.899	1.895	1.914	1.914	1.909
-0.005	-0.005	-0.005	0.000	-0.010	-0.005	0.000	2.681	1.899	1.899	1.895	1.914	1.909	1.909
0.000	-0.005	-0.005	0.000	-0.010	0.000	0.000	2.734	1.909	1.899	1.895	1.909	1.909	1.909
-0.005	-0.015	0.000	0.000	-0.005	0.000	0.000	2.695	1.904	1.899	1.895	1.914	1.909	1.909
-0.005	-0.005	-0.005	-0.005	-0.005	0.000	0.000	2.720	1.904	1.899	1.895	1.909	1.909	1.909
-0.005	-0.005	0.000	-0.005	0.000	-0.024	0.000	2.661	1.899	1.899	1.899	1.914	1.909	1.904
-0.005	-0.010	-0.005	-0.005	0.000	-0.005	0.000	2.695	1.904	1.899	1.895	1.914	1.909	1.909
0.005	-0.015	-0.005	-0.005	0.000	0.005	0.000	2.666	1.909	1.899	1.895	1.914	1.909	1.909
-0.010	-0.020	0.005	-0.005	0.000	-0.020	0.000	2.700	1.904	1.899	1.895	1.914	1.909	1.909
0.005	-0.010	-0.005	-0.005	0.000	-0.010	-0.005	2.681	1.909	1.904	1.899	1.914	1.909	1.914
0.000	0.000	-0.005	-0.005	0.000	0.005	0.000	2.666	1.904	1.904	1.899	1.919	1.909	1.914
-0.010	0.010	0.000	-0.005	0.005	-0.005	0.000	2.671	1.899	1.909	1.904	1.919	1.914	1.909
0.005	-0.010	0.000	0.000	-0.005	0.005	0.000	2.676	1.899	1.899	1.904	1.919	1.914	1.914
-0.005	-0.024	0.000	0.000	0.000	-0.020	0.000	2.690	1.904	1.895	1.899	1.919	1.914	1.909
-0.005	-0.015	-0.005	0.000	0.000	-0.020	0.000	2.695	1.904	1.899	1.899	1.919	1.914	1.909
0.000	-0.015	0.000	0.000	-0.005	0.010	0.000	2.671	1.899	1.899	1.899	1.919	1.914	1.919
-0.005	-0.020	-0.005	0.000	-0.005	0.005	0.000	2.695	1.899	1.895	1.895	1.919	1.914	1.914
0.000	-0.005	-0.005	0.000	-0.005	-0.005	0.000	2.690	1.904	1.899	1.899	1.914	1.909	1.914
0.005	-0.015	-0.005	0.000	-0.005	-0.020	0.000	2.690	1.904	1.899	1.895	1.914	1.909	1.909
-0.005	-0.005	0.000	0.000	-0.005	0.005	0.000	2.695	1.899	1.904	1.899	1.914	1.909	1.914
0.000	-0.010	0.000	0.000	0.000	0.005	0.000	2.695	1.899	1.899	1.899	1.914	1.909	1.914
0.000	-0.005	-0.005	-0.005	0.000	-0.010	0.000	2.681	1.904	1.899	1.899	1.914	1.909	1.909
0.000	-0.010	0.000	-0.005	-0.005	0.000	0.000	2.690	1.904	1.899	1.899	1.914	1.909	1.914
-0.010	-0.010	-0.005	-0.005	-0.005	-0.010	0.000	2.695	1.899	1.899	1.899	1.914	1.909	1.909
0.000	-0.005	0.000	-0.005	-0.005	0.005	0.000	2.690	1.899	1.904	1.899	1.919	1.909	1.914
0.000	0.010	0.000	-0.005	-0.005	0.000	-0.005	2.676	1.904	1.909	1.899	1.914	1.914	1.914
0.000	0.020	0.000	-0.005	-0.005	0.005	0.000	2.681	1.904	1.909	1.899	1.919	1.914	1.914
0.000	0.020	0.005	-0.005	-0.005	0.000	0.000	2.700	1.904	1.904	1.904	1.919	1.914	1.914
-0.010	0.015	-0.005	-0.005	0.000	-0.010	0.000	2.661	1.899	1.904	1.904	1.919	1.914	1.914
-0.005	0.015	0.000	-0.005	-0.005	0.000	0.000	2.661	1.899	1.904	1.904	1.924	1.914	1.914
-0.005	0.010	-0.005	-0.005	-0.005	-0.010	0.000	2.666	1.899	1.899	1.904	1.924	1.914	1.914
-0.005	0.015	-0.005	-0.005	0.000	0.000	0.000	2.646	1.895	1.899	1.899	1.919	1.919	1.919
-0.005	0.010	-0.010	0.000	0.000	-0.005	0.000	2.637	1.890	1.899	1.899	1.919	1.919	1.914
-0.005	0.005	-0.005	0.000	0.005	-0.010	0.000	2.632	1.885	1.895	1.895	1.919	1.914	1.909
-0.010	0.005	-0.005	0.000	0.000	-0.005	0.000	2.656	1.895	1.895	1.895	1.914	1.914	1.914
-0.005	0.000	-0.005	0.000	-0.005	-0.010	0.000	2.642	1.909	1.890	1.890	1.914	1.909	1.914
-0.005	-0.005	0.000	-0.005	-0.005	0.005	0.000	2.686	1.914	1.899	1.895	1.914	1.909	1.914
-0.005	-0.015	0.000	-0.005	-0.005	0.000	0.000	2.627	1.919	1.899	1.895	1.909	1.909	1.909
0.000	-0.005	0.000	-0.005	0.000	0.005	0.000	2.627	1.909	1.904	1.895	1.914	1.909	1.914
0.005	-0.015	-0.005	-0.005	-0.005	-0.010	0.000	2.671	1.904	1.899	1.895	1.909	1.909	1.909
-0.015	-0.005	-0.005	-0.005	0.000	-0.015	0.000	2.734	1.909	1.904	1.899	1.914	1.909	1.904
-0.010	0.005	-0.005	-0.005	0.000	-0.020	0.000	2.671	1.904	1.909	1.899	1.914	1.909	1.909
-0.005	0.000	-0.005	-0.005	0.000	0.000	0.000	2.646	1.899	1.904	1.904	1.919	1.909	1.914
0.000	0.000	-0.005	-0.005	0.000	0.000	0.000	2.661	1.899	1.904	1.904	1.919	1.909	1.914
-0.005	0.000	0.000	-0.005	-0.005	0.000	0.000	2.725	1.899	1.904	1.904	1.919	1.914	1.914
-0.010	0.000	-0.005	-0.005	-0.005	-0.005	0.000	2.681	1.899	1.904	1.899	1.919	1.914	1.909
-0.005	0.010	-0.010	-0.005	-0.010	0.005	0.000	2.681	1.904	1.904	1.904	1.919	1.914	1.914
-0.005	0.005	-0.005	0.000	-0.005	-0.005	0.000	2.666	1.899	1.904	1.904	1.924	1.914	1.909
0.000	0.015	-0.005	0.000	-0.005	-0.015	0.000	2.671	1.904	1.904	1.904	1.919	1.919	1.914
0.000	-0.005	0.005	0.000	-0.005	0.005	0.000	2.666	1.899	1.899	1.904	1.924	1.919	1.919
-0.005	-0.005	-0.005	0.000	-0.010	0.000	0.000	2.676	1.899	1.895	1.899	1.919	1.914	1.914
-0.005	-0.005	0.000	0.000	0.000	0.000	0.000	2.681	1.899	1.895	1.899	1.919	1.914	1.914
0.000	-0.005	-0.005	0.000	0.005	-0.005	0.000	2.690	1.899	1.895	1.895	1.914	1.919	1.914
0.000	-0.010	-0.005	0.000	0.000	0.000	0.000	2.690	1.899	1.895	1.895	1.914	1.914	1.914
-0.010	-0.015	-0.005	-0.005	0.000	0.000	0.000	2.686	1.899	1.890	1.895	1.914	1.914	1.914
0.005	-0.020	0.000	-0.005	-0.005	0.000	0.000	2.671	1.899	1.890	1.890	1.914	1.909	1.909
-0.005	-0.034	0.000	-0.005	-0.005	-0.029	0.000	2.671	1.899	1.890	1.890	1.914	1.909	1.904
-0.005	-0.039	0.000	-0.005	-0.005	-0.010	0.000	2.695	1.899	1.890	1.890	1.909	1.909	1.909
0.005	-0.024	-0.005	-0.005	-0.010	0.000	0.000	2.671	1.904	1.895	1.890	1.909	1.909	1.914
0.005	-0.024	-0.005	-0.005	0.000	-0.010	0.000	2.661	1.899	1.899	1.895	1.909	1.909	1.909
-0.015	-0.010	-0.005	-0.005	0.000	-0.005	0.000	2.690	1.895	1.904	1.895	1.914	1.909	1.914
0.000	0.005	0.000	-0.005	0.000	-0.005	0.000	2.690	1.904	1.904	1.899	1.914	1.909	1.909
0.000	0.005	0.000	-0.005	0.005	0.005	0.000	2.695	1.904	1.904	1.899	1.919	1.909	1.914
-0.015	0.015	-0.005	0.000	0.000	-0.005	0.000	2.700	1.909	1.909	1.904	1.919	1.909	1.914
-0.005	0.005	-0.005	0.000	-0.010	0.000	0.000	2.671	1.899	1.904	1.899	1.919	1.909	1.914
-0.005	0.010	-0.005	0.000	-0.015	0.000	0.000	2.700	1.904	1.904	1.899	1.919	1.909	1.914
-0.005	0.005	-0.005	0.000	-0.010	0.000	0.000	2.686	1.904	1.904	1.899	1.919	1.914	1.909
0.000	-0.010	-0.005	0.000	-0.005	-0.015	0.000	2.676	1.899	1.895	1.899	1.919	1.914	1.909
0.000	-0.005	0.000	-0.005	0.000	0.000	0.000	2.622	1.895	1.895	1.899	1.914	1.914	1.914
0.000	-0.005	0.000	-0.005	0.000	-0.005	0.000	2.656	1.895	1.895	1.895	1.914	1.909	1.914
0.000	-0.010	-0.005	-0.005	-0.005	0.005	0.000	2.676	1.890	1.890	1.890	1.914	1.909	1.914
-0.005	0.000	0.000	-0.005	-0.005	0.000	0.000	2.651	1.895	1.895	1.895	1.909	1.904	1.909
-0.010	-0.010	0.000	-0.005	-0.005	0.000	0.000	2.651	1.890	1.890	1.890	1.909	1.909	1.909
0.000	-0.005	0.000	-0.005	-0.005	0.000	0.000	2.729	1.899	1.890	1.890	1.909	1.909	1.909
-0.005	-0.005	-0.005	-0.005	0.000	0.005	0.000	2.739	1.909	1.899	1.890	1.909	1.909	1.909
0.005	0.000	-0.005	-0.005	-0.005	0.000	0.000	2.725	1.914	1.904	1.895	1.909	1.904	1.904
-0.010	0.000	-0.005	-0.005	0.005	-0.010	0.000	2.739	1.914	1.904	1.899	1.914	1.909	1.909
-0.010	0.005	-0.005	-0.005	-0.005	-0.005	0.000	2.710	1.899	1.904	1.899	1.914	1.909	1.909
-0.005	-0.005	0.000	0.000	-0.005	0.005	0.000	2.627	1.904	1.904	1.899	1.914	1.909	1.909
0.000	-0.005	-0.005	0.000	-0.005	-0.015	0.000	2.666	1.904	1.904	1.899	1.914	1.909	1.909
-0.010	0.005	0.000	-0.005	-0.005	0.005	0.000	2.759	1.914	1.909	1.904	1.919	1.909	1.914
0.010	0.024	-0.010	0.000	-0.010	-0.029	0.000	2.686	1.909	1.914	1.904	1.919	1.909	1.904
-0.005	0.024	0.000	0.000	-0.010	0.010	0.000	2.705	1.909	1.914	1.904	1.919	1.914	1.914
0.000	0.015	-0.005	0.000	-0.005	0.000	0.000	2.681	1.909	1.909	1.904	1.924	1.919	1.914
0.000	0.020	-0.005	0.000	0.000	0.000	0.000	2.715	1.904	1.904	1.904	1.919	1.914	1.914
-0.005	0.020	-0.005	-0.005	-0.005	0.005	0.000	2.676	1.904	1.904	1.899	1.924	1.914	1.914
-0.005	0.000	-0.005	0.000	-0.005	-0.029	0.000	2.686	1.899	1.895	1.899	1.919	1.909	1.904
0.005	0.000	0.000	-0.005	0.000	0.005	0.000	2.671	1.899	1.895	1.899	1.919	1.914	1.919
0.005	-0.005	-0.005	0.000	-0.005	0.000	-0.005	2.676	1.895	1.895	1.899	1.914	1.914	1.914
-0.005	-0.005	0.000	-0.005	0.000	-0.024	0.000	2.676	1.899	1.895	1.895	1.914	1.914	1.909
0.000	-0.015	0.000	-0.005	0.000	-0.005	0.000	2.666	1.899	1.895	1.895	1.914	1.914	1.914
0.005	-0.005	0.000	-0.005	0.000	0.010	0.000	2.690	1.904	1.899	1.895	1.914	1.909	1.919
-0.005	-0.010	-0.005	-0.005	-0.005	0.005	0.000	2.705	1.904	1.899	1.895	1.914	1.909	1.914
0.005	-0.005	-0.005	-0.005	-0.005	-0.005	0.000	2.690	1.909	1.904	1.899	1.919	1.909	1.914
0.000	0.000	-0.005	-0.005	-0.010	-0.005	0.000	2.695	1.909	1.904	1.899	1.914	1.914	1.914
0.000	0.005	0.005	0.000	0.000	0.000	0.000	2.695	1.909	1.909	1.904	1.919	1.914	1.914
-0.005	0.015	-0.005	0.000	-0.005	-0.005	0.000	2.695	1.909	1.909	1.904	1.919	1.914	1.909
-0.005	0.010	0.000	0.000	-0.005	0.000	0.000	2.695	1.909	1.909	1.909	1.919	1.914	1.914
-0.005	0.000	-0.005	0.000	0.000	-0.010	0.000	2.671	1.904	1.904	1.904	1.924	1.919	1.914
-0.010	0.000	-0.005	0.000	0.000	0.000	-0.005	2.676	1.899	1.904	1.904	1.919	1.914	1.919
-0.005	-0.005	0.000	0.000	0.000	-0.005	0.000	2.671	1.904	1.899	1.899	1.919	1.914	1.914
-0.005	0.015	-0.005	0.000	0.000	-0.020	0.000	2.671	1.899	1.904	1.899	1.919	1.914	1.909
0.000	-0.015	-0.005	0.000	-0.005	-0.005	0.000	2.690	1.899	1.895	1.899	1.914	1.914	1.914
-0.010	-0.029	-0.010	0.000	-0.010	-0.010	0.000	2.671	1.895	1.890	1.890	1.914	1.909	1.909
-0.015	-0.029	0.000	-0.005	-0.005	-0.010	0.000	2.676	1.895	1.890	1.890	1.914	1.909	1.909
0.000	-0.020	-0.005	-0.005	0.005	0.005	0.000	2.676	1.899	1.895	1.890	1.914	1.914	1.914
-0.005	-0.024	0.000	-0.005	0.005	-0.010	0.000	2.686	1.899	1.895	1.890	1.909	1.909	1.914
0.005	0.000	0.000	-0.005	0.000	0.005	-0.005	2.686	1.904	1.904	1.895	1.914	1.909	1.914
0.005	0.000	0.000	-0.005	-0.005	0.010	0.000	2.661	1.904	1.904	1.895	1.914	1.909	1.914
-0.005	-0.005	0.000	0.000	-0.005	0.000	0.000	2.651	1.899	1.904	1.895	1.914	1.909	1.914
-0.005	0.005	0.000	-0.005	0.000	0.000	0.000	2.671	1.899	1.904	1.899	1.914	1.909	1.914
0.000	0.000	-0.005	0.000	-0.005	0.005	0.000	2.651	1.899	1.904	1.899	1.919	1.909	1.914
-0.005	-0.005	-0.005	0.000	-0.005	0.000	0.000	2.646	1.895	1.904	1.899	1.919	1.909	1.914
0.000	0.010	0.000	0.000	0.000	-0.010	0.000	2.729	1.899	1.904	1.904	1.919	1.914	1.909
-0.005	0.005	0.000	0.000	0.000	-0.015	0.000	2.744	1.914	1.899	1.904	1.919	1.914	1.909
-0.005	0.005	-0.005	0.000	0.000	-0.010	0.000	2.622	1.899	1.904	1.904	1.919	1.914	1.914
-0.005	0.010	-0.005	0.000	-0.005	-0.015	0.000	2.729	1.909	1.904	1.904	1.919	1.914	1.909
-0.005	-0.005	-0.005	0.000	0.000	-0.005	0.000	2.715	1.904	1.895	1.899	1.919	1.914	1.914
0.000	-0.010	0.000	0.000	-0.005	-0.010	0.000	2.637	1.899	1.899	1.895	1.914	1.909	1.914
-0.005	0.000	0.000	0.000	-0.005	0.005	0.000	2.661	1.895	1.899	1.895	1.914	1.914	1.914
-0.010	-0.005	0.000	-0.005	0.000	0.005	0.000	2.651	1.895	1.895	1.895	1.914	1.914	1.914
-0.005	-0.010	0.000	-0.005	0.000	0.000	0.000	2.661	1.895	1.890	1.895	1.914	1.909	1.914
0.000	-0.005	-0.005	-0.005	-0.005	0.005	0.000	2.700	1.899	1.895	1.890	1.909	1.909	1.914
0.000	0.005	-0.005	-0.005	-0.005	0.000	-0.005	2.676	1.899	1.899	1.895	1.914	1.909	1.909
-0.005	0.000	-0.005	-0.005	0.000	0.005	0.000	2.725	1.904	1.899	1.895	1.914	1.909	1.914
-0.005	-0.005	-0.005	-0.005	-0.005	0.005	0.000	2.676	1.899	1.899	1.895	1.909	1.909	1.914
-0.005	-0.005	0.000	-0.005	0.000	-0.015	0.000	2.681	1.904	1.899	1.899	1.914	1.909	1.909
0.005	-0.005	0.000	-0.005	-0.005	-0.005	0.000	2.671	1.904	1.899	1.899	1.914	1.909	1.909
0.005	0.000	-0.005	-0.005	-0.005	-0.015	0.000	2.686	1.909	1.904	1.899	1.914	1.909	1.909
-0.005	-0.005	0.000	0.000	-0.005	-0.010	0.000	2.676	1.904	1.904	1.899	1.919	1.914	1.909
-0.005	0.000	0.000	0.000	-0.005	0.000	0.000	2.666	1.899	1.904	1.899	1.919	1.914	1.914
-0.005	-0.005	-0.005	0.000	0.000	-0.020	0.000	2.690	1.899	1.899	1.899	1.919	1.914	1.909
0.000	0.005	0.000	0.000	-0.005	0.000	0.000	2.695	1.909	1.904	1.899	1.919	1.914	1.919
0.000	0.000	0.000	0.000	-0.010	0.005	0.000	2.695	1.909	1.904	1.899	1.919	1.914	1.914
-0.005	-0.005	0.000	0.000	-0.010	-0.010	0.000	2.695	1.904	1.904	1.899	1.914	1.909	1.909
0.000	-0.015	-0.005	0.000	-0.005	0.005	0.000	2.676	1.904	1.899	1.899	1.914	1.909	1.914
0.000	-0.015	-0.010	0.000	0.000	0.005	0.000	2.690	1.899	1.899	1.899	1.914	1.909	1.919
-0.005	-0.024	-0.005	-0.005	-0.005	-0.015	0.000	2.700	1.904	1.895	1.895	1.914	1.909	1.904
0.000	-0.010	0.000	0.000	-0.005	0.015	0.000	2.690	1.904	1.904	1.895	1.914	1.909	1.914
0.005	-0.010	-0.005	-0.005	0.000	0.015	0.000	2.690	1.899	1.904	1.895	1.914	1.909	1.914
-0.005	-0.005	-0.005	-0.005	0.000	0.005	0.000	2.681	1.904	1.904	1.899	1.914	1.909	1.909
0.000	0.005	0.000	-0.005	-0.005	0.010	0.000	2.681	1.904	1.904	1.899	1.919	1.909	1.914
0.000	-0.005	-0.005	-0.005	0.000	0.000	0.000	2.695	1.904	1.904	1.899	1.919	1.914	1.909
0.000	-0.005	-0.005	-0.005	0.005	-0.015	0.000	2.671	1.904	1.904	1.904	1.919	1.914	1.909
-0.005	0.005	-0.005	-0.005	0.005	0.005	0.000	2.700	1.899	1.904	1.904	1.919	1.914	1.914
-0.005	0.000	0.000	-0.005	0.000	0.000	0.000	2.705	1.909	1.904	1.904	1.924	1.914	1.914
-0.005	0.010	-0.005	0.000	-0.005	0.000	0.000	2.681	1.909	1.909	1.904	1.924	1.914	1.914
-0.005	0.010	-0.005	0.000	-0.005	-0.005	0.000	2.690	1.904	1.904	1.904	1.919	1.914	1.914
0.005	0.000	-0.005	-0.005	-0.005	-0.005	0.000	2.651	1.899	1.899	1.904	1.919	1.914	1.914
-0.005	-0.005	-0.005	-0.005	-0.005	-0.005	0.000	2.666	1.899	1.895	1.899	1.924	1.914	1.914
-0.005	0.000	-0.005	0.000	0.000	-0.020	-0.005	2.671	1.899	1.895	1.895	1.919	1.919	1.909
-0.005	0.005	-0.005	-0.005	-0.005	0.000	0.000	2.651	1.895	1.899	1.895	1.914	1.914	1.914
-0.010	-0.010	-0.005	-0.005	-0.005	-0.020	0.000	2.646	1.890	1.890	1.895	1.914	1.909	1.909
0.005	-0.015	0.000	-0.005	-0.010	0.010	0.000	2.729	1.899	1.890	1.890	1.914	1.909	1.914
-0.010	-0.010	0.000	-0.005	-0.005	0.005	0.000	2.637	1.899	1.895	1.890	1.909	1.909	1.919
0.000	-0.010	0.000	-0.005	-0.010	0.000	0.000	2.749	1.909	1.899	1.895	1.909	1.909	1.909
0.005	-0.015	0.000	-0.005	0.000	-0.005	0.000	2.617	1.909	1.899	1.895	1.909	1.909	1.909
-0.005	-0.010	0.000	-0.005	-0.005	-0.005	0.000	2.617	1.899	1.904	1.895	1.909	1.909	1.909
-0.005	0.000	-0.015	-0.005	-0.005	0.000	0.000	2.749	1.909	1.904	1.895	1.914	1.904	1.909
-0.005	0.000	0.000	-0.005	-0.005	-0.015	0.000	2.666	1.909	1.909	1.904	1.914	1.909	1.904
-0.005	0.000	-0.005	-0.005	-0.010	-0.005	0.000	2.754	1.914	1.909	1.904	1.919	1.909	1.909
0.000	-0.005	-0.010	-0.005	0.000	-0.010	0.000	2.661	1.909	1.904	1.904	1.919	1.914	1.909
-0.005	-0.015	-0.005	0.000	-0.005	0.000	-0.005	2.651	1.904	1.904	1.904	1.919	1.914	1.914
-0.010	0.000	-0.005	-0.005	0.000	-0.005	-0.005	2.695	1.904	1.904	1.904	1.919	1.914	1.914
-0.005	-0.010	-0.005	0.000	-0.005	0.000	0.000	2.759	1.914	1.904	1.904	1.919	1.919	1.914
0.005	-0.010	-0.010	0.000	0.000	-0.005	0.000	2.676	1.914	1.904	1.909	1.924	1.919	1.914
-0.005	-0.015	0.005	0.000	-0.005	0.000	0.000	2.710	1.909	1.904	1.904	1.924	1.914	1.914
-0.005	-0.020	0.000	0.000	-0.005	-0.020	0.000	2.676	1.904	1.904	1.904	1.919	1.914	1.914
-0.005	-0.010	-0.005	0.000	-0.005	0.005	0.000	2.681	1.904	1.904	1.904	1.919	1.914	1.914
-0.005	-0.005	-0.005	0.000	-0.005	-0.005	0.000	2.671	1.904	1.904	1.899	1.919	1.914	1.914
0.005	-0.010	-0.005	0.000	0.000	-0.005	0.000	2.666	1.899	1.904	1.904	1.919	1.914	1.914
0.000	0.000	0.000	-0.005	0.000	-0.005	0.000	2.671	1.904	1.904	1.904	1.919	1.914	1.919
-0.005	-0.010	-0.005	-0.005	-0.005	0.005	0.000	2.710	1.904	1.899	1.899	1.919	1.914	1.914
0.000	-0.015	-0.005	-0.005	-0.005	0.000	0.000	2.695	1.909	1.899	1.895	1.919	1.914	1.914
-0.005	-0.010	-0.005	-0.005	-0.005	0.015	0.000	2.690	1.904	1.904	1.899	1.919	1.914	1.919
0.000	-0.010	-0.005	-0.005	-0.010	0.005	-0.005	2.671	1.904	1.904	1.899	1.919	1.914	1.914
0.000	0.000	-0.005	-0.005	0.005	0.000	0.000	2.700	1.909	1.904	1.904	1.919	1.919	1.914
0.000	0.000	0.000	-0.005	-0.005	-0.010	0.000	2.686	1.904	1.909	1.904	1.919	1.914	1.914
0.000	-0.005	0.000	-0.005	-0.010	0.000	-0.005	2.686	1.909	1.909	1.904	1.919	1.914	1.914
0.000	0.010	0.000	0.000	-0.005	0.000	0.000	2.671	1.909	1.909	1.909	1.924	1.919	1.919
-0.010	0.010	-0.005	0.000	-0.010	-0.010	0.000	2.671	1.904	1.904	1.904	1.924	1.914	1.914
-0.015	0.005	0.000	0.000	-0.005	-0.005	0.000	2.661	1.895	1.904	1.904	1.924	1.919	1.914
-0.010	0.010	-0.005	0.000	-0.010	-0.005	0.000	2.705	1.904	1.904	1.904	1.924	1.919	1.919
-0.005	0.005	-0.005	0.000	0.005	-0.005	0.000	2.666	1.899	1.899	1.904	1.924	1.924	1.919
-0.005	0.000	0.000	0.000	0.010	-0.020	0.000	2.666	1.899	1.899	1.899	1.919	1.919	1.914
-0.005	-0.005	-0.005	0.000	0.005	-0.005	-0.005	2.671	1.895	1.899	1.899	1.919	1.919	1.919
-0.005	0.000	-0.005	-0.005	-0.005	-0.010	0.000	2.676	1.904	1.899	1.895	1.914	1.914	1.914
-0.015	-0.005	0.000	-0.005	0.000	-0.010	0.000	2.676	1.899	1.895	1.895	1.914	1.914	1.914
-0.005	-0.010	-0.005	-0.005	-0.010	0.005	0.000	2.651	1.899	1.895	1.895	1.914	1.909	1.919
0.000	-0.015	0.000	-0.005	-0.010	0.005	0.000	2.666	1.904	1.895	1.895	1.914	1.909	1.919
0.005	-0.005	0.000	-0.005	-0.005	-0.010	0.000	2.676	1.899	1.899	1.895	1.914	1.909	1.909
-0.005	0.000	0.000	-0.005	-0.005	-0.005	0.000	2.632	1.895	1.899	1.899	1.914	1.914	1.914
-0.010	0.005	0.000	-0.005	-0.005	0.000	0.000	2.666	1.895	1.899	1.895	1.914	1.909	1.914
-0.010	0.005	-0.005	-0.005	0.000	0.000	0.000	2.729	1.904	1.904	1.899	1.919	1.914	1.914
0.000	0.005	-0.005	0.000	0.000	-0.020	0.000	2.725	1.909	1.904	1.899	1.919	1.914	1.914
0.000	0.015	-0.005	-0.005	0.000	0.005	0.000	2.700	1.904	1.909	1.904	1.919	1.909	1.914
-0.005	0.020	-0.005	0.000	0.000	0.005	0.000	2.720	1.904	1.904	1.899	1.919	1.914	1.914
-0.005	0.020	-0.005	0.000	0.000	-0.005	0.000	2.725	1.909	1.909	1.899	1.924	1.914	1.914
0.000	0.015	-0.005	0.000	-0.005	-0.005	0.000	2.637	1.904	1.909	1.904	1.919	1.914	1.914
0.000	0.000	-0.005	0.000	-0.005	0.005	0.000	2.666	1.899	1.899	1.899	1.919	1.914	1.919
-0.010	0.000	-0.005	0.000	-0.005	0.010	0.000	2.651	1.895	1.895	1.899	1.919	1.914	1.919
0.000	-0.005	-0.005	0.000	-0.005	0.010	0.000	2.651	1.895	1.895	1.895	1.914	1.914	1.914
0.000	0.000	0.000	0.000	-0.020	0.000	0.000	2.622	1.885	1.895	1.895	1.914	1.909	1.909
-0.005	-0.010	-0.005	0.000	0.000	-0.010	0.000	2.695	1.890	1.890	1.895	1.914	1.909	1.909
0.000	-0.010	-0.005	-0.005	-0.020	0.000	0.000	2.734	1.899	1.890	1.890	1.909	1.909	1.909
-0.005	-0.010	-0.005	-0.005	-0.010	0.005	0.000	2.666	1.895	1.890	1.890	1.909	1.909	1.909
-0.005	-0.015	0.000	-0.005	-0.015	-0.010	0.000	2.700	1.899	1.890	1.890	1.909	1.909	1.904
0.000	-0.015	0.000	-0.005	-0.010	-0.010	0.000	2.695	1.904	1.895	1.890	1.909	1.904	1.904
0.000	-0.010	0.000	-0.005	-0.024	-0.010	0.000	2.681	1.904	1.895	1.890	1.909	1.904	1.904
0.000	-0.005	-0.005	-0.005	0.000	-0.015	0.000	2.666	1.899	1.899	1.895	1.914	1.909	1.909
-0.005	0.010	-0.010	-0.005	0.015	-0.005	0.000	2.671	1.904	1.904	1.899	1.914	1.914	1.914
-0.005	0.010	-0.005	-0.005	0.010	-0.020	0.000	2.690	1.904	1.904	1.899	1.914	1.909	1.909
0.000	0.010	-0.005	0.000	0.000	-0.010	0.000	2.690	1.909	1.909	1.904	1.919	1.909	1.909
-0.005	0.010	-0.005	0.000	0.015	-0.020	0.000	2.686	1.904	1.909	1.904	1.919	1.919	1.909
0.000	0.015	0.000	0.000	0.015	0.010	0.000	2.700	1.909	1.909	1.904	1.919	1.919	1.919
-0.015	-0.005	0.000	0.000	0.020	0.005	-0.005	2.671	1.904	1.899	1.899	1.919	1.919	1.919
-0.005	-0.005	0.000	0.000	0.029	0.015	0.000	2.700	1.909	1.899	1.899	1.919	1.919	1.919
-0.015	0.005	-0.005	0.000	0.000	0.005	0.000	2.690	1.904	1.904	1.899	1.919	1.909	1.919
-0.020	0.010	-0.005	0.000	0.005	-0.005	0.000	2.695	1.904	1.904	1.899	1.919	1.909	1.914
-0.005	0.005	0.000	0.000	-0.005	0.000	0.000	2.690	1.904	1.904	1.899	1.919	1.909	1.909
0.000	-0.005	0.000	0.000	-0.015	0.010	0.000	2.676	1.904	1.899	1.899	1.914	1.909	1.909
-0.005	0.000	-0.005	-0.005	-0.024	0.005	0.000	2.686	1.904	1.899	1.899	1.914	1.904	1.904
0.000	-0.005	0.000	-0.005	-0.015	-0.005	0.000	2.695	1.904	1.899	1.899	1.914	1.909	1.904
-0.005	0.000	0.000	-0.005	-0.024	0.000	0.000	2.666	1.899	1.899	1.899	1.914	1.909	1.909
0.000	-0.010	0.000	-0.005	-0.024	-0.015	0.000	2.671	1.899	1.899	1.899	1.914	1.909	1.904
0.000	-0.005	0.000	-0.005	0.000	-0.010	0.000	2.695	1.899	1.899	1.899	1.919	1.914	1.909
0.000	0.000	0.000	-0.005	0.000	0.000	0.000	2.671	1.899	1.899	1.899	1.919	1.919	1.914
0.005	-0.005	-0.005	-0.005	0.005	0.005	0.000	2.690	1.904	1.899	1.899	1.919	1.919	1.914
0.000	-0.005	-0.005	0.000	-0.005	-0.010	0.000	2.646	1.899	1.899	1.899	1.919	1.914	1.914
0.000	-0.005	-0.005	0.000	-0.005	0.000	0.000	2.656	1.895	1.899	1.899	1.919	1.914	1.914
-0.005	-0.005	-0.005	0.000	-0.005	0.005	0.000	2.686	1.899	1.899	1.895	1.919	1.914	1.919
-0.015	0.005	-0.005	0.000	0.000	0.000	0.000	2.788	1.909	1.904	1.899	1.919	1.914	1.914
-0.005	0.000	-0.005	0.000	0.005	-0.010	0.000	2.656	1.904	1.904	1.899	1.914	1.914	1.909
-0.005	-0.005	-0.005	0.000	0.000	0.005	0.000	2.710	1.909	1.904	1.899	1.919	1.914	1.919
0.000	0.005	-0.005	0.000	0.000	0.000	0.000	2.734	1.914	1.909	1.899	1.914	1.914	1.914
-0.005	-0.010	-0.010	0.000	-0.010	-0.020	0.000	2.632	1.899	1.899	1.899	1.914	1.904	1.909
0.000	-0.010	0.000	-0.005	-0.010	-0.005	0.000	2.725	1.904	1.899	1.899	1.914	1.909	1.914
-0.005	-0.010	0.000	-0.005	-0.010	-0.015	0.000	2.725	1.909	1.904	1.899	1.914	1.909	1.904
0.000	-0.020	-0.005	-0.005	-0.005	-0.005	0.000	2.715	1.909	1.899	1.895	1.914	1.909	1.909
-0.005	-0.020	-0.005	-0.005	-0.005	-0.015	0.000	2.681	1.904	1.899	1.895	1.914	1.909	1.909
-0.010	-0.015	0.000	-0.005	-0.005	0.010	0.000	2.656	1.899	1.899	1.899	1.914	1.909	1.914
-0.005	-0.010	0.005	-0.005	0.000	0.000	0.000	2.666	1.904	1.904	1.899	1.914	1.914	1.909
-0.005	-0.010	0.000	-0.005	0.005	0.000	0.000	2.725	1.895	1.904	1.904	1.914	1.914	1.914
-0.005	0.000	-0.005	0.000	0.000	0.000	-0.005	2.666	1.899	1.904	1.899	1.919	1.914	1.914
-0.010	0.005	0.000	0.000	0.000	-0.005	0.000	2.754	1.909	1.904	1.904	1.919	1.914	1.914
-0.005	0.005	-0.005	-0.005	0.000	0.005	-0.005	2.671	1.904	1.904	1.904	1.919	1.914	1.919
0.000	0.000	-0.005	0.000	0.000	0.005	0.000	2.695	1.904	1.904	1.904	1.919	1.914	1.914
0.000	-0.005	-0.005	0.000	0.000	0.005	0.000	2.671	1.904	1.904	1.899	1.919	1.919	1.914
-0.010	0.000	0.000	0.000	-0.005	0.000	0.000	2.671	1.899	1.904	1.904	1.924	1.914	1.914
0.005	0.005	0.000	0.000	-0.005	-0.005	0.000	2.700	1.909	1.904	1.899	1.919	1.914	1.914
-0.005	0.005	-0.005	0.000	0.000	-0.015	0.000	2.671	1.904	1.899	1.899	1.919	1.914	1.914
-0.005	-0.005	0.000	0.000	-0.005	0.000	0.000	2.671	1.895	1.895	1.899	1.919	1.914	1.914
-0.005	-0.005	-0.005	0.000	-0.005	-0.005	0.000	2.651	1.895	1.895	1.895	1.914	1.914	1.914
-0.005	-0.020	-0.005	0.000	0.000	-0.005	0.000	2.686	1.895	1.890	1.895	1.914	1.914	1.914
-0.010	-0.020	0.000	-0.005	0.000	-0.020	0.000	2.695	1.895	1.890	1.890	1.914	1.909	1.904
-0.005	-0.010	0.000	-0.005	0.000	0.000	0.000	2.690	1.899	1.895	1.890	1.909	1.909	1.914
0.000	-0.015	0.000	-0.005	-0.005	0.005	0.000	2.705	1.904	1.899	1.890	1.914	1.909	1.914
0.000	-0.010	0.000	-0.005	-0.005	0.005	0.000	2.695	1.904	1.899	1.895	1.914	1.909	1.914
-0.005	-0.010	-0.005	-0.005	-0.005	0.000	0.000	2.690	1.904	1.904	1.895	1.909	1.909	1.909
0.005	-0.005	-0.005	-0.005	-0.005	-0.029	0.000	2.661	1.904	1.904	1.899	1.914	1.909	1.904
0.005	0.005	-0.005	0.000	-0.010	-0.005	0.000	2.686	1.909	1.909	1.899	1.914	1.909	1.909
-0.005	-0.005	0.000	-0.005	-0.010	0.010	0.000	2.700	1.909	1.904	1.904	1.919	1.909	1.914
0.005	0.000	0.000	0.000	0.000	-0.005	0.000	2.705	1.909	1.909	1.904	1.919	1.914	1.909
-0.005	0.000	-0.005	-0.005	0.010	0.000	0.000	2.671	1.904	1.909	1.904	1.919	1.914	1.914
-0.005	0.000	-0.010	0.000	0.010	0.005	0.000	2.690	1.909	1.909	1.904	1.919	1.914	1.919
0.010	0.005	0.000	0.000	0.000	-0.005	0.000	2.690	1.909	1.909	1.904	1.924	1.914	1.909
0.000	0.000	-0.005	0.000	-0.010	-0.010	0.000	2.676	1.904	1.904	1.904	1.919	1.914	1.909
-0.005	-0.005	-0.005	0.000	-0.010	0.000	0.000	2.681	1.899	1.899	1.899	1.919	1.914	1.914
-0.010	-0.015	0.000	0.000	0.000	-0.015	0.000	2.651	1.895	1.895	1.899	1.919	1.914	1.909
-0.005	-0.005	-0.005	0.000	0.005	0.005	0.000	2.651	1.890	1.895	1.895	1.919	1.919	1.919
0.000	-0.020	-0.005	0.000	0.000	0.000	0.000	2.671	1.895	1.895	1.895	1.914	1.914	1.914
-0.005	-0.015	-0.010	-0.005	0.000	-0.020	0.000	2.637	1.885	1.890	1.895	1.914	1.909	1.909
-0.010	-0.015	0.000	-0.010	-0.005	0.005	0.000	2.651	1.890	1.890	1.890	1.914	1.909	1.914
0.000	-0.015	-0.005	-0.005	-0.010	0.000	0.000	2.637	1.890	1.890	1.890	1.909	1.909	1.909
-0.010	-0.010	0.005	-0.005	-0.010	0.005	0.000	2.729	1.899	1.895	1.890	1.909	1.909	1.914
-0.015	-0.005	-0.005	-0.005	0.000	0.015	0.000	2.739	1.899	1.895	1.890	1.909	1.909	1.919
-0.005	0.000	-0.005	-0.005	0.000	-0.005	0.000	2.715	1.904	1.899	1.895	1.914	1.909	1.909
0.010	0.010	-0.005	-0.005	0.000	0.010	0.000	2.715	1.914	1.909	1.899	1.914	1.909	1.914
-0.005	-0.005	-0.005	-0.005	-0.005	-0.010	0.000	2.622	1.899	1.904	1.899	1.914	1.909	1.909
0.000	0.005	0.000	-0.005	-0.005	0.005	0.000	2.671	1.904	1.904	1.899	1.914	1.909	1.914
-0.005	0.000	0.000	0.000	-0.005	0.005	0.000	2.651	1.899	1.899	1.899	1.919	1.909	1.909
-0.005	0.005	0.000	0.000	-0.010	0.005	0.000	2.656	1.899	1.899	1.899	1.919	1.909	1.909
-0.005	0.000	-0.005	0.000	-0.010	-0.010	0.000	2.612	1.890	1.895	1.895	1.919	1.909	1.904
-0.005	0.000	-0.005	0.005	-0.015	-0.005	0.000	2.686	1.895	1.895	1.899	1.914	1.904	1.909
-0.005	0.000	-0.005	0.000	-0.015	0.000	0.000	2.729	1.904	1.895	1.895	1.914	1.909	1.909
0.000	-0.010	-0.005	0.000	0.010	-0.005	0.000	2.666	1.899	1.890	1.895	1.914	1.914	1.909
0.000	-0.015	-0.005	0.000	0.015	-0.020	0.000	2.681	1.899	1.890	1.895	1.909	1.914	1.904
-0.005	-0.020	0.005	-0.005	0.005	-0.005	0.000	2.676	1.899	1.890	1.895	1.909	1.909	1.909
0.000	-0.005	-0.005	-0.005	-0.005	-0.005	0.000	2.656	1.895	1.895	1.895	1.909	1.904	1.909
-0.005	0.000	-0.005	0.000	-0.010	0.005	0.000	2.671	1.895	1.895	1.890	1.909	1.904	1.909
-0.005	0.000	0.000	-0.005	-0.010	0.000	0.000	2.676	1.899	1.895	1.895	1.909	1.904	1.909
-0.005	-0.005	0.000	-0.005	-0.020	0.010	0.000	2.671	1.895	1.895	1.895	1.909	1.904	1.909
0.000	-0.005	0.005	-0.005	-0.010	0.010	0.000	2.695	1.904	1.899	1.895	1.909	1.909	1.909
0.005	-0.005	-0.005	-0.005	0.000	0.005	0.000	2.695	1.904	1.899	1.895	1.914	1.909	1.909
0.000	0.000	-0.005	-0.005	0.020	0.015	0.000	2.700	1.899	1.899	1.899	1.914	1.914	1.914
0.000	0.005	-0.005	0.000	0.034	0.005	0.000	2.686	1.904	1.904	1.899	1.914	1.919	1.914
0.005	0.005	-0.010	0.000	0.020	-0.005	0.000	2.686	1.904	1.904	1.899	1.914	1.909	1.909
0.000	0.020	-0.005	0.000	0.005	0.000	0.000	2.686	1.904	1.904	1.904	1.914	1.909	1.909
-0.005	0.010	0.000	-0.005	-0.029	0.029	0.000	2.700	1.909	1.904	1.904	1.919	1.899	1.914
0.005	0.000	-0.005	0.000	-0.054	0.024	0.000	2.690	1.904	1.899	1.899	1.919	1.899	1.904
-0.005	-0.005	-0.005	0.000	-0.063	0.015	0.000	2.661	1.895	1.899	1.899	1.914	1.899	1.904
0.000	0.005	-0.005	-0.005	-0.049	0.005	0.000	2.690	1.899	1.899	1.899	1.914	1.904	1.899
0.000	-0.005	-0.005	-0.005	-0.034	-0.024	0.000	2.700	1.899	1.895	1.895	1.914	1.909	1.895
-0.005	-0.015	0.000	-0.005	0.000	-0.039	0.000	2.661	1.895	1.890	1.895	1.914	1.919	1.895
0.000	-0.010	-0.005	-0.005	0.000	-0.020	0.000	2.686	1.895	1.895	1.895	1.914	1.914	1.909
-0.010	-0.015	-0.005	-0.005	-0.024	-0.020	0.000	2.666	1.895	1.890	1.890	1.909	1.904	1.904
-0.010	-0.010	0.000	-0.005	-0.015	-0.024	0.000	2.671	1.895	1.895	1.890	1.909	1.914	1.904
-0.005	0.000	0.005	-0.005	-0.015	-0.039	0.000	2.666	1.895	1.895	1.895	1.909	1.909	1.904
0.000	0.010	0.005	-0.010	0.029	-0.039	0.000	2.656	1.895	1.899	1.899	1.914	1.924	1.909
-0.005	-0.005	0.000	-0.005	0.063	-0.024	0.000	2.646	1.895	1.895	1.895	1.914	1.929	1.919
0.000	0.005	-0.005	-0.005	0.073	-0.020	0.000	2.676	1.899	1.899	1.895	1.914	1.924	1.924
-0.005	0.005	0.000	0.000	0.063	-0.015	0.000	2.627	1.890	1.899	1.895	1.914	1.919	1.924
-0.005	0.005	-0.005	-0.005	0.044	-0.005	0.000	2.651	1.890	1.895	1.895	1.914	1.909	1.924
0.000	0.010	-0.005	0.000	0.000	-0.015	0.000	2.622	1.895	1.895	1.895	1.909	1.899	1.909
-0.005	0.000	0.000	0.000	-0.010	0.005	-0.005	2.715	1.899	1.895	1.895	1.914	1.899	1.914
0.000	-0.005	-0.005	-0.005	0.024	0.015	-0.005	2.627	1.904	1.895	1.895	1.914	1.914	1.914
0.000	-0.005	-0.005	0.000	0.029	0.029	0.000	2.729	1.909	1.899	1.895	1.914	1.909	1.914
0.000	-0.015	-0.005	0.000	0.015	0.029	0.000	2.710	1.904	1.895	1.890	1.909	1.909	1.914
-0.005	-0.010	-0.005	-0.005	-0.005	0.020	0.000	2.642	1.904	1.899	1.895	1.909	1.899	1.909
0.000	-0.020	-0.005	0.000	-0.015	0.024	0.000	2.637	1.895	1.895	1.895	1.909	1.899	1.904
-0.005	-0.020	-0.005	-0.005	0.000	0.015	0.000	2.646	1.890	1.895	1.890	1.909	1.904	1.904
-0.005	-0.010	0.000	-0.005	0.010	0.010	0.000	2.661	1.890	1.890	1.895	1.909	1.904	1.899
0.000	-0.015	0.005	-0.005	-0.005	0.005	0.000	2.622	1.885	1.890	1.890	1.909	1.899	1.899
-0.005	-0.010	0.000	-0.005	-0.015	-0.005	0.000	2.690	1.890	1.890	1.890	1.909	1.899	1.899
-0.010	-0.005	0.000	-0.005	-0.015	-0.010	0.000	2.744	1.899	1.890	1.890	1.909	1.899	1.895
-0.010	-0.005	-0.005	-0.005	-0.020	-0.029	0.000	2.671	1.895	1.895	1.890	1.909	1.899	1.895
0.000	0.005	-0.005	0.000	-0.020	0.000	0.000	2.661	1.899	1.899	1.890	1.909	1.904	1.904
-0.010	0.015	-0.010	-0.005	-0.015	0.000	0.000	2.671	1.895	1.899	1.895	1.909	1.904	1.904
-0.005	0.010	0.000	0.000	-0.020	0.000	0.000	2.671	1.895	1.899	1.895	1.914	1.904	1.904
-0.005	0.005	-0.005	0.000	-0.024	0.005	0.000	2.661	1.895	1.899	1.895	1.914	1.909	1.904
-0.005	0.000	-0.005	0.000	-0.015	-0.005	0.000	2.661	1.895	1.895	1.895	1.914	1.909	1.909
-0.005	0.010	-0.005	-0.005	-0.010	-0.010	0.000	2.671	1.895	1.895	1.895	1.914	1.909	1.904
0.000	0.015	-0.005	0.000	-0.005	-0.005	0.000	2.710	1.899	1.895	1.895	1.914	1.909	1.909
-0.010	0.005	-0.005	0.000	-0.015	-0.005	0.000	2.690	1.899	1.895	1.895	1.914	1.909	1.904
-0.005	0.000	-0.005	0.000	-0.005	-0.005	0.000	2.690	1.899	1.890	1.895	1.909	1.909	1.909
-0.005	-0.005	-0.005	-0.005	-0.010	0.010	-0.005	2.666	1.899	1.890	1.890	1.909	1.904	1.909
0.005	-0.010	-0.005	-0.005	-0.020	0.000	-0.005	2.700	1.899	1.890	1.890	1.909	1.904	1.904
0.000	-0.010	-0.005	0.000	-0.020	0.000	0.000	2.681	1.895	1.890	1.890	1.909	1.904	1.904
0.000	-0.010	-0.005	-0.005	-0.015	0.000	0.000	2.661	1.899	1.890	1.890	1.904	1.904	1.904
0.000	-0.005	0.000	-0.005	-0.010	-0.005	0.000	2.671	1.899	1.895	1.890	1.909	1.904	1.899
-0.010	-0.015	0.000	-0.005	-0.015	0.000	0.000	2.681	1.895	1.890	1.890	1.909	1.904	1.904
-0.005	-0.005	-0.005	-0.005	-0.015	-0.010	0.000	2.690	1.895	1.895	1.890	1.909	1.904	1.904
-0.005	0.000	0.000	-0.005	-0.024	0.000	0.000	2.695	1.904	1.899	1.895	1.909	1.904	1.904
0.005	0.000	0.000	-0.005	-0.010	0.000	0.000	2.671	1.899	1.899	1.895	1.909	1.909	1.904
-0.005	0.000	0.000	0.000	0.000	-0.005	0.000	2.690	1.899	1.899	1.895	1.914	1.914	1.909
0.005	0.010	-0.005	0.000	0.015	-0.005	0.000	2.666	1.899	1.904	1.899	1.914	1.919	1.909
0.000	0.005	0.000	-0.005	0.015	-0.010	0.000	2.700	1.899	1.899	1.899	1.914	1.914	1.909
-0.005	0.000	-0.005	0.000	0.010	-0.010	0.000	2.686	1.899	1.895	1.895	1.914	1.909	1.909
-0.005	-0.005	0.000	-0.005	-0.005	0.000	0.000	2.651	1.895	1.895	1.895	1.914	1.909	1.914
-0.005	-0.005	0.000	0.000	-0.005	-0.005	0.000	2.646	1.890	1.895	1.895	1.914	1.909	1.909
-0.005	-0.005	0.000	0.000	-0.005	0.000	0.000	2.666	1.895	1.890	1.895	1.914	1.909	1.909
0.000	-0.010	-0.005	0.000	0.000	0.005	0.000	2.632	1.890	1.890	1.890	1.909	1.909	1.909
-0.005	-0.005	0.000	0.000	0.000	0.000	0.000	2.642	1.885	1.890	1.890	1.909	1.904	1.909
-0.005	-0.010	-0.005	-0.005	0.000	0.000	0.000	2.622	1.880	1.885	1.885	1.909	1.904	1.909
0.000	-0.010	-0.005	0.000	-0.005	0.000	0.000	2.739	1.890	1.885	1.885	1.904	1.904	1.899
-0.005	-0.005	-0.005	-0.005	0.005	0.000	0.000	2.646	1.890	1.885	1.885	1.904	1.904	1.904
-0.005	-0.005	0.000	-0.005	0.000	0.000	0.000	2.725	1.899	1.890	1.885	1.904	1.904	1.904
-0.010	-0.015	0.000	-0.005	0.000	-0.005	0.000	2.705	1.885	1.885	1.885	1.904	1.904	1.899
