0.005	-0.005	0.010	-0.010	-0.010	-0.015	0.034	2.690	2.861	2.280	2.129	2.021	2.026	2.021
0.005	0.010	0.000	-0.005	-0.010	-0.005	0.034	2.671	2.627	2.388	2.192	2.070	2.036	2.026
0.000	0.034	0.005	-0.005	-0.005	-0.005	0.034	2.676	2.451	2.417	2.256	2.129	2.056	2.036
-0.005	0.034	0.005	0.000	-0.005	0.015	0.034	2.681	2.329	2.397	2.295	2.178	2.090	2.051
-0.005	0.034	-0.005	0.000	0.000	0.000	0.034	2.676	2.241	2.358	2.314	2.222	2.129	2.070
-0.010	0.034	-0.005	0.000	-0.005	-0.005	0.034	2.676	2.183	2.310	2.314	2.251	2.158	2.090
-0.010	0.029	-0.005	0.005	0.005	0.015	0.034	2.686	2.139	2.261	2.305	2.271	2.187	2.124
0.005	0.020	0.000	0.005	0.005	0.000	0.034	2.671	2.109	2.217	2.280	2.280	2.212	2.148
0.000	0.015	0.000	0.010	0.010	0.000	0.034	2.681	2.085	2.183	2.256	2.280	2.231	2.163
0.000	0.000	0.000	-0.005	0.010	0.005	0.034	2.676	2.075	2.148	2.227	2.266	2.241	2.187
0.000	-0.010	0.005	-0.005	0.005	0.005	0.034	2.671	2.070	2.124	2.197	2.256	2.246	2.202
0.005	-0.015	0.005	0.000	0.000	0.005	0.034	2.681	2.065	2.109	2.173	2.236	2.241	2.212
0.005	-0.015	0.010	-0.005	-0.005	0.005	0.034	2.690	2.065	2.100	2.153	2.217	2.231	2.217
0.005	0.000	0.010	-0.005	0.000	0.000	0.034	2.681	2.065	2.090	2.134	2.202	2.222	2.217
0.005	0.000	0.010	-0.010	0.005	-0.005	0.034	2.681	2.061	2.085	2.124	2.183	2.212	2.217
0.005	-0.010	0.005	-0.005	0.015	0.000	0.034	2.676	2.061	2.080	2.109	2.173	2.202	2.212
-0.005	0.000	0.000	-0.005	0.020	-0.020	0.034	2.690	2.065	2.075	2.100	2.153	2.187	2.202
0.005	0.000	0.000	0.005	0.015	-0.015	0.034	2.671	2.065	2.075	2.090	2.144	2.178	2.192
-0.005	-0.005	0.000	0.005	0.020	-0.010	0.039	2.676	2.061	2.065	2.085	2.134	2.163	2.187
-0.015	0.000	0.000	0.010	0.020	0.000	0.034	2.695	2.065	2.070	2.080	2.124	2.153	2.183
-0.010	0.000	-0.005	0.015	0.020	-0.024	0.034	2.690	2.065	2.070	2.075	2.114	2.144	2.168
-0.015	0.005	-0.005	0.024	0.020	-0.020	0.034	2.686	2.061	2.070	2.075	2.114	2.134	2.158
-0.020	0.005	-0.005	0.024	0.015	-0.029	0.039	2.666	2.061	2.070	2.070	2.104	2.119	2.148
0.000	0.005	0.000	0.015	0.010	0.000	0.034	2.690	2.065	2.065	2.070	2.100	2.114	2.144
0.000	0.000	0.000	0.015	0.005	-0.005	0.034	2.676	2.061	2.065	2.070	2.095	2.109	2.134
-0.005	-0.005	0.000	0.010	0.005	0.005	0.034	2.686	2.061	2.061	2.065	2.090	2.104	2.124
-0.005	-0.010	0.000	0.000	0.005	0.005	0.034	2.686	2.061	2.061	2.065	2.085	2.095	2.119
0.005	-0.015	0.005	0.000	0.000	0.005	0.034	2.686	2.056	2.061	2.061	2.085	2.090	2.109
0.000	-0.015	0.010	0.000	-0.015	0.000	0.034	2.671	2.051	2.061	2.065	2.080	2.085	2.104
0.015	-0.005	0.005	-0.005	-0.015	-0.010	0.034	2.681	2.056	2.061	2.061	2.080	2.080	2.095
0.000	-0.010	0.010	0.000	-0.015	0.005	0.034	2.676	2.046	2.051	2.061	2.080	2.080	2.095
0.000	-0.020	0.005	0.005	-0.020	0.010	0.039	2.651	2.041	2.046	2.051	2.080	2.075	2.090
0.005	-0.024	0.005	0.005	-0.015	0.000	0.034	2.676	2.041	2.046	2.051	2.075	2.075	2.080
-0.005	-0.010	0.000	0.005	-0.015	0.000	0.034	2.681	2.036	2.046	2.046	2.070	2.070	2.085
-0.010	-0.010	-0.005	0.010	-0.015	0.020	0.034	2.681	2.031	2.041	2.041	2.070	2.070	2.080
-0.005	0.005	-0.005	0.010	-0.015	-0.010	0.034	2.686	2.041	2.046	2.046	2.070	2.070	2.070
-0.005	0.000	-0.005	0.020	-0.005	0.024	0.034	2.686	2.036	2.041	2.041	2.070	2.070	2.080
0.005	0.010	-0.005	0.010	-0.010	0.010	0.034	2.686	2.036	2.041	2.041	2.065	2.065	2.075
0.000	0.005	-0.005	0.005	-0.020	0.015	0.034	2.686	2.036	2.041	2.041	2.061	2.061	2.070
0.005	0.020	-0.010	0.005	-0.015	0.010	0.034	2.681	2.031	2.041	2.041	2.061	2.061	2.065
0.005	0.029	-0.005	0.005	-0.005	0.010	0.034	2.686	2.031	2.041	2.041	2.061	2.061	2.065
0.005	0.015	-0.005	0.005	0.000	0.010	0.034	2.686	2.026	2.031	2.041	2.061	2.061	2.065
0.010	0.010	0.000	0.000	0.000	0.005	0.034	2.666	2.026	2.026	2.036	2.056	2.061	2.065
0.015	0.000	0.000	0.000	-0.005	0.000	0.034	2.661	2.021	2.026	2.031	2.056	2.056	2.061
0.000	-0.005	0.000	-0.005	-0.010	0.010	0.034	2.681	2.017	2.021	2.026	2.051	2.051	2.061
0.005	-0.010	0.000	-0.005	-0.010	0.005	0.034	2.686	2.017	2.021	2.021	2.051	2.051	2.056
0.015	-0.010	0.005	-0.005	0.000	0.005	0.034	2.681	2.017	2.017	2.021	2.046	2.051	2.061
0.015	-0.010	0.005	-0.005	0.010	0.000	0.034	2.686	2.017	2.017	2.021	2.041	2.051	2.051
0.015	0.000	0.005	0.000	0.010	-0.005	0.039	2.676	2.017	2.017	2.021	2.046	2.046	2.051
0.015	-0.010	0.000	-0.005	0.005	-0.005	0.039	2.651	2.007	2.017	2.017	2.036	2.041	2.046
0.015	0.000	0.000	0.000	0.000	0.000	0.034	2.686	2.007	2.012	2.017	2.036	2.036	2.046
0.000	0.000	0.000	-0.005	0.010	-0.029	0.034	2.681	2.002	2.012	2.012	2.036	2.036	2.036
0.000	0.010	-0.005	-0.005	0.000	0.000	0.034	2.676	2.002	2.012	2.012	2.031	2.036	2.046
0.000	0.010	-0.005	-0.005	0.005	0.020	0.034	2.681	2.002	2.007	2.012	2.031	2.031	2.046
-0.005	0.010	0.000	0.000	-0.005	0.015	0.034	2.666	2.002	2.007	2.007	2.031	2.031	2.041
-0.010	0.015	-0.005	0.000	-0.005	0.010	0.034	2.671	1.997	2.007	2.007	2.026	2.026	2.036
-0.010	0.015	0.000	0.010	-0.005	0.010	0.034	2.671	1.992	2.002	2.007	2.031	2.026	2.036
-0.005	0.000	0.000	0.000	0.010	0.005	0.034	2.661	1.997	1.997	2.002	2.026	2.031	2.031
0.000	-0.005	0.005	0.005	0.020	0.000	0.034	2.656	1.992	1.997	2.002	2.026	2.031	2.031
0.000	0.000	0.000	-0.005	0.015	0.010	0.034	2.734	2.002	1.997	1.997	2.021	2.026	2.026
0.000	-0.010	0.000	-0.005	0.005	-0.005	0.039	2.642	1.992	1.992	1.997	2.021	2.021	2.026
-0.005	-0.020	0.000	-0.005	0.005	-0.015	0.039	2.832	2.012	1.992	1.997	2.017	2.017	2.021
0.005	-0.020	0.005	-0.005	0.000	-0.010	0.039	2.676	2.007	1.997	1.997	2.017	2.012	2.021
0.005	-0.010	0.005	-0.010	0.010	-0.015	0.039	2.666	1.997	1.997	1.997	2.017	2.017	2.021
0.000	-0.010	0.000	-0.010	0.005	-0.024	0.034	2.656	1.987	1.997	1.992	2.012	2.012	2.012
0.015	-0.005	0.000	-0.010	0.010	-0.020	0.034	2.676	1.987	1.997	1.992	2.012	2.012	2.017
0.005	-0.005	0.005	-0.005	0.010	-0.029	0.039	2.671	1.978	1.992	1.992	2.012	2.012	2.012
0.010	0.000	0.000	-0.005	0.005	-0.010	0.034	2.661	1.982	1.992	1.992	2.012	2.007	2.012
-0.005	0.005	-0.005	-0.005	0.000	0.005	0.034	2.671	1.978	1.987	1.987	2.012	2.012	2.017
-0.005	0.000	0.000	0.005	0.010	0.010	0.034	2.661	1.973	1.978	1.987	2.012	2.012	2.017
-0.005	-0.005	0.005	0.005	0.000	0.000	0.034	2.651	1.968	1.978	1.982	2.007	2.007	2.012
-0.015	0.010	-0.005	0.010	0.000	0.010	0.034	2.646	1.968	1.978	1.982	2.007	2.007	2.012
-0.010	0.020	-0.005	0.005	-0.005	-0.005	0.039	2.686	1.973	1.978	1.978	2.007	2.002	2.007
-0.010	0.015	-0.005	0.010	-0.005	-0.005	0.034	2.651	1.968	1.978	1.978	2.002	2.007	2.007
-0.005	0.005	0.000	0.005	0.000	0.015	0.039	2.646	1.968	1.973	1.973	1.997	2.002	2.012
-0.005	0.015	0.000	0.005	0.005	0.010	0.034	2.822	1.987	1.978	1.978	1.997	2.002	2.007
0.005	0.000	0.005	0.005	-0.005	0.010	0.034	2.681	1.982	1.978	1.978	1.997	1.997	2.007
0.000	0.010	0.000	0.000	0.005	0.010	0.034	2.676	1.982	1.978	1.973	1.997	1.997	2.007
0.000	-0.015	0.000	0.000	0.010	-0.020	0.039	2.671	1.973	1.968	1.968	1.992	1.997	1.992
0.010	-0.010	0.000	0.000	0.010	0.010	0.034	2.671	1.973	1.973	1.973	1.992	1.992	2.002
0.015	-0.010	0.005	-0.005	0.005	0.015	0.039	2.671	1.973	1.973	1.973	1.992	1.987	1.997
0.010	-0.015	0.010	-0.005	0.010	0.010	0.034	2.671	1.968	1.963	1.968	1.992	1.992	1.992
0.015	-0.005	0.005	0.010	0.005	0.005	0.034	2.671	1.963	1.968	1.968	1.992	1.987	1.992
0.010	-0.005	0.005	0.005	-0.005	-0.005	0.034	2.651	1.958	1.968	1.968	1.987	1.987	1.987
0.010	0.005	0.000	0.000	-0.020	-0.010	0.034	2.651	1.958	1.968	1.968	1.987	1.978	1.982
0.005	0.015	-0.005	0.005	-0.029	0.000	0.034	2.637	1.948	1.968	1.968	1.987	1.978	1.987
0.005	0.020	-0.005	0.005	-0.005	0.005	0.034	2.690	1.953	1.963	1.963	1.987	1.987	1.987
-0.005	0.024	-0.005	0.005	0.005	-0.010	0.039	2.632	1.948	1.963	1.963	1.987	1.987	1.982
0.000	0.020	-0.005	0.005	-0.005	0.000	0.034	2.637	1.948	1.958	1.958	1.982	1.982	1.987
-0.005	0.020	-0.005	0.000	-0.005	0.010	0.034	2.651	1.948	1.953	1.958	1.982	1.982	1.987
0.000	0.015	0.000	0.000	-0.010	0.005	0.039	2.686	1.953	1.948	1.953	1.978	1.978	1.982
-0.005	0.010	-0.005	0.000	-0.005	0.010	0.039	2.676	1.953	1.953	1.953	1.973	1.978	1.987
-0.005	-0.005	0.000	-0.005	-0.005	0.010	0.039	2.681	1.953	1.948	1.953	1.973	1.978	1.982
0.000	-0.010	0.005	0.000	-0.005	0.010	0.034	2.681	1.953	1.943	1.953	1.973	1.973	1.978
0.000	-0.010	0.005	-0.005	0.000	0.010	0.034	2.646	1.953	1.948	1.948	1.968	1.973	1.978
0.020	-0.005	0.000	-0.005	0.000	0.005	0.039	2.656	1.953	1.948	1.948	1.968	1.973	1.973
0.015	-0.005	0.010	-0.005	-0.010	0.005	0.034	2.661	1.948	1.948	1.948	1.968	1.968	1.973
0.010	-0.005	0.010	-0.005	0.005	0.005	0.034	2.661	1.948	1.948	1.948	1.968	1.968	1.973
0.015	-0.010	0.010	0.000	0.010	-0.005	0.034	2.651	1.943	1.948	1.948	1.968	1.973	1.968
0.000	-0.005	0.005	0.000	0.039	-0.010	0.034	2.632	1.934	1.943	1.943	1.968	1.973	1.968
-0.005	0.005	0.000	0.015	0.020	-0.010	0.034	2.656	1.934	1.943	1.943	1.968	1.963	1.968
-0.020	0.005	0.000	0.005	-0.005	0.000	0.034	2.812	1.948	1.943	1.943	1.963	1.958	1.968
-0.015	0.020	0.000	0.005	-0.015	0.005	0.034	2.808	1.963	1.953	1.943	1.963	1.953	1.968
-0.010	0.024	-0.005	0.015	0.000	0.010	0.034	2.642	1.958	1.953	1.948	1.968	1.963	1.968
-0.010	0.024	0.000	0.015	0.015	0.005	0.034	2.681	1.953	1.953	1.948	1.968	1.968	1.968
-0.005	0.010	-0.005	0.010	0.020	0.000	0.034	2.686	1.953	1.948	1.948	1.968	1.968	1.968
-0.020	0.010	-0.005	0.015	0.024	0.015	0.039	2.686	1.948	1.948	1.948	1.968	1.963	1.968
0.000	-0.005	-0.010	0.010	0.005	-0.005	0.034	2.681	1.953	1.948	1.943	1.968	1.958	1.958
0.000	-0.005	-0.010	0.000	-0.005	0.015	0.034	2.671	1.948	1.943	1.943	1.963	1.958	1.968
-0.005	0.000	0.000	0.000	-0.010	0.000	0.034	2.671	1.943	1.943	1.948	1.963	1.953	1.958
0.000	-0.010	0.000	0.000	0.000	-0.020	0.034	2.661	1.938	1.943	1.948	1.958	1.958	1.953
0.005	-0.010	-0.005	-0.005	-0.005	0.000	0.034	2.656	1.934	1.938	1.938	1.958	1.953	1.958
0.005	-0.024	0.000	-0.005	-0.005	-0.005	0.039	2.656	1.934	1.934	1.938	1.958	1.953	1.958
0.005	-0.029	0.005	0.000	-0.005	0.005	0.034	2.642	1.929	1.929	1.938	1.958	1.958	1.958
0.000	-0.015	0.010	-0.005	-0.005	-0.015	0.034	2.676	1.929	1.934	1.934	1.953	1.953	1.948
0.015	-0.005	0.005	-0.005	0.000	0.000	0.034	2.646	1.948	1.938	1.934	1.953	1.953	1.953
0.005	0.000	0.005	0.005	0.010	-0.015	0.039	2.637	1.938	1.943	1.938	1.958	1.953	1.948
0.000	0.000	0.005	0.000	0.015	0.000	0.034	2.744	1.934	1.938	1.934	1.958	1.958	1.958
0.010	0.010	-0.005	0.005	0.010	0.000	0.034	2.671	1.934	1.938	1.938	1.958	1.953	1.958
-0.005	0.015	0.000	0.000	0.015	0.005	0.039	2.676	1.934	1.938	1.938	1.958	1.953	1.958
-0.015	0.005	0.000	0.005	-0.005	0.000	0.034	2.681	1.934	1.934	1.934	1.953	1.948	1.953
-0.005	0.010	0.005	0.005	0.000	0.000	0.034	2.681	1.934	1.938	1.934	1.953	1.948	1.953
-0.010	0.010	0.005	0.000	0.000	0.029	0.039	2.681	1.929	1.934	1.934	1.953	1.948	1.958
-0.010	0.000	0.000	0.000	0.000	0.015	0.034	2.676	1.934	1.929	1.934	1.953	1.948	1.958
0.000	0.010	-0.005	0.000	0.000	0.005	0.034	2.666	1.934	1.934	1.929	1.953	1.948	1.948
-0.010	-0.005	0.000	0.000	0.000	0.015	0.034	2.661	1.929	1.929	1.929	1.948	1.948	1.953
0.010	-0.015	-0.010	-0.005	-0.010	0.010	0.034	2.642	1.929	1.929	1.924	1.948	1.943	1.948
0.000	-0.010	0.005	-0.005	0.000	0.005	0.034	2.646	1.924	1.924	1.929	1.948	1.943	1.948
0.005	-0.015	0.000	-0.005	-0.005	0.005	0.034	2.666	1.924	1.924	1.924	1.943	1.943	1.943
0.005	-0.024	0.000	-0.010	-0.005	0.000	0.039	2.808	1.938	1.929	1.924	1.943	1.943	1.943
0.005	-0.020	0.000	-0.005	0.005	-0.020	0.034	2.637	1.934	1.929	1.924	1.943	1.943	1.943
0.010	-0.005	0.005	0.000	0.000	-0.029	0.034	2.646	1.929	1.929	1.924	1.943	1.938	1.934
0.010	-0.010	0.005	-0.010	0.000	-0.039	0.034	2.671	1.924	1.929	1.924	1.943	1.938	1.938
0.000	-0.005	0.000	-0.005	-0.010	-0.005	0.039	2.686	1.924	1.924	1.924	1.943	1.938	1.943
0.005	0.000	0.005	-0.005	0.010	0.005	0.034	2.676	1.924	1.924	1.924	1.943	1.943	1.948
-0.005	-0.020	-0.005	0.010	0.015	0.005	0.034	2.681	1.919	1.914	1.924	1.948	1.943	1.948
0.005	-0.005	0.000	0.005	0.005	0.010	0.034	2.681	1.924	1.924	1.924	1.943	1.938	1.943
-0.005	0.010	0.000	0.005	-0.005	0.010	0.034	2.671	1.924	1.924	1.924	1.943	1.938	1.943
-0.010	0.015	0.000	0.005	-0.005	0.010	0.034	2.651	1.919	1.929	1.924	1.943	1.938	1.943
0.000	0.015	-0.005	0.010	-0.015	0.010	0.034	2.661	1.924	1.924	1.924	1.943	1.934	1.943
-0.015	0.020	0.000	0.010	-0.005	-0.005	0.034	2.646	1.914	1.924	1.924	1.943	1.938	1.938
-0.005	-0.005	0.005	0.000	0.005	0.020	0.034	2.651	1.914	1.914	1.919	1.943	1.943	1.943
-0.005	0.000	0.005	-0.005	0.010	0.015	0.034	2.656	1.914	1.914	1.919	1.938	1.938	1.943
-0.005	-0.005	0.005	0.005	0.005	0.000	0.039	2.778	1.929	1.919	1.919	1.943	1.938	1.938
-0.005	-0.020	0.005	0.010	0.000	-0.015	0.039	2.627	1.919	1.914	1.919	1.938	1.938	1.934
0.005	-0.005	0.005	0.005	0.005	-0.005	0.039	2.642	1.914	1.919	1.914	1.934	1.934	1.938
0.005	-0.010	0.005	0.005	0.000	0.005	0.039	2.686	1.919	1.914	1.914	1.938	1.934	1.934
0.005	-0.010	0.010	0.000	0.005	0.010	0.034	2.681	1.919	1.914	1.914	1.934	1.934	1.938
0.015	-0.010	0.005	-0.005	0.005	0.000	0.034	2.666	1.914	1.914	1.914	1.929	1.934	1.934
0.005	-0.005	0.005	-0.005	0.000	-0.015	0.034	2.676	1.914	1.914	1.914	1.934	1.929	1.929
0.000	0.010	0.000	0.000	0.000	0.000	0.034	2.676	1.919	1.919	1.914	1.934	1.929	1.929
0.020	0.000	-0.005	0.005	0.000	-0.020	0.034	2.666	1.914	1.914	1.914	1.934	1.929	1.924
-0.005	0.015	-0.010	0.005	0.015	0.000	0.034	2.671	1.909	1.914	1.914	1.934	1.934	1.934
-0.005	0.020	0.000	0.000	0.005	0.010	0.034	2.661	1.914	1.914	1.914	1.934	1.929	1.934
-0.005	0.015	-0.005	0.005	0.000	0.010	0.039	2.661	1.909	1.914	1.914	1.934	1.929	1.934
-0.005	0.024	-0.005	0.010	0.005	0.010	0.034	2.632	1.909	1.919	1.914	1.934	1.934	1.934
-0.005	0.015	-0.005	0.010	0.010	0.010	0.034	2.661	1.909	1.909	1.914	1.934	1.929	1.934
-0.010	0.005	-0.005	0.005	0.010	0.010	0.039	2.676	1.909	1.909	1.909	1.929	1.934	1.934
0.000	0.005	-0.005	0.005	0.010	0.005	0.039	2.666	1.914	1.909	1.909	1.934	1.929	1.934
0.010	0.000	0.000	0.000	0.000	-0.010	0.034	2.671	1.919	1.909	1.909	1.929	1.924	1.924
0.005	-0.005	0.000	0.000	-0.010	0.005	0.034	2.661	1.914	1.909	1.909	1.929	1.924	1.929
0.015	-0.010	0.010	-0.005	-0.020	0.000	0.039	2.754	1.924	1.914	1.909	1.929	1.919	1.924
0.010	-0.005	0.005	-0.005	-0.020	0.000	0.039	2.676	1.919	1.914	1.909	1.924	1.919	1.924
0.010	-0.015	0.000	-0.005	-0.005	0.000	0.039	2.686	1.919	1.909	1.909	1.929	1.924	1.924
0.015	-0.015	0.005	-0.005	-0.005	0.005	0.034	2.676	1.914	1.909	1.909	1.929	1.924	1.924
0.015	-0.005	0.010	0.000	-0.005	0.005	0.034	2.681	1.914	1.914	1.909	1.929	1.924	1.924
0.010	0.010	0.000	0.005	0.005	-0.010	0.039	2.671	1.914	1.919	1.909	1.929	1.924	1.919
0.005	0.015	0.000	0.005	0.010	0.005	0.034	2.666	1.909	1.914	1.909	1.934	1.929	1.929
0.000	0.000	0.000	0.000	0.005	-0.005	0.039	2.656	1.904	1.909	1.909	1.929	1.924	1.924
-0.005	0.010	0.000	0.005	0.015	0.005	0.034	2.744	1.914	1.914	1.909	1.934	1.929	1.929
-0.015	0.010	0.000	0.010	0.020	0.005	0.034	2.661	1.909	1.914	1.909	1.929	1.934	1.929
-0.020	0.015	0.000	0.005	0.015	0.010	0.034	2.671	1.904	1.909	1.909	1.929	1.929	1.929
-0.005	0.010	0.000	0.005	0.005	0.010	0.034	2.681	1.909	1.909	1.909	1.929	1.924	1.929
-0.010	0.015	0.000	0.005	0.000	-0.005	0.039	2.681	1.914	1.914	1.909	1.929	1.919	1.919
-0.005	0.005	-0.005	0.005	0.000	-0.005	0.039	2.676	1.909	1.909	1.909	1.929	1.924	1.924
-0.005	-0.005	0.000	0.000	0.005	0.005	0.034	2.666	1.909	1.904	1.909	1.929	1.924	1.924
-0.005	0.000	0.005	-0.005	-0.005	-0.005	0.039	2.666	1.909	1.909	1.904	1.929	1.924	1.924
0.005	-0.015	0.010	0.000	0.000	0.005	0.034	2.666	1.909	1.904	1.904	1.929	1.924	1.924
0.015	-0.015	0.005	0.000	0.000	-0.010	0.039	2.646	1.904	1.904	1.904	1.924	1.919	1.919
0.010	-0.020	0.010	-0.005	-0.005	0.015	0.034	2.671	1.904	1.899	1.904	1.924	1.919	1.924
0.000	-0.029	0.000	-0.005	-0.005	0.005	0.039	2.642	1.899	1.899	1.899	1.919	1.919	1.919
0.010	-0.020	0.000	-0.005	-0.005	0.000	0.034	2.793	1.914	1.904	1.899	1.919	1.919	1.919
0.005	-0.015	0.000	-0.005	-0.005	0.000	0.034	2.666	1.909	1.904	1.899	1.919	1.914	1.919
-0.005	-0.005	0.000	-0.005	-0.005	-0.024	0.034	2.656	1.904	1.909	1.899	1.919	1.914	1.914
-0.005	0.005	0.000	0.000	0.005	0.010	0.034	2.666	1.904	1.909	1.904	1.924	1.919	1.919
-0.005	0.015	0.000	0.000	0.010	0.005	0.034	2.642	1.904	1.909	1.904	1.919	1.919	1.919
0.000	0.015	-0.005	0.000	0.000	0.005	0.034	2.681	1.909	1.909	1.904	1.919	1.914	1.919
-0.005	0.024	0.000	0.000	0.000	0.000	0.034	2.671	1.904	1.909	1.904	1.924	1.914	1.914
-0.005	0.034	0.000	0.005	0.000	-0.010	0.034	2.671	1.909	1.909	1.909	1.924	1.914	1.914
0.000	0.029	0.000	0.000	0.000	0.005	0.039	2.666	1.909	1.909	1.904	1.924	1.919	1.919
0.000	0.015	-0.005	-0.005	0.000	0.010	0.039	2.671	1.904	1.904	1.904	1.924	1.919	1.919
0.005	0.010	0.000	0.000	-0.005	0.000	0.034	2.666	1.904	1.904	1.904	1.924	1.919	1.919
0.010	0.005	0.000	0.000	0.000	0.010	0.034	2.646	1.904	1.899	1.904	1.924	1.919	1.919
0.005	-0.005	0.005	0.000	0.010	0.015	0.034	2.642	1.895	1.899	1.904	1.924	1.924	1.924
0.005	-0.005	0.005	-0.005	0.000	-0.015	0.034	2.661	1.895	1.895	1.899	1.919	1.919	1.914
0.005	-0.010	0.000	-0.005	0.000	0.005	0.034	2.632	1.895	1.890	1.899	1.919	1.919	1.919
0.010	-0.010	0.000	-0.010	0.000	-0.010	0.034	2.661	1.899	1.895	1.895	1.914	1.914	1.914
0.010	-0.010	0.010	-0.010	0.000	0.000	0.039	2.671	1.895	1.895	1.895	1.914	1.914	1.914
0.010	-0.015	0.010	-0.010	0.005	0.005	0.034	2.617	1.890	1.890	1.895	1.914	1.914	1.914
0.000	0.000	0.005	-0.005	0.010	-0.005	0.034	2.808	1.895	1.895	1.895	1.914	1.914	1.909
0.000	-0.010	0.010	0.000	0.015	0.005	0.039	2.637	1.890	1.890	1.895	1.914	1.914	1.914
-0.010	0.005	0.005	0.005	0.015	0.000	0.039	2.666	1.890	1.895	1.890	1.914	1.914	1.914
-0.020	0.015	0.000	0.000	0.005	-0.005	0.039	2.681	1.890	1.895	1.895	1.914	1.909	1.914
-0.015	0.020	0.005	0.000	0.000	-0.034	0.039	2.661	1.895	1.895	1.895	1.914	1.909	1.904
-0.015	0.015	0.005	0.010	0.005	-0.020	0.034	2.690	1.895	1.895	1.895	1.914	1.909	1.909
-0.015	0.020	-0.005	0.010	0.000	-0.005	0.034	2.681	1.899	1.899	1.895	1.914	1.909	1.914
-0.010	0.010	-0.005	0.010	-0.010	0.010	0.034	2.690	1.904	1.895	1.890	1.914	1.904	1.914
-0.020	0.005	-0.005	0.005	-0.039	-0.005	0.034	2.686	1.899	1.895	1.890	1.909	1.899	1.904
-0.005	-0.024	-0.005	0.005	-0.039	-0.010	0.034	2.700	1.909	1.890	1.890	1.909	1.899	1.899
-0.010	-0.010	0.000	0.005	-0.029	-0.010	0.034	2.676	1.904	1.895	1.890	1.909	1.904	1.904
0.000	-0.029	0.000	0.000	-0.020	0.020	0.034	2.690	1.904	1.895	1.890	1.909	1.909	1.909
0.010	-0.020	-0.005	0.000	0.010	0.005	0.034	2.676	1.904	1.899	1.895	1.909	1.914	1.909
0.005	-0.015	0.005	0.000	0.000	0.015	0.034	2.681	1.909	1.904	1.895	1.909	1.909	1.909
0.015	-0.020	0.010	0.000	-0.015	-0.005	0.039	2.695	1.904	1.899	1.899	1.909	1.899	1.899
0.010	-0.020	0.005	0.000	0.000	0.015	0.034	2.656	1.899	1.899	1.899	1.914	1.909	1.914
0.005	0.005	0.005	0.000	0.015	0.010	0.039	2.676	1.904	1.909	1.899	1.914	1.914	1.909
0.020	0.010	0.000	0.010	0.010	-0.010	0.039	2.666	1.899	1.904	1.899	1.919	1.909	1.904
0.000	0.015	0.000	0.005	0.010	0.015	0.034	2.676	1.895	1.904	1.899	1.914	1.909	1.914
0.005	0.005	0.000	0.000	0.005	0.005	0.039	2.671	1.895	1.899	1.899	1.914	1.909	1.909
-0.005	0.020	-0.005	0.005	0.029	0.000	0.034	2.686	1.895	1.899	1.899	1.919	1.919	1.909
0.000	0.015	-0.005	0.000	0.020	-0.015	0.034	2.695	1.899	1.899	1.899	1.914	1.909	1.904
-0.010	0.010	-0.005	0.005	0.005	0.005	0.034	2.705	1.899	1.899	1.899	1.919	1.909	1.914
-0.015	0.020	-0.005	0.000	0.005	0.010	0.034	2.681	1.899	1.899	1.899	1.919	1.909	1.914
-0.005	0.015	-0.005	0.000	0.005	-0.005	0.034	2.666	1.899	1.899	1.899	1.914	1.914	1.909
0.000	0.010	-0.005	0.000	0.010	0.015	0.039	2.695	1.904	1.895	1.895	1.914	1.914	1.914
-0.005	0.005	0.000	-0.005	0.005	0.005	0.034	2.671	1.899	1.899	1.899	1.914	1.909	1.914
-0.005	0.000	0.005	-0.005	-0.005	0.000	0.039	2.671	1.899	1.895	1.899	1.914	1.909	1.909
0.005	-0.005	0.005	-0.005	0.005	0.010	0.039	2.686	1.904	1.899	1.895	1.914	1.909	1.909
0.010	-0.015	0.005	0.000	-0.005	0.000	0.039	2.666	1.899	1.895	1.895	1.914	1.909	1.909
0.005	-0.020	0.000	0.000	0.005	0.000	0.034	2.690	1.899	1.890	1.895	1.914	1.909	1.909
0.010	-0.024	0.005	0.000	0.000	0.000	0.034	2.671	1.899	1.890	1.890	1.914	1.909	1.909
0.010	-0.020	0.005	0.000	0.000	0.000	0.034	2.690	1.899	1.895	1.895	1.914	1.909	1.909
0.010	-0.015	0.005	0.000	0.000	-0.024	0.034	2.666	1.899	1.899	1.890	1.909	1.904	1.899
0.020	-0.005	0.000	-0.005	-0.005	-0.029	0.034	2.686	1.899	1.899	1.895	1.909	1.904	1.904
0.015	0.000	0.005	-0.005	0.000	0.010	0.034	2.681	1.895	1.904	1.895	1.909	1.909	1.914
0.010	0.010	0.000	0.000	0.000	0.005	0.034	2.676	1.899	1.904	1.895	1.914	1.909	1.909
0.000	0.010	-0.005	0.000	-0.005	0.015	0.034	2.690	1.895	1.899	1.899	1.914	1.909	1.909
0.000	0.020	0.000	0.000	0.000	-0.024	0.034	2.705	1.899	1.899	1.899	1.914	1.909	1.899
0.000	0.015	-0.005	0.000	0.005	0.005	0.034	2.651	1.895	1.899	1.899	1.919	1.914	1.914
-0.005	0.024	0.000	0.015	0.000	-0.005	0.034	2.686	1.895	1.899	1.899	1.919	1.909	1.914
-0.015	0.020	0.005	0.005	0.005	0.005	0.034	2.686	1.890	1.895	1.899	1.919	1.914	1.914
-0.005	0.015	-0.010	0.005	0.000	0.000	0.039	2.671	1.899	1.895	1.895	1.914	1.909	1.914
-0.005	0.015	-0.005	0.000	-0.010	0.010	0.034	2.690	1.899	1.899	1.895	1.914	1.909	1.914
-0.005	0.005	-0.005	0.000	-0.015	0.005	0.034	2.681	1.899	1.895	1.895	1.914	1.904	1.914
0.000	-0.005	0.000	0.000	-0.005	-0.020	0.034	2.681	1.904	1.890	1.895	1.914	1.909	1.899
0.000	-0.020	0.000	0.000	0.000	-0.005	0.034	2.700	1.904	1.890	1.895	1.914	1.909	1.909
0.010	-0.010	0.005	-0.005	0.005	0.000	0.034	2.671	1.899	1.899	1.895	1.909	1.909	1.909
0.015	-0.005	0.010	0.000	-0.005	-0.005	0.034	2.686	1.904	1.899	1.895	1.909	1.904	1.904
0.010	-0.010	0.005	-0.005	-0.005	0.005	0.034	2.676	1.899	1.895	1.895	1.909	1.909	1.909
0.010	0.000	0.000	-0.005	-0.005	-0.005	0.034	2.676	1.899	1.899	1.895	1.909	1.904	1.904
0.015	0.000	0.005	-0.005	-0.005	-0.005	0.034	2.695	1.895	1.899	1.895	1.914	1.909	1.904
0.000	0.000	-0.005	-0.005	0.020	-0.005	0.034	2.681	1.895	1.895	1.895	1.914	1.914	1.909
0.000	0.010	0.000	0.010	0.020	0.000	0.034	2.686	1.899	1.899	1.895	1.919	1.914	1.909
0.005	0.024	-0.005	0.005	0.005	-0.015	0.034	2.690	1.899	1.904	1.899	1.914	1.909	1.904
-0.010	0.015	-0.005	0.000	-0.005	0.005	0.034	2.676	1.899	1.899	1.899	1.914	1.909	1.914
-0.015	0.015	-0.005	0.005	-0.005	0.000	0.039	2.676	1.895	1.895	1.895	1.914	1.909	1.909
0.010	0.015	-0.005	0.015	0.010	0.005	0.034	2.676	1.899	1.895	1.895	1.914	1.914	1.914
0.010	0.015	-0.010	0.010	0.010	0.010	0.034	2.681	1.904	1.899	1.895	1.914	1.914	1.914
0.000	0.010	0.000	0.005	0.005	0.010	0.034	2.676	1.899	1.895	1.895	1.914	1.909	1.914
0.000	0.000	-0.005	0.010	0.005	0.010	0.034	2.686	1.895	1.895	1.895	1.914	1.909	1.914
0.005	-0.010	0.000	0.005	0.000	0.005	0.034	2.686	1.899	1.895	1.895	1.914	1.909	1.909
0.005	-0.020	0.000	0.000	0.005	0.005	0.034	2.676	1.899	1.890	1.895	1.909	1.909	1.909
0.000	-0.020	0.005	-0.005	0.005	-0.010	0.034	2.661	1.895	1.890	1.895	1.909	1.904	1.904
0.010	-0.015	0.005	0.000	-0.005	-0.010	0.034	2.671	1.895	1.895	1.890	1.909	1.904	1.904
0.005	-0.015	0.005	0.005	-0.005	0.010	0.034	2.671	1.895	1.890	1.895	1.909	1.909	1.909
0.005	-0.015	0.010	0.000	0.010	0.005	0.034	2.671	1.895	1.895	1.890	1.909	1.909	1.909
0.000	0.000	0.010	0.000	0.010	-0.005	0.034	2.686	1.895	1.899	1.890	1.909	1.909	1.909
-0.005	0.015	0.000	0.005	0.005	0.015	0.034	2.686	1.895	1.899	1.895	1.909	1.904	1.909
-0.010	-0.010	0.005	0.005	0.000	0.010	0.034	2.676	1.895	1.890	1.890	1.909	1.904	1.904
0.000	-0.005	0.005	0.000	0.000	0.015	0.034	2.700	1.899	1.895	1.890	1.909	1.904	1.909
-0.005	0.000	-0.010	0.010	-0.005	0.000	0.034	2.690	1.899	1.895	1.890	1.909	1.904	1.904
-0.020	0.000	-0.005	0.000	-0.005	0.005	0.034	2.686	1.895	1.895	1.890	1.909	1.904	1.904
-0.024	0.000	-0.010	0.010	-0.005	0.010	0.034	2.671	1.895	1.895	1.895	1.909	1.904	1.909
-0.015	0.005	-0.005	0.005	-0.010	0.005	0.034	2.676	1.899	1.895	1.895	1.909	1.904	1.904
-0.010	0.005	0.000	0.010	0.000	0.000	0.034	2.671	1.899	1.899	1.895	1.909	1.909	1.904
0.000	0.005	0.000	0.005	-0.005	0.005	0.034	2.671	1.899	1.895	1.895	1.909	1.904	1.904
0.010	-0.015	0.000	0.005	0.010	0.005	0.034	2.676	1.899	1.890	1.890	1.909	1.914	1.904
0.010	0.000	0.000	0.000	0.015	0.005	0.034	2.686	1.904	1.899	1.895	1.914	1.909	1.909
0.010	0.000	0.000	0.000	0.000	-0.015	0.034	2.656	1.895	1.895	1.895	1.909	1.904	1.904
0.005	0.010	0.005	-0.005	-0.005	-0.005	0.034	2.686	1.895	1.895	1.899	1.909	1.904	1.904
0.015	-0.005	0.005	-0.010	-0.005	-0.010	0.034	2.690	1.899	1.895	1.895	1.909	1.904	1.904
0.010	0.000	0.005	-0.005	0.005	-0.010	0.034	2.666	1.895	1.895	1.895	1.909	1.909	1.904
0.015	0.000	0.005	-0.005	0.000	-0.015	0.039	2.676	1.895	1.895	1.895	1.909	1.904	1.899
0.005	-0.005	-0.005	-0.005	0.010	0.000	0.034	2.686	1.895	1.890	1.890	1.914	1.909	1.909
0.000	0.005	-0.005	-0.010	0.020	-0.005	0.039	2.695	1.899	1.895	1.890	1.909	1.909	1.909
0.000	0.010	-0.010	-0.005	0.015	-0.005	0.034	2.671	1.895	1.895	1.890	1.909	1.909	1.909
0.005	0.024	-0.005	0.010	0.015	0.000	0.034	2.686	1.899	1.895	1.890	1.914	1.909	1.909
-0.010	0.020	-0.005	0.015	0.005	0.010	0.039	2.690	1.899	1.895	1.895	1.914	1.904	1.914
0.000	0.015	-0.010	0.010	0.000	0.010	0.034	2.690	1.899	1.899	1.895	1.914	1.904	1.909
-0.005	0.015	-0.005	0.000	0.000	0.005	0.034	2.686	1.899	1.899	1.895	1.914	1.909	1.909
-0.005	0.015	-0.005	0.000	-0.024	0.010	0.034	2.681	1.899	1.895	1.895	1.909	1.899	1.904
-0.005	0.005	0.000	0.000	-0.024	0.000	0.034	2.676	1.899	1.895	1.895	1.909	1.904	1.904
0.005	0.000	0.000	0.000	-0.020	0.005	0.034	2.686	1.899	1.895	1.895	1.909	1.904	1.904
0.010	-0.005	0.005	-0.005	-0.015	0.000	0.034	2.686	1.899	1.895	1.895	1.909	1.904	1.904
0.010	-0.005	0.005	-0.005	-0.010	0.010	0.034	2.690	1.899	1.895	1.895	1.909	1.909	1.909
0.005	-0.010	0.000	-0.005	-0.005	0.015	0.039	2.671	1.895	1.890	1.895	1.909	1.909	1.909
0.005	-0.024	0.010	0.000	0.005	-0.005	0.034	2.676	1.895	1.890	1.895	1.909	1.909	1.904
0.000	-0.020	0.015	0.000	-0.005	0.000	0.039	2.671	1.895	1.890	1.890	1.909	1.904	1.904
0.010	-0.020	0.010	0.000	-0.010	0.010	0.039	2.681	1.895	1.890	1.890	1.909	1.904	1.909
-0.005	-0.010	0.005	0.000	-0.020	0.005	0.039	2.681	1.895	1.890	1.890	1.909	1.899	1.904
-0.005	-0.005	0.000	0.005	0.015	0.000	0.034	2.690	1.899	1.895	1.890	1.909	1.914	1.904
-0.005	0.000	0.005	0.005	0.039	-0.005	0.039	2.656	1.895	1.899	1.890	1.909	1.919	1.909
-0.005	-0.005	0.000	0.005	0.039	0.005	0.034	2.695	1.895	1.895	1.895	1.909	1.914	1.914
0.000	0.015	0.000	0.005	0.020	0.000	0.039	2.666	1.899	1.899	1.895	1.909	1.904	1.904
-0.005	-0.010	0.000	0.000	-0.005	0.005	0.034	2.671	1.895	1.890	1.895	1.909	1.899	1.909
0.000	0.000	0.000	0.000	-0.010	-0.010	0.034	2.686	1.899	1.899	1.895	1.909	1.899	1.904
-0.005	-0.015	0.000	0.005	-0.005	-0.005	0.034	2.690	1.899	1.895	1.895	1.914	1.904	1.904
-0.005	-0.005	0.000	0.005	0.000	0.005	0.034	2.686	1.899	1.899	1.895	1.914	1.909	1.909
-0.005	-0.005	0.005	0.000	0.015	-0.010	0.034	2.695	1.899	1.895	1.895	1.914	1.909	1.904
0.005	-0.010	-0.005	0.005	0.010	-0.015	0.034	2.651	1.895	1.895	1.895	1.914	1.909	1.904
0.015	-0.024	0.000	0.005	0.020	0.005	0.034	2.666	1.895	1.890	1.890	1.909	1.909	1.914
0.010	-0.024	0.000	0.000	0.010	0.010	0.034	2.676	1.895	1.895	1.890	1.909	1.909	1.909
0.005	-0.015	0.005	0.000	0.010	-0.015	0.034	2.671	1.890	1.895	1.895	1.909	1.904	1.904
0.005	0.010	0.000	0.000	0.000	-0.005	0.039	2.676	1.895	1.899	1.895	1.909	1.899	1.909
0.005	0.005	0.005	-0.005	-0.015	-0.005	0.034	2.676	1.890	1.895	1.895	1.914	1.899	1.904
0.000	0.005	0.005	-0.005	-0.005	-0.015	0.034	2.681	1.890	1.890	1.895	1.909	1.904	1.904
0.005	0.005	0.000	0.000	0.000	0.000	0.034	2.705	1.895	1.890	1.890	1.909	1.904	1.909
0.000	-0.010	0.000	0.000	-0.005	0.005	0.034	2.690	1.899	1.890	1.890	1.909	1.904	1.904
-0.005	0.005	0.000	0.005	-0.005	-0.005	0.034	2.676	1.895	1.895	1.890	1.909	1.904	1.904
-0.005	0.020	-0.005	0.005	-0.005	-0.005	0.034	2.676	1.895	1.899	1.895	1.909	1.904	1.904
-0.010	0.010	0.000	0.005	-0.005	0.005	0.034	2.681	1.895	1.895	1.895	1.914	1.904	1.909
-0.010	0.015	0.010	0.010	-0.015	0.000	0.034	2.666	1.890	1.895	1.895	1.914	1.904	1.904
-0.015	0.015	0.000	0.005	0.015	0.010	0.034	2.695	1.899	1.895	1.890	1.914	1.914	1.909
-0.005	0.015	0.000	0.015	0.015	0.005	0.034	2.676	1.899	1.899	1.895	1.914	1.914	1.909
0.000	0.020	0.000	0.000	0.005	0.005	0.034	2.676	1.899	1.899	1.895	1.909	1.904	1.909
0.000	0.015	0.000	-0.010	-0.010	0.005	0.034	2.651	1.895	1.899	1.895	1.904	1.899	1.904
0.010	0.020	0.005	-0.010	0.010	0.005	0.034	2.681	1.899	1.899	1.895	1.909	1.909	1.904
0.015	0.024	-0.005	-0.005	-0.005	-0.024	0.034	2.666	1.895	1.899	1.895	1.909	1.904	1.899
0.020	0.010	0.005	-0.010	-0.010	0.005	0.034	2.681	1.895	1.895	1.895	1.909	1.899	1.904
0.020	0.005	0.005	-0.010	-0.010	0.005	0.034	2.681	1.895	1.890	1.895	1.909	1.904	1.904
0.020	0.000	0.005	-0.005	0.010	0.000	0.039	2.686	1.899	1.890	1.895	1.914	1.909	1.904
0.010	0.000	0.005	0.000	0.020	0.015	0.034	2.681	1.890	1.890	1.890	1.914	1.909	1.909
0.005	0.005	0.005	-0.005	0.015	0.010	0.039	2.700	1.899	1.895	1.890	1.909	1.909	1.909
0.005	0.000	0.005	0.000	0.000	0.015	0.034	2.681	1.895	1.890	1.890	1.909	1.904	1.909
0.000	-0.010	0.000	0.005	0.000	0.010	0.034	2.681	1.890	1.890	1.890	1.909	1.904	1.909
0.000	-0.005	0.000	0.005	0.010	0.005	0.034	2.681	1.890	1.890	1.890	1.909	1.909	1.909
-0.015	0.000	0.000	0.015	0.000	0.005	0.034	2.690	1.895	1.890	1.890	1.909	1.904	1.904
-0.005	0.000	-0.005	0.010	-0.005	0.000	0.034	2.666	1.895	1.895	1.890	1.909	1.904	1.904
-0.010	0.005	-0.005	0.010	-0.010	-0.005	0.034	2.681	1.890	1.895	1.890	1.909	1.904	1.899
-0.010	0.005	-0.005	0.010	-0.010	-0.024	0.034	2.671	1.895	1.895	1.890	1.909	1.904	1.899
-0.005	0.010	-0.005	0.000	0.000	-0.010	0.034	2.700	1.899	1.895	1.890	1.909	1.909	1.904
-0.005	0.000	-0.010	0.000	0.029	-0.010	0.034	2.686	1.899	1.895	1.890	1.909	1.914	1.909
0.005	-0.010	-0.005	0.005	0.020	0.005	0.034	2.676	1.899	1.895	1.890	1.909	1.909	1.909
-0.005	0.005	0.000	0.000	0.015	0.005	0.034	2.666	1.895	1.895	1.895	1.909	1.909	1.909
0.005	-0.015	0.000	-0.005	0.010	0.005	0.034	2.676	1.895	1.890	1.895	1.909	1.904	1.909
0.010	-0.020	0.005	0.000	0.000	0.005	0.034	2.676	1.895	1.890	1.890	1.909	1.899	1.904
0.005	-0.010	0.000	-0.005	-0.020	0.000	0.034	2.676	1.899	1.895	1.890	1.909	1.895	1.904
0.020	-0.020	0.005	0.000	-0.034	-0.005	0.034	2.686	1.895	1.890	1.890	1.909	1.895	1.899
0.010	-0.015	0.005	0.000	-0.034	0.020	0.034	2.700	1.895	1.890	1.890	1.909	1.899	1.904
0.010	0.000	0.005	-0.005	-0.020	0.015	0.034	2.661	1.895	1.899	1.890	1.904	1.904	1.904
0.000	0.010	0.005	-0.005	-0.015	0.010	0.034	2.695	1.895	1.895	1.895	1.909	1.904	1.899
0.000	0.024	0.005	0.000	-0.010	0.015	0.039	2.656	1.890	1.899	1.895	1.909	1.909	1.904
0.005	0.020	-0.005	-0.005	0.010	0.010	0.034	2.676	1.895	1.899	1.895	1.914	1.914	1.904
-0.005	0.005	0.000	0.005	0.029	0.000	0.034	2.671	1.890	1.890	1.895	1.909	1.914	1.904
-0.005	0.015	0.000	0.005	0.015	0.000	0.034	2.690	1.895	1.895	1.890	1.914	1.909	1.909
-0.005	0.015	-0.005	0.015	0.015	-0.020	0.034	2.681	1.890	1.890	1.895	1.914	1.909	1.899
0.000	0.000	0.000	0.015	0.015	0.015	0.034	2.690	1.904	1.895	1.890	1.914	1.909	1.914
0.000	0.010	-0.005	0.015	0.010	0.000	0.034	2.681	1.899	1.895	1.890	1.914	1.909	1.909
-0.005	0.010	0.000	0.015	0.005	0.005	0.034	2.681	1.895	1.890	1.890	1.909	1.904	1.909
-0.005	0.000	0.005	0.005	-0.010	-0.029	0.039	2.666	1.895	1.895	1.890	1.909	1.899	1.899
0.000	-0.005	0.005	0.005	-0.005	-0.020	0.034	2.676	1.895	1.890	1.890	1.909	1.904	1.904
-0.005	-0.005	0.005	-0.005	0.000	0.005	0.034	2.676	1.890	1.890	1.890	1.904	1.909	1.909
0.000	-0.010	0.010	-0.005	0.010	-0.005	0.034	2.681	1.890	1.890	1.890	1.904	1.904	1.909
0.000	-0.015	0.005	-0.010	0.000	0.010	0.034	2.686	1.895	1.890	1.890	1.904	1.899	1.909
0.000	-0.010	0.005	-0.005	0.000	0.005	0.034	2.695	1.895	1.890	1.890	1.904	1.904	1.904
0.005	-0.010	0.000	-0.010	0.005	-0.005	0.034	2.681	1.899	1.890	1.890	1.904	1.899	1.904
0.000	0.000	0.000	-0.005	0.000	0.000	0.039	2.681	1.895	1.895	1.890	1.904	1.899	1.904
-0.005	0.005	0.000	0.000	0.000	-0.020	0.034	2.676	1.890	1.890	1.890	1.909	1.899	1.895
0.000	0.005	0.000	0.005	0.029	0.000	0.034	2.676	1.895	1.895	1.890	1.909	1.909	1.904
-0.010	-0.010	-0.005	0.005	0.029	-0.015	0.034	2.671	1.890	1.890	1.890	1.909	1.909	1.899
0.000	-0.005	-0.005	0.005	0.005	0.000	0.039	2.671	1.890	1.890	1.890	1.909	1.899	1.909
0.000	0.000	-0.005	0.005	-0.005	0.000	0.034	2.690	1.895	1.895	1.890	1.909	1.899	1.904
0.000	0.029	-0.005	0.010	-0.010	0.015	0.034	2.681	1.899	1.904	1.895	1.909	1.899	1.904
0.000	0.020	0.000	0.005	-0.005	0.015	0.034	2.671	1.895	1.899	1.895	1.909	1.904	1.904
0.000	0.015	-0.005	0.010	0.005	0.015	0.039	2.666	1.895	1.895	1.895	1.914	1.909	1.909
0.005	0.005	0.005	0.000	0.000	0.005	0.034	2.681	1.899	1.890	1.895	1.909	1.904	1.904
0.010	-0.005	0.000	0.000	0.000	-0.010	0.034	2.676	1.899	1.890	1.890	1.909	1.904	1.899
0.000	-0.010	0.005	0.000	0.005	-0.020	0.034	2.690	1.895	1.885	1.890	1.909	1.904	1.899
0.005	-0.034	0.005	0.005	0.010	0.010	0.034	2.671	1.895	1.880	1.885	1.909	1.904	1.909
0.015	-0.039	0.010	0.000	0.000	-0.020	0.034	2.676	1.895	1.885	1.885	1.904	1.904	1.904
0.015	-0.034	-0.005	0.000	-0.015	0.005	0.034	2.695	1.895	1.890	1.885	1.904	1.895	1.904
0.010	-0.020	0.000	-0.005	-0.029	-0.005	0.034	2.661	1.890	1.890	1.885	1.904	1.895	1.899
0.005	-0.020	-0.005	0.000	-0.020	-0.029	0.034	2.676	1.890	1.895	1.885	1.904	1.899	1.890
0.015	-0.010	0.000	-0.005	-0.010	-0.005	0.034	2.656	1.890	1.895	1.890	1.904	1.899	1.904
0.005	0.000	-0.005	0.000	0.005	0.000	0.034	2.681	1.890	1.890	1.890	1.904	1.904	1.904
-0.005	0.015	0.005	0.000	0.015	0.020	0.034	2.686	1.890	1.895	1.890	1.909	1.909	1.909
-0.010	0.005	0.000	0.005	0.020	0.015	0.034	2.686	1.890	1.895	1.895	1.909	1.909	1.909
-0.005	0.000	-0.005	0.005	0.029	0.000	0.034	2.681	1.890	1.890	1.890	1.909	1.909	1.909
-0.010	0.010	-0.005	0.010	-0.010	0.020	0.034	2.686	1.895	1.895	1.890	1.909	1.899	1.909
-0.005	0.015	-0.005	0.010	-0.010	-0.005	0.034	2.671	1.899	1.899	1.890	1.909	1.899	1.899
-0.010	0.024	-0.005	0.010	-0.020	0.010	0.034	2.676	1.890	1.899	1.895	1.909	1.899	1.904
-0.005	0.020	-0.005	0.005	-0.024	-0.020	0.034	2.671	1.895	1.895	1.895	1.909	1.895	1.895
-0.005	0.005	0.000	0.005	-0.044	-0.034	0.034	2.676	1.895	1.890	1.890	1.909	1.895	1.885
0.005	0.005	0.005	0.000	0.000	-0.029	0.034	2.681	1.895	1.890	1.895	1.909	1.914	1.899
-0.005	-0.005	0.005	-0.005	0.039	-0.020	0.034	2.681	1.895	1.890	1.890	1.909	1.919	1.904
-0.005	0.000	0.010	-0.005	0.063	-0.005	0.034	2.661	1.890	1.890	1.890	1.909	1.924	1.914
0.005	0.000	0.010	-0.005	0.029	0.010	0.034	2.676	1.895	1.890	1.890	1.904	1.909	1.914
0.005	-0.010	0.005	-0.005	0.029	-0.005	0.034	2.671	1.895	1.885	1.885	1.909	1.904	1.909
0.005	0.000	0.005	-0.005	0.000	0.010	0.034	2.676	1.895	1.890	1.885	1.904	1.899	1.909
0.000	-0.010	0.005	-0.010	-0.015	0.020	0.034	2.686	1.895	1.890	1.885	1.904	1.895	1.909
0.000	0.000	0.000	-0.005	-0.015	0.020	0.034	2.671	1.895	1.890	1.885	1.904	1.895	1.904
0.010	0.000	0.000	0.000	-0.010	0.029	0.034	2.681	1.899	1.895	1.890	1.904	1.899	1.904
-0.005	0.005	0.000	0.005	-0.010	0.000	0.034	2.695	1.895	1.895	1.890	1.909	1.899	1.899
0.005	0.010	0.000	0.005	0.015	0.010	0.034	2.690	1.899	1.895	1.890	1.909	1.904	1.904
0.000	0.015	0.000	0.010	0.034	0.000	0.034	2.686	1.895	1.895	1.890	1.914	1.914	1.899
-0.010	0.010	-0.005	0.010	0.049	-0.005	0.034	2.676	1.895	1.895	1.895	1.909	1.914	1.909
-0.005	0.010	-0.005	0.015	0.015	0.015	0.034	2.676	1.895	1.895	1.895	1.909	1.904	1.909
0.000	0.015	0.000	0.010	0.010	0.010	0.034	2.671	1.895	1.899	1.895	1.914	1.904	1.904
0.000	0.000	-0.005	0.010	0.005	0.005	0.034	2.656	1.895	1.890	1.895	1.909	1.899	1.904
0.015	0.010	-0.005	0.000	-0.010	-0.010	0.034	2.676	1.899	1.895	1.895	1.909	1.899	1.899
0.005	-0.010	0.000	0.000	-0.034	0.000	0.034	2.686	1.890	1.890	1.890	1.909	1.895	1.899
0.005	0.000	0.000	-0.005	-0.044	-0.010	0.034	2.671	1.890	1.890	1.890	1.904	1.895	1.895
-0.005	-0.010	0.005	-0.010	-0.049	-0.010	0.034	2.676	1.890	1.885	1.890	1.904	1.895	1.890
0.010	-0.015	0.000	-0.005	-0.044	-0.020	0.034	2.676	1.890	1.885	1.885	1.904	1.895	1.890
0.000	-0.015	-0.005	0.000	-0.044	-0.024	0.034	2.671	1.890	1.885	1.885	1.909	1.899	1.890
-0.005	-0.015	0.000	0.000	-0.024	-0.005	0.034	2.681	1.890	1.885	1.885	1.904	1.904	1.899
-0.005	-0.015	0.005	0.000	0.000	-0.020	0.034	2.681	1.890	1.885	1.885	1.904	1.909	1.899
0.000	0.000	0.000	0.000	0.039	-0.010	0.034	2.681	1.890	1.890	1.885	1.904	1.919	1.904
0.000	0.005	0.000	0.000	0.054	-0.010	0.034	2.676	1.890	1.890	1.885	1.904	1.919	1.909
-0.005	-0.005	-0.005	0.005	0.078	-0.024	0.034	2.676	1.895	1.890	1.885	1.909	1.924	1.914
-0.005	-0.005	-0.005	0.010	0.068	-0.010	0.034	2.666	1.890	1.890	1.885	1.904	1.914	1.914
0.000	0.010	-0.005	0.010	0.024	-0.005	0.034	2.686	1.899	1.895	1.890	1.909	1.899	1.909
0.000	0.010	0.000	0.005	-0.015	0.010	0.034	2.695	1.895	1.895	1.890	1.904	1.890	1.909
0.005	0.010	-0.005	0.005	-0.010	0.005	0.034	2.686	1.899	1.895	1.890	1.909	1.895	1.904
0.010	0.000	0.000	0.005	-0.020	0.020	0.034	2.671	1.895	1.895	1.895	1.909	1.895	1.909
0.010	-0.005	-0.005	0.015	-0.010	0.020	0.034	2.671	1.899	1.895	1.895	1.909	1.904	1.904
0.010	-0.010	0.000	0.000	-0.010	0.020	0.034	2.676	1.895	1.890	1.890	1.909	1.899	1.904
0.000	-0.005	0.005	0.000	-0.029	0.029	0.034	2.676	1.895	1.890	1.890	1.904	1.899	1.904
0.000	-0.020	0.005	0.005	-0.005	0.015	0.034	2.671	1.890	1.890	1.890	1.909	1.904	1.904
0.010	-0.015	0.010	0.000	0.015	0.024	0.034	2.676	1.895	1.890	1.890	1.909	1.909	1.904
0.005	-0.005	0.000	-0.010	0.059	0.010	0.034	2.671	1.890	1.890	1.890	1.904	1.919	1.909
-0.005	-0.010	0.005	-0.005	0.054	0.005	0.034	2.686	1.890	1.890	1.890	1.904	1.914	1.909
-0.005	-0.010	0.000	0.000	0.059	0.024	0.034	2.681	1.890	1.890	1.890	1.909	1.909	1.914
0.005	0.000	0.000	0.005	0.015	0.015	0.034	2.690	1.895	1.895	1.890	1.909	1.899	1.904
0.005	0.010	0.000	0.005	0.000	0.005	0.034	2.686	1.899	1.899	1.890	1.909	1.895	1.899
0.000	0.010	0.000	0.010	-0.010	-0.005	0.034	2.666	1.895	1.895	1.890	1.909	1.895	1.895
-0.010	0.020	0.000	0.010	-0.049	-0.020	0.034	2.671	1.885	1.895	1.890	1.909	1.885	1.890
-0.005	0.015	0.000	0.010	-0.049	-0.005	0.034	2.690	1.890	1.890	1.890	1.909	1.890	1.890
-0.015	0.024	-0.005	0.020	-0.020	-0.015	0.039	2.676	1.895	1.895	1.890	1.914	1.904	1.895
-0.010	0.015	-0.010	0.010	0.005	-0.015	0.034	2.676	1.895	1.890	1.890	1.909	1.909	1.904
-0.005	0.020	-0.005	0.005	0.015	0.000	0.034	2.686	1.899	1.895	1.890	1.909	1.909	1.904
0.005	0.005	0.000	0.005	0.020	0.005	0.034	2.681	1.899	1.895	1.895	1.909	1.909	1.909
0.005	0.005	0.000	0.000	0.010	0.005	0.034	2.690	1.899	1.895	1.890	1.909	1.904	1.904
0.015	0.005	0.005	0.000	0.000	0.000	0.039	2.666	1.895	1.895	1.895	1.909	1.904	1.904
0.020	-0.005	0.010	0.000	-0.005	0.000	0.034	2.671	1.899	1.895	1.895	1.909	1.904	1.904
0.015	-0.010	0.005	0.005	-0.020	-0.010	0.034	2.676	1.890	1.890	1.890	1.909	1.899	1.899
0.015	-0.015	0.015	0.000	-0.044	-0.010	0.034	2.681	1.890	1.885	1.890	1.909	1.890	1.899
0.010	-0.015	0.005	0.000	-0.059	0.000	0.034	2.676	1.890	1.890	1.885	1.909	1.890	1.899
0.010	-0.015	0.005	0.000	-0.049	0.010	0.034	2.676	1.890	1.890	1.890	1.904	1.895	1.899
0.010	-0.020	0.005	0.005	-0.024	-0.010	0.034	2.671	1.885	1.890	1.885	1.909	1.904	1.895
0.010	0.000	0.005	0.000	-0.020	0.010	0.034	2.690	1.890	1.890	1.885	1.904	1.904	1.904
0.000	0.000	0.000	0.005	-0.010	0.010	0.034	2.686	1.890	1.895	1.885	1.904	1.909	1.904
-0.005	0.010	-0.005	0.005	0.010	0.010	0.034	2.671	1.895	1.895	1.890	1.909	1.914	1.909
-0.005	0.000	0.000	0.005	0.010	0.000	0.039	2.681	1.895	1.890	1.890	1.909	1.909	1.909
-0.005	0.000	-0.005	0.000	0.020	0.000	0.034	2.666	1.890	1.890	1.890	1.904	1.909	1.909
-0.010	0.005	-0.005	0.000	0.010	0.010	0.034	2.676	1.890	1.890	1.890	1.904	1.904	1.909
0.000	0.005	-0.005	0.000	0.010	-0.005	0.034	2.681	1.895	1.895	1.890	1.904	1.904	1.904
0.000	0.010	-0.005	-0.005	0.005	0.010	0.034	2.686	1.895	1.895	1.890	1.904	1.904	1.909
0.000	0.000	-0.005	-0.005	0.005	0.005	0.034	2.681	1.895	1.890	1.885	1.904	1.904	1.904
-0.005	0.005	0.000	-0.005	0.005	0.005	0.034	2.676	1.890	1.895	1.890	1.904	1.904	1.904
0.000	0.010	0.000	-0.005	-0.005	0.005	0.034	2.671	1.895	1.895	1.890	1.904	1.899	1.899
0.000	-0.010	0.005	-0.005	0.000	0.005	0.034	2.681	1.890	1.885	1.890	1.909	1.899	1.899
0.000	-0.020	0.000	-0.005	-0.005	0.000	0.039	2.676	1.890	1.885	1.885	1.904	1.899	1.899
0.005	-0.034	-0.005	0.005	-0.010	0.005	0.034	2.676	1.890	1.885	1.885	1.909	1.899	1.899
0.000	-0.029	0.000	0.000	-0.010	0.005	0.034	2.661	1.890	1.885	1.885	1.904	1.899	1.899
0.000	-0.020	0.000	0.010	0.015	0.000	0.034	2.681	1.890	1.890	1.885	1.909	1.909	1.904
0.000	-0.005	0.005	0.010	0.029	0.000	0.034	2.681	1.890	1.890	1.885	1.904	1.909	1.904
-0.010	0.005	0.005	0.000	0.000	0.000	0.034	2.676	1.895	1.895	1.885	1.904	1.899	1.899
-0.005	0.010	0.010	0.000	0.010	0.000	0.034	2.686	1.895	1.895	1.890	1.904	1.904	1.899
-0.005	0.010	0.000	0.005	0.044	-0.010	0.034	2.676	1.890	1.895	1.890	1.904	1.914	1.904
-0.010	0.010	0.000	0.000	0.049	0.000	0.034	2.686	1.895	1.895	1.890	1.909	1.909	1.909
-0.005	0.015	0.005	0.000	0.024	-0.005	0.034	2.681	1.895	1.895	1.890	1.909	1.899	1.904
0.005	0.015	0.000	0.005	0.015	-0.005	0.034	2.686	1.899	1.899	1.890	1.909	1.899	1.899
0.000	0.010	0.005	0.010	-0.010	0.000	0.034	2.681	1.895	1.895	1.895	1.909	1.895	1.904
-0.005	0.010	0.000	0.005	-0.024	0.005	0.034	2.690	1.895	1.895	1.890	1.909	1.895	1.899
0.000	0.000	0.000	-0.005	-0.034	0.010	0.034	2.671	1.895	1.890	1.890	1.909	1.895	1.899
0.010	0.000	0.000	-0.005	-0.024	0.010	0.034	2.686	1.899	1.890	1.890	1.909	1.899	1.899
-0.005	-0.005	0.005	-0.005	-0.015	0.000	0.039	2.666	1.895	1.890	1.895	1.909	1.904	1.899
0.005	-0.010	0.000	-0.005	0.000	0.005	0.034	2.671	1.895	1.890	1.890	1.904	1.904	1.904
0.005	-0.020	0.005	-0.005	-0.005	-0.005	0.039	2.681	1.895	1.890	1.890	1.904	1.904	1.899
0.005	-0.010	0.005	-0.010	0.000	0.010	0.034	2.686	1.895	1.890	1.885	1.904	1.904	1.904
0.005	-0.010	0.000	-0.005	0.015	-0.010	0.034	2.686	1.890	1.890	1.885	1.904	1.904	1.899
0.000	-0.005	0.000	-0.005	0.020	0.010	0.034	2.681	1.895	1.890	1.890	1.904	1.904	1.904
0.010	0.000	0.000	-0.005	0.010	-0.005	0.034	2.686	1.895	1.895	1.890	1.904	1.899	1.899
0.005	0.005	0.000	0.000	0.005	-0.005	0.034	2.681	1.890	1.895	1.890	1.904	1.899	1.904
-0.005	0.020	-0.005	0.000	-0.005	-0.005	0.034	2.690	1.890	1.895	1.890	1.909	1.899	1.899
0.000	0.015	-0.005	0.015	-0.005	-0.010	0.034	2.676	1.895	1.895	1.890	1.909	1.904	1.899
-0.005	0.029	-0.010	0.005	-0.005	-0.010	0.034	2.676	1.895	1.899	1.890	1.909	1.899	1.899
0.005	0.029	-0.010	0.010	-0.005	-0.005	0.039	2.671	1.890	1.895	1.895	1.909	1.904	1.904
-0.010	0.005	-0.005	0.010	-0.005	-0.029	0.039	2.671	1.885	1.885	1.890	1.909	1.904	1.899
-0.005	-0.005	-0.005	0.005	0.005	0.010	0.034	2.686	1.895	1.885	1.890	1.909	1.909	1.909
-0.005	-0.010	-0.005	0.010	0.020	0.000	0.039	2.686	1.895	1.885	1.890	1.909	1.914	1.909
0.000	0.005	-0.005	0.010	0.005	0.015	0.034	2.671	1.895	1.890	1.890	1.909	1.909	1.914
0.000	0.000	0.000	0.005	0.010	0.000	0.034	2.666	1.899	1.890	1.890	1.904	1.904	1.909
0.005	0.000	0.000	0.010	-0.005	0.020	0.034	2.666	1.895	1.890	1.890	1.909	1.904	1.909
0.005	-0.005	0.000	0.005	-0.005	0.005	0.034	2.671	1.890	1.890	1.890	1.909	1.899	1.904
0.005	-0.015	0.000	0.010	-0.010	0.005	0.039	2.661	1.890	1.885	1.890	1.904	1.899	1.899
-0.005	-0.005	0.005	0.000	-0.005	-0.005	0.034	2.666	1.885	1.885	1.890	1.904	1.899	1.899
0.005	-0.010	0.000	0.000	-0.010	0.020	0.034	2.671	1.885	1.885	1.885	1.904	1.899	1.904
0.005	-0.010	0.005	0.000	0.000	0.015	0.034	2.671	1.890	1.885	1.885	1.904	1.904	1.904
-0.010	0.000	0.015	0.000	0.015	0.000	0.034	2.676	1.890	1.890	1.890	1.904	1.904	1.899
-0.005	0.015	0.000	0.005	0.010	0.005	0.034	2.666	1.890	1.895	1.885	1.909	1.904	1.899
0.000	0.015	0.000	0.015	0.005	-0.005	0.034	2.671	1.895	1.895	1.890	1.909	1.904	1.899
0.000	0.020	-0.005	0.010	-0.005	-0.005	0.034	2.671	1.890	1.890	1.885	1.904	1.899	1.899
0.005	0.029	-0.005	0.000	0.005	0.000	0.039	2.676	1.895	1.895	1.890	1.904	1.904	1.904
0.000	0.010	-0.005	0.000	-0.005	-0.005	0.039	2.686	1.895	1.890	1.890	1.909	1.899	1.899
0.000	0.020	0.000	0.005	-0.015	-0.005	0.034	2.681	1.895	1.895	1.890	1.909	1.899	1.899
-0.010	0.020	0.000	0.010	-0.005	0.000	0.034	2.681	1.890	1.890	1.890	1.909	1.904	1.904
-0.005	0.015	0.000	-0.005	0.005	0.010	0.034	2.681	1.895	1.890	1.890	1.904	1.904	1.904
0.000	0.005	0.000	-0.005	0.005	-0.010	0.034	2.681	1.895	1.890	1.890	1.909	1.904	1.899
0.005	-0.005	0.000	-0.010	0.005	-0.024	0.034	2.671	1.895	1.885	1.885	1.904	1.904	1.895
0.010	-0.010	0.005	-0.010	-0.015	0.000	0.034	2.681	1.895	1.885	1.885	1.904	1.895	1.899
0.000	-0.039	0.005	-0.015	-0.034	0.000	0.034	2.627	1.880	1.875	1.880	1.899	1.890	1.899
0.005	-0.024	0.010	-0.010	-0.034	0.010	0.034	2.646	1.885	1.880	1.885	1.904	1.895	1.899
0.015	-0.029	0.005	-0.010	-0.020	0.020	0.034	2.646	1.885	1.885	1.880	1.899	1.899	1.904
0.010	-0.010	0.005	-0.010	-0.005	0.029	0.034	2.686	1.890	1.885	1.885	1.899	1.899	1.904
0.010	-0.005	0.010	0.000	-0.015	0.020	0.039	2.671	1.890	1.890	1.885	1.904	1.899	1.899
0.010	0.005	0.000	-0.010	0.015	0.015	0.034	2.676	1.885	1.890	1.885	1.904	1.909	1.904
0.000	0.005	0.000	-0.010	0.020	0.000	0.034	2.671	1.885	1.890	1.885	1.904	1.904	1.899
0.005	0.010	0.000	-0.015	0.010	-0.005	0.034	2.676	1.890	1.890	1.885	1.899	1.899	1.899
0.000	0.015	-0.005	-0.015	-0.015	0.020	0.034	2.671	1.885	1.890	1.885	1.904	1.895	1.904
-0.005	0.015	-0.005	-0.020	-0.054	0.015	0.039	2.646	1.880	1.890	1.885	1.899	1.880	1.895
-0.010	0.020	-0.005	-0.020	-0.034	0.010	0.034	2.661	1.885	1.885	1.885	1.904	1.895	1.895
-0.005	0.010	0.000	-0.015	-0.029	-0.020	0.034	2.637	1.880	1.885	1.885	1.904	1.895	1.885
-0.005	-0.005	0.005	-0.010	-0.034	-0.024	0.034	2.642	1.880	1.880	1.880	1.904	1.895	1.885
-0.005	0.015	0.000	-0.005	-0.024	-0.039	0.034	2.661	1.880	1.885	1.880	1.904	1.899	1.885
0.000	0.010	-0.005	0.000	0.020	-0.024	0.034	2.808	1.899	1.885	1.885	1.904	1.914	1.899
0.000	0.005	0.000	0.000	0.093	-0.020	0.034	2.651	1.895	1.885	1.885	1.909	1.929	1.909
0.010	0.000	-0.005	-0.005	0.063	-0.005	0.034	2.646	1.895	1.885	1.880	1.899	1.909	1.914
0.010	-0.005	0.005	0.005	0.063	0.010	0.034	2.671	1.895	1.885	1.885	1.904	1.914	1.914
0.000	-0.015	0.005	0.005	0.137	-0.010	0.039	2.671	1.890	1.885	1.885	1.904	1.929	1.914
0.010	-0.010	0.000	0.010	0.132	-0.005	0.034	2.671	1.890	1.885	1.885	1.909	1.919	1.914
0.000	-0.005	0.000	0.010	0.098	-0.034	0.034	2.671	1.895	1.890	1.880	1.904	1.899	1.899
0.005	0.000	0.000	0.015	0.059	-0.010	0.034	2.666	1.895	1.890	1.885	1.904	1.890	1.909
0.000	0.024	0.005	0.015	0.020	-0.010	0.034	2.676	1.890	1.895	1.890	1.904	1.880	1.899
-0.005	0.010	0.000	0.015	-0.015	-0.024	0.034	2.676	1.890	1.890	1.885	1.904	1.880	1.890
0.000	-0.010	-0.005	0.015	0.015	0.000	0.034	2.666	1.885	1.880	1.885	1.904	1.895	1.899
-0.020	-0.010	0.000	0.015	0.010	0.005	0.034	2.666	1.885	1.885	1.885	1.904	1.895	1.899
-0.005	0.005	0.000	0.015	0.010	0.015	0.034	2.632	1.885	1.890	1.885	1.904	1.895	1.899
-0.005	0.000	-0.005	0.010	-0.005	0.024	0.034	2.656	1.885	1.885	1.885	1.904	1.895	1.904
-0.005	0.000	-0.005	0.020	-0.020	0.015	0.034	2.803	1.899	1.890	1.885	1.904	1.890	1.895
0.000	0.010	0.000	0.015	-0.054	0.029	0.034	2.656	1.899	1.890	1.885	1.904	1.885	1.895
0.005	-0.005	-0.005	0.020	-0.054	0.044	0.034	2.808	1.890	1.890	1.885	1.904	1.890	1.899
0.005	-0.010	0.005	0.020	-0.034	0.024	0.034	2.852	1.890	1.885	1.885	1.904	1.899	1.895
0.005	-0.020	0.005	0.015	-0.010	0.029	0.034	2.676	1.890	1.885	1.885	1.904	1.904	1.895
0.005	-0.020	0.005	0.010	-0.010	0.020	0.034	2.681	1.890	1.885	1.885	1.904	1.904	1.899
0.000	-0.015	0.005	0.005	-0.034	-0.010	0.034	2.676	1.890	1.890	1.880	1.899	1.890	1.885
0.005	-0.010	0.005	0.000	-0.054	0.005	0.034	2.671	1.885	1.890	1.885	1.899	1.890	1.890
0.005	-0.005	0.005	0.000	-0.059	-0.010	0.039	2.676	1.890	1.890	1.885	1.899	1.890	1.885
-0.005	-0.005	0.005	0.000	-0.063	-0.015	0.034	2.651	1.885	1.890	1.885	1.899	1.890	1.880
0.005	-0.005	0.000	0.000	-0.054	-0.015	0.034	2.651	1.885	1.885	1.885	1.899	1.890	1.885
0.005	0.005	0.000	0.000	-0.024	-0.015	0.034	2.651	1.880	1.890	1.885	1.904	1.904	1.890
0.005	0.005	-0.005	0.005	0.000	-0.015	0.034	2.646	1.880	1.885	1.885	1.904	1.909	1.895
0.000	0.024	0.000	0.000	-0.010	-0.015	0.034	2.651	1.875	1.890	1.885	1.899	1.904	1.899
0.000	0.034	-0.005	0.005	-0.015	-0.020	0.034	2.759	1.890	1.890	1.885	1.904	1.899	1.899
-0.005	0.029	0.000	0.000	0.024	0.000	0.034	2.642	1.885	1.885	1.890	1.904	1.909	1.909
0.000	0.015	0.000	0.000	0.039	0.010	0.034	2.642	1.885	1.885	1.885	1.904	1.914	1.914
0.015	0.020	0.000	0.000	0.024	0.015	0.034	2.671	1.890	1.885	1.885	1.904	1.909	1.909
0.010	0.015	0.005	0.000	0.015	0.015	0.034	2.681	1.890	1.890	1.885	1.904	1.904	1.909
0.005	0.015	0.000	0.005	0.000	0.015	0.034	2.676	1.890	1.885	1.885	1.904	1.899	1.909
0.010	-0.010	0.005	0.000	-0.005	0.010	0.039	2.666	1.890	1.880	1.885	1.899	1.895	1.899
0.015	-0.015	0.005	0.000	-0.015	0.010	0.034	2.661	1.890	1.880	1.880	1.904	1.890	1.895
0.000	-0.010	0.000	-0.005	-0.024	0.010	0.034	2.666	1.890	1.880	1.880	1.899	1.890	1.895
0.015	-0.034	0.010	-0.005	-0.029	0.010	0.034	2.666	1.890	1.875	1.880	1.899	1.890	1.895
0.005	-0.049	0.010	-0.005	-0.020	0.000	0.034	2.671	1.885	1.875	1.880	1.899	1.895	1.890
0.000	-0.034	0.005	-0.005	-0.010	-0.024	0.034	2.661	1.885	1.875	1.875	1.895	1.895	1.890
0.005	-0.044	0.005	-0.005	0.005	-0.020	0.034	2.646	1.880	1.875	1.875	1.895	1.899	1.895
0.000	-0.044	0.000	-0.005	0.010	0.010	0.034	2.661	1.880	1.880	1.875	1.895	1.899	1.899
-0.005	-0.024	0.000	-0.005	0.024	0.010	0.034	2.749	1.895	1.885	1.875	1.895	1.899	1.899
-0.005	0.005	0.000	-0.005	0.024	0.000	0.034	2.651	1.890	1.895	1.880	1.895	1.899	1.899
-0.005	0.015	0.000	0.000	0.010	-0.005	0.034	2.656	1.885	1.895	1.885	1.899	1.895	1.895
-0.010	0.024	-0.010	-0.005	-0.005	0.000	0.034	2.666	1.885	1.899	1.885	1.899	1.890	1.895
-0.010	0.020	-0.005	-0.010	-0.005	-0.005	0.034	2.686	1.890	1.890	1.890	1.904	1.890	1.895
-0.015	0.005	0.000	-0.005	-0.005	0.010	0.034	2.676	1.890	1.890	1.885	1.904	1.895	1.899
-0.010	0.005	-0.005	-0.005	0.000	0.005	0.034	2.671	1.890	1.890	1.890	1.904	1.899	1.895
-0.005	0.010	0.000	-0.005	0.005	0.000	0.034	2.666	1.890	1.890	1.890	1.904	1.899	1.895
-0.005	0.000	0.000	-0.010	0.005	0.005	0.034	2.676	1.885	1.885	1.885	1.904	1.899	1.899
0.005	-0.020	0.005	-0.005	0.000	0.000	0.034	2.676	1.890	1.880	1.885	1.904	1.899	1.895
0.000	0.000	0.010	-0.005	0.005	0.005	0.034	2.661	1.885	1.890	1.885	1.904	1.899	1.899
0.005	-0.005	0.000	-0.005	0.010	-0.015	0.034	2.656	1.885	1.890	1.885	1.904	1.899	1.895
0.015	0.005	0.005	-0.005	0.005	-0.015	0.034	2.637	1.880	1.885	1.880	1.899	1.899	1.895
0.015	0.005	0.005	-0.010	0.010	0.000	0.034	2.642	1.880	1.885	1.885	1.899	1.899	1.899
0.005	0.005	0.005	-0.015	0.010	-0.005	0.034	2.720	1.890	1.880	1.885	1.899	1.895	1.895
0.005	0.005	0.005	-0.005	0.005	0.000	0.034	2.646	1.880	1.885	1.885	1.904	1.895	1.899
-0.005	0.005	0.000	0.000	0.015	-0.005	0.034	2.637	1.880	1.880	1.880	1.904	1.899	1.899
-0.005	-0.005	0.005	0.010	0.015	0.010	0.034	2.856	1.899	1.880	1.880	1.904	1.899	1.904
0.000	0.010	-0.005	0.005	0.010	0.010	0.034	2.676	1.899	1.895	1.880	1.904	1.899	1.899
-0.005	0.020	-0.005	0.005	0.005	0.010	0.034	2.686	1.899	1.895	1.885	1.899	1.899	1.899
0.000	0.020	-0.005	0.010	0.000	0.010	0.034	2.686	1.899	1.895	1.890	1.904	1.899	1.899
0.005	0.015	-0.005	0.005	0.005	0.000	0.034	2.676	1.895	1.895	1.890	1.904	1.899	1.899
-0.005	0.010	-0.005	0.005	0.000	0.000	0.034	2.671	1.890	1.890	1.890	1.904	1.899	1.895
-0.005	0.010	0.000	0.010	-0.005	0.010	0.034	2.656	1.895	1.890	1.890	1.909	1.899	1.899
0.000	0.010	0.005	0.010	-0.015	0.010	0.034	2.676	1.895	1.895	1.890	1.909	1.895	1.899
0.005	-0.005	0.000	0.010	-0.015	0.005	0.034	2.651	1.890	1.885	1.890	1.909	1.899	1.899
-0.005	0.000	0.005	0.005	-0.015	-0.005	0.034	2.642	1.885	1.885	1.885	1.904	1.899	1.895
0.000	-0.005	0.010	0.000	-0.024	0.000	0.034	2.656	1.885	1.885	1.885	1.904	1.899	1.895
0.010	-0.010	0.010	0.000	-0.020	-0.005	0.034	2.695	1.885	1.880	1.885	1.904	1.899	1.899
0.010	-0.010	0.005	0.005	-0.015	0.000	0.034	2.666	1.890	1.885	1.880	1.904	1.899	1.895
0.000	-0.005	0.000	0.000	-0.010	-0.005	0.034	2.651	1.885	1.885	1.885	1.899	1.899	1.895
0.015	0.000	0.005	-0.015	-0.034	-0.015	0.034	2.827	1.904	1.890	1.885	1.895	1.890	1.895
0.000	0.010	0.000	0.000	-0.024	-0.005	0.034	2.681	1.895	1.895	1.885	1.904	1.895	1.895
0.000	0.000	0.000	0.000	0.029	0.000	0.034	2.681	1.895	1.890	1.885	1.904	1.914	1.904
0.000	0.015	0.005	0.005	0.083	-0.005	0.034	2.666	1.895	1.895	1.890	1.909	1.924	1.909
-0.005	0.020	0.000	-0.020	0.103	0.005	0.034	2.686	1.895	1.895	1.890	1.899	1.919	1.914
-0.005	0.024	0.000	-0.068	0.044	-0.005	0.034	2.676	1.895	1.895	1.890	1.890	1.890	1.904
-0.015	0.015	0.015	-0.049	0.020	0.020	0.034	2.681	1.890	1.895	1.890	1.904	1.890	1.904
-0.010	0.015	0.010	-0.010	0.000	0.000	0.034	2.666	1.890	1.890	1.890	1.914	1.890	1.895
-0.005	0.010	0.015	0.015	-0.015	0.000	0.034	2.661	1.885	1.885	1.895	1.919	1.895	1.895
-0.005	-0.020	0.010	0.024	-0.005	0.010	0.034	2.632	1.885	1.880	1.890	1.919	1.899	1.899
0.000	-0.005	0.005	0.020	0.000	0.000	0.034	2.681	1.890	1.885	1.890	1.914	1.904	1.899
-0.005	-0.005	0.005	0.010	0.010	-0.005	0.034	2.671	1.885	1.885	1.880	1.909	1.904	1.899
0.005	-0.010	0.010	0.005	0.015	-0.020	0.034	2.666	1.890	1.885	1.885	1.904	1.904	1.899
0.010	-0.020	0.005	0.005	0.024	0.005	0.034	2.666	1.885	1.880	1.880	1.904	1.909	1.904
0.000	-0.020	0.005	0.005	0.005	-0.010	0.034	2.676	1.885	1.880	1.880	1.904	1.899	1.895
0.000	-0.029	0.000	0.010	-0.010	0.010	0.034	2.627	1.880	1.875	1.880	1.899	1.895	1.904
0.005	-0.029	-0.005	0.005	-0.020	0.000	0.034	2.676	1.885	1.875	1.880	1.899	1.890	1.895
-0.005	-0.015	-0.005	0.005	-0.024	-0.005	0.034	2.690	1.880	1.880	1.875	1.899	1.890	1.895
0.000	-0.015	-0.015	0.005	-0.029	0.010	0.039	2.651	1.890	1.885	1.875	1.895	1.890	1.899
0.000	0.024	-0.015	0.005	-0.029	0.015	0.039	2.671	1.890	1.895	1.885	1.895	1.890	1.899
0.000	0.034	-0.010	0.000	-0.020	-0.005	0.034	2.676	1.890	1.895	1.885	1.899	1.890	1.890
-0.005	0.024	-0.010	0.005	-0.024	0.005	0.034	2.681	1.885	1.890	1.885	1.899	1.895	1.895
-0.005	0.010	-0.020	0.010	-0.015	0.015	0.034	2.656	1.885	1.885	1.880	1.904	1.899	1.895
0.000	0.010	-0.015	0.005	0.005	0.005	0.034	2.744	1.895	1.890	1.885	1.899	1.899	1.895
-0.005	0.015	-0.015	0.000	0.020	0.010	0.034	2.686	1.895	1.890	1.885	1.904	1.904	1.899
-0.005	0.015	-0.015	-0.005	0.020	-0.005	0.034	2.671	1.895	1.890	1.885	1.904	1.899	1.899
0.000	0.010	-0.010	0.005	0.010	0.005	0.034	2.661	1.890	1.890	1.890	1.904	1.899	1.904
0.010	0.015	-0.010	0.005	0.024	0.010	0.034	2.676	1.895	1.890	1.890	1.909	1.904	1.899
0.010	0.000	-0.005	0.000	0.044	0.005	0.034	2.676	1.890	1.885	1.885	1.904	1.909	1.904
0.015	-0.015	0.000	0.000	0.034	0.000	0.034	2.661	1.890	1.885	1.890	1.904	1.904	1.904
0.005	0.000	0.000	0.000	-0.034	0.000	0.034	2.676	1.890	1.890	1.885	1.904	1.880	1.895
0.010	-0.020	-0.005	0.005	-0.083	0.005	0.034	2.666	1.890	1.880	1.880	1.899	1.875	1.885
0.000	-0.015	0.000	0.005	-0.117	-0.020	0.034	2.642	1.880	1.880	1.880	1.899	1.870	1.880
0.015	0.000	0.000	0.005	-0.142	-0.029	0.034	2.666	1.885	1.885	1.880	1.899	1.870	1.875
0.010	-0.005	0.000	0.010	-0.132	-0.015	0.034	2.764	1.890	1.890	1.885	1.899	1.880	1.880
0.000	0.005	-0.005	0.010	-0.098	-0.029	0.034	2.656	1.885	1.890	1.885	1.904	1.899	1.880
-0.005	0.015	0.000	0.010	-0.005	0.005	0.034	2.661	1.885	1.890	1.885	1.904	1.924	1.899
-0.005	0.010	-0.005	0.010	0.127	0.010	0.034	2.666	1.885	1.890	1.885	1.909	1.953	1.924
-0.010	0.015	-0.005	0.010	0.195	0.000	0.034	2.666	1.890	1.890	1.885	1.909	1.958	1.929
-0.005	0.020	0.000	0.010	0.195	0.005	0.034	2.798	1.909	1.895	1.890	1.909	1.943	1.934
-0.005	0.015	-0.005	0.010	0.166	0.015	0.034	2.671	1.904	1.895	1.890	1.904	1.924	1.938
0.000	0.010	-0.005	0.005	0.098	0.024	0.034	2.686	1.909	1.895	1.890	1.904	1.899	1.924
0.000	0.010	-0.005	0.000	0.078	0.010	0.034	2.676	1.909	1.899	1.890	1.904	1.895	1.914
0.005	-0.005	0.005	-0.005	0.024	-0.005	0.034	2.651	1.899	1.895	1.890	1.899	1.880	1.899
0.010	0.000	0.005	-0.010	-0.005	0.005	0.034	2.666	1.899	1.895	1.895	1.904	1.880	1.895
0.010	-0.020	0.000	-0.005	-0.005	-0.005	0.034	2.661	1.895	1.890	1.890	1.904	1.885	1.890
0.024	-0.029	0.005	-0.005	0.005	0.000	0.034	2.646	1.895	1.885	1.890	1.909	1.895	1.890
0.010	-0.029	0.005	0.000	-0.015	0.010	0.034	2.656	1.885	1.885	1.890	1.909	1.890	1.890
0.005	-0.020	0.010	0.000	-0.034	-0.005	0.034	2.646	1.880	1.885	1.885	1.904	1.890	1.885
0.015	-0.015	0.005	-0.005	-0.034	0.000	0.034	2.637	1.880	1.885	1.885	1.904	1.890	1.885
0.010	-0.005	-0.005	-0.005	-0.044	0.000	0.034	2.681	1.880	1.885	1.885	1.904	1.890	1.890
0.005	0.005	0.000	-0.005	-0.044	-0.005	0.034	2.671	1.880	1.885	1.885	1.904	1.895	1.890
-0.010	0.015	0.000	0.000	-0.039	-0.015	0.034	2.637	1.875	1.885	1.885	1.904	1.895	1.890
-0.005	0.010	0.000	0.000	-0.029	-0.005	0.034	2.778	1.890	1.885	1.885	1.904	1.899	1.895
-0.015	0.005	0.000	0.000	-0.039	0.005	0.034	2.651	1.885	1.880	1.880	1.904	1.899	1.895
-0.015	0.015	-0.005	0.000	-0.039	0.005	0.034	2.661	1.885	1.885	1.880	1.904	1.899	1.895
-0.010	0.020	-0.005	-0.005	-0.020	0.005	0.034	2.651	1.885	1.890	1.880	1.904	1.904	1.899
-0.010	0.024	0.000	0.000	-0.010	-0.005	0.039	2.686	1.890	1.890	1.885	1.904	1.904	1.899
-0.010	0.015	0.000	0.000	-0.010	0.005	0.034	2.690	1.895	1.890	1.885	1.904	1.904	1.904
-0.010	0.005	-0.005	-0.005	-0.010	0.010	0.034	2.710	1.895	1.885	1.885	1.899	1.904	1.904
-0.010	0.005	0.000	0.000	-0.005	0.015	0.034	2.676	1.890	1.890	1.880	1.904	1.899	1.899
-0.005	-0.020	0.000	-0.005	-0.005	-0.020	0.034	2.681	1.890	1.885	1.885	1.904	1.899	1.895
-0.005	-0.020	0.000	-0.005	0.010	0.005	0.034	2.676	1.890	1.885	1.880	1.899	1.904	1.904
-0.005	-0.015	0.000	-0.005	0.029	0.000	0.034	2.671	1.890	1.885	1.885	1.899	1.904	1.904
0.000	-0.015	0.005	-0.005	0.029	-0.005	0.034	2.676	1.890	1.885	1.885	1.904	1.904	1.904
0.005	-0.015	0.010	-0.005	0.034	-0.010	0.034	2.690	1.895	1.890	1.885	1.899	1.904	1.899
-0.005	-0.005	0.005	-0.005	0.020	0.005	0.034	2.681	1.890	1.890	1.885	1.899	1.899	1.904
-0.010	0.005	0.000	-0.005	0.005	0.000	0.034	2.681	1.890	1.890	1.890	1.904	1.895	1.899
-0.010	0.000	0.005	-0.005	-0.010	-0.005	0.034	2.681	1.890	1.890	1.885	1.904	1.890	1.895
-0.015	0.005	0.005	0.000	-0.020	0.005	0.034	2.671	1.890	1.895	1.885	1.904	1.890	1.899
-0.010	0.015	0.000	0.000	-0.015	-0.005	0.034	2.676	1.890	1.890	1.890	1.904	1.895	1.895
-0.010	0.029	-0.005	0.000	-0.024	0.005	0.034	2.681	1.895	1.895	1.890	1.904	1.895	1.895
-0.005	0.020	-0.005	0.000	-0.015	-0.010	0.034	2.681	1.895	1.895	1.890	1.904	1.899	1.895
0.000	0.034	0.000	0.000	-0.010	-0.020	0.034	2.686	1.895	1.895	1.890	1.909	1.899	1.890
-0.005	0.020	0.000	0.000	-0.010	0.005	0.034	2.676	1.895	1.895	1.895	1.909	1.899	1.899
-0.005	0.005	-0.005	0.005	-0.010	0.005	0.034	2.695	1.890	1.885	1.890	1.909	1.904	1.904
0.010	-0.005	0.005	0.000	-0.010	0.010	0.034	2.666	1.890	1.880	1.890	1.909	1.904	1.904
0.005	-0.015	0.005	0.005	-0.015	-0.005	0.034	2.690	1.895	1.880	1.885	1.904	1.904	1.899
0.015	-0.015	0.005	0.000	-0.005	0.010	0.034	2.686	1.895	1.890	1.885	1.904	1.904	1.904
0.020	-0.005	0.010	0.000	0.000	0.015	0.034	2.686	1.895	1.890	1.890	1.909	1.904	1.904
0.020	-0.015	0.010	0.000	0.024	0.000	0.034	2.666	1.895	1.890	1.890	1.904	1.914	1.904
0.005	0.000	0.010	0.005	0.029	0.015	0.034	2.656	1.890	1.895	1.890	1.904	1.909	1.909
0.015	-0.034	0.010	0.005	0.005	0.005	0.034	2.676	1.890	1.880	1.885	1.904	1.899	1.904
0.015	-0.024	0.010	0.005	-0.034	0.010	0.034	2.676	1.895	1.885	1.885	1.899	1.885	1.899
0.005	-0.005	0.005	0.010	-0.024	0.005	0.034	2.686	1.895	1.895	1.885	1.904	1.895	1.895
0.015	0.005	0.005	0.010	0.054	0.005	0.034	2.666	1.890	1.895	1.890	1.909	1.919	1.904
0.005	0.010	0.005	0.020	0.039	0.015	0.034	2.681	1.890	1.895	1.890	1.909	1.909	1.909
0.000	0.020	0.000	0.015	0.010	0.010	0.034	2.671	1.890	1.895	1.890	1.909	1.904	1.904
-0.005	0.024	-0.005	0.015	0.015	0.010	0.034	2.710	1.890	1.895	1.890	1.909	1.904	1.904
0.000	0.029	0.005	0.015	0.005	0.005	0.034	2.681	1.890	1.895	1.890	1.909	1.899	1.899
-0.015	0.024	0.000	0.010	0.015	0.010	0.034	2.681	1.890	1.890	1.895	1.909	1.904	1.904
-0.015	0.034	0.000	0.015	0.020	-0.010	0.034	2.700	1.895	1.899	1.895	1.909	1.904	1.899
-0.005	0.029	0.000	0.010	0.000	-0.020	0.034	2.666	1.895	1.890	1.890	1.909	1.899	1.895
0.010	0.005	0.005	0.015	-0.020	-0.005	0.034	2.686	1.899	1.885	1.890	1.909	1.895	1.899
0.005	-0.005	0.005	0.034	-0.015	0.000	0.034	2.671	1.895	1.885	1.890	1.914	1.899	1.899
0.005	-0.010	0.010	0.034	0.010	-0.010	0.034	2.671	1.895	1.885	1.890	1.914	1.909	1.904
0.005	-0.005	0.010	0.039	0.005	-0.034	0.034	2.661	1.890	1.885	1.890	1.909	1.904	1.895
0.005	0.000	0.010	0.029	0.005	-0.020	0.034	2.666	1.890	1.890	1.890	1.909	1.909	1.904
0.005	-0.024	0.005	0.020	-0.005	-0.010	0.034	2.681	1.890	1.880	1.885	1.904	1.904	1.904
0.000	-0.020	0.010	0.015	-0.015	0.010	0.034	2.695	1.890	1.885	1.885	1.899	1.899	1.909
0.010	-0.010	0.005	0.015	0.005	-0.010	0.034	2.686	1.895	1.890	1.885	1.904	1.904	1.904
0.015	0.000	0.005	0.015	-0.005	0.005	0.034	2.686	1.895	1.895	1.885	1.899	1.899	1.904
-0.005	0.010	0.000	0.015	-0.010	0.000	0.034	2.681	1.890	1.895	1.885	1.904	1.899	1.904
0.000	0.010	0.000	0.020	-0.015	0.015	0.034	2.661	1.890	1.895	1.890	1.899	1.899	1.904
0.005	0.005	0.005	0.015	-0.024	0.010	0.034	2.676	1.890	1.890	1.890	1.904	1.895	1.899
0.000	0.015	-0.005	0.010	-0.020	0.000	0.034	2.681	1.890	1.890	1.890	1.904	1.899	1.899
0.000	0.010	0.000	0.005	-0.005	0.000	0.034	2.676	1.890	1.890	1.890	1.904	1.899	1.899
0.000	0.005	0.000	0.000	0.010	0.000	0.034	2.681	1.890	1.890	1.890	1.904	1.904	1.899
-0.005	0.010	0.000	-0.005	0.010	0.010	0.034	2.676	1.890	1.890	1.890	1.904	1.899	1.899
-0.005	0.000	0.000	-0.005	0.015	0.010	0.039	2.676	1.895	1.890	1.890	1.904	1.904	1.904
-0.005	0.005	0.010	-0.015	0.015	0.005	0.034	2.681	1.895	1.890	1.890	1.904	1.904	1.899
0.000	0.020	0.000	-0.010	0.020	-0.010	0.034	2.676	1.895	1.895	1.890	1.904	1.899	1.899
0.005	0.005	0.000	-0.015	0.024	-0.005	0.034	2.671	1.890	1.890	1.890	1.904	1.904	1.899
-0.005	-0.010	0.005	-0.015	0.024	0.000	0.034	2.681	1.890	1.880	1.885	1.904	1.899	1.904
0.010	-0.029	0.005	-0.015	0.020	0.005	0.039	2.676	1.895	1.885	1.885	1.904	1.899	1.899
0.010	-0.015	0.005	-0.020	0.024	-0.015	0.034	2.690	1.895	1.890	1.885	1.899	1.899	1.895
0.010	-0.010	0.005	-0.015	0.010	0.010	0.034	2.671	1.890	1.890	1.885	1.904	1.895	1.904
0.005	-0.005	0.000	-0.015	0.010	-0.005	0.034	2.671	1.885	1.890	1.885	1.899	1.895	1.899
0.000	-0.015	0.005	-0.015	0.005	0.020	0.034	2.686	1.890	1.885	1.885	1.904	1.895	1.904
0.000	0.000	0.000	-0.020	0.015	0.020	0.034	2.671	1.890	1.890	1.885	1.899	1.899	1.899
-0.010	0.010	0.000	-0.024	0.024	-0.010	0.034	2.686	1.890	1.895	1.890	1.899	1.899	1.895
0.000	0.020	-0.005	-0.015	0.010	0.010	0.034	2.676	1.890	1.895	1.890	1.904	1.895	1.899
-0.005	0.015	0.000	-0.015	0.000	-0.015	0.034	2.671	1.890	1.895	1.890	1.904	1.895	1.890
-0.005	0.015	-0.005	-0.020	-0.020	0.005	0.034	2.681	1.895	1.890	1.890	1.904	1.890	1.899
-0.005	0.000	-0.005	-0.010	-0.024	-0.005	0.034	2.681	1.890	1.885	1.890	1.909	1.895	1.895
-0.005	0.000	-0.005	-0.010	-0.015	-0.010	0.034	2.681	1.890	1.885	1.885	1.904	1.899	1.895
-0.005	-0.020	0.000	-0.020	-0.005	-0.010	0.034	2.671	1.890	1.885	1.885	1.904	1.899	1.895
0.010	-0.015	0.000	-0.010	-0.029	-0.020	0.034	2.671	1.895	1.885	1.885	1.909	1.895	1.895
0.005	0.005	-0.005	-0.020	-0.034	-0.010	0.034	2.666	1.890	1.895	1.885	1.904	1.895	1.895
-0.005	-0.005	0.000	-0.020	-0.034	-0.020	0.034	2.676	1.890	1.890	1.890	1.904	1.895	1.895
0.005	-0.010	0.005	-0.020	-0.039	0.015	0.039	2.676	1.885	1.885	1.890	1.904	1.895	1.904
0.005	-0.015	0.005	-0.024	-0.054	0.005	0.034	2.690	1.890	1.885	1.885	1.904	1.890	1.895
0.010	-0.024	0.005	-0.020	-0.020	0.024	0.034	2.671	1.890	1.885	1.885	1.904	1.904	1.904
-0.005	-0.010	0.000	-0.015	0.068	0.024	0.034	2.676	1.890	1.885	1.885	1.909	1.929	1.914
0.015	0.015	0.010	-0.020	0.083	0.020	0.034	2.676	1.895	1.899	1.890	1.909	1.924	1.914
0.005	0.010	0.005	-0.010	0.059	0.005	0.034	2.681	1.890	1.890	1.890	1.909	1.909	1.909
0.005	0.000	0.000	-0.005	0.034	0.005	0.034	2.661	1.890	1.890	1.885	1.909	1.904	1.904
0.005	0.010	-0.005	-0.005	0.020	-0.015	0.034	2.671	1.890	1.890	1.890	1.904	1.899	1.899
-0.010	0.015	-0.005	-0.010	0.005	-0.005	0.034	2.671	1.885	1.890	1.890	1.904	1.895	1.899
0.000	0.010	-0.005	-0.010	0.000	0.010	0.034	2.666	1.895	1.890	1.890	1.909	1.895	1.899
-0.005	0.005	-0.005	-0.010	-0.020	0.000	0.034	2.676	1.890	1.890	1.890	1.904	1.890	1.899
-0.005	0.000	0.005	-0.005	-0.024	0.000	0.034	2.671	1.890	1.890	1.885	1.904	1.895	1.895
0.005	-0.005	0.005	-0.005	-0.029	0.000	0.034	2.686	1.895	1.885	1.890	1.909	1.895	1.895
0.000	0.010	0.000	0.000	-0.029	0.005	0.034	2.676	1.895	1.890	1.890	1.909	1.899	1.899
0.000	0.000	-0.005	0.005	-0.034	-0.005	0.034	2.681	1.890	1.885	1.885	1.904	1.895	1.895
0.010	0.005	0.010	-0.005	-0.024	-0.029	0.034	2.681	1.890	1.890	1.890	1.904	1.899	1.890
0.000	-0.005	0.005	-0.005	-0.005	0.015	0.034	2.681	1.890	1.885	1.885	1.904	1.909	1.904
0.005	0.005	0.000	-0.010	0.020	-0.005	0.034	2.686	1.890	1.890	1.885	1.904	1.914	1.904
0.015	-0.005	0.005	0.000	0.054	0.015	0.034	2.681	1.895	1.890	1.890	1.904	1.919	1.914
0.005	-0.020	0.005	-0.005	0.073	-0.005	0.034	2.676	1.890	1.880	1.885	1.904	1.919	1.914
0.005	-0.015	0.010	0.000	0.034	0.000	0.034	2.681	1.890	1.885	1.885	1.904	1.899	1.904
0.000	-0.005	0.010	0.005	0.000	0.010	0.034	2.661	1.890	1.890	1.885	1.904	1.890	1.904
-0.005	0.000	0.005	0.005	0.000	0.015	0.034	2.671	1.890	1.890	1.885	1.904	1.895	1.904
-0.005	0.005	0.000	-0.039	-0.005	0.015	0.034	2.686	1.895	1.890	1.885	1.890	1.890	1.899
-0.015	0.005	-0.005	-0.005	-0.034	-0.020	0.034	2.681	1.885	1.890	1.885	1.904	1.885	1.885
-0.005	0.010	0.000	0.005	-0.059	0.010	0.034	2.690	1.895	1.895	1.890	1.909	1.885	1.895
0.000	0.010	-0.005	0.010	-0.054	-0.005	0.034	2.681	1.895	1.895	1.890	1.909	1.890	1.890
-0.005	0.015	-0.005	0.005	-0.015	-0.005	0.034	2.686	1.890	1.890	1.890	1.909	1.904	1.895
0.000	0.015	-0.005	0.015	-0.029	-0.024	0.034	2.681	1.895	1.890	1.890	1.909	1.899	1.890
0.000	0.020	0.005	0.010	-0.054	-0.010	0.034	2.681	1.895	1.890	1.890	1.909	1.895	1.895
0.005	0.000	0.000	0.010	-0.078	-0.020	0.034	2.651	1.890	1.885	1.885	1.904	1.890	1.890
0.000	-0.020	0.005	-0.015	-0.049	-0.005	0.034	2.681	1.885	1.880	1.885	1.899	1.899	1.899
0.005	-0.010	0.000	-0.020	0.000	-0.034	0.034	2.666	1.890	1.885	1.880	1.899	1.914	1.895
0.005	-0.005	-0.005	-0.117	0.078	0.000	0.034	2.666	1.890	1.885	1.880	1.870	1.919	1.914
0.005	0.000	0.000	-0.142	0.073	-0.005	0.034	2.661	1.885	1.890	1.885	1.875	1.899	1.904
0.015	0.005	0.005	-0.142	0.010	0.015	0.034	2.671	1.895	1.890	1.885	1.880	1.880	1.899
0.010	-0.010	0.005	-0.127	0.010	0.015	0.039	2.681	1.890	1.885	1.885	1.890	1.880	1.899
0.005	-0.010	0.000	-0.103	-0.005	0.024	0.034	2.671	1.890	1.885	1.885	1.899	1.880	1.890
-0.005	0.000	0.000	-0.078	0.044	0.039	0.034	2.666	1.890	1.890	1.885	1.904	1.904	1.904
-0.005	0.020	0.000	-0.063	0.117	0.039	0.034	2.686	1.890	1.895	1.890	1.914	1.924	1.914
0.000	0.029	-0.005	-0.039	0.146	0.039	0.034	2.690	1.895	1.899	1.890	1.919	1.929	1.914
-0.010	0.039	-0.005	-0.029	0.161	0.029	0.034	2.700	1.899	1.899	1.890	1.919	1.929	1.919
-0.010	0.020	-0.005	-0.015	0.132	0.020	0.034	2.661	1.895	1.895	1.895	1.919	1.914	1.914
-0.010	0.000	-0.005	0.000	0.059	-0.005	0.034	2.686	1.895	1.890	1.890	1.919	1.895	1.899
-0.015	-0.005	0.000	0.000	0.029	-0.024	0.034	2.676	1.890	1.885	1.890	1.914	1.895	1.890
-0.010	-0.015	-0.005	-0.005	0.000	-0.020	0.034	2.681	1.895	1.885	1.885	1.904	1.890	1.895
-0.005	-0.020	0.000	-0.176	-0.024	-0.010	0.034	2.686	1.895	1.885	1.880	1.860	1.870	1.890
0.010	-0.020	0.005	-0.186	-0.054	0.000	0.034	2.690	1.899	1.885	1.880	1.870	1.865	1.885
0.000	-0.010	0.005	-0.151	-0.054	-0.010	0.034	2.661	1.885	1.890	1.885	1.885	1.870	1.875
-0.005	-0.020	0.005	-0.122	-0.054	0.000	0.034	2.671	1.885	1.885	1.885	1.899	1.875	1.880
0.000	-0.024	0.000	-0.078	-0.054	-0.005	0.039	2.676	1.885	1.885	1.885	1.914	1.885	1.880
0.000	-0.020	0.010	-0.034	-0.054	-0.005	0.034	2.690	1.890	1.885	1.890	1.924	1.895	1.885
0.000	-0.010	0.005	0.000	-0.044	-0.010	0.034	2.671	1.885	1.890	1.885	1.929	1.904	1.885
0.015	0.000	0.005	0.029	-0.049	-0.020	0.034	2.666	1.890	1.890	1.890	1.929	1.909	1.890
0.010	0.005	0.000	0.049	-0.049	-0.005	0.039	2.681	1.885	1.885	1.890	1.929	1.914	1.904
0.000	0.020	-0.005	0.068	-0.039	-0.005	0.034	2.676	1.885	1.890	1.890	1.929	1.919	1.909
-0.005	0.024	-0.005	0.073	-0.034	-0.024	0.034	2.681	1.885	1.890	1.890	1.929	1.919	1.904
0.000	0.024	0.000	0.083	-0.020	-0.005	0.034	2.676	1.885	1.890	1.890	1.924	1.924	1.914
-0.005	0.005	0.000	0.083	-0.020	-0.005	0.034	2.681	1.890	1.885	1.885	1.919	1.924	1.919
-0.005	0.010	0.000	0.083	-0.020	0.005	0.034	2.676	1.890	1.890	1.885	1.914	1.924	1.919
-0.015	0.000	-0.005	0.083	-0.015	0.005	0.034	2.686	1.890	1.885	1.885	1.909	1.914	1.919
-0.015	0.005	-0.005	0.078	-0.005	0.000	0.034	2.671	1.895	1.885	1.885	1.909	1.914	1.919
-0.005	0.000	0.000	0.073	-0.010	0.000	0.034	2.671	1.899	1.890	1.885	1.909	1.909	1.919
0.000	0.000	-0.005	0.083	-0.005	0.000	0.034	2.681	1.895	1.890	1.890	1.909	1.909	1.919
0.000	-0.020	0.005	0.088	0.000	0.005	0.034	2.705	1.899	1.885	1.890	1.909	1.909	1.914
-0.005	-0.024	0.010	0.073	0.015	-0.005	0.034	2.666	1.899	1.890	1.885	1.904	1.909	1.909
0.015	-0.010	0.005	0.073	0.015	-0.024	0.034	2.681	1.899	1.895	1.890	1.904	1.904	1.904
0.010	-0.010	0.005	0.068	-0.005	-0.010	0.034	2.676	1.895	1.895	1.890	1.904	1.899	1.909
0.015	-0.010	0.010	0.063	0.000	-0.010	0.034	2.681	1.899	1.895	1.890	1.904	1.899	1.904
0.015	-0.015	0.005	0.068	0.015	-0.005	0.034	2.666	1.890	1.890	1.890	1.904	1.904	1.909
0.000	-0.029	0.005	0.059	0.015	0.000	0.034	2.676	1.885	1.885	1.890	1.904	1.904	1.904
0.000	-0.020	0.005	0.059	-0.015	0.000	0.034	2.690	1.895	1.885	1.885	1.904	1.890	1.904
-0.015	-0.024	0.000	0.054	-0.039	0.000	0.034	2.676	1.890	1.890	1.885	1.899	1.890	1.899
-0.015	-0.010	0.000	0.059	-0.034	0.005	0.034	2.686	1.895	1.895	1.885	1.904	1.895	1.895
-0.005	-0.005	-0.010	0.054	-0.029	0.010	0.034	2.671	1.895	1.895	1.885	1.904	1.895	1.899
-0.015	0.063	-0.005	0.054	-0.015	0.000	0.034	2.671	1.895	1.919	1.895	1.904	1.899	1.899
-0.010	0.098	-0.005	0.049	0.000	0.010	0.034	2.671	1.895	1.914	1.904	1.909	1.904	1.904
-0.005	0.024	-0.005	0.044	0.029	0.005	0.034	2.646	1.890	1.890	1.899	1.909	1.914	1.904
-0.005	0.015	0.000	0.044	0.039	0.010	0.034	2.676	1.890	1.890	1.895	1.909	1.914	1.909
0.000	0.015	0.000	0.034	0.039	0.015	0.034	2.686	1.895	1.890	1.895	1.914	1.909	1.909
-0.005	0.020	-0.005	0.044	0.024	0.015	0.034	2.690	1.895	1.890	1.895	1.909	1.909	1.909
0.010	0.005	0.000	0.034	0.015	-0.005	0.034	2.656	1.895	1.890	1.890	1.904	1.904	1.899
0.005	0.000	0.005	0.024	0.015	0.010	0.034	2.681	1.899	1.890	1.890	1.904	1.904	1.904
0.015	0.005	0.000	0.029	0.010	0.005	0.034	2.676	1.895	1.890	1.890	1.909	1.899	1.904
0.010	0.000	0.005	0.029	0.000	0.000	0.034	2.676	1.895	1.890	1.890	1.904	1.899	1.899
0.015	0.005	0.010	0.029	0.000	0.000	0.034	2.676	1.895	1.895	1.890	1.904	1.899	1.899
0.020	0.005	0.005	0.029	0.005	-0.010	0.034	2.666	1.895	1.890	1.890	1.904	1.899	1.899
0.005	-0.015	0.000	0.024	0.005	0.005	0.034	2.671	1.890	1.885	1.885	1.904	1.899	1.904
0.010	-0.005	0.000	0.029	0.000	-0.005	0.034	2.690	1.899	1.890	1.885	1.904	1.899	1.899
0.005	-0.010	0.000	0.024	0.000	-0.015	0.034	2.681	1.890	1.885	1.890	1.904	1.899	1.895
0.005	0.024	-0.005	0.024	0.000	0.010	0.034	2.681	1.895	1.899	1.890	1.904	1.899	1.904
-0.010	0.078	-0.005	0.015	0.000	0.005	0.034	2.686	1.895	1.914	1.895	1.904	1.904	1.904
0.010	0.024	0.000	0.020	0.005	0.005	0.034	2.686	1.899	1.895	1.895	1.909	1.904	1.899
0.005	0.015	0.000	0.020	0.015	0.005	0.034	2.681	1.895	1.895	1.890	1.909	1.904	1.904
-0.010	0.000	-0.005	0.020	0.020	-0.015	0.039	2.690	1.890	1.885	1.890	1.909	1.909	1.899
-0.010	0.005	0.000	0.020	0.005	-0.005	0.034	2.676	1.890	1.890	1.890	1.909	1.904	1.899
-0.005	0.010	0.000	0.020	0.000	-0.015	0.034	2.671	1.890	1.890	1.890	1.909	1.899	1.899
-0.005	0.000	0.000	0.015	-0.015	0.000	0.034	2.676	1.890	1.885	1.890	1.904	1.899	1.904
-0.005	-0.010	0.000	0.015	-0.024	0.000	0.034	2.686	1.895	1.885	1.885	1.904	1.895	1.899
0.000	0.005	0.005	0.010	-0.015	-0.020	0.034	2.686	1.895	1.890	1.885	1.904	1.899	1.895
-0.005	-0.005	0.005	0.010	0.000	-0.010	0.034	2.661	1.890	1.885	1.885	1.904	1.904	1.904
-0.005	-0.005	0.005	0.005	-0.005	0.010	0.034	2.676	1.890	1.890	1.885	1.899	1.899	1.904
-0.005	0.000	0.010	0.000	0.015	0.029	0.034	2.686	1.890	1.885	1.885	1.904	1.904	1.909
0.000	0.000	0.005	0.005	0.024	0.015	0.034	2.681	1.890	1.885	1.885	1.904	1.904	1.904
0.000	0.000	0.005	0.005	0.010	0.005	0.034	2.710	1.899	1.890	1.885	1.904	1.899	1.904
-0.010	-0.015	0.000	0.005	0.010	0.010	0.034	2.656	1.890	1.890	1.885	1.904	1.899	1.899
0.000	-0.015	-0.010	0.000	0.024	0.010	0.034	2.671	1.890	1.890	1.885	1.899	1.904	1.904
0.005	-0.005	0.000	0.000	0.020	0.005	0.034	2.686	1.895	1.895	1.885	1.904	1.899	1.899
0.000	0.010	-0.005	0.005	0.010	-0.015	0.034	2.671	1.895	1.895	1.885	1.904	1.899	1.895
0.005	-0.005	0.000	0.000	0.005	0.010	0.034	2.686	1.895	1.890	1.890	1.904	1.899	1.899
0.005	-0.005	-0.005	0.010	0.005	0.000	0.034	2.681	1.895	1.890	1.890	1.909	1.895	1.899
-0.005	-0.020	-0.005	0.015	0.010	0.005	0.034	2.681	1.890	1.885	1.890	1.909	1.899	1.899
0.000	-0.020	0.005	-0.005	0.005	-0.005	0.034	2.676	1.890	1.890	1.890	1.899	1.899	1.899
-0.005	0.015	0.000	-0.088	-0.015	-0.005	0.034	2.676	1.890	1.895	1.885	1.875	1.885	1.890
-0.005	-0.005	0.005	-0.117	-0.005	-0.005	0.034	2.690	1.890	1.890	1.885	1.875	1.885	1.890
0.005	-0.024	0.000	-0.107	0.010	-0.005	0.034	2.676	1.890	1.885	1.885	1.890	1.890	1.890
0.000	-0.020	-0.005	-0.117	-0.039	-0.010	0.034	2.681	1.885	1.885	1.880	1.885	1.870	1.885
0.000	-0.015	0.000	-0.103	-0.078	-0.034	0.034	2.656	1.885	1.885	1.885	1.895	1.870	1.870
0.000	-0.020	0.000	-0.073	-0.059	-0.005	0.034	2.676	1.880	1.885	1.885	1.904	1.885	1.880
0.000	-0.020	0.000	-0.049	-0.034	-0.005	0.034	2.681	1.880	1.880	1.885	1.909	1.895	1.885
0.000	-0.005	-0.005	-0.034	-0.039	-0.005	0.034	2.690	1.885	1.885	1.885	1.909	1.899	1.890
0.000	0.005	0.000	-0.024	-0.020	0.000	0.034	2.661	1.890	1.890	1.890	1.914	1.904	1.895
0.005	0.015	-0.005	-0.010	-0.024	0.005	0.034	2.686	1.890	1.890	1.890	1.919	1.909	1.899
-0.005	0.034	0.000	-0.005	0.029	0.015	0.034	2.666	1.890	1.895	1.890	1.919	1.924	1.909
-0.010	0.024	-0.005	0.010	0.088	0.010	0.034	2.690	1.890	1.890	1.890	1.924	1.938	1.919
-0.010	0.010	-0.005	0.015	0.112	0.020	0.034	2.676	1.890	1.890	1.890	1.919	1.938	1.929
-0.020	-0.010	0.000	0.015	0.059	-0.005	0.034	2.666	1.880	1.875	1.885	1.914	1.914	1.919
-0.010	0.005	0.000	0.015	0.029	0.010	0.034	2.676	1.895	1.885	1.885	1.909	1.904	1.919
-0.005	0.015	-0.010	0.005	0.005	0.020	0.034	2.700	1.899	1.890	1.880	1.904	1.895	1.914
0.005	-0.005	-0.005	-0.015	-0.020	0.020	0.034	2.671	1.899	1.890	1.885	1.895	1.890	1.904
0.005	-0.005	0.000	-0.010	-0.015	0.000	0.034	2.686	1.899	1.890	1.890	1.899	1.890	1.895
0.015	-0.024	0.000	-0.020	0.005	-0.005	0.034	2.671	1.895	1.885	1.885	1.899	1.899	1.899
0.015	-0.039	0.000	-0.015	0.015	0.020	0.034	2.686	1.895	1.885	1.885	1.899	1.899	1.904
0.005	-0.020	0.005	-0.010	0.015	0.015	0.034	2.676	1.890	1.890	1.885	1.904	1.899	1.899
0.005	-0.024	0.010	-0.015	0.010	0.010	0.034	2.666	1.890	1.890	1.885	1.899	1.899	1.899
0.010	-0.020	0.005	-0.073	0.010	0.005	0.034	2.676	1.890	1.890	1.885	1.885	1.895	1.895
0.005	-0.010	0.005	-0.078	0.020	-0.005	0.034	2.656	1.890	1.890	1.885	1.890	1.895	1.890
-0.005	0.005	0.005	-0.068	0.039	0.000	0.034	2.651	1.885	1.895	1.885	1.899	1.899	1.895
0.000	0.005	-0.005	-0.049	0.024	-0.020	0.034	2.676	1.885	1.890	1.890	1.904	1.895	1.895
0.005	0.015	0.000	-0.034	0.005	0.000	0.034	2.671	1.890	1.895	1.885	1.909	1.890	1.895
-0.005	0.059	-0.005	-0.020	-0.015	0.000	0.039	2.666	1.890	1.909	1.890	1.914	1.890	1.895
-0.005	0.054	-0.005	-0.005	-0.044	-0.020	0.034	2.686	1.890	1.899	1.895	1.914	1.890	1.890
-0.005	0.024	-0.005	0.010	-0.054	-0.020	0.034	2.676	1.885	1.885	1.890	1.919	1.895	1.890
-0.005	0.000	-0.005	0.020	-0.073	0.005	0.034	2.681	1.885	1.880	1.885	1.914	1.895	1.895
-0.010	0.005	-0.010	0.024	-0.078	-0.005	0.034	2.700	1.890	1.885	1.885	1.914	1.899	1.895
0.005	-0.010	0.000	0.034	-0.068	0.015	0.034	2.666	1.890	1.880	1.885	1.914	1.904	1.899
0.005	-0.005	0.005	0.034	-0.049	0.024	0.034	2.686	1.890	1.885	1.885	1.914	1.909	1.909
0.005	-0.005	0.000	0.034	-0.015	-0.005	0.034	2.681	1.895	1.885	1.885	1.909	1.919	1.904
0.010	-0.020	0.005	0.054	0.010	0.010	0.039	2.676	1.895	1.885	1.885	1.914	1.924	1.914
0.005	-0.010	0.010	0.034	0.039	0.010	0.034	2.681	1.890	1.890	1.885	1.904	1.924	1.914
0.005	0.005	0.010	-0.068	0.059	0.000	0.034	2.671	1.890	1.890	1.885	1.875	1.914	1.914
0.005	0.005	0.005	-0.073	0.054	0.000	0.034	2.681	1.890	1.890	1.885	1.880	1.899	1.909
0.000	-0.005	0.005	-0.054	0.024	-0.005	0.034	2.690	1.890	1.890	1.885	1.895	1.890	1.899
-0.005	0.015	0.000	-0.034	0.010	-0.020	0.034	2.686	1.890	1.895	1.885	1.899	1.885	1.895
0.000	0.015	0.000	-0.024	0.015	-0.015	0.034	2.676	1.890	1.895	1.885	1.904	1.895	1.895
0.000	0.000	0.000	-0.010	0.029	-0.015	0.039	2.656	1.885	1.885	1.885	1.904	1.899	1.899
-0.005	-0.034	0.000	-0.103	0.063	-0.010	0.034	2.686	1.890	1.875	1.880	1.880	1.904	1.899
-0.015	-0.015	0.000	-0.107	0.059	-0.034	0.034	2.661	1.885	1.880	1.880	1.885	1.890	1.890
-0.005	0.005	0.000	-0.083	0.068	0.010	0.034	2.681	1.890	1.890	1.885	1.895	1.899	1.909
-0.010	0.020	0.000	-0.049	0.063	0.020	0.034	2.681	1.890	1.890	1.890	1.909	1.899	1.909
-0.010	0.010	0.000	-0.015	0.029	0.029	0.034	2.700	1.899	1.895	1.890	1.919	1.895	1.904
-0.005	0.005	0.000	0.005	0.024	0.029	0.034	2.671	1.899	1.895	1.890	1.919	1.899	1.904
0.000	0.005	0.005	0.024	0.015	0.039	0.034	2.671	1.895	1.895	1.890	1.924	1.904	1.904
-0.005	0.000	0.000	0.039	-0.020	0.020	0.034	2.686	1.899	1.890	1.890	1.919	1.899	1.899
0.005	-0.005	-0.005	0.044	-0.015	0.020	0.034	2.671	1.890	1.890	1.890	1.919	1.904	1.899
0.010	-0.005	0.005	0.049	-0.024	0.024	0.034	2.686	1.895	1.890	1.890	1.919	1.904	1.899
0.010	0.005	0.000	0.063	-0.039	0.005	0.034	2.686	1.895	1.895	1.890	1.919	1.904	1.899
0.000	-0.005	0.005	0.063	-0.049	0.015	0.034	2.686	1.895	1.890	1.890	1.914	1.904	1.904
0.005	0.005	0.000	0.073	-0.044	0.000	0.034	2.656	1.890	1.895	1.890	1.919	1.904	1.899
0.010	0.034	0.005	0.083	-0.063	0.000	0.034	2.666	1.895	1.899	1.895	1.919	1.904	1.899
0.010	0.015	0.005	0.093	-0.068	0.000	0.034	2.686	1.890	1.890	1.895	1.919	1.904	1.899
0.005	0.000	0.005	0.083	-0.063	-0.010	0.034	2.661	1.885	1.885	1.890	1.914	1.909	1.899
0.000	-0.010	0.000	0.068	-0.059	-0.010	0.034	2.695	1.890	1.880	1.885	1.909	1.904	1.899
-0.010	-0.005	-0.005	0.063	-0.073	-0.024	0.034	2.686	1.885	1.885	1.885	1.904	1.899	1.899
0.005	-0.010	-0.005	0.059	-0.054	-0.024	0.034	2.671	1.890	1.885	1.880	1.899	1.904	1.899
-0.005	0.000	0.000	0.044	-0.005	-0.010	0.034	2.690	1.895	1.890	1.885	1.899	1.914	1.909
0.000	0.039	-0.005	0.000	0.015	-0.010	0.034	2.676	1.895	1.899	1.890	1.890	1.914	1.909
0.005	0.024	-0.005	0.010	0.054	-0.010	0.034	2.676	1.895	1.895	1.890	1.899	1.919	1.914
0.005	-0.024	-0.005	0.024	0.029	-0.010	0.034	2.681	1.895	1.880	1.885	1.904	1.904	1.909
0.005	-0.015	-0.005	0.034	0.029	-0.005	0.034	2.686	1.895	1.890	1.890	1.904	1.904	1.909
0.000	-0.015	-0.005	0.039	0.049	-0.015	0.039	2.686	1.895	1.890	1.885	1.909	1.909	1.909
0.005	-0.005	-0.005	0.034	0.078	-0.020	0.034	2.676	1.895	1.890	1.890	1.909	1.914	1.909
0.000	0.000	-0.005	0.034	0.083	-0.020	0.034	2.676	1.895	1.895	1.890	1.904	1.914	1.909
-0.005	-0.005	0.000	0.029	0.044	0.005	0.034	2.671	1.895	1.885	1.890	1.904	1.899	1.914
0.000	-0.024	0.010	0.024	0.034	-0.005	0.034	2.700	1.895	1.885	1.890	1.904	1.895	1.904
0.010	-0.024	0.005	0.024	0.005	0.005	0.034	2.671	1.895	1.890	1.885	1.904	1.890	1.904
0.005	-0.024	0.005	0.024	-0.015	0.000	0.034	2.686	1.895	1.890	1.885	1.904	1.885	1.899
0.015	-0.005	0.005	0.029	-0.024	0.000	0.034	2.661	1.895	1.895	1.890	1.904	1.890	1.895
0.015	-0.005	0.000	0.034	-0.029	0.005	0.034	2.686	1.895	1.895	1.890	1.904	1.890	1.890
-0.005	-0.005	-0.005	0.034	-0.034	-0.005	0.034	2.686	1.890	1.895	1.890	1.909	1.895	1.890
-0.010	0.020	-0.005	0.039	-0.005	-0.010	0.034	2.686	1.890	1.899	1.895	1.909	1.904	1.895
-0.020	0.063	0.000	0.054	0.010	0.024	0.034	2.681	1.890	1.909	1.895	1.914	1.914	1.909
-0.020	0.024	-0.005	0.054	0.024	0.024	0.034	2.676	1.890	1.895	1.895	1.914	1.914	1.909
-0.020	0.015	-0.005	0.054	0.015	0.015	0.034	2.681	1.890	1.890	1.895	1.914	1.909	1.909
-0.005	0.020	-0.010	0.054	0.015	0.010	0.034	2.671	1.895	1.890	1.890	1.914	1.909	1.909
-0.010	0.010	-0.005	0.049	0.005	0.010	0.034	2.686	1.895	1.890	1.890	1.909	1.904	1.904
-0.010	-0.015	0.005	0.054	0.000	0.020	0.034	2.681	1.895	1.885	1.890	1.909	1.904	1.909
-0.005	0.044	0.000	0.063	0.000	0.000	0.034	2.686	1.899	1.904	1.895	1.914	1.904	1.904
0.000	-0.010	0.005	0.044	-0.005	0.010	0.034	2.686	1.895	1.885	1.890	1.909	1.899	1.904
0.005	-0.039	0.000	0.024	-0.005	0.010	0.034	2.676	1.895	1.880	1.885	1.899	1.899	1.904
0.005	-0.015	0.005	0.015	-0.029	-0.005	0.034	2.705	1.899	1.890	1.885	1.899	1.890	1.895
0.005	-0.015	0.010	0.005	-0.029	0.000	0.039	2.661	1.890	1.895	1.890	1.899	1.890	1.895
-0.010	-0.010	0.000	0.005	-0.029	0.000	0.034	2.676	1.890	1.890	1.885	1.899	1.890	1.895
0.000	-0.015	0.000	0.015	-0.024	0.000	0.034	2.686	1.890	1.885	1.885	1.904	1.895	1.895
-0.005	-0.010	-0.005	0.015	-0.024	-0.005	0.039	2.686	1.890	1.885	1.885	1.904	1.895	1.890
-0.005	-0.005	0.000	0.010	-0.039	-0.005	0.039	2.671	1.890	1.890	1.885	1.899	1.895	1.890
-0.015	0.015	0.000	0.005	-0.020	-0.005	0.034	2.686	1.885	1.895	1.890	1.899	1.899	1.895
-0.010	-0.005	-0.005	0.005	-0.005	-0.015	0.034	2.681	1.885	1.885	1.885	1.904	1.899	1.895
-0.010	0.000	-0.005	0.010	0.024	-0.020	0.034	2.690	1.890	1.890	1.885	1.904	1.909	1.899
-0.005	0.015	-0.005	0.000	0.039	-0.005	0.034	2.671	1.890	1.895	1.890	1.904	1.914	1.904
-0.015	0.015	-0.010	0.005	0.034	-0.010	0.034	2.783	1.885	1.890	1.890	1.904	1.909	1.909
-0.005	0.015	-0.005	0.010	0.010	0.000	0.034	2.656	1.885	1.890	1.890	1.909	1.899	1.904
-0.010	0.005	0.000	0.015	0.005	0.000	0.034	2.671	1.890	1.885	1.890	1.909	1.899	1.904
0.000	0.005	0.000	0.010	-0.005	-0.024	0.034	2.646	1.909	1.890	1.885	1.904	1.895	1.895
0.005	-0.010	0.000	0.010	0.005	0.020	0.034	2.725	1.904	1.890	1.890	1.904	1.904	1.909
0.005	-0.010	0.000	0.005	0.005	0.020	0.034	2.642	1.895	1.890	1.885	1.904	1.904	1.904
0.010	-0.020	0.005	0.000	0.010	0.024	0.034	2.729	1.899	1.890	1.890	1.904	1.899	1.904
0.020	-0.005	0.000	-0.005	0.000	0.029	0.034	2.642	1.895	1.895	1.890	1.904	1.899	1.904
0.015	-0.029	0.005	0.005	-0.015	0.015	0.034	2.651	1.890	1.890	1.890	1.904	1.895	1.899
0.010	-0.024	0.005	0.005	-0.005	0.020	0.034	2.734	1.895	1.885	1.885	1.904	1.899	1.899
0.015	0.000	0.005	0.010	0.000	0.015	0.034	2.729	1.899	1.899	1.890	1.904	1.904	1.899
0.020	-0.010	0.010	0.010	0.000	0.010	0.034	2.739	1.904	1.899	1.895	1.909	1.899	1.895
0.010	0.010	0.005	0.010	-0.005	-0.010	0.034	2.720	1.904	1.904	1.895	1.909	1.899	1.895
0.010	0.034	0.005	0.024	-0.010	0.005	0.034	2.734	1.904	1.909	1.899	1.919	1.904	1.899
0.005	0.059	-0.005	0.034	-0.015	-0.010	0.039	2.642	1.895	1.914	1.899	1.919	1.904	1.895
0.000	0.093	-0.005	0.034	-0.015	0.000	0.039	2.632	1.904	1.919	1.909	1.919	1.909	1.904
-0.005	0.059	-0.005	0.029	-0.034	-0.005	0.039	2.656	1.895	1.899	1.904	1.919	1.904	1.904
-0.005	-0.015	0.000	0.029	-0.039	-0.005	0.039	2.666	1.890	1.880	1.895	1.919	1.909	1.899
0.005	-0.010	-0.005	0.020	-0.020	-0.005	0.039	2.773	1.909	1.890	1.895	1.914	1.914	1.909
0.010	0.010	-0.010	0.010	0.034	0.000	0.034	2.637	1.909	1.895	1.895	1.909	1.929	1.914
0.010	0.024	-0.005	0.015	0.054	-0.005	0.034	2.646	1.904	1.904	1.899	1.914	1.924	1.914
0.020	-0.015	0.000	0.015	0.073	0.005	0.034	2.725	1.904	1.890	1.899	1.914	1.929	1.919
0.005	-0.029	0.000	0.015	0.034	0.005	0.034	2.700	1.904	1.890	1.895	1.914	1.909	1.919
0.020	-0.024	0.000	0.005	0.029	-0.005	0.034	2.656	1.914	1.899	1.895	1.909	1.904	1.914
0.015	-0.015	0.005	0.010	-0.005	-0.005	0.034	2.695	1.904	1.899	1.895	1.909	1.899	1.909
0.015	0.015	-0.005	0.010	0.005	0.000	0.034	2.671	1.899	1.909	1.899	1.909	1.904	1.904
0.010	0.010	0.000	0.039	-0.034	-0.005	0.034	2.627	1.890	1.904	1.899	1.919	1.895	1.904
0.010	-0.010	0.010	0.024	-0.044	0.005	0.034	2.681	1.890	1.890	1.899	1.914	1.899	1.904
0.000	-0.039	0.000	0.010	-0.039	-0.005	0.034	2.720	1.890	1.885	1.890	1.909	1.899	1.899
0.000	-0.015	0.000	0.005	-0.024	0.000	0.034	2.666	1.890	1.890	1.890	1.909	1.909	1.904
0.000	0.005	0.000	0.000	-0.024	0.000	0.034	2.695	1.895	1.895	1.890	1.909	1.904	1.904
-0.005	0.010	-0.005	0.000	-0.029	0.010	0.039	2.686	1.899	1.895	1.890	1.909	1.904	1.904
-0.015	-0.010	0.000	0.010	-0.010	0.005	0.034	2.695	1.899	1.890	1.895	1.914	1.909	1.909
-0.010	0.015	-0.005	0.020	-0.034	0.005	0.034	2.676	1.895	1.904	1.895	1.914	1.904	1.909
-0.020	0.078	-0.005	0.015	0.024	0.010	0.034	2.671	1.899	1.914	1.899	1.919	1.924	1.914
-0.015	0.020	0.005	0.010	0.122	0.005	0.034	2.681	1.895	1.895	1.899	1.919	1.948	1.924
-0.010	0.005	0.010	0.000	0.166	-0.005	0.034	2.690	1.899	1.890	1.895	1.914	1.948	1.929
-0.010	0.034	0.005	-0.005	0.093	0.005	0.034	2.676	1.899	1.904	1.899	1.909	1.914	1.924
-0.015	0.034	-0.005	-0.005	0.010	0.010	0.034	2.666	1.895	1.899	1.895	1.909	1.890	1.914
-0.010	0.005	0.000	-0.010	-0.054	0.020	0.034	2.681	1.895	1.890	1.895	1.904	1.875	1.904
0.010	-0.010	0.000	-0.020	-0.068	0.005	0.034	2.686	1.899	1.890	1.890	1.904	1.880	1.895
0.020	-0.015	0.005	-0.020	-0.039	-0.005	0.034	2.681	1.899	1.890	1.890	1.904	1.895	1.890
0.010	-0.054	0.010	-0.024	-0.005	0.000	0.034	2.681	1.895	1.880	1.890	1.904	1.904	1.899
0.010	-0.034	0.010	-0.024	0.034	-0.010	0.034	2.686	1.895	1.890	1.885	1.904	1.914	1.899
-0.005	-0.010	0.005	-0.015	0.015	-0.020	0.034	2.681	1.890	1.895	1.890	1.904	1.904	1.899
0.005	-0.034	0.000	-0.005	-0.044	-0.020	0.034	2.681	1.895	1.885	1.885	1.904	1.890	1.895
0.015	-0.063	0.000	-0.015	-0.005	-0.024	0.034	2.676	1.890	1.880	1.880	1.904	1.904	1.899
0.005	-0.039	0.005	-0.010	0.054	-0.020	0.039	2.681	1.895	1.890	1.885	1.909	1.919	1.904
0.005	0.010	0.005	-0.005	0.088	-0.005	0.034	2.705	1.904	1.909	1.895	1.914	1.924	1.914
0.000	0.122	0.000	0.000	0.098	0.000	0.034	2.676	1.904	1.934	1.904	1.914	1.929	1.919
0.010	0.020	-0.005	-0.005	0.117	0.005	0.034	2.695	1.899	1.899	1.899	1.914	1.929	1.924
0.000	0.005	-0.005	0.000	0.093	0.015	0.034	2.676	1.899	1.895	1.899	1.919	1.914	1.924
0.005	0.015	0.000	0.000	0.049	0.024	0.034	2.705	1.899	1.899	1.895	1.914	1.904	1.914
0.010	0.010	-0.005	0.000	0.024	0.015	0.034	2.686	1.899	1.895	1.895	1.914	1.899	1.909
0.000	0.005	0.005	-0.010	-0.010	0.015	0.034	2.651	1.899	1.895	1.899	1.914	1.890	1.904
-0.005	0.000	0.005	-0.010	-0.029	0.029	0.034	2.646	1.890	1.895	1.895	1.909	1.890	1.904
0.005	-0.005	0.000	-0.010	-0.034	0.024	0.034	2.656	1.890	1.890	1.890	1.914	1.895	1.899
0.005	-0.034	0.005	0.000	-0.020	0.044	0.034	2.676	1.890	1.880	1.890	1.914	1.904	1.904
0.000	-0.078	0.005	-0.005	-0.020	0.049	0.034	2.642	1.885	1.870	1.880	1.904	1.904	1.904
0.005	-0.068	0.005	0.000	-0.029	0.029	0.034	2.734	1.895	1.880	1.880	1.904	1.899	1.899
0.010	-0.044	0.005	-0.005	-0.034	0.024	0.039	2.651	1.895	1.890	1.880	1.899	1.895	1.899
0.000	-0.010	0.000	-0.015	-0.039	0.000	0.034	2.651	1.890	1.899	1.885	1.899	1.895	1.890
0.000	-0.005	-0.005	-0.059	-0.034	0.015	0.034	2.632	1.885	1.895	1.885	1.890	1.890	1.895
0.000	0.063	0.000	-0.020	-0.010	-0.010	0.034	2.656	1.885	1.914	1.895	1.909	1.899	1.885
-0.010	0.049	0.000	-0.015	0.005	-0.039	0.034	2.744	1.890	1.899	1.899	1.909	1.909	1.890
-0.005	0.020	-0.005	-0.005	-0.005	-0.010	0.034	2.646	1.885	1.890	1.895	1.909	1.904	1.899
-0.005	0.024	-0.005	-0.005	-0.020	-0.005	0.034	2.651	1.885	1.885	1.890	1.909	1.904	1.904
-0.005	0.010	0.005	-0.010	-0.039	-0.005	0.034	2.676	1.890	1.885	1.890	1.909	1.899	1.899
0.005	0.010	0.005	-0.020	-0.044	-0.024	0.034	2.627	1.885	1.880	1.890	1.904	1.895	1.895
0.010	-0.024	0.005	-0.024	-0.059	-0.005	0.034	2.695	1.885	1.875	1.880	1.904	1.895	1.899
-0.010	0.034	-0.005	-0.024	-0.063	-0.015	0.034	2.739	1.895	1.895	1.885	1.904	1.890	1.895
-0.024	0.005	0.000	-0.024	-0.049	-0.005	0.039	2.690	1.885	1.885	1.885	1.899	1.899	1.899
0.000	-0.005	0.005	-0.020	-0.029	-0.039	0.039	2.695	1.895	1.885	1.885	1.904	1.904	1.895
0.005	-0.020	0.005	-0.020	-0.005	-0.024	0.034	2.671	1.890	1.880	1.885	1.904	1.909	1.899
-0.005	-0.020	0.005	-0.020	0.000	-0.029	0.034	2.695	1.895	1.885	1.885	1.904	1.904	1.899
0.015	-0.024	0.010	-0.020	-0.029	-0.054	0.034	2.700	1.899	1.885	1.880	1.899	1.895	1.895
0.005	-0.029	0.005	-0.020	-0.024	-0.029	0.034	2.686	1.895	1.890	1.880	1.899	1.895	1.899
0.010	0.049	0.000	-0.015	-0.020	-0.010	0.034	2.681	1.899	1.909	1.890	1.904	1.899	1.904
0.005	0.000	0.000	-0.015	0.010	-0.010	0.034	2.700	1.899	1.890	1.890	1.904	1.909	1.909
0.005	-0.024	0.000	-0.010	0.024	0.005	0.034	2.671	1.895	1.890	1.890	1.904	1.909	1.909
0.010	-0.005	0.000	-0.005	0.005	-0.020	0.034	2.676	1.895	1.895	1.890	1.909	1.904	1.909
-0.005	0.000	-0.010	-0.010	0.039	0.015	0.034	2.681	1.895	1.895	1.890	1.909	1.919	1.914
0.000	0.005	0.000	-0.005	0.078	0.005	0.034	2.681	1.895	1.895	1.890	1.909	1.924	1.914
-0.005	0.000	0.005	-0.005	0.044	0.010	0.039	2.686	1.899	1.895	1.890	1.909	1.909	1.914
-0.005	0.010	0.000	0.000	0.024	0.005	0.039	2.671	1.895	1.899	1.895	1.909	1.899	1.914
-0.005	0.005	-0.005	-0.005	-0.005	0.024	0.039	2.681	1.895	1.895	1.890	1.909	1.895	1.909
-0.005	-0.029	0.000	-0.005	-0.024	0.020	0.034	2.705	1.895	1.880	1.890	1.909	1.890	1.904
-0.005	-0.068	0.000	-0.005	-0.073	0.020	0.039	2.700	1.899	1.875	1.880	1.904	1.880	1.895
0.010	-0.063	0.005	-0.015	-0.093	0.039	0.034	2.705	1.899	1.885	1.885	1.899	1.880	1.895
0.015	-0.044	0.005	-0.010	-0.073	0.024	0.034	2.681	1.899	1.895	1.885	1.899	1.890	1.890
0.010	-0.044	0.000	-0.010	0.010	0.020	0.034	2.671	1.895	1.890	1.890	1.904	1.914	1.899
0.000	0.044	0.000	-0.010	0.059	0.015	0.034	2.681	1.895	1.919	1.899	1.909	1.924	1.904
0.000	0.137	0.000	-0.005	0.083	0.000	0.034	2.700	1.899	1.938	1.909	1.914	1.929	1.909
0.005	0.039	0.005	0.000	0.059	-0.005	0.034	2.686	1.895	1.895	1.904	1.919	1.914	1.909
-0.010	-0.005	0.005	0.005	0.068	-0.024	0.034	2.671	1.885	1.880	1.895	1.919	1.919	1.909
-0.015	-0.029	0.000	0.010	0.068	-0.010	0.034	2.793	1.885	1.875	1.885	1.914	1.914	1.909
-0.015	0.005	-0.005	0.010	0.044	-0.005	0.034	2.651	1.885	1.890	1.890	1.914	1.909	1.914
-0.010	0.010	-0.005	0.015	0.020	-0.005	0.034	2.690	1.895	1.890	1.885	1.914	1.899	1.909
-0.010	0.020	-0.005	0.015	0.000	0.000	0.034	2.676	1.895	1.890	1.890	1.909	1.899	1.909
-0.010	0.005	-0.005	0.015	-0.020	-0.015	0.034	2.729	1.895	1.890	1.890	1.909	1.895	1.899
-0.005	-0.005	-0.005	0.015	-0.029	-0.010	0.039	2.739	1.909	1.890	1.890	1.909	1.895	1.899
0.005	-0.005	0.000	0.024	-0.034	-0.020	0.034	2.651	1.899	1.895	1.890	1.909	1.899	1.895
0.010	0.020	0.000	0.020	-0.029	-0.020	0.034	2.690	1.899	1.904	1.895	1.909	1.899	1.895
-0.005	0.034	0.005	0.020	-0.024	-0.005	0.034	2.749	1.895	1.904	1.899	1.909	1.904	1.904
0.000	0.044	0.010	0.015	-0.010	0.015	0.034	2.715	1.890	1.899	1.899	1.914	1.904	1.909
0.000	0.020	0.005	0.000	-0.024	0.024	0.034	2.676	1.890	1.890	1.895	1.909	1.904	1.909
0.005	0.005	0.015	0.000	-0.029	0.020	0.034	2.622	1.885	1.885	1.895	1.909	1.904	1.904
0.000	-0.010	0.010	-0.010	-0.010	0.024	0.034	2.695	1.890	1.875	1.890	1.909	1.909	1.909
0.010	-0.010	0.010	-0.005	0.039	0.005	0.034	2.642	1.885	1.880	1.885	1.909	1.919	1.909
0.010	-0.029	0.005	-0.010	0.029	0.024	0.034	2.676	1.885	1.875	1.880	1.904	1.909	1.914
0.000	-0.010	0.005	-0.005	0.000	0.024	0.034	2.676	1.890	1.880	1.880	1.904	1.895	1.909
-0.005	-0.010	0.010	0.010	-0.005	0.000	0.034	2.681	1.890	1.885	1.880	1.904	1.899	1.899
-0.010	-0.054	0.005	0.010	-0.015	0.000	0.034	2.690	1.885	1.875	1.875	1.904	1.895	1.895
-0.020	0.000	0.000	0.010	-0.015	0.015	0.034	2.671	1.885	1.895	1.880	1.899	1.895	1.904
-0.024	0.073	-0.005	-0.005	-0.015	-0.010	0.034	2.700	1.895	1.914	1.890	1.899	1.895	1.895
-0.015	0.068	0.000	-0.005	-0.010	-0.005	0.034	2.686	1.899	1.904	1.895	1.904	1.899	1.895
-0.005	0.000	0.000	-0.005	-0.010	-0.039	0.034	2.676	1.895	1.885	1.890	1.904	1.899	1.890
0.005	-0.039	-0.005	0.000	0.000	0.005	0.034	2.676	1.895	1.880	1.885	1.904	1.904	1.904
0.010	-0.034	0.000	0.000	-0.005	-0.015	0.039	2.690	1.899	1.885	1.885	1.904	1.899	1.895
0.005	-0.020	0.000	0.000	-0.029	0.005	0.034	2.690	1.899	1.895	1.890	1.904	1.895	1.899
-0.005	-0.015	0.000	0.005	-0.044	0.010	0.034	2.710	1.899	1.895	1.890	1.909	1.890	1.899
0.010	-0.034	0.005	0.005	-0.054	0.015	0.039	2.681	1.899	1.890	1.890	1.904	1.895	1.899
0.015	0.000	0.010	0.005	-0.029	0.015	0.034	2.666	1.899	1.904	1.895	1.909	1.904	1.899
0.015	0.059	0.005	0.005	0.029	0.005	0.034	2.686	1.899	1.919	1.899	1.914	1.919	1.904
0.015	0.029	0.000	0.010	0.059	-0.005	0.034	2.676	1.895	1.899	1.899	1.914	1.924	1.909
0.010	-0.024	0.005	0.010	0.044	0.010	0.034	2.671	1.890	1.885	1.895	1.914	1.914	1.914
0.010	-0.010	0.005	0.015	0.034	0.000	0.034	2.700	1.899	1.890	1.890	1.914	1.914	1.909
0.005	-0.010	0.010	0.005	0.034	0.005	0.034	2.695	1.895	1.895	1.890	1.909	1.914	1.909
0.000	-0.010	0.000	0.005	0.054	-0.010	0.034	2.695	1.895	1.890	1.890	1.909	1.914	1.909
-0.010	-0.010	0.005	0.000	0.063	0.000	0.034	2.671	1.895	1.885	1.890	1.909	1.914	1.914
-0.005	-0.005	0.005	0.005	0.044	0.005	0.034	2.695	1.899	1.890	1.890	1.909	1.909	1.909
0.000	-0.005	0.000	0.020	0.015	0.005	0.034	2.671	1.895	1.895	1.890	1.909	1.899	1.909
-0.010	0.073	-0.005	0.020	0.005	-0.005	0.034	2.695	1.899	1.919	1.899	1.914	1.899	1.904
-0.005	0.068	0.000	0.015	0.024	0.000	0.034	2.686	1.899	1.909	1.899	1.914	1.909	1.909
-0.005	0.010	0.000	0.000	-0.005	0.005	0.034	2.661	1.899	1.890	1.895	1.909	1.899	1.904
0.005	0.024	-0.005	-0.005	-0.015	-0.010	0.039	2.778	1.895	1.895	1.895	1.909	1.895	1.895
0.000	0.010	0.000	-0.005	-0.049	-0.029	0.034	2.651	1.890	1.890	1.890	1.909	1.890	1.890
0.005	-0.005	0.000	-0.005	-0.068	-0.015	0.034	2.681	1.890	1.885	1.890	1.909	1.890	1.895
0.005	-0.010	0.005	0.000	-0.049	0.000	0.034	2.651	1.890	1.885	1.890	1.909	1.899	1.895
0.015	-0.005	0.000	-0.005	-0.029	-0.005	0.034	2.642	1.895	1.885	1.890	1.904	1.904	1.899
0.010	-0.005	0.005	-0.039	-0.024	-0.005	0.034	2.744	1.899	1.895	1.885	1.895	1.904	1.904
0.010	-0.005	0.005	-0.034	-0.044	-0.029	0.039	2.646	1.895	1.885	1.890	1.899	1.890	1.895
0.015	-0.010	0.010	-0.029	-0.063	0.000	0.039	2.739	1.899	1.890	1.885	1.899	1.890	1.899
0.020	-0.010	0.005	-0.024	-0.049	-0.020	0.034	2.661	1.904	1.890	1.890	1.904	1.895	1.890
0.005	-0.024	0.000	-0.005	-0.024	-0.020	0.034	2.637	1.890	1.885	1.885	1.909	1.909	1.899
0.005	-0.020	0.000	0.000	0.039	0.010	0.034	2.671	1.890	1.885	1.885	1.914	1.929	1.909
-0.005	0.015	0.000	-0.005	0.063	0.010	0.034	2.661	1.890	1.899	1.890	1.909	1.929	1.919
-0.010	0.000	0.000	-0.024	0.093	0.020	0.034	2.676	1.890	1.890	1.890	1.904	1.929	1.919
-0.010	0.024	0.000	-0.020	0.200	0.020	0.039	2.642	1.890	1.895	1.890	1.909	1.953	1.934
-0.010	0.000	0.000	-0.020	0.205	0.029	0.034	2.695	1.899	1.885	1.890	1.909	1.938	1.934
-0.005	-0.005	0.000	-0.005	0.127	0.029	0.034	2.705	1.904	1.895	1.895	1.909	1.909	1.929
-0.005	0.029	0.000	0.000	0.039	0.034	0.039	2.671	1.904	1.909	1.895	1.909	1.885	1.919
-0.010	0.137	-0.005	0.000	0.044	0.005	0.034	2.695	1.909	1.934	1.904	1.914	1.890	1.904
-0.015	0.117	0.000	0.005	-0.005	0.020	0.034	2.681	1.904	1.919	1.909	1.919	1.885	1.899
0.000	0.000	0.005	0.010	-0.039	0.020	0.034	2.700	1.899	1.875	1.899	1.919	1.885	1.895
0.015	-0.127	0.000	0.015	-0.039	0.005	0.034	2.676	1.895	1.851	1.885	1.914	1.890	1.890
0.020	-0.098	0.000	0.015	-0.068	0.010	0.034	2.671	1.895	1.875	1.880	1.909	1.890	1.890
0.010	-0.059	0.000	0.010	-0.068	-0.005	0.039	2.681	1.890	1.885	1.880	1.904	1.890	1.885
0.010	-0.049	0.005	0.010	-0.029	-0.010	0.039	2.681	1.895	1.890	1.880	1.904	1.904	1.890
0.010	-0.005	0.000	0.010	-0.015	0.000	0.039	2.690	1.895	1.904	1.890	1.904	1.904	1.899
0.000	0.215	-0.005	0.010	-0.024	-0.010	0.039	2.676	1.899	1.968	1.909	1.914	1.904	1.899
-0.010	0.137	-0.005	0.015	-0.020	-0.005	0.034	2.681	1.890	1.914	1.909	1.919	1.904	1.899
-0.010	0.005	0.000	0.015	-0.015	-0.005	0.039	2.681	1.890	1.875	1.899	1.919	1.909	1.904
-0.005	-0.010	0.000	0.010	-0.015	-0.010	0.034	2.671	1.890	1.875	1.890	1.914	1.909	1.899
0.010	-0.005	-0.005	0.005	-0.020	-0.005	0.039	2.671	1.890	1.880	1.885	1.909	1.909	1.909
-0.005	0.005	-0.010	0.010	-0.020	0.010	0.034	2.681	1.890	1.885	1.885	1.909	1.904	1.909
-0.005	0.020	-0.005	0.000	-0.034	0.010	0.034	2.710	1.899	1.890	1.885	1.904	1.904	1.904
-0.005	0.015	0.000	0.000	-0.039	0.010	0.034	2.710	1.899	1.895	1.885	1.904	1.899	1.904
0.000	-0.010	-0.005	0.000	-0.054	0.005	0.039	2.695	1.899	1.890	1.885	1.904	1.895	1.899
0.000	-0.010	0.000	0.005	-0.073	-0.005	0.039	2.671	1.895	1.885	1.885	1.904	1.895	1.899
0.005	-0.010	0.000	0.005	-0.044	-0.039	0.039	2.690	1.895	1.890	1.890	1.904	1.899	1.890
0.000	-0.010	0.000	0.005	-0.039	-0.024	0.039	2.666	1.899	1.890	1.890	1.904	1.904	1.899
0.000	-0.010	0.005	-0.015	-0.024	-0.029	0.039	2.671	1.895	1.890	1.890	1.899	1.904	1.895
0.010	-0.005	0.005	-0.034	0.000	-0.034	0.034	2.690	1.899	1.895	1.885	1.899	1.904	1.895
0.005	0.005	0.000	-0.044	0.000	-0.044	0.039	2.671	1.895	1.899	1.890	1.895	1.904	1.895
0.010	0.024	0.005	-0.044	-0.024	-0.044	0.034	2.642	1.890	1.899	1.890	1.899	1.895	1.895
0.005	-0.024	0.005	-0.039	-0.015	-0.034	0.034	2.656	1.885	1.875	1.885	1.899	1.899	1.899
-0.005	-0.029	0.005	-0.034	0.034	-0.020	0.034	2.686	1.875	1.875	1.885	1.904	1.909	1.909
0.000	-0.020	0.005	-0.034	0.044	0.005	0.034	2.783	1.895	1.885	1.885	1.904	1.914	1.914
-0.015	-0.054	0.000	-0.029	0.068	0.020	0.039	2.666	1.890	1.875	1.880	1.904	1.919	1.919
-0.015	-0.020	-0.005	-0.029	0.122	0.034	0.039	2.622	1.885	1.885	1.880	1.899	1.929	1.929
-0.020	0.068	-0.005	-0.078	0.112	0.024	0.039	2.729	1.899	1.914	1.890	1.890	1.909	1.919
-0.010	0.029	-0.010	-0.083	0.093	0.024	0.039	2.661	1.895	1.890	1.890	1.890	1.899	1.919
0.005	-0.098	0.000	-0.078	0.049	0.034	0.039	2.739	1.904	1.865	1.880	1.895	1.885	1.909
0.020	-0.015	-0.005	-0.068	0.020	0.034	0.039	2.627	1.904	1.899	1.885	1.899	1.880	1.899
0.010	0.005	-0.005	-0.059	0.010	0.034	0.039	2.681	1.899	1.904	1.890	1.904	1.885	1.895
0.000	-0.005	0.000	-0.044	-0.010	0.034	0.034	2.734	1.885	1.895	1.890	1.909	1.885	1.890
0.005	0.039	0.000	-0.039	-0.034	0.039	0.039	2.686	1.890	1.904	1.895	1.914	1.885	1.890
0.005	-0.054	0.005	-0.024	-0.054	0.029	0.034	2.715	1.890	1.875	1.885	1.914	1.885	1.885
0.015	-0.059	0.005	-0.020	-0.068	0.010	0.034	2.671	1.890	1.880	1.885	1.909	1.885	1.880
0.005	-0.015	0.010	-0.010	-0.068	0.020	0.039	2.646	1.885	1.890	1.890	1.914	1.895	1.885
0.005	-0.015	0.000	-0.005	-0.034	0.020	0.034	2.700	1.885	1.890	1.885	1.914	1.904	1.895
-0.010	-0.024	0.005	0.000	-0.005	-0.010	0.039	2.676	1.880	1.880	1.885	1.909	1.914	1.895
0.005	-0.020	0.000	0.015	0.010	-0.034	0.039	2.666	1.885	1.885	1.885	1.914	1.914	1.895
0.000	0.029	0.010	0.020	0.020	-0.020	0.039	2.695	1.885	1.899	1.890	1.914	1.919	1.904
0.000	-0.005	0.010	0.020	0.010	0.000	0.039	2.666	1.890	1.880	1.890	1.909	1.914	1.914
0.000	-0.029	0.000	0.024	-0.020	-0.005	0.039	2.700	1.890	1.880	1.880	1.909	1.899	1.904
-0.005	-0.015	-0.005	0.020	-0.039	-0.020	0.039	2.676	1.890	1.885	1.880	1.904	1.895	1.895
-0.005	-0.020	-0.005	0.034	-0.034	-0.034	0.039	2.671	1.890	1.885	1.880	1.909	1.899	1.895
-0.010	-0.010	-0.005	0.034	-0.005	-0.010	0.039	2.705	1.890	1.890	1.885	1.904	1.909	1.909
-0.020	0.024	-0.005	0.020	0.015	-0.020	0.039	2.671	1.890	1.895	1.885	1.899	1.909	1.904
-0.005	0.020	0.000	0.015	0.034	-0.005	0.039	2.681	1.895	1.899	1.890	1.904	1.914	1.909
-0.010	0.034	0.005	0.015	0.034	-0.020	0.039	2.690	1.899	1.899	1.895	1.909	1.909	1.909
-0.005	0.015	0.000	0.005	0.044	-0.015	0.039	2.700	1.895	1.895	1.890	1.904	1.909	1.909
0.010	0.059	0.000	0.015	0.044	0.020	0.039	2.671	1.899	1.914	1.899	1.909	1.909	1.919
0.005	0.054	0.005	0.015	0.029	0.024	0.039	2.676	1.895	1.899	1.899	1.909	1.904	1.914
0.010	-0.015	0.005	0.015	0.034	0.020	0.039	2.671	1.890	1.880	1.890	1.909	1.904	1.909
-0.005	-0.029	0.000	0.010	0.020	0.020	0.039	2.700	1.890	1.875	1.885	1.909	1.899	1.904
0.005	-0.005	-0.005	0.010	-0.010	0.015	0.039	2.695	1.899	1.885	1.885	1.904	1.890	1.904
0.015	0.034	-0.005	0.010	-0.020	0.015	0.039	2.671	1.895	1.899	1.890	1.904	1.890	1.895
0.005	-0.010	-0.005	0.015	-0.015	0.005	0.039	2.695	1.890	1.885	1.885	1.904	1.895	1.895
0.000	0.000	0.005	0.020	-0.020	-0.010	0.039	2.700	1.890	1.890	1.890	1.904	1.899	1.890
-0.015	-0.010	0.005	0.010	-0.020	-0.029	0.039	2.710	1.895	1.885	1.890	1.904	1.895	1.885
-0.015	-0.024	0.005	0.015	-0.024	0.005	0.039	2.690	1.890	1.880	1.885	1.904	1.895	1.899
-0.005	-0.010	0.000	0.000	-0.020	-0.005	0.039	2.651	1.890	1.890	1.880	1.899	1.899	1.895
0.000	-0.015	-0.005	-0.005	-0.005	0.000	0.039	2.681	1.890	1.885	1.885	1.899	1.899	1.899
0.005	0.063	-0.005	-0.015	-0.015	0.000	0.039	2.656	1.890	1.914	1.890	1.899	1.895	1.899
0.010	0.039	-0.005	-0.020	-0.005	0.000	0.039	2.671	1.890	1.890	1.890	1.904	1.899	1.899
0.005	-0.078	0.000	-0.020	0.005	-0.005	0.039	2.646	1.885	1.860	1.880	1.899	1.899	1.899
0.000	-0.122	0.005	-0.020	0.015	-0.010	0.039	2.666	1.890	1.851	1.875	1.899	1.904	1.895
-0.005	-0.107	0.000	-0.015	0.020	-0.005	0.039	2.734	1.895	1.870	1.870	1.895	1.904	1.899
-0.005	-0.059	0.000	-0.010	0.010	-0.015	0.039	2.651	1.895	1.890	1.875	1.895	1.895	1.895
-0.005	0.029	0.000	0.000	-0.005	-0.020	0.039	2.642	1.890	1.919	1.885	1.899	1.890	1.895
-0.010	0.137	0.005	0.000	-0.015	0.010	0.039	2.651	1.890	1.938	1.904	1.909	1.890	1.899
-0.005	0.093	0.015	0.005	-0.024	0.005	0.039	2.637	1.885	1.904	1.904	1.909	1.890	1.895
0.000	0.005	0.010	0.005	-0.020	0.000	0.039	2.671	1.885	1.875	1.895	1.909	1.899	1.895
0.010	-0.098	0.015	0.005	-0.005	-0.010	0.039	2.651	1.885	1.851	1.880	1.909	1.904	1.895
0.020	-0.024	0.005	0.015	-0.015	-0.020	0.039	2.690	1.890	1.880	1.880	1.909	1.899	1.895
0.015	-0.010	0.010	0.015	-0.024	-0.015	0.039	2.627	1.885	1.880	1.880	1.904	1.899	1.895
0.010	0.039	0.010	0.015	-0.005	0.010	0.039	2.671	1.885	1.904	1.885	1.904	1.904	1.904
0.000	0.220	0.005	0.015	-0.024	0.000	0.039	2.744	1.899	1.948	1.904	1.909	1.899	1.904
0.005	0.107	-0.005	0.020	-0.010	0.005	0.039	2.681	1.895	1.895	1.899	1.914	1.909	1.904
0.010	-0.122	0.000	0.024	-0.005	0.005	0.039	2.695	1.885	1.831	1.875	1.909	1.909	1.904
0.010	-0.117	-0.005	0.020	0.059	0.015	0.039	2.681	1.890	1.855	1.870	1.904	1.924	1.914
0.005	0.068	-0.005	0.029	0.073	0.010	0.039	2.695	1.904	1.919	1.885	1.909	1.919	1.919
0.005	0.068	-0.005	0.039	0.010	0.015	0.034	2.666	1.899	1.904	1.890	1.909	1.899	1.909
0.015	-0.029	-0.005	0.044	-0.078	-0.010	0.039	2.686	1.895	1.875	1.885	1.904	1.875	1.895
-0.005	-0.049	-0.005	0.039	-0.083	0.020	0.034	2.671	1.890	1.875	1.880	1.904	1.880	1.899
-0.010	-0.005	0.000	0.024	0.024	0.015	0.039	2.666	1.890	1.890	1.885	1.899	1.919	1.904
-0.005	-0.015	0.000	-0.039	0.078	0.015	0.039	2.681	1.885	1.885	1.880	1.885	1.914	1.909
0.005	-0.005	0.000	-0.059	0.078	0.010	0.039	2.666	1.890	1.890	1.885	1.880	1.904	1.904
-0.010	0.029	0.000	-0.063	0.112	0.005	0.039	2.666	1.885	1.895	1.885	1.890	1.909	1.904
-0.005	-0.020	0.005	-0.063	0.146	0.000	0.034	2.671	1.885	1.880	1.885	1.890	1.909	1.904
0.000	-0.005	0.005	-0.054	0.068	-0.005	0.034	2.700	1.890	1.885	1.885	1.895	1.885	1.895
0.000	-0.020	0.005	-0.044	-0.005	0.020	0.039	2.676	1.890	1.880	1.885	1.899	1.870	1.895
-0.005	-0.015	0.000	-0.034	-0.049	0.020	0.039	2.671	1.890	1.885	1.885	1.899	1.865	1.885
-0.005	0.068	-0.005	-0.020	-0.054	0.010	0.039	2.700	1.890	1.914	1.890	1.909	1.875	1.880
-0.010	0.039	0.000	-0.010	-0.024	0.005	0.034	2.710	1.890	1.890	1.890	1.909	1.895	1.880
-0.020	0.000	0.000	0.000	0.015	0.000	0.034	2.700	1.885	1.880	1.890	1.914	1.904	1.890
-0.015	0.039	-0.005	0.010	0.020	-0.010	0.034	2.681	1.890	1.895	1.890	1.914	1.909	1.890
-0.010	0.103	-0.005	0.015	0.015	-0.034	0.034	2.690	1.890	1.909	1.899	1.914	1.909	1.890
-0.015	0.063	-0.005	0.015	-0.010	-0.010	0.034	2.671	1.890	1.895	1.895	1.914	1.904	1.899
-0.005	0.010	-0.005	0.020	-0.039	-0.005	0.039	2.690	1.890	1.875	1.890	1.914	1.895	1.899
0.000	-0.044	0.005	0.015	-0.044	0.000	0.034	2.681	1.890	1.870	1.885	1.909	1.899	1.899
0.000	-0.059	0.000	0.020	-0.024	0.000	0.034	2.656	1.890	1.870	1.875	1.909	1.904	1.899
0.005	-0.029	-0.005	0.020	-0.005	0.010	0.034	2.783	1.904	1.885	1.875	1.904	1.909	1.904
0.010	-0.083	0.000	0.020	-0.005	-0.024	0.039	2.661	1.895	1.870	1.875	1.899	1.904	1.895
0.015	-0.078	0.000	0.020	-0.010	0.015	0.039	2.676	1.895	1.880	1.875	1.899	1.899	1.909
0.024	-0.059	0.010	0.024	-0.010	0.020	0.039	2.788	1.895	1.885	1.880	1.899	1.899	1.909
0.010	-0.049	0.000	0.034	-0.010	0.005	0.039	2.632	1.885	1.885	1.885	1.899	1.895	1.899
0.010	-0.015	0.005	0.034	-0.044	-0.015	0.039	2.744	1.895	1.899	1.890	1.904	1.890	1.895
0.000	0.059	0.010	0.039	-0.049	-0.005	0.034	2.622	1.890	1.914	1.899	1.909	1.895	1.895
-0.005	-0.010	0.005	0.054	-0.039	-0.010	0.039	2.744	1.880	1.885	1.895	1.914	1.899	1.895
-0.005	-0.010	0.000	0.034	-0.049	-0.034	0.034	2.739	1.890	1.890	1.890	1.904	1.895	1.890
-0.010	0.010	0.000	0.024	-0.063	-0.005	0.034	2.744	1.895	1.895	1.890	1.904	1.895	1.899
-0.015	0.059	-0.005	0.029	-0.088	-0.005	0.034	2.681	1.895	1.909	1.895	1.909	1.890	1.895
-0.015	0.103	-0.010	0.020	-0.073	0.000	0.039	2.632	1.885	1.914	1.899	1.904	1.899	1.899
-0.015	0.010	-0.005	0.000	0.005	0.020	0.039	2.695	1.885	1.880	1.895	1.904	1.924	1.909
-0.005	-0.015	-0.005	-0.010	0.112	0.005	0.034	2.734	1.885	1.875	1.890	1.904	1.943	1.919
0.000	-0.015	0.000	-0.005	0.146	-0.015	0.034	2.666	1.890	1.880	1.890	1.909	1.938	1.919
0.005	-0.024	0.000	0.000	0.112	-0.005	0.039	2.617	1.895	1.880	1.885	1.909	1.919	1.924
-0.010	-0.010	0.000	0.010	0.039	0.000	0.039	2.681	1.890	1.885	1.885	1.909	1.895	1.914
0.000	0.054	0.005	0.010	-0.010	0.000	0.034	2.705	1.899	1.904	1.895	1.909	1.885	1.909
0.010	0.020	0.005	0.020	-0.005	0.020	0.034	2.676	1.895	1.895	1.890	1.909	1.895	1.909
0.010	0.015	0.000	0.024	0.000	0.015	0.039	2.695	1.899	1.895	1.890	1.909	1.899	1.904
0.005	-0.020	0.010	0.029	0.000	0.029	0.034	2.700	1.895	1.885	1.890	1.909	1.899	1.904
0.010	0.010	0.005	0.029	-0.005	0.020	0.034	2.695	1.895	1.895	1.890	1.909	1.899	1.904
0.005	0.000	0.005	0.029	-0.005	0.010	0.034	2.681	1.895	1.890	1.890	1.909	1.904	1.899
0.005	0.010	0.000	0.029	0.020	0.015	0.039	2.671	1.890	1.895	1.890	1.909	1.909	1.904
0.010	0.005	0.005	0.024	0.010	0.005	0.039	2.705	1.899	1.895	1.890	1.909	1.904	1.899
0.010	-0.039	0.000	0.024	-0.054	-0.024	0.034	2.671	1.890	1.880	1.885	1.904	1.885	1.890
0.015	-0.073	-0.005	0.020	-0.063	-0.005	0.034	2.681	1.890	1.870	1.880	1.899	1.890	1.890
0.005	-0.088	-0.005	0.020	-0.044	-0.024	0.034	2.676	1.890	1.875	1.875	1.899	1.895	1.890
-0.010	0.010	-0.005	0.015	0.020	0.005	0.034	2.686	1.890	1.909	1.885	1.904	1.914	1.904
-0.005	0.093	-0.005	0.015	0.103	0.005	0.039	2.661	1.890	1.924	1.899	1.909	1.934	1.914
-0.005	0.107	0.000	0.015	0.127	-0.005	0.034	2.676	1.890	1.919	1.904	1.909	1.929	1.919
-0.015	0.166	-0.005	0.015	0.088	0.010	0.034	2.666	1.895	1.919	1.909	1.919	1.914	1.919
-0.024	-0.039	-0.005	0.015	0.034	0.005	0.034	2.676	1.880	1.855	1.890	1.914	1.899	1.909
0.000	-0.112	0.000	0.024	0.005	0.010	0.034	2.700	1.895	1.846	1.875	1.909	1.895	1.904
0.024	-0.127	0.000	0.020	-0.020	-0.005	0.034	2.666	1.895	1.860	1.870	1.899	1.890	1.899
0.024	-0.039	0.000	0.015	-0.034	0.015	0.034	2.690	1.899	1.890	1.875	1.899	1.885	1.899
0.005	0.063	0.000	0.000	-0.044	0.015	0.034	2.695	1.899	1.919	1.890	1.895	1.885	1.895
0.005	0.083	0.005	-0.005	-0.044	0.010	0.034	2.690	1.899	1.919	1.899	1.899	1.885	1.895
-0.005	0.171	0.005	-0.010	-0.029	0.010	0.034	2.681	1.895	1.929	1.909	1.904	1.895	1.890
-0.010	-0.049	0.000	-0.005	-0.020	0.010	0.034	2.700	1.885	1.855	1.890	1.909	1.895	1.890
0.015	-0.078	0.000	-0.015	-0.015	0.000	0.034	2.788	1.890	1.860	1.880	1.904	1.895	1.890
0.015	-0.034	0.000	-0.015	-0.010	-0.015	0.034	2.661	1.890	1.880	1.875	1.899	1.899	1.890
0.000	-0.049	-0.005	-0.020	-0.010	-0.005	0.034	2.666	1.885	1.875	1.875	1.895	1.895	1.895
-0.005	-0.039	0.000	-0.024	-0.015	-0.010	0.034	2.656	1.880	1.875	1.875	1.895	1.895	1.890
0.000	0.029	0.000	-0.029	0.000	-0.005	0.034	2.637	1.890	1.899	1.885	1.895	1.899	1.899
0.000	0.063	0.005	-0.029	-0.005	0.000	0.034	2.661	1.890	1.904	1.890	1.899	1.895	1.899
0.010	-0.024	0.000	-0.020	-0.010	-0.005	0.034	2.734	1.895	1.875	1.885	1.904	1.899	1.899
0.005	-0.010	0.000	-0.015	-0.005	-0.029	0.034	2.754	1.904	1.885	1.885	1.904	1.895	1.890
0.000	0.059	0.000	-0.020	-0.020	-0.005	0.034	2.744	1.895	1.909	1.890	1.904	1.895	1.899
0.010	0.010	0.005	-0.020	-0.020	-0.005	0.034	2.637	1.885	1.885	1.890	1.904	1.895	1.895
0.015	-0.005	0.005	-0.015	-0.024	-0.010	0.034	2.671	1.885	1.885	1.890	1.904	1.895	1.895
-0.005	0.005	0.005	-0.020	-0.024	-0.005	0.034	2.617	1.875	1.885	1.890	1.904	1.895	1.895
0.005	-0.010	0.005	-0.015	0.015	-0.020	0.034	2.666	1.880	1.880	1.885	1.904	1.909	1.895
0.000	-0.039	0.010	-0.015	0.024	-0.015	0.034	2.725	1.885	1.870	1.880	1.904	1.909	1.899
-0.005	-0.059	0.005	-0.015	0.024	-0.005	0.034	2.695	1.885	1.865	1.875	1.899	1.904	1.904
-0.015	-0.078	0.000	-0.010	0.015	0.005	0.034	2.627	1.880	1.865	1.870	1.895	1.899	1.909
0.005	-0.029	0.000	-0.010	0.005	0.015	0.034	2.705	1.890	1.885	1.875	1.895	1.895	1.904
-0.005	-0.024	0.000	-0.005	0.000	0.000	0.034	2.710	1.895	1.885	1.875	1.899	1.890	1.899
-0.005	-0.039	-0.005	0.005	-0.015	0.005	0.034	2.666	1.890	1.885	1.875	1.895	1.890	1.899
-0.010	0.029	0.000	0.010	-0.015	-0.005	0.034	2.700	1.895	1.909	1.890	1.899	1.890	1.890
-0.024	0.146	-0.010	0.005	-0.015	-0.005	0.034	2.700	1.895	1.934	1.899	1.904	1.895	1.895
-0.015	0.088	-0.010	0.005	-0.015	-0.005	0.034	2.681	1.895	1.899	1.899	1.909	1.895	1.890
0.015	-0.098	0.000	0.010	-0.005	-0.005	0.034	2.681	1.895	1.855	1.885	1.909	1.904	1.895
0.015	0.044	-0.005	0.020	0.010	0.000	0.034	2.671	1.899	1.909	1.890	1.909	1.909	1.904
-0.015	0.142	-0.010	0.015	0.020	-0.010	0.034	2.676	1.890	1.934	1.904	1.914	1.909	1.899
-0.005	0.083	-0.005	0.015	0.005	0.024	0.034	2.700	1.895	1.899	1.904	1.919	1.909	1.914
0.010	-0.063	0.000	0.015	0.020	0.020	0.034	2.681	1.890	1.855	1.890	1.914	1.914	1.914
0.005	-0.078	0.015	0.005	0.083	0.034	0.034	2.671	1.890	1.865	1.885	1.909	1.929	1.919
0.005	-0.059	0.010	0.005	0.107	0.015	0.034	2.686	1.895	1.880	1.880	1.904	1.924	1.919
0.010	0.059	0.010	0.005	0.068	0.024	0.034	2.671	1.895	1.914	1.890	1.904	1.904	1.919
0.005	0.010	0.010	0.005	0.039	0.024	0.034	2.676	1.895	1.890	1.890	1.904	1.899	1.914
0.010	-0.073	0.010	0.000	0.005	0.034	0.034	2.700	1.895	1.870	1.880	1.904	1.890	1.904
0.005	-0.049	0.010	0.005	-0.029	0.010	0.034	2.690	1.895	1.885	1.880	1.904	1.880	1.890
-0.005	-0.015	0.005	0.010	-0.063	0.005	0.039	2.700	1.890	1.895	1.880	1.899	1.875	1.885
-0.015	0.000	0.000	0.015	-0.068	0.015	0.034	2.671	1.885	1.899	1.885	1.904	1.880	1.885
-0.020	0.039	-0.010	0.015	-0.034	0.005	0.034	2.695	1.890	1.909	1.890	1.904	1.895	1.890
-0.029	0.142	-0.005	0.010	0.000	-0.010	0.034	2.700	1.895	1.924	1.899	1.909	1.904	1.885
-0.010	0.029	-0.005	0.015	-0.024	-0.034	0.034	2.700	1.895	1.890	1.895	1.909	1.895	1.885
0.005	0.029	-0.005	0.015	-0.059	-0.039	0.034	2.686	1.899	1.890	1.895	1.909	1.890	1.885
0.020	0.098	-0.005	0.010	-0.054	-0.044	0.034	2.661	1.899	1.919	1.899	1.914	1.899	1.890
0.010	0.093	0.005	0.005	-0.083	-0.034	0.034	2.773	1.904	1.899	1.899	1.914	1.895	1.890
-0.005	0.005	0.000	0.010	-0.078	-0.020	0.034	2.651	1.885	1.880	1.895	1.914	1.899	1.899
-0.010	-0.029	0.000	-0.034	-0.005	-0.010	0.034	2.681	1.885	1.870	1.885	1.899	1.919	1.904
-0.005	-0.034	0.000	-0.029	0.020	-0.024	0.034	2.759	1.885	1.875	1.880	1.899	1.919	1.904
-0.005	-0.088	0.000	-0.020	0.010	0.010	0.034	2.739	1.895	1.860	1.875	1.899	1.909	1.914
0.029	-0.059	0.005	-0.015	0.103	-0.005	0.034	2.710	1.909	1.885	1.880	1.899	1.938	1.924
0.015	0.024	0.005	-0.010	0.186	0.005	0.034	2.651	1.899	1.909	1.890	1.909	1.943	1.934
0.020	-0.034	0.000	-0.005	0.151	0.024	0.034	2.622	1.899	1.890	1.885	1.904	1.924	1.934
0.024	-0.039	0.005	-0.005	0.068	0.024	0.034	2.744	1.909	1.890	1.890	1.904	1.890	1.919
0.005	-0.015	0.000	-0.005	0.000	0.029	0.034	2.622	1.895	1.904	1.895	1.904	1.880	1.909
-0.010	0.005	0.000	-0.005	-0.010	0.029	0.034	2.676	1.895	1.899	1.895	1.909	1.880	1.899
-0.005	-0.039	0.005	0.000	-0.005	0.024	0.034	2.729	1.895	1.885	1.890	1.909	1.890	1.895
-0.005	-0.034	0.000	-0.005	0.000	0.010	0.039	2.700	1.899	1.895	1.890	1.909	1.895	1.895
-0.005	-0.005	0.000	0.005	0.005	0.020	0.034	2.729	1.890	1.899	1.895	1.914	1.899	1.895
-0.010	-0.005	0.000	0.005	-0.010	0.010	0.039	2.690	1.890	1.899	1.895	1.909	1.895	1.895
-0.005	0.000	0.010	0.015	-0.015	0.015	0.034	2.632	1.895	1.899	1.895	1.914	1.899	1.895
-0.020	0.005	0.000	0.015	-0.029	0.024	0.034	2.690	1.895	1.895	1.895	1.914	1.899	1.895
-0.010	0.005	0.000	0.015	-0.029	0.015	0.034	2.690	1.899	1.899	1.895	1.914	1.899	1.895
-0.005	-0.005	0.010	0.020	-0.024	0.000	0.034	2.681	1.895	1.895	1.895	1.914	1.904	1.895
0.000	-0.015	0.005	0.034	-0.010	-0.005	0.034	2.695	1.899	1.890	1.895	1.919	1.909	1.899
0.005	-0.029	0.005	0.049	-0.015	-0.015	0.034	2.676	1.899	1.885	1.890	1.919	1.909	1.904
0.000	0.000	0.005	0.020	-0.015	-0.005	0.034	2.681	1.895	1.899	1.890	1.909	1.909	1.904
0.020	-0.005	0.005	-0.005	0.010	-0.010	0.034	2.666	1.895	1.895	1.890	1.899	1.914	1.909
0.010	-0.015	0.010	-0.010	-0.010	-0.029	0.034	2.676	1.895	1.890	1.890	1.899	1.899	1.895
0.005	0.015	0.000	-0.010	-0.020	-0.015	0.034	2.695	1.895	1.899	1.895	1.904	1.899	1.904
0.000	-0.029	-0.005	0.010	-0.005	-0.020	0.034	2.700	1.890	1.885	1.890	1.909	1.904	1.904
0.005	-0.005	0.000	-0.015	0.020	-0.029	0.034	2.681	1.895	1.890	1.890	1.904	1.909	1.899
0.000	-0.039	-0.005	-0.029	0.044	-0.029	0.034	2.681	1.895	1.880	1.880	1.895	1.914	1.904
-0.005	-0.044	-0.010	-0.039	0.068	-0.005	0.034	2.676	1.890	1.885	1.885	1.899	1.914	1.914
0.000	0.171	-0.005	-0.039	0.054	-0.015	0.034	2.690	1.904	1.953	1.904	1.904	1.904	1.909
-0.005	0.073	-0.010	-0.024	0.010	0.005	0.034	2.671	1.895	1.899	1.899	1.914	1.895	1.909
0.005	-0.073	-0.005	-0.010	-0.029	0.010	0.034	2.690	1.895	1.865	1.890	1.914	1.890	1.904
0.005	-0.078	0.000	0.000	-0.034	0.015	0.034	2.700	1.899	1.875	1.885	1.914	1.895	1.899
0.005	0.020	-0.005	0.010	-0.039	0.005	0.034	2.690	1.904	1.909	1.895	1.919	1.899	1.899
-0.005	0.010	0.010	0.005	-0.063	0.020	0.034	2.681	1.899	1.899	1.895	1.914	1.895	1.899
-0.010	0.088	0.000	0.010	-0.073	0.029	0.034	2.695	1.895	1.929	1.904	1.919	1.899	1.904
-0.020	0.151	-0.005	0.010	-0.034	0.034	0.034	2.686	1.899	1.929	1.909	1.919	1.914	1.909
0.005	0.146	-0.005	0.015	0.000	0.020	0.034	2.676	1.904	1.919	1.914	1.924	1.924	1.909
0.024	-0.063	0.000	0.015	0.015	0.020	0.034	2.681	1.899	1.855	1.895	1.924	1.924	1.914
0.024	-0.098	0.005	0.020	-0.029	0.015	0.034	2.651	1.890	1.860	1.885	1.914	1.909	1.909
0.010	-0.059	0.005	0.020	-0.020	0.015	0.029	2.778	1.904	1.875	1.880	1.909	1.909	1.909
-0.005	0.010	0.000	0.015	0.000	0.029	0.034	2.661	1.895	1.904	1.885	1.909	1.919	1.914
-0.005	0.029	0.000	0.020	0.039	0.005	0.034	2.671	1.895	1.904	1.890	1.909	1.924	1.914
0.010	0.024	0.000	0.024	0.049	0.000	0.034	2.681	1.895	1.899	1.895	1.914	1.924	1.914
0.005	0.015	0.000	0.024	0.049	0.000	0.029	2.637	1.895	1.895	1.895	1.914	1.914	1.914
0.000	-0.005	0.000	0.020	0.024	0.005	0.034	2.656	1.885	1.890	1.890	1.909	1.909	1.914
-0.005	-0.024	0.000	0.010	0.000	-0.010	0.034	2.739	1.895	1.885	1.885	1.904	1.899	1.904
-0.020	-0.054	0.005	0.000	-0.010	0.000	0.029	2.710	1.899	1.880	1.885	1.899	1.895	1.904
-0.015	-0.044	0.000	-0.005	-0.010	-0.005	0.029	2.739	1.890	1.885	1.885	1.899	1.895	1.899
-0.020	-0.015	-0.005	0.010	-0.015	-0.005	0.034	2.622	1.885	1.895	1.885	1.904	1.895	1.899
-0.015	-0.029	-0.005	0.010	-0.015	-0.005	0.034	2.676	1.890	1.885	1.885	1.909	1.899	1.899
-0.020	-0.005	0.000	0.010	-0.010	-0.020	0.029	2.739	1.899	1.904	1.890	1.904	1.899	1.895
-0.010	0.010	-0.005	0.010	-0.015	-0.005	0.029	2.700	1.899	1.899	1.895	1.909	1.899	1.899
-0.020	-0.088	0.000	0.010	-0.029	-0.005	0.029	2.729	1.899	1.870	1.885	1.904	1.895	1.899
-0.010	-0.015	-0.005	0.010	-0.015	-0.020	0.029	2.690	1.904	1.899	1.890	1.909	1.899	1.895
0.010	-0.156	0.010	0.005	0.029	-0.024	0.029	2.646	1.895	1.860	1.880	1.904	1.914	1.899
0.034	-0.005	0.005	0.015	0.073	-0.010	0.034	2.700	1.914	1.929	1.895	1.909	1.924	1.909
0.015	0.220	0.000	0.010	0.034	0.000	0.029	2.700	1.914	1.978	1.919	1.914	1.909	1.914
0.024	0.151	0.005	0.015	0.005	-0.010	0.034	2.671	1.904	1.934	1.924	1.919	1.899	1.909
0.039	0.024	0.000	0.015	-0.015	0.005	0.029	2.676	1.899	1.890	1.909	1.924	1.904	1.909
0.020	0.029	-0.010	0.015	-0.005	0.020	0.034	2.681	1.895	1.895	1.899	1.924	1.909	1.909
0.005	0.010	-0.010	0.005	0.015	0.015	0.029	2.681	1.890	1.880	1.895	1.919	1.919	1.909
0.015	0.000	-0.010	0.005	0.034	0.010	0.034	2.676	1.890	1.885	1.895	1.914	1.924	1.914
0.024	-0.054	-0.010	0.010	0.029	-0.020	0.029	2.700	1.895	1.875	1.885	1.914	1.914	1.904
0.005	0.005	-0.005	-0.044	0.015	0.010	0.029	2.671	1.895	1.895	1.885	1.895	1.904	1.914
0.005	0.000	-0.005	-0.073	-0.015	0.020	0.029	2.705	1.895	1.895	1.890	1.890	1.890	1.909
-0.005	0.039	0.015	-0.073	-0.024	0.015	0.034	2.681	1.895	1.904	1.895	1.899	1.890	1.904
-0.015	0.059	0.015	-0.059	-0.015	0.005	0.034	2.666	1.890	1.909	1.899	1.909	1.895	1.899
-0.015	0.020	0.010	-0.049	0.005	0.005	0.034	2.676	1.890	1.890	1.895	1.914	1.904	1.904
-0.010	0.029	0.010	-0.039	-0.005	0.005	0.034	2.681	1.895	1.890	1.895	1.914	1.904	1.899
-0.010	-0.015	0.005	-0.034	-0.010	0.010	0.034	2.690	1.895	1.875	1.885	1.914	1.899	1.904
0.015	-0.029	0.005	-0.020	-0.039	0.010	0.029	2.700	1.904	1.880	1.885	1.914	1.895	1.899
0.005	-0.020	0.000	-0.015	-0.049	0.010	0.034	2.690	1.890	1.885	1.885	1.909	1.895	1.899
-0.005	0.020	-0.005	-0.020	-0.034	0.005	0.029	2.690	1.890	1.899	1.890	1.909	1.904	1.899
-0.005	-0.034	-0.005	-0.010	-0.034	-0.010	0.034	2.671	1.890	1.875	1.880	1.909	1.904	1.895
0.000	-0.068	0.000	-0.005	-0.034	-0.015	0.029	2.700	1.895	1.875	1.880	1.904	1.904	1.895
-0.005	-0.010	0.005	-0.005	-0.024	-0.034	0.029	2.676	1.895	1.899	1.885	1.904	1.904	1.895
-0.020	0.068	0.005	-0.005	-0.005	-0.024	0.034	2.705	1.895	1.914	1.895	1.909	1.909	1.904
-0.020	0.020	0.005	0.000	0.005	-0.029	0.034	2.686	1.890	1.895	1.895	1.909	1.909	1.899
-0.024	-0.015	0.005	0.000	0.010	-0.059	0.029	2.690	1.890	1.885	1.890	1.909	1.909	1.899
-0.005	-0.015	0.000	0.005	0.010	-0.039	0.029	2.646	1.895	1.885	1.885	1.909	1.909	1.904
-0.005	0.005	-0.005	0.010	0.015	-0.010	0.034	2.656	1.895	1.895	1.890	1.909	1.909	1.914
-0.010	0.039	-0.010	0.010	-0.005	0.005	0.034	2.686	1.895	1.904	1.890	1.909	1.909	1.914
-0.015	0.049	-0.005	0.010	0.010	0.015	0.034	2.651	1.909	1.904	1.895	1.914	1.914	1.919
-0.005	-0.049	-0.005	0.015	0.020	0.015	0.034	2.725	1.909	1.875	1.890	1.909	1.914	1.919
0.010	-0.049	0.000	0.020	0.049	0.024	0.034	2.617	1.904	1.885	1.890	1.909	1.919	1.924
0.015	-0.054	0.005	0.010	0.112	0.015	0.029	2.729	1.909	1.890	1.890	1.909	1.934	1.924
-0.005	-0.010	-0.005	0.005	0.181	0.049	0.029	2.725	1.899	1.909	1.890	1.914	1.943	1.938
0.000	0.073	0.000	0.005	0.151	0.049	0.029	2.627	1.904	1.929	1.904	1.914	1.924	1.934
0.020	-0.015	0.015	0.000	0.039	0.039	0.029	2.646	1.909	1.899	1.904	1.909	1.890	1.914
0.039	-0.039	0.020	0.000	0.010	0.005	0.029	2.666	1.909	1.895	1.899	1.909	1.890	1.899
0.024	-0.063	0.010	0.000	0.000	0.020	0.029	2.632	1.890	1.890	1.895	1.914	1.890	1.899
0.015	0.127	0.005	0.000	-0.020	0.005	0.029	2.690	1.899	1.943	1.904	1.919	1.890	1.890
0.005	-0.117	0.000	0.005	-0.049	-0.005	0.034	2.705	1.890	1.855	1.885	1.914	1.885	1.885
0.010	0.000	-0.005	0.010	-0.039	0.005	0.034	2.695	1.899	1.909	1.895	1.914	1.899	1.890
0.015	0.127	-0.010	0.015	-0.039	-0.005	0.029	2.725	1.904	1.934	1.909	1.919	1.899	1.895
0.005	0.049	0.000	0.015	-0.044	-0.005	0.034	2.671	1.895	1.899	1.904	1.919	1.904	1.895
-0.005	-0.020	0.000	0.020	-0.044	-0.010	0.034	2.681	1.885	1.880	1.895	1.919	1.904	1.899
-0.005	-0.005	0.010	0.020	-0.059	-0.015	0.029	2.671	1.890	1.885	1.895	1.919	1.904	1.895
-0.005	-0.005	0.005	0.020	0.000	-0.029	0.029	2.705	1.895	1.885	1.890	1.919	1.924	1.904
