0.005	0.000	0.005	0.000	-0.010	0.020	0.034	2.681	0.747	1.548	1.787	1.763	-8.223	-1.323
0.000	0.000	0.005	0.005	-0.010	0.020	0.034	2.671	0.771	1.313	1.675	1.777	-5.483	-2.578
0.010	0.000	0.000	0.015	-0.005	0.010	0.034	2.681	0.669	1.113	1.533	1.738	-3.501	-2.900
-0.005	0.024	-0.005	0.010	-0.005	0.005	0.029	2.690	0.557	0.937	1.382	1.665	-2.085	-2.720
0.005	0.015	-0.005	0.010	-0.005	-0.005	0.034	2.690	0.479	0.786	1.226	1.567	-1.074	-2.295
0.005	0.020	0.000	0.010	-0.005	0.000	0.034	2.695	0.439	0.669	1.079	1.455	-0.371	-1.782
-0.010	-0.010	0.000	0.005	-0.015	-0.005	0.029	2.700	0.439	0.576	0.942	1.328	0.098	-1.279
-0.010	-0.010	0.000	0.005	-0.010	-0.010	0.034	2.690	0.469	0.532	0.830	1.206	0.410	-0.825
-0.010	0.015	-0.005	0.000	0.005	-0.005	0.034	2.666	0.513	0.518	0.747	1.089	0.605	-0.430
-0.005	0.000	-0.010	0.000	0.010	0.005	0.034	2.695	0.576	0.513	0.684	0.981	0.708	-0.117
0.005	0.000	-0.005	0.000	0.005	0.010	0.029	2.671	0.630	0.537	0.640	0.903	0.762	0.122
0.010	-0.010	0.000	0.000	0.015	-0.010	0.029	2.690	0.688	0.562	0.620	0.830	0.781	0.298
0.000	-0.005	0.005	-0.010	0.010	0.005	0.034	2.695	0.737	0.610	0.615	0.776	0.776	0.435
0.000	-0.015	0.000	0.000	0.005	0.005	0.034	2.695	0.776	0.645	0.620	0.737	0.762	0.527
0.010	-0.010	0.010	0.000	0.000	0.000	0.029	2.671	0.811	0.684	0.640	0.718	0.742	0.586
0.015	-0.010	0.010	-0.005	0.005	0.010	0.034	2.681	0.840	0.723	0.659	0.703	0.732	0.625
0.005	-0.015	0.005	-0.010	0.005	0.005	0.029	2.686	0.859	0.752	0.684	0.703	0.718	0.645
0.005	-0.024	0.005	0.000	0.005	0.000	0.029	2.705	0.874	0.781	0.708	0.713	0.708	0.664
0.005	-0.010	0.000	-0.005	0.005	0.000	0.034	2.695	0.894	0.811	0.737	0.723	0.708	0.679
0.000	-0.010	0.005	0.005	0.000	0.000	0.029	2.690	0.903	0.835	0.767	0.742	0.708	0.679
-0.005	-0.005	0.000	0.010	0.005	0.005	0.034	2.803	0.928	0.859	0.786	0.762	0.723	0.693
0.000	0.010	-0.005	0.005	0.000	-0.005	0.029	2.798	0.942	0.879	0.811	0.781	0.728	0.703
-0.005	-0.005	0.000	0.005	0.010	-0.005	0.029	2.661	0.942	0.894	0.835	0.801	0.747	0.713
-0.005	0.005	0.000	0.010	0.010	-0.005	0.029	2.637	0.937	0.908	0.854	0.820	0.762	0.723
0.000	0.010	0.000	0.005	0.005	0.000	0.029	2.632	0.942	0.918	0.874	0.835	0.776	0.742
0.005	0.000	0.000	-0.005	0.000	0.000	0.029	2.729	0.957	0.923	0.889	0.854	0.791	0.757
-0.005	0.000	0.000	-0.005	0.000	0.000	0.034	2.734	0.972	0.933	0.903	0.874	0.811	0.767
0.005	-0.010	0.005	-0.010	0.000	0.000	0.034	2.720	0.986	0.937	0.913	0.889	0.825	0.781
0.005	-0.005	0.000	-0.010	0.005	-0.005	0.034	2.734	1.001	0.957	0.923	0.903	0.845	0.796
0.000	-0.010	0.005	-0.010	0.000	-0.020	0.034	2.651	1.006	0.962	0.933	0.918	0.859	0.806
0.010	-0.005	0.005	-0.010	0.010	0.010	0.034	2.739	1.021	0.977	0.947	0.928	0.879	0.835
0.000	0.005	0.010	-0.005	0.000	0.000	0.034	2.671	1.030	0.991	0.957	0.942	0.889	0.850
0.005	0.005	0.005	-0.005	0.000	0.010	0.034	2.637	1.035	1.001	0.967	0.952	0.903	0.864
0.005	0.024	0.005	-0.005	0.000	0.005	0.034	2.690	1.050	1.016	0.981	0.967	0.918	0.874
0.000	0.015	-0.005	0.000	-0.005	-0.015	0.034	2.754	1.074	1.025	0.991	0.981	0.933	0.889
-0.005	0.015	0.005	0.000	0.000	-0.015	0.034	2.729	1.084	1.040	1.006	0.991	0.942	0.898
0.000	0.024	0.000	0.005	-0.005	0.015	0.034	2.725	1.099	1.055	1.016	1.006	0.957	0.923
0.005	0.015	0.000	0.010	0.000	0.010	0.034	2.705	1.113	1.069	1.030	1.021	0.972	0.933
-0.005	0.024	0.000	0.010	0.005	0.010	0.034	2.700	1.123	1.079	1.045	1.030	0.986	0.947
0.000	0.020	0.000	0.010	0.000	-0.005	0.034	2.705	1.133	1.094	1.055	1.045	0.996	0.957
-0.005	0.010	-0.005	0.005	0.005	-0.005	0.029	2.681	1.138	1.099	1.069	1.055	1.011	0.972
0.000	0.015	0.000	0.000	-0.005	0.005	0.029	2.676	1.152	1.108	1.079	1.064	1.021	0.986
0.000	0.005	0.000	0.005	0.000	0.000	0.034	2.695	1.162	1.118	1.089	1.079	1.035	0.996
0.000	-0.020	0.000	0.005	0.005	0.010	0.034	2.686	1.172	1.123	1.099	1.089	1.050	1.011
0.000	0.000	0.000	0.000	0.000	0.005	0.029	2.695	1.187	1.143	1.108	1.099	1.055	1.021
0.010	-0.010	0.005	-0.005	0.000	-0.010	0.029	2.695	1.196	1.152	1.123	1.108	1.064	1.030
0.005	-0.034	0.005	0.000	0.000	-0.015	0.029	2.666	1.201	1.157	1.128	1.118	1.079	1.040
0.005	-0.034	0.000	0.000	0.000	0.005	0.029	2.705	1.216	1.172	1.138	1.128	1.089	1.060
0.005	-0.029	0.010	-0.005	0.000	0.010	0.029	2.676	1.226	1.182	1.152	1.143	1.099	1.069
0.010	-0.020	0.005	-0.005	0.005	0.000	0.029	2.671	1.230	1.196	1.162	1.152	1.113	1.079
0.005	-0.010	0.005	0.000	0.005	-0.005	0.034	2.681	1.240	1.211	1.177	1.162	1.123	1.089
0.000	-0.005	0.005	0.000	0.010	0.005	0.034	2.671	1.250	1.221	1.187	1.177	1.133	1.104
0.000	0.000	0.000	0.000	0.000	0.005	0.034	2.700	1.265	1.230	1.196	1.191	1.143	1.113
-0.005	0.010	-0.005	0.000	0.005	0.005	0.034	2.705	1.274	1.240	1.211	1.196	1.157	1.128
-0.010	0.010	-0.005	0.000	0.010	0.005	0.034	2.666	1.279	1.245	1.221	1.211	1.167	1.138
-0.005	0.005	-0.005	0.005	0.010	0.000	0.034	2.671	1.284	1.255	1.230	1.221	1.182	1.147
0.000	0.010	-0.005	0.005	0.005	0.010	0.034	2.681	1.299	1.265	1.240	1.230	1.191	1.157
0.005	0.010	-0.005	0.005	0.005	0.005	0.034	2.690	1.313	1.274	1.245	1.240	1.201	1.172
0.000	0.005	-0.005	0.010	0.000	-0.005	0.034	2.676	1.313	1.284	1.255	1.255	1.211	1.172
0.000	0.010	0.000	0.000	0.000	0.005	0.034	2.686	1.323	1.289	1.265	1.255	1.221	1.191
0.000	0.010	0.000	0.000	0.000	0.000	0.034	2.661	1.328	1.299	1.274	1.265	1.230	1.201
0.000	-0.005	-0.005	-0.005	0.000	-0.010	0.034	2.769	1.348	1.304	1.284	1.274	1.240	1.206
0.010	-0.005	0.010	0.000	0.000	0.000	0.034	2.661	1.353	1.318	1.294	1.289	1.250	1.221
0.015	0.005	0.005	-0.005	0.005	0.010	0.034	2.646	1.353	1.323	1.299	1.294	1.260	1.230
0.000	0.005	0.005	-0.010	0.000	0.000	0.029	2.720	1.367	1.333	1.309	1.299	1.265	1.240
0.015	-0.005	0.005	-0.005	-0.005	0.000	0.034	2.646	1.372	1.338	1.318	1.309	1.274	1.245
0.005	0.000	0.005	0.000	0.000	0.010	0.034	2.646	1.372	1.348	1.323	1.323	1.289	1.260
-0.005	0.000	0.000	0.010	0.000	0.005	0.029	2.720	1.387	1.357	1.333	1.333	1.294	1.270
-0.005	0.005	0.000	0.005	0.000	0.000	0.029	2.642	1.387	1.362	1.338	1.338	1.304	1.274
0.000	0.010	0.000	0.015	0.005	0.000	0.029	2.646	1.396	1.372	1.348	1.348	1.313	1.284
-0.010	0.024	0.000	0.010	-0.005	0.000	0.029	2.642	1.401	1.382	1.353	1.353	1.323	1.294
-0.010	0.020	0.000	0.010	-0.005	0.005	0.034	2.676	1.406	1.387	1.362	1.362	1.328	1.304
-0.005	0.015	0.000	0.005	0.000	0.005	0.029	2.720	1.421	1.392	1.367	1.367	1.338	1.313
-0.005	0.015	0.000	0.005	0.005	-0.034	0.029	2.676	1.426	1.401	1.382	1.377	1.348	1.313
-0.005	0.020	0.000	0.010	0.005	-0.005	0.034	2.734	1.440	1.411	1.392	1.387	1.353	1.328
-0.005	0.005	0.005	0.005	0.000	0.000	0.034	2.725	1.450	1.416	1.396	1.392	1.362	1.343
0.000	0.005	0.000	0.000	0.005	-0.010	0.029	2.690	1.465	1.426	1.401	1.396	1.372	1.348
0.000	0.000	0.000	-0.005	0.000	0.005	0.034	2.690	1.465	1.431	1.411	1.401	1.377	1.357
0.005	0.015	-0.005	0.000	0.005	0.000	0.034	2.671	1.465	1.445	1.416	1.411	1.382	1.362
0.000	0.015	0.000	-0.005	0.005	0.010	0.034	2.695	1.475	1.450	1.426	1.416	1.392	1.372
0.005	0.005	0.005	-0.010	0.000	0.010	0.034	2.705	1.484	1.450	1.436	1.426	1.396	1.377
0.005	0.000	0.005	-0.010	0.005	0.000	0.034	2.681	1.484	1.455	1.440	1.436	1.401	1.382
0.015	0.000	0.000	0.000	0.000	0.005	0.034	2.690	1.494	1.465	1.445	1.445	1.411	1.392
0.000	0.000	0.000	0.000	0.005	-0.020	0.034	2.676	1.489	1.470	1.450	1.450	1.421	1.392
0.005	-0.005	0.000	0.000	-0.005	0.010	0.034	2.690	1.499	1.475	1.460	1.455	1.431	1.406
0.005	-0.005	0.000	0.000	0.000	0.005	0.034	2.686	1.504	1.484	1.465	1.465	1.436	1.416
-0.005	-0.005	0.005	0.000	0.005	0.000	0.034	2.690	1.509	1.484	1.470	1.470	1.440	1.421
0.000	-0.005	-0.005	0.005	0.005	0.000	0.029	2.676	1.514	1.494	1.475	1.475	1.450	1.426
0.000	-0.010	-0.005	0.015	0.000	0.000	0.029	2.686	1.523	1.499	1.479	1.484	1.455	1.436
0.000	0.000	0.000	0.010	0.000	0.005	0.029	2.681	1.528	1.504	1.489	1.489	1.465	1.440
0.000	-0.005	0.000	0.010	0.010	-0.005	0.029	2.676	1.533	1.514	1.494	1.499	1.470	1.450
-0.005	0.000	0.005	0.005	0.005	0.000	0.029	2.690	1.533	1.514	1.499	1.499	1.475	1.460
0.000	-0.005	0.000	0.000	0.005	0.000	0.029	2.700	1.543	1.523	1.504	1.504	1.484	1.465
0.000	0.000	0.000	0.000	0.000	0.000	0.034	2.690	1.548	1.528	1.509	1.514	1.484	1.470
0.000	-0.015	0.005	0.000	0.000	0.005	0.034	2.700	1.553	1.528	1.519	1.519	1.489	1.475
-0.005	-0.010	0.000	-0.005	0.000	-0.005	0.034	2.671	1.558	1.538	1.519	1.523	1.499	1.484
0.000	-0.015	0.005	-0.005	0.000	0.005	0.029	2.676	1.558	1.538	1.523	1.528	1.504	1.489
-0.005	-0.015	0.005	-0.005	0.000	-0.015	0.029	2.695	1.562	1.548	1.528	1.533	1.514	1.489
0.000	-0.010	0.000	-0.005	0.005	-0.005	0.034	2.676	1.567	1.553	1.533	1.538	1.514	1.499
0.005	-0.010	0.005	-0.005	0.000	0.005	0.034	2.690	1.572	1.558	1.538	1.543	1.519	1.504
0.005	-0.005	0.005	-0.005	0.005	0.005	0.034	2.798	1.592	1.562	1.548	1.548	1.528	1.509
0.000	-0.005	0.000	0.000	0.000	0.005	0.034	2.793	1.602	1.572	1.553	1.558	1.533	1.514
0.000	0.000	-0.005	0.000	0.000	0.005	0.034	2.651	1.592	1.577	1.558	1.558	1.533	1.519
-0.005	0.000	0.000	0.005	-0.005	0.000	0.034	2.642	1.592	1.582	1.562	1.562	1.543	1.523
0.000	0.005	0.000	0.015	0.005	0.005	0.034	2.632	1.587	1.582	1.567	1.572	1.548	1.533
0.000	0.010	-0.005	0.005	-0.005	0.005	0.034	2.739	1.602	1.587	1.572	1.577	1.553	1.538
0.000	0.029	-0.005	0.005	0.000	-0.015	0.034	2.637	1.602	1.597	1.577	1.582	1.558	1.538
0.000	0.024	-0.005	0.005	0.000	0.000	0.034	2.700	1.606	1.597	1.582	1.587	1.562	1.553
-0.005	0.020	-0.005	0.005	0.000	0.010	0.034	2.637	1.606	1.597	1.587	1.592	1.567	1.558
0.000	0.005	0.005	0.000	0.010	0.005	0.034	2.661	1.611	1.597	1.587	1.597	1.577	1.558
0.005	0.010	0.000	0.000	0.005	0.005	0.034	2.734	1.611	1.597	1.592	1.597	1.582	1.562
0.010	0.005	0.000	0.000	0.000	0.010	0.029	2.666	1.616	1.602	1.592	1.602	1.582	1.572
0.005	-0.005	0.000	-0.005	-0.005	0.005	0.029	2.637	1.616	1.597	1.597	1.602	1.582	1.572
0.000	-0.029	0.010	0.000	0.005	0.005	0.029	2.793	1.636	1.602	1.597	1.606	1.592	1.577
0.010	-0.020	0.005	0.000	0.000	0.000	0.034	2.749	1.646	1.616	1.597	1.611	1.592	1.577
0.010	-0.015	0.005	-0.005	0.000	0.005	0.029	2.651	1.655	1.626	1.606	1.611	1.597	1.582
0.005	-0.005	0.005	0.000	0.000	0.000	0.029	2.720	1.655	1.631	1.611	1.616	1.597	1.587
0.005	-0.010	0.005	0.000	0.000	0.000	0.029	2.700	1.650	1.636	1.616	1.621	1.602	1.592
0.000	0.015	0.005	0.000	0.000	0.000	0.029	2.671	1.650	1.646	1.626	1.626	1.606	1.597
-0.005	0.020	0.000	0.010	0.000	0.000	0.029	2.690	1.655	1.646	1.631	1.636	1.611	1.597
-0.005	0.024	0.000	0.005	0.005	0.005	0.029	2.695	1.660	1.650	1.636	1.641	1.616	1.602
-0.010	0.024	0.000	0.005	0.000	-0.010	0.029	2.705	1.665	1.655	1.636	1.646	1.621	1.606
-0.010	0.015	0.000	0.015	0.000	0.010	0.029	2.686	1.665	1.655	1.641	1.650	1.631	1.616
0.000	0.010	-0.005	0.010	0.005	-0.010	0.034	2.671	1.665	1.655	1.646	1.655	1.636	1.621
-0.005	0.005	-0.005	0.005	0.005	0.010	0.034	2.671	1.670	1.655	1.650	1.655	1.636	1.631
0.000	-0.005	-0.005	-0.005	0.005	0.005	0.034	2.700	1.675	1.660	1.650	1.655	1.641	1.626
-0.005	-0.010	0.000	-0.005	0.005	-0.005	0.034	2.700	1.680	1.660	1.650	1.660	1.641	1.631
-0.005	-0.010	0.000	-0.005	0.005	0.010	0.034	2.690	1.685	1.665	1.655	1.665	1.646	1.636
0.000	-0.015	0.000	-0.010	-0.005	0.010	0.034	2.666	1.685	1.670	1.660	1.665	1.646	1.641
0.010	-0.015	0.000	-0.005	0.000	0.000	0.029	2.690	1.689	1.670	1.660	1.670	1.650	1.641
-0.005	-0.015	0.005	-0.010	0.000	0.005	0.034	2.681	1.689	1.675	1.665	1.675	1.655	1.646
0.010	0.000	0.005	-0.005	-0.005	0.005	0.034	2.705	1.699	1.685	1.670	1.680	1.655	1.646
0.010	-0.010	0.005	-0.005	-0.005	-0.010	0.029	2.690	1.699	1.685	1.670	1.680	1.660	1.646
0.015	0.000	0.005	0.000	0.010	0.000	0.029	2.671	1.694	1.689	1.675	1.685	1.670	1.655
0.005	0.005	0.000	0.005	0.005	0.005	0.034	2.681	1.699	1.694	1.680	1.689	1.670	1.660
0.005	0.020	0.000	0.000	0.005	0.000	0.034	2.700	1.704	1.694	1.685	1.694	1.675	1.660
0.000	0.010	0.000	0.000	0.005	0.005	0.029	2.676	1.704	1.694	1.689	1.699	1.680	1.670
-0.005	0.020	0.000	0.005	0.000	-0.010	0.029	2.705	1.709	1.699	1.689	1.699	1.680	1.670
-0.005	0.015	0.000	0.005	-0.005	-0.010	0.029	2.671	1.704	1.699	1.694	1.704	1.685	1.670
-0.010	0.015	-0.005	0.005	0.000	-0.015	0.029	2.686	1.709	1.699	1.694	1.709	1.689	1.675
-0.015	0.020	-0.005	0.005	0.005	0.005	0.029	2.808	1.729	1.709	1.694	1.709	1.694	1.685
-0.015	0.005	-0.005	0.005	0.010	0.010	0.034	2.798	1.738	1.709	1.699	1.709	1.694	1.689
0.000	0.000	0.000	0.005	0.005	0.010	0.034	2.666	1.733	1.714	1.704	1.714	1.699	1.689
0.005	0.005	-0.005	0.010	0.015	0.005	0.029	2.642	1.729	1.724	1.709	1.719	1.704	1.694
0.000	0.000	0.005	0.010	0.010	0.005	0.029	2.627	1.724	1.719	1.714	1.719	1.704	1.699
0.000	0.024	0.010	0.000	-0.005	-0.010	0.034	2.632	1.719	1.724	1.714	1.719	1.704	1.689
0.005	-0.015	0.000	0.000	0.005	0.010	0.034	2.637	1.719	1.714	1.714	1.724	1.709	1.704
0.015	-0.024	0.000	0.000	0.000	-0.010	0.034	2.729	1.729	1.714	1.714	1.724	1.709	1.699
0.000	-0.015	0.005	0.005	-0.005	0.015	0.034	2.651	1.724	1.719	1.714	1.729	1.714	1.709
0.000	-0.005	0.005	0.010	0.000	-0.005	0.034	2.651	1.724	1.724	1.714	1.729	1.719	1.704
0.000	-0.005	0.010	0.000	0.000	0.015	0.034	2.651	1.729	1.724	1.714	1.729	1.719	1.714
0.000	0.000	0.000	0.000	0.000	0.005	0.034	2.676	1.733	1.724	1.719	1.729	1.719	1.714
0.000	0.000	0.005	0.000	0.005	-0.020	0.029	2.671	1.733	1.724	1.719	1.733	1.724	1.709
0.000	-0.005	0.000	0.005	0.000	0.015	0.029	2.705	1.748	1.729	1.719	1.733	1.724	1.719
-0.005	0.010	0.000	0.010	0.000	-0.005	0.034	2.729	1.753	1.738	1.724	1.738	1.724	1.719
-0.005	0.020	-0.005	0.015	0.005	0.015	0.029	2.651	1.748	1.743	1.729	1.743	1.729	1.724
-0.005	0.005	0.000	0.010	-0.005	0.015	0.029	2.642	1.758	1.743	1.733	1.743	1.729	1.724
0.005	0.005	-0.005	0.005	0.000	-0.010	0.029	2.695	1.763	1.748	1.733	1.743	1.729	1.724
0.000	0.005	0.000	0.005	0.000	0.005	0.029	2.710	1.763	1.748	1.743	1.748	1.733	1.724
0.000	-0.010	0.000	-0.005	-0.005	0.010	0.029	2.700	1.763	1.748	1.738	1.748	1.733	1.729
0.005	-0.010	0.005	-0.005	0.000	-0.005	0.034	2.686	1.763	1.748	1.743	1.753	1.738	1.733
-0.005	-0.005	0.005	-0.005	0.005	-0.010	0.029	2.695	1.763	1.758	1.748	1.753	1.738	1.733
-0.005	0.000	0.005	-0.005	0.000	0.005	0.034	2.695	1.768	1.758	1.748	1.758	1.743	1.738
0.010	0.000	0.010	0.005	0.000	-0.005	0.034	2.705	1.772	1.763	1.753	1.763	1.748	1.738
0.015	-0.010	0.010	-0.005	0.000	0.015	0.034	2.686	1.772	1.758	1.753	1.763	1.748	1.743
0.005	-0.010	0.000	-0.005	0.005	-0.015	0.034	2.676	1.768	1.758	1.753	1.763	1.753	1.738
0.000	0.000	0.000	-0.005	0.000	0.010	0.034	2.676	1.768	1.768	1.753	1.768	1.753	1.748
0.000	0.024	0.000	0.000	0.000	0.010	0.034	2.676	1.772	1.772	1.758	1.768	1.753	1.748
0.000	0.024	0.000	-0.005	0.000	0.005	0.034	2.671	1.768	1.768	1.763	1.772	1.758	1.748
-0.005	0.024	0.000	0.005	0.000	0.005	0.034	2.700	1.772	1.772	1.763	1.777	1.763	1.753
0.000	0.024	0.000	0.000	0.000	-0.005	0.029	2.681	1.777	1.768	1.763	1.777	1.763	1.753
-0.005	0.015	0.000	0.000	-0.005	-0.005	0.034	2.700	1.777	1.768	1.768	1.782	1.768	1.758
0.005	0.020	0.005	0.000	0.000	0.000	0.029	2.705	1.787	1.772	1.768	1.782	1.768	1.758
0.000	0.010	-0.005	0.005	-0.005	-0.010	0.034	2.695	1.782	1.772	1.768	1.782	1.772	1.763
0.000	0.010	0.000	0.005	0.000	-0.010	0.029	2.671	1.782	1.777	1.768	1.782	1.772	1.763
-0.005	0.005	-0.005	0.005	0.005	-0.005	0.034	2.676	1.782	1.772	1.768	1.787	1.777	1.768
0.010	-0.005	-0.005	0.000	0.005	0.000	0.029	2.671	1.792	1.772	1.768	1.787	1.777	1.772
0.000	-0.010	0.005	0.000	0.005	0.005	0.029	2.700	1.787	1.777	1.772	1.787	1.777	1.772
0.005	-0.005	0.005	0.010	0.005	0.005	0.029	2.695	1.792	1.782	1.772	1.792	1.777	1.772
0.005	0.005	0.000	-0.005	0.005	-0.010	0.029	2.681	1.787	1.782	1.777	1.787	1.777	1.772
0.005	-0.020	0.005	0.000	0.000	-0.020	0.034	2.783	1.792	1.777	1.777	1.792	1.777	1.768
0.005	-0.024	0.005	0.000	0.005	0.005	0.034	2.788	1.802	1.782	1.777	1.792	1.777	1.777
0.005	-0.024	0.010	0.000	0.000	0.015	0.029	2.656	1.797	1.782	1.777	1.792	1.782	1.782
0.010	-0.010	0.005	-0.005	0.005	0.015	0.029	2.651	1.797	1.792	1.777	1.792	1.787	1.782
0.005	0.010	0.005	0.005	0.000	0.000	0.034	2.622	1.792	1.797	1.787	1.797	1.782	1.777
-0.005	0.010	0.000	0.005	0.000	0.005	0.034	2.637	1.787	1.792	1.787	1.797	1.787	1.782
-0.005	0.010	-0.005	0.000	0.000	0.005	0.034	2.744	1.797	1.792	1.787	1.802	1.792	1.782
0.000	0.010	0.000	0.005	0.000	0.010	0.034	2.720	1.807	1.797	1.792	1.807	1.792	1.787
-0.015	0.015	-0.005	0.010	-0.005	0.005	0.034	2.651	1.797	1.797	1.792	1.807	1.792	1.787
-0.005	0.005	0.000	0.010	0.000	0.005	0.029	2.661	1.797	1.797	1.792	1.807	1.797	1.787
-0.005	0.015	-0.005	0.000	0.005	0.010	0.034	2.734	1.797	1.792	1.792	1.807	1.797	1.792
-0.010	0.010	-0.005	0.005	0.005	0.000	0.034	2.671	1.797	1.792	1.792	1.807	1.797	1.792
-0.005	0.010	0.000	0.005	0.000	-0.015	0.029	2.622	1.797	1.797	1.792	1.807	1.797	1.792
0.000	-0.005	0.000	0.000	0.000	0.000	0.034	2.812	1.816	1.792	1.792	1.812	1.802	1.792
0.000	0.000	0.000	0.000	0.005	0.000	0.029	2.656	1.812	1.802	1.797	1.807	1.797	1.797
0.010	-0.005	0.005	0.005	0.000	0.010	0.029	2.646	1.807	1.797	1.797	1.812	1.802	1.797
0.015	-0.010	0.010	-0.005	0.000	0.005	0.029	2.739	1.816	1.802	1.797	1.807	1.802	1.797
0.005	-0.005	0.005	-0.010	-0.005	0.005	0.029	2.690	1.816	1.807	1.797	1.807	1.802	1.797
0.010	-0.010	0.005	-0.005	0.000	-0.005	0.029	2.700	1.816	1.807	1.802	1.812	1.802	1.797
0.005	-0.010	0.005	0.000	0.005	0.010	0.034	2.690	1.812	1.807	1.802	1.812	1.802	1.802
0.005	0.000	0.005	0.000	0.000	0.000	0.034	2.671	1.816	1.812	1.802	1.816	1.807	1.802
0.000	0.000	0.005	0.000	0.000	0.010	0.034	2.681	1.816	1.812	1.802	1.821	1.807	1.802
0.005	0.010	0.000	0.000	0.000	0.005	0.029	2.686	1.816	1.816	1.807	1.821	1.812	1.802
0.000	0.005	0.000	0.005	0.000	0.010	0.029	2.690	1.816	1.816	1.807	1.821	1.812	1.807
-0.005	0.005	-0.005	0.010	0.005	-0.015	0.029	2.681	1.816	1.816	1.807	1.826	1.812	1.802
0.005	0.005	-0.005	0.005	0.000	-0.005	0.029	2.676	1.821	1.816	1.807	1.826	1.816	1.812
-0.005	0.020	0.000	0.000	0.005	0.000	0.034	2.695	1.821	1.821	1.812	1.826	1.816	1.812
-0.005	0.015	-0.005	0.010	0.000	-0.005	0.034	2.661	1.816	1.816	1.812	1.826	1.816	1.812
0.000	0.020	0.000	0.000	0.000	-0.005	0.034	2.671	1.821	1.821	1.816	1.831	1.816	1.812
0.000	0.000	-0.005	0.000	0.005	0.005	0.034	2.671	1.816	1.812	1.812	1.831	1.821	1.816
0.010	-0.015	0.000	-0.005	0.000	0.005	0.034	2.676	1.826	1.812	1.812	1.826	1.821	1.816
0.000	-0.020	0.000	-0.010	-0.005	-0.005	0.034	2.705	1.826	1.812	1.812	1.826	1.821	1.816
0.000	-0.029	0.000	0.000	0.005	-0.005	0.034	2.695	1.826	1.812	1.812	1.831	1.821	1.816
0.010	-0.015	0.005	0.005	0.000	0.000	0.034	2.690	1.826	1.821	1.816	1.831	1.821	1.821
0.005	-0.020	0.005	0.005	0.000	-0.020	0.034	2.671	1.826	1.816	1.816	1.836	1.821	1.816
0.000	-0.024	0.005	0.005	-0.005	0.005	0.034	2.671	1.826	1.816	1.812	1.836	1.821	1.821
0.005	-0.015	0.005	0.000	0.005	-0.005	0.034	2.681	1.826	1.821	1.816	1.826	1.826	1.816
0.005	-0.005	0.005	-0.005	0.000	0.010	0.029	2.695	1.836	1.831	1.821	1.831	1.821	1.826
0.005	0.015	0.005	-0.005	0.000	0.000	0.029	2.700	1.831	1.831	1.821	1.836	1.826	1.821
0.000	0.010	0.000	-0.005	0.000	-0.010	0.029	2.695	1.831	1.831	1.826	1.836	1.826	1.816
0.000	0.024	0.000	0.000	0.000	-0.010	0.034	2.808	1.836	1.836	1.826	1.841	1.826	1.821
0.000	0.020	-0.005	0.005	0.005	0.000	0.029	2.798	1.846	1.836	1.826	1.846	1.831	1.826
-0.010	0.015	-0.005	0.000	0.000	-0.005	0.034	2.661	1.836	1.836	1.831	1.846	1.831	1.826
-0.005	-0.005	-0.005	0.010	0.005	0.010	0.029	2.651	1.831	1.831	1.826	1.846	1.836	1.831
-0.005	-0.005	-0.005	0.005	0.000	0.020	0.034	2.642	1.826	1.826	1.831	1.846	1.836	1.836
-0.005	0.015	0.000	0.000	-0.005	0.005	0.029	2.627	1.826	1.831	1.831	1.846	1.836	1.826
0.000	0.015	0.000	0.000	0.005	0.000	0.034	2.734	1.836	1.831	1.831	1.846	1.836	1.836
0.000	-0.005	0.005	0.005	0.000	0.000	0.029	2.729	1.846	1.826	1.826	1.846	1.836	1.831
0.010	-0.020	0.005	0.000	0.000	0.010	0.034	2.642	1.836	1.826	1.826	1.846	1.836	1.836
0.000	-0.020	0.010	-0.005	0.000	0.005	0.034	2.637	1.836	1.831	1.826	1.841	1.836	1.836
0.000	-0.005	0.005	-0.005	0.005	0.005	0.034	2.646	1.841	1.836	1.831	1.846	1.836	1.836
0.000	-0.005	0.005	0.005	0.005	0.005	0.029	2.666	1.841	1.836	1.831	1.846	1.836	1.836
0.005	0.005	0.005	-0.005	0.000	0.000	0.029	2.646	1.836	1.836	1.831	1.846	1.836	1.836
0.005	0.000	0.000	-0.005	0.005	-0.020	0.034	2.812	1.855	1.841	1.831	1.846	1.836	1.831
0.005	0.005	0.000	0.005	0.005	-0.005	0.029	2.710	1.841	1.841	1.836	1.851	1.841	1.836
0.005	0.005	0.000	0.005	0.005	-0.005	0.034	2.651	1.841	1.841	1.836	1.851	1.841	1.841
0.000	0.005	0.000	0.005	0.000	0.005	0.029	2.749	1.846	1.841	1.836	1.851	1.841	1.841
0.000	0.029	0.000	0.010	0.000	0.010	0.029	2.700	1.851	1.851	1.841	1.855	1.846	1.846
-0.015	0.020	0.000	0.010	0.000	-0.005	0.029	2.705	1.846	1.841	1.841	1.855	1.846	1.841
-0.005	0.015	-0.005	0.005	-0.005	-0.005	0.029	2.666	1.851	1.846	1.836	1.855	1.846	1.846
-0.005	0.010	-0.005	0.005	0.000	0.000	0.029	2.671	1.841	1.846	1.841	1.855	1.851	1.846
-0.005	0.005	0.000	0.005	0.005	0.015	0.029	2.681	1.841	1.841	1.841	1.855	1.851	1.846
-0.005	0.010	0.005	0.000	0.000	-0.005	0.034	2.681	1.846	1.841	1.841	1.855	1.851	1.841
0.000	0.000	0.000	0.000	0.005	-0.015	0.034	2.671	1.846	1.841	1.841	1.855	1.851	1.846
0.010	0.000	0.000	0.005	0.005	0.005	0.034	2.671	1.846	1.841	1.841	1.855	1.851	1.851
0.005	-0.020	0.000	-0.005	0.000	0.005	0.034	2.686	1.846	1.836	1.836	1.855	1.851	1.851
0.000	-0.029	-0.005	0.000	0.005	0.000	0.034	2.671	1.846	1.836	1.836	1.855	1.851	1.851
0.005	-0.024	0.005	-0.005	0.005	0.000	0.034	2.666	1.846	1.841	1.836	1.855	1.851	1.846
0.010	-0.020	0.010	-0.005	0.000	0.000	0.034	2.671	1.846	1.841	1.841	1.855	1.846	1.851
0.005	-0.020	0.005	0.000	0.000	0.010	0.034	2.695	1.851	1.846	1.841	1.855	1.851	1.851
0.000	0.010	0.005	0.005	0.000	0.000	0.034	2.681	1.846	1.851	1.841	1.860	1.851	1.851
-0.005	0.015	0.005	0.000	0.000	0.005	0.034	2.705	1.851	1.851	1.846	1.860	1.851	1.851
-0.005	0.010	0.000	0.005	-0.005	0.000	0.034	2.695	1.855	1.851	1.846	1.865	1.851	1.851
0.000	0.024	-0.005	0.005	-0.005	0.000	0.034	2.700	1.860	1.855	1.846	1.865	1.851	1.851
-0.005	0.020	0.000	0.005	0.005	0.005	0.034	2.686	1.855	1.851	1.851	1.865	1.855	1.851
-0.005	0.015	0.000	0.005	0.005	-0.015	0.029	2.676	1.855	1.851	1.846	1.865	1.855	1.846
-0.005	0.015	0.000	0.005	0.000	0.000	0.029	2.681	1.855	1.851	1.851	1.865	1.855	1.855
-0.005	0.015	0.000	0.000	0.000	0.005	0.034	2.700	1.855	1.851	1.851	1.865	1.855	1.855
-0.005	0.005	0.000	0.000	0.000	0.005	0.034	2.700	1.860	1.851	1.851	1.865	1.860	1.855
0.000	0.005	0.005	0.005	0.000	0.005	0.029	2.681	1.860	1.851	1.851	1.865	1.860	1.855
0.000	0.000	0.000	0.000	0.000	0.010	0.034	2.793	1.870	1.855	1.851	1.865	1.860	1.860
0.010	-0.010	0.005	-0.005	0.005	0.005	0.034	2.778	1.875	1.855	1.851	1.860	1.860	1.855
0.005	-0.010	0.005	-0.005	0.000	0.010	0.029	2.651	1.865	1.855	1.851	1.865	1.855	1.860
0.000	-0.015	0.010	-0.010	0.000	0.005	0.029	2.646	1.860	1.855	1.851	1.865	1.860	1.855
0.015	-0.020	0.010	-0.005	0.005	-0.020	0.034	2.637	1.855	1.855	1.851	1.870	1.860	1.846
0.005	-0.015	0.005	-0.005	0.000	0.005	0.029	2.651	1.851	1.855	1.851	1.865	1.860	1.855
0.015	-0.020	0.005	0.000	0.000	0.005	0.034	2.646	1.851	1.851	1.851	1.870	1.860	1.860
0.000	-0.010	0.005	0.010	0.000	0.000	0.034	2.729	1.855	1.855	1.851	1.870	1.860	1.860
0.005	0.000	-0.005	0.000	0.000	0.005	0.034	2.754	1.865	1.855	1.851	1.870	1.865	1.860
-0.005	0.010	0.000	-0.005	0.010	-0.005	0.029	2.666	1.865	1.855	1.855	1.870	1.865	1.855
-0.005	0.015	0.000	-0.005	0.005	0.005	0.034	2.715	1.855	1.860	1.855	1.870	1.865	1.865
-0.015	0.020	-0.005	0.000	0.005	0.010	0.034	2.666	1.855	1.860	1.855	1.870	1.865	1.865
0.005	0.015	0.000	0.005	0.000	-0.005	0.034	2.642	1.860	1.855	1.855	1.870	1.865	1.860
-0.005	0.000	-0.005	0.010	0.000	0.000	0.034	2.808	1.870	1.855	1.855	1.875	1.865	1.865
-0.005	0.000	-0.005	0.010	0.005	0.005	0.034	2.729	1.870	1.860	1.855	1.870	1.865	1.865
0.005	0.005	0.000	0.005	0.000	0.000	0.034	2.651	1.870	1.865	1.855	1.870	1.865	1.865
0.005	-0.005	0.005	0.000	-0.005	-0.005	0.034	2.642	1.860	1.860	1.855	1.870	1.865	1.860
0.010	-0.015	0.005	0.005	0.005	0.005	0.034	2.700	1.870	1.860	1.855	1.875	1.870	1.865
0.010	-0.005	0.000	-0.005	-0.005	-0.005	0.034	2.666	1.865	1.860	1.860	1.870	1.865	1.860
0.010	-0.005	0.000	-0.005	0.005	-0.015	0.034	2.686	1.860	1.860	1.860	1.870	1.870	1.865
0.000	-0.010	0.000	0.000	0.000	0.010	0.034	2.690	1.860	1.860	1.860	1.875	1.865	1.870
0.005	-0.005	0.005	-0.005	0.000	-0.020	0.034	2.690	1.865	1.860	1.855	1.870	1.865	1.865
0.010	-0.010	0.005	-0.005	0.000	-0.005	0.029	2.681	1.865	1.860	1.855	1.875	1.870	1.865
0.005	-0.015	0.000	0.000	0.005	-0.005	0.029	2.681	1.860	1.855	1.855	1.875	1.870	1.865
0.000	-0.005	0.000	0.000	0.000	0.000	0.034	2.671	1.860	1.855	1.855	1.875	1.865	1.865
-0.005	-0.015	0.000	0.005	0.000	0.010	0.034	2.686	1.860	1.855	1.855	1.875	1.870	1.870
-0.015	-0.005	0.000	0.005	0.005	0.015	0.029	2.700	1.860	1.860	1.855	1.875	1.870	1.870
-0.005	0.005	-0.005	0.010	0.000	0.005	0.029	2.690	1.870	1.860	1.855	1.875	1.870	1.870
-0.005	-0.005	0.000	0.010	0.000	0.000	0.029	2.671	1.865	1.860	1.860	1.875	1.870	1.865
0.000	-0.005	0.000	0.005	-0.005	-0.005	0.034	2.700	1.870	1.865	1.855	1.875	1.870	1.865
-0.005	0.005	-0.005	0.000	0.000	0.000	0.034	2.690	1.870	1.870	1.860	1.875	1.870	1.865
0.000	0.029	-0.005	0.010	0.005	0.024	0.029	2.695	1.870	1.870	1.865	1.880	1.870	1.875
-0.005	0.024	0.000	0.000	0.005	0.015	0.029	2.700	1.870	1.870	1.865	1.875	1.870	1.870
0.005	0.015	0.005	0.000	0.000	0.015	0.029	2.695	1.870	1.865	1.865	1.875	1.870	1.870
-0.005	0.000	0.000	-0.005	0.010	-0.024	0.029	2.676	1.870	1.865	1.860	1.875	1.870	1.860
0.000	0.000	0.005	0.000	0.000	0.005	0.034	2.681	1.870	1.865	1.865	1.880	1.870	1.870
0.005	-0.005	0.005	0.000	0.005	0.005	0.034	2.681	1.870	1.865	1.865	1.880	1.875	1.870
0.010	-0.005	0.005	0.000	0.000	0.000	0.029	2.690	1.870	1.865	1.865	1.880	1.870	1.870
0.015	0.000	0.005	0.000	0.000	-0.005	0.034	2.690	1.870	1.865	1.860	1.880	1.870	1.870
0.000	0.010	0.005	-0.005	0.005	-0.005	0.029	2.690	1.870	1.870	1.865	1.880	1.875	1.870
0.000	-0.005	0.000	0.000	-0.005	-0.015	0.029	2.666	1.865	1.865	1.865	1.880	1.870	1.870
0.000	0.005	0.005	0.000	-0.005	0.000	0.034	2.656	1.875	1.870	1.865	1.880	1.870	1.870
0.005	0.000	0.005	0.000	0.000	0.005	0.034	2.671	1.875	1.870	1.865	1.880	1.875	1.875
-0.005	0.015	-0.005	0.005	0.005	-0.010	0.034	2.646	1.865	1.870	1.865	1.880	1.875	1.870
0.000	0.010	-0.005	0.005	0.000	0.005	0.034	2.710	1.870	1.870	1.865	1.880	1.875	1.875
0.005	0.015	-0.005	0.005	-0.005	0.005	0.034	2.734	1.880	1.870	1.870	1.885	1.875	1.875
-0.005	0.015	0.000	0.000	-0.010	-0.010	0.029	2.729	1.880	1.875	1.870	1.880	1.875	1.870
0.000	0.015	-0.005	0.000	-0.005	0.000	0.034	2.666	1.875	1.870	1.870	1.885	1.875	1.875
0.005	0.015	0.010	0.000	0.000	-0.010	0.029	2.749	1.880	1.875	1.875	1.885	1.880	1.870
0.000	0.005	0.005	0.000	0.000	0.000	0.034	2.666	1.875	1.870	1.870	1.885	1.880	1.875
-0.005	0.000	0.000	0.000	0.010	0.015	0.029	2.739	1.875	1.870	1.870	1.885	1.885	1.880
0.000	-0.005	-0.005	-0.005	0.015	0.010	0.034	2.676	1.875	1.870	1.870	1.885	1.880	1.880
0.010	-0.015	0.000	-0.005	0.015	-0.020	0.029	2.695	1.880	1.870	1.870	1.880	1.880	1.875
0.000	-0.015	0.005	-0.005	0.005	0.010	0.029	2.681	1.890	1.870	1.870	1.885	1.880	1.880
0.005	-0.005	0.010	-0.005	0.005	0.015	0.029	2.729	1.885	1.875	1.870	1.885	1.875	1.880
0.000	-0.010	0.010	-0.010	0.000	0.005	0.029	2.671	1.885	1.875	1.870	1.885	1.875	1.875
-0.005	-0.015	0.005	0.000	-0.005	0.000	0.029	2.622	1.875	1.875	1.870	1.890	1.875	1.875
0.005	-0.010	-0.005	0.000	0.000	0.000	0.034	2.700	1.875	1.875	1.870	1.890	1.880	1.875
0.000	0.000	-0.005	0.005	0.005	0.005	0.034	2.676	1.875	1.875	1.870	1.890	1.880	1.880
-0.005	0.010	-0.005	0.000	0.000	0.005	0.034	2.700	1.875	1.875	1.870	1.890	1.880	1.880
-0.015	0.010	-0.005	0.000	0.000	-0.005	0.034	2.686	1.875	1.875	1.870	1.890	1.880	1.880
-0.005	0.015	-0.005	0.010	0.000	0.005	0.029	2.681	1.875	1.875	1.875	1.890	1.880	1.880
-0.010	0.005	-0.010	0.005	0.000	0.005	0.029	2.676	1.875	1.875	1.870	1.890	1.885	1.880
0.000	0.010	-0.005	0.000	0.000	0.000	0.029	2.695	1.875	1.875	1.875	1.890	1.885	1.880
-0.005	0.005	0.005	0.000	0.000	0.010	0.029	2.686	1.875	1.875	1.875	1.890	1.885	1.880
0.000	-0.010	0.000	0.005	0.005	-0.005	0.029	2.681	1.880	1.875	1.870	1.890	1.885	1.880
0.000	0.000	0.000	-0.005	0.000	0.000	0.034	2.671	1.875	1.875	1.870	1.890	1.880	1.880
0.015	-0.010	0.005	0.005	-0.005	0.005	0.034	2.666	1.875	1.875	1.870	1.890	1.885	1.885
0.010	-0.005	0.000	0.000	-0.005	-0.010	0.034	2.666	1.870	1.870	1.875	1.885	1.880	1.880
0.000	-0.005	0.005	-0.005	0.005	-0.005	0.029	2.686	1.875	1.870	1.870	1.890	1.885	1.880
0.015	-0.005	0.010	-0.005	0.000	0.015	0.034	2.681	1.875	1.870	1.870	1.890	1.885	1.885
0.005	0.000	0.005	-0.005	0.000	0.010	0.029	2.666	1.870	1.875	1.870	1.885	1.880	1.880
0.000	-0.015	0.000	0.000	0.000	-0.005	0.029	2.695	1.870	1.865	1.870	1.885	1.885	1.880
0.000	-0.005	0.000	0.000	0.000	0.010	0.029	2.676	1.875	1.870	1.870	1.890	1.880	1.885
0.010	0.000	0.000	0.010	0.000	0.010	0.029	2.700	1.880	1.875	1.870	1.890	1.885	1.880
0.005	0.000	0.000	0.000	0.005	-0.010	0.029	2.690	1.875	1.875	1.870	1.885	1.885	1.880
0.000	0.005	0.005	0.005	0.000	0.000	0.034	2.671	1.875	1.875	1.870	1.890	1.880	1.880
-0.010	0.015	-0.005	0.015	0.005	0.005	0.034	2.700	1.870	1.875	1.870	1.890	1.880	1.885
-0.015	0.015	-0.005	0.005	0.000	0.010	0.029	2.681	1.875	1.875	1.870	1.890	1.880	1.885
0.000	0.010	0.005	0.010	0.000	0.000	0.029	2.690	1.880	1.875	1.875	1.890	1.885	1.880
-0.010	0.015	0.000	0.005	0.000	-0.020	0.034	2.808	1.890	1.875	1.875	1.890	1.880	1.880
-0.005	-0.005	0.005	0.005	0.005	0.005	0.034	2.788	1.899	1.880	1.875	1.890	1.885	1.885
-0.005	-0.005	0.000	-0.005	0.005	0.005	0.034	2.661	1.890	1.880	1.875	1.890	1.885	1.880
0.005	-0.005	0.000	0.000	0.000	0.000	0.029	2.651	1.885	1.880	1.875	1.890	1.880	1.880
0.005	-0.005	0.000	0.000	0.000	-0.005	0.029	2.632	1.875	1.875	1.875	1.890	1.885	1.880
0.005	-0.010	0.000	0.000	0.000	-0.010	0.029	2.642	1.880	1.875	1.875	1.895	1.885	1.880
0.000	0.000	0.000	0.000	0.005	0.015	0.034	2.651	1.875	1.875	1.875	1.890	1.885	1.885
0.005	0.000	0.005	-0.005	0.000	0.005	0.034	2.734	1.880	1.875	1.875	1.890	1.885	1.885
0.000	-0.010	0.005	-0.005	-0.005	0.010	0.029	2.744	1.885	1.875	1.875	1.890	1.880	1.885
0.010	0.005	0.005	-0.005	0.000	0.000	0.029	2.646	1.880	1.880	1.875	1.890	1.885	1.885
-0.005	0.000	0.005	0.005	0.005	-0.015	0.029	2.651	1.875	1.875	1.875	1.895	1.885	1.880
0.000	0.010	0.000	0.000	0.005	0.010	0.029	2.671	1.875	1.880	1.875	1.895	1.890	1.890
0.010	0.015	0.000	0.010	0.000	0.010	0.029	2.642	1.870	1.875	1.875	1.895	1.890	1.885
-0.005	0.005	0.000	0.005	0.000	0.005	0.034	2.808	1.880	1.875	1.875	1.890	1.885	1.885
-0.005	0.005	0.005	0.010	-0.005	0.005	0.034	2.642	1.875	1.875	1.875	1.895	1.890	1.885
0.000	0.010	0.000	0.010	0.005	0.005	0.029	2.661	1.875	1.875	1.875	1.895	1.890	1.890
0.005	0.015	-0.005	0.010	0.010	-0.010	0.034	2.627	1.870	1.875	1.875	1.895	1.890	1.885
-0.010	0.010	-0.005	0.000	0.000	-0.015	0.034	2.700	1.875	1.875	1.870	1.890	1.885	1.880
-0.005	0.015	-0.005	0.005	-0.005	0.010	0.034	2.676	1.875	1.875	1.875	1.895	1.890	1.890
0.005	0.005	0.000	0.000	0.000	0.005	0.029	2.671	1.875	1.870	1.870	1.890	1.890	1.885
0.005	0.000	0.000	0.000	0.005	0.000	0.034	2.681	1.880	1.875	1.875	1.890	1.885	1.885
0.000	-0.010	0.005	-0.005	0.000	-0.005	0.034	2.666	1.875	1.870	1.870	1.890	1.885	1.885
0.010	0.005	0.005	-0.005	0.000	0.005	0.034	2.710	1.885	1.875	1.875	1.890	1.885	1.885
0.005	-0.010	0.005	-0.010	0.000	0.005	0.034	2.681	1.880	1.875	1.870	1.890	1.880	1.885
0.005	-0.015	0.010	0.000	0.005	-0.005	0.034	2.666	1.875	1.875	1.875	1.890	1.885	1.885
0.010	0.000	0.000	0.005	0.005	0.000	0.034	2.690	1.880	1.875	1.875	1.890	1.885	1.885
0.005	-0.005	0.000	-0.005	0.000	-0.005	0.034	2.671	1.875	1.875	1.875	1.890	1.885	1.885
-0.005	0.010	0.000	-0.005	0.005	0.000	0.029	2.695	1.875	1.875	1.875	1.890	1.885	1.880
0.000	0.000	0.000	-0.005	0.000	0.005	0.034	2.681	1.875	1.875	1.875	1.890	1.885	1.885
-0.005	0.010	0.000	0.005	-0.005	0.000	0.034	2.681	1.875	1.875	1.875	1.890	1.880	1.880
-0.005	0.000	0.000	0.005	0.000	0.005	0.034	2.681	1.875	1.875	1.870	1.890	1.890	1.885
0.005	0.010	-0.005	0.010	0.005	0.005	0.034	2.676	1.880	1.875	1.875	1.890	1.885	1.885
0.000	0.015	-0.010	0.005	-0.005	0.000	0.029	2.695	1.880	1.875	1.875	1.895	1.885	1.885
-0.005	0.020	0.005	0.005	0.000	0.005	0.034	2.686	1.885	1.880	1.880	1.895	1.885	1.885
0.005	0.005	0.000	0.000	0.000	0.000	0.029	2.676	1.880	1.880	1.875	1.890	1.885	1.880
-0.005	0.005	0.000	-0.005	0.000	-0.005	0.029	2.671	1.870	1.875	1.875	1.890	1.885	1.885
0.005	-0.005	0.000	0.000	0.005	0.005	0.034	2.676	1.880	1.875	1.875	1.895	1.885	1.890
0.000	0.000	0.005	0.005	0.000	0.005	0.029	2.705	1.885	1.875	1.875	1.895	1.885	1.885
0.015	-0.020	0.010	0.010	-0.005	-0.015	0.034	2.695	1.880	1.875	1.875	1.895	1.885	1.880
0.010	-0.015	0.005	0.000	0.000	0.000	0.029	2.676	1.880	1.875	1.875	1.890	1.885	1.885
0.005	-0.005	0.005	-0.010	0.000	0.000	0.029	2.803	1.895	1.880	1.875	1.890	1.880	1.885
0.010	-0.010	0.000	-0.005	0.005	-0.005	0.034	2.783	1.895	1.885	1.875	1.890	1.885	1.885
0.005	0.005	0.005	-0.010	0.000	0.005	0.029	2.651	1.890	1.890	1.880	1.890	1.885	1.885
0.010	-0.005	0.000	-0.005	0.000	-0.005	0.029	2.646	1.885	1.885	1.880	1.895	1.885	1.880
0.005	0.000	0.000	-0.005	0.005	-0.005	0.034	2.627	1.870	1.880	1.880	1.895	1.885	1.885
-0.005	0.000	0.000	0.010	0.000	-0.010	0.029	2.642	1.880	1.880	1.875	1.899	1.885	1.880
-0.005	0.005	0.005	0.010	0.005	0.000	0.034	2.720	1.885	1.880	1.875	1.899	1.890	1.885
0.000	0.005	-0.005	0.005	0.010	0.005	0.034	2.725	1.890	1.885	1.875	1.899	1.890	1.890
-0.010	0.005	-0.005	0.005	0.010	0.000	0.034	2.710	1.885	1.885	1.880	1.895	1.890	1.890
0.000	0.015	-0.005	0.005	0.005	0.010	0.034	2.656	1.885	1.890	1.880	1.899	1.890	1.895
0.000	0.015	-0.005	0.015	0.005	0.010	0.034	2.642	1.880	1.885	1.880	1.899	1.890	1.890
0.000	0.010	0.000	0.005	0.000	0.010	0.034	2.671	1.875	1.880	1.880	1.899	1.890	1.890
-0.005	0.010	-0.005	0.005	0.000	0.005	0.034	2.642	1.875	1.880	1.880	1.899	1.890	1.885
0.000	0.005	0.005	0.000	0.000	0.000	0.034	2.817	1.890	1.880	1.880	1.895	1.895	1.890
0.005	-0.005	0.000	-0.005	-0.005	0.000	0.034	2.622	1.880	1.875	1.880	1.895	1.890	1.890
0.000	0.000	0.005	-0.010	-0.005	0.000	0.029	2.651	1.880	1.880	1.875	1.895	1.890	1.885
0.005	-0.005	0.000	0.000	-0.010	-0.005	0.029	2.734	1.885	1.875	1.875	1.895	1.885	1.885
0.005	-0.005	0.005	-0.005	0.000	-0.029	0.034	2.695	1.880	1.875	1.875	1.895	1.890	1.880
0.005	-0.020	0.005	-0.005	-0.005	-0.010	0.029	2.681	1.880	1.875	1.875	1.895	1.890	1.885
0.015	-0.010	0.005	0.005	0.000	0.010	0.034	2.695	1.885	1.875	1.875	1.895	1.895	1.895
0.000	-0.010	0.005	0.005	0.000	0.005	0.029	2.705	1.880	1.875	1.875	1.895	1.890	1.890
0.010	-0.005	0.005	0.010	0.005	0.000	0.034	2.686	1.885	1.885	1.875	1.895	1.895	1.890
-0.005	-0.005	-0.005	0.010	0.000	0.005	0.034	2.690	1.880	1.880	1.875	1.895	1.890	1.890
-0.005	0.010	0.000	0.010	0.005	0.015	0.034	2.681	1.880	1.885	1.880	1.895	1.890	1.895
-0.005	0.010	-0.005	0.010	-0.005	0.015	0.034	2.695	1.880	1.880	1.875	1.895	1.890	1.895
0.000	0.015	0.000	0.005	0.000	0.015	0.029	2.671	1.880	1.885	1.880	1.895	1.890	1.890
0.005	0.010	0.000	0.005	0.005	0.005	0.034	2.686	1.880	1.885	1.880	1.895	1.890	1.890
-0.005	0.005	-0.005	0.000	0.000	0.015	0.029	2.695	1.885	1.880	1.880	1.895	1.890	1.895
-0.005	0.005	-0.005	0.000	0.005	0.010	0.034	2.676	1.880	1.880	1.880	1.899	1.890	1.890
0.000	-0.005	0.000	0.000	0.005	-0.015	0.029	2.705	1.885	1.875	1.875	1.895	1.890	1.880
0.000	-0.005	0.000	0.000	0.000	0.010	0.029	2.695	1.885	1.880	1.875	1.895	1.890	1.890
0.005	-0.015	0.005	0.000	0.005	0.005	0.034	2.666	1.880	1.880	1.880	1.895	1.890	1.885
0.010	-0.010	0.005	-0.005	0.000	0.000	0.034	2.695	1.885	1.875	1.875	1.895	1.890	1.890
0.015	-0.015	0.005	-0.005	0.000	-0.010	0.034	2.671	1.880	1.880	1.880	1.890	1.885	1.885
0.010	-0.015	0.005	-0.005	0.005	0.005	0.034	2.671	1.885	1.875	1.875	1.895	1.890	1.890
0.005	-0.005	0.005	-0.010	0.000	-0.010	0.034	2.676	1.880	1.875	1.875	1.895	1.890	1.885
0.005	-0.005	0.005	0.000	0.000	-0.024	0.034	2.676	1.875	1.880	1.875	1.895	1.890	1.880
0.000	-0.005	0.000	-0.005	0.000	-0.005	0.034	2.686	1.875	1.880	1.875	1.895	1.890	1.890
-0.005	0.000	0.000	0.000	0.005	-0.005	0.034	2.700	1.880	1.880	1.875	1.895	1.890	1.885
0.005	0.010	0.000	0.010	0.005	-0.020	0.029	2.681	1.880	1.880	1.875	1.899	1.890	1.885
0.000	0.010	-0.005	0.005	0.000	0.005	0.029	2.783	1.895	1.885	1.880	1.895	1.890	1.895
0.000	0.010	-0.005	0.005	0.000	0.010	0.029	2.788	1.904	1.890	1.880	1.895	1.890	1.895
-0.010	0.005	-0.005	0.005	0.005	0.005	0.029	2.666	1.890	1.885	1.880	1.895	1.895	1.890
0.000	0.015	-0.005	0.005	0.000	0.010	0.034	2.651	1.890	1.890	1.885	1.895	1.890	1.890
0.000	0.015	0.000	0.005	0.000	0.010	0.034	2.642	1.880	1.890	1.885	1.899	1.890	1.890
-0.005	0.005	0.000	0.000	0.000	0.005	0.029	2.734	1.885	1.885	1.880	1.899	1.895	1.885
0.010	-0.005	0.000	0.005	0.000	0.005	0.034	2.627	1.885	1.885	1.880	1.899	1.895	1.890
0.005	0.000	0.000	-0.005	0.010	-0.010	0.029	2.729	1.890	1.885	1.885	1.899	1.895	1.890
0.005	-0.010	0.000	0.000	0.000	-0.005	0.029	2.715	1.885	1.880	1.885	1.899	1.890	1.890
0.005	-0.005	0.005	0.000	0.005	0.010	0.034	2.651	1.880	1.880	1.880	1.899	1.895	1.895
0.000	-0.005	0.010	0.000	0.000	0.005	0.029	2.646	1.880	1.880	1.880	1.904	1.895	1.890
0.010	-0.015	0.000	0.000	0.000	-0.005	0.034	2.671	1.880	1.875	1.875	1.899	1.895	1.890
0.005	-0.020	0.005	0.005	0.000	0.005	0.034	2.646	1.875	1.875	1.875	1.895	1.895	1.895
0.005	-0.005	0.005	0.000	0.000	0.000	0.034	2.822	1.895	1.880	1.880	1.895	1.890	1.895
-0.005	-0.005	0.005	-0.005	0.005	0.010	0.034	2.632	1.880	1.880	1.875	1.895	1.890	1.895
0.000	0.005	-0.005	0.000	0.000	-0.010	0.034	2.646	1.875	1.880	1.875	1.895	1.890	1.885
0.000	0.015	0.000	0.015	0.005	-0.005	0.034	2.744	1.885	1.885	1.880	1.899	1.890	1.890
-0.010	0.020	-0.005	0.005	0.000	0.005	0.034	2.695	1.880	1.885	1.880	1.899	1.895	1.895
-0.005	0.020	-0.005	0.005	0.000	0.010	0.034	2.690	1.885	1.885	1.880	1.899	1.895	1.895
0.000	0.020	0.000	0.010	0.000	0.010	0.029	2.695	1.890	1.885	1.880	1.899	1.895	1.895
-0.010	0.020	-0.005	0.010	-0.005	-0.005	0.034	2.705	1.890	1.885	1.880	1.899	1.890	1.890
0.000	0.015	0.000	0.005	0.000	0.000	0.029	2.686	1.885	1.880	1.885	1.899	1.895	1.890
-0.005	0.010	-0.005	0.010	0.000	0.005	0.029	2.686	1.885	1.880	1.885	1.899	1.895	1.895
0.005	0.005	0.005	0.000	0.000	0.010	0.029	2.686	1.890	1.885	1.885	1.895	1.895	1.895
-0.005	-0.005	0.000	-0.005	0.000	0.000	0.029	2.695	1.885	1.880	1.880	1.899	1.895	1.890
0.000	-0.005	0.000	-0.005	0.000	-0.015	0.029	2.705	1.885	1.875	1.880	1.895	1.890	1.890
-0.005	0.000	0.000	-0.010	0.000	0.005	0.029	2.676	1.880	1.880	1.880	1.895	1.890	1.895
0.000	-0.005	0.000	-0.005	0.005	0.000	0.034	2.666	1.880	1.880	1.880	1.899	1.890	1.890
0.005	-0.015	0.005	-0.005	0.000	0.005	0.034	2.666	1.875	1.875	1.875	1.895	1.895	1.895
0.000	-0.005	0.005	0.000	0.005	-0.005	0.034	2.676	1.880	1.880	1.875	1.895	1.890	1.890
0.005	0.000	0.005	0.000	0.000	0.005	0.034	2.705	1.880	1.880	1.875	1.899	1.890	1.890
0.000	-0.015	0.000	0.000	0.000	0.010	0.034	2.676	1.880	1.875	1.875	1.895	1.890	1.890
0.005	-0.010	0.000	0.010	0.000	-0.005	0.034	2.700	1.885	1.880	1.875	1.895	1.890	1.890
-0.010	-0.005	0.000	0.005	0.000	0.005	0.034	2.681	1.880	1.880	1.875	1.895	1.890	1.890
0.000	0.005	0.000	0.005	0.000	-0.005	0.034	2.686	1.885	1.880	1.875	1.899	1.890	1.885
0.000	0.010	0.000	0.000	0.000	-0.005	0.034	2.700	1.890	1.885	1.880	1.895	1.890	1.885
-0.005	0.015	-0.005	0.010	0.000	0.000	0.034	2.666	1.885	1.885	1.880	1.899	1.890	1.890
-0.005	0.005	-0.005	0.005	0.000	0.010	0.034	2.695	1.885	1.880	1.880	1.895	1.890	1.895
-0.005	0.005	0.000	0.005	0.000	0.005	0.034	2.700	1.885	1.880	1.880	1.899	1.895	1.895
-0.005	-0.005	0.000	0.000	0.005	-0.005	0.029	2.690	1.890	1.880	1.880	1.899	1.890	1.890
-0.005	-0.005	0.000	-0.005	0.005	0.015	0.029	2.798	1.899	1.885	1.880	1.899	1.890	1.895
-0.005	0.000	0.005	-0.005	0.010	0.010	0.029	2.793	1.904	1.890	1.885	1.895	1.890	1.890
0.010	0.005	0.000	-0.005	0.000	-0.005	0.034	2.651	1.899	1.895	1.885	1.899	1.890	1.890
0.015	0.005	0.005	-0.005	0.000	0.010	0.029	2.637	1.890	1.890	1.885	1.899	1.895	1.890
0.010	0.000	0.005	-0.005	0.000	0.000	0.029	2.632	1.880	1.885	1.885	1.899	1.895	1.890
0.005	0.005	0.010	0.000	0.005	0.005	0.034	2.646	1.875	1.885	1.885	1.904	1.895	1.890
0.000	-0.005	0.010	-0.005	0.000	-0.015	0.029	2.739	1.885	1.880	1.885	1.899	1.890	1.890
0.010	0.010	0.005	0.005	0.000	0.005	0.029	2.705	1.890	1.885	1.885	1.904	1.895	1.890
0.010	0.010	-0.005	0.010	0.000	-0.005	0.034	2.754	1.895	1.885	1.880	1.904	1.899	1.890
0.000	0.015	-0.005	0.015	0.005	0.005	0.029	2.656	1.885	1.885	1.885	1.904	1.895	1.895
0.000	0.020	-0.005	0.005	0.000	-0.005	0.034	2.729	1.890	1.885	1.885	1.904	1.895	1.890
-0.010	0.010	0.000	0.000	0.005	0.000	0.034	2.671	1.885	1.885	1.885	1.904	1.895	1.895
-0.010	0.010	-0.005	0.005	-0.005	-0.005	0.034	2.627	1.880	1.885	1.885	1.899	1.895	1.895
-0.005	0.005	0.000	0.005	0.000	0.000	0.034	2.700	1.880	1.880	1.880	1.899	1.895	1.899
0.000	0.015	0.000	0.000	0.005	-0.005	0.034	2.744	1.890	1.885	1.885	1.904	1.895	1.895
-0.005	0.010	0.000	0.005	0.000	-0.005	0.029	2.729	1.895	1.885	1.880	1.899	1.895	1.895
0.000	-0.015	0.000	0.000	-0.005	0.015	0.034	2.632	1.885	1.880	1.880	1.899	1.895	1.899
0.000	-0.015	0.000	-0.005	0.000	-0.005	0.034	2.695	1.885	1.880	1.880	1.899	1.895	1.895
0.000	-0.020	0.000	-0.005	0.005	-0.015	0.034	2.666	1.880	1.880	1.880	1.895	1.895	1.890
0.000	-0.020	0.000	0.000	0.000	0.010	0.034	2.671	1.880	1.875	1.875	1.899	1.895	1.899
0.010	-0.010	0.000	-0.005	0.000	-0.015	0.034	2.700	1.885	1.880	1.875	1.895	1.895	1.890
-0.005	-0.005	0.000	-0.010	0.000	0.000	0.034	2.700	1.885	1.880	1.875	1.895	1.890	1.890
0.005	0.000	0.000	-0.005	0.000	0.005	0.029	2.700	1.890	1.880	1.880	1.895	1.890	1.895
0.010	0.005	0.000	-0.005	0.000	0.000	0.034	2.686	1.890	1.885	1.880	1.895	1.890	1.890
0.005	-0.005	0.000	0.000	-0.005	0.005	0.034	2.695	1.890	1.885	1.880	1.895	1.890	1.890
-0.010	0.005	0.000	-0.005	0.000	0.005	0.029	2.690	1.885	1.885	1.880	1.899	1.895	1.890
0.000	0.010	0.000	0.000	0.005	0.000	0.034	2.681	1.885	1.885	1.880	1.899	1.890	1.890
-0.005	0.010	0.000	0.000	0.000	-0.005	0.029	2.671	1.885	1.885	1.880	1.899	1.890	1.890
-0.010	0.000	0.000	0.005	0.005	0.000	0.029	2.671	1.880	1.880	1.880	1.899	1.895	1.890
-0.005	0.015	-0.005	0.010	0.005	0.005	0.029	2.666	1.885	1.885	1.880	1.904	1.895	1.895
0.000	0.015	-0.005	0.010	0.000	0.000	0.029	2.700	1.885	1.885	1.880	1.899	1.895	1.895
-0.010	0.005	-0.005	0.005	0.000	-0.015	0.029	2.695	1.885	1.885	1.880	1.899	1.895	1.890
0.000	-0.005	0.005	0.010	0.005	0.005	0.034	2.695	1.885	1.880	1.885	1.899	1.899	1.895
0.005	-0.005	0.005	0.000	0.005	0.010	0.029	2.686	1.890	1.885	1.880	1.899	1.895	1.895
0.005	-0.010	0.005	0.005	0.005	0.005	0.029	2.676	1.890	1.885	1.880	1.899	1.895	1.895
0.005	-0.010	0.000	0.000	0.005	0.000	0.029	2.676	1.885	1.880	1.880	1.899	1.895	1.895
0.000	-0.005	0.000	0.000	0.000	0.000	0.034	2.676	1.880	1.880	1.880	1.895	1.895	1.895
0.005	-0.005	0.005	0.000	0.010	0.000	0.029	2.695	1.890	1.885	1.880	1.895	1.895	1.895
0.005	-0.005	0.015	0.000	0.000	-0.005	0.029	2.671	1.885	1.885	1.880	1.899	1.895	1.890
-0.005	0.000	0.010	0.000	0.000	0.000	0.034	2.690	1.885	1.880	1.880	1.899	1.890	1.890
0.000	0.005	0.010	0.000	0.000	0.000	0.034	2.783	1.899	1.890	1.880	1.899	1.895	1.890
0.005	0.005	0.000	0.010	-0.005	0.000	0.034	2.788	1.904	1.895	1.885	1.899	1.890	1.890
-0.005	0.000	0.000	0.000	0.000	0.005	0.034	2.656	1.890	1.890	1.885	1.899	1.895	1.895
0.000	0.015	0.000	0.005	0.005	0.005	0.034	2.642	1.885	1.895	1.890	1.899	1.895	1.895
0.000	0.015	-0.005	0.010	0.000	0.000	0.034	2.632	1.880	1.890	1.885	1.904	1.895	1.890
-0.015	0.020	-0.005	0.010	-0.005	-0.010	0.034	2.646	1.875	1.885	1.885	1.904	1.895	1.890
-0.005	0.029	-0.005	0.000	0.005	-0.005	0.034	2.739	1.890	1.890	1.885	1.904	1.899	1.895
-0.005	0.015	-0.005	0.005	0.005	-0.020	0.034	2.739	1.895	1.885	1.890	1.904	1.895	1.890
-0.005	0.010	0.005	0.010	0.000	0.020	0.034	2.637	1.885	1.885	1.885	1.904	1.899	1.899
0.000	0.005	0.000	0.005	0.000	0.015	0.034	2.656	1.880	1.880	1.885	1.904	1.899	1.899
-0.005	0.000	0.005	0.005	0.000	0.005	0.034	2.725	1.885	1.880	1.880	1.899	1.895	1.895
0.000	-0.010	0.000	0.000	-0.005	0.015	0.029	2.661	1.885	1.880	1.880	1.899	1.895	1.899
-0.005	-0.005	0.005	0.000	0.000	-0.005	0.029	2.705	1.880	1.880	1.880	1.899	1.895	1.895
0.005	-0.005	0.010	-0.005	0.000	0.015	0.029	2.817	1.880	1.875	1.880	1.899	1.895	1.895
0.005	-0.010	0.005	-0.010	0.000	0.010	0.029	2.720	1.885	1.875	1.880	1.895	1.895	1.895
0.010	-0.010	0.010	-0.010	0.000	0.010	0.029	2.744	1.890	1.880	1.880	1.895	1.890	1.890
0.005	-0.010	0.000	-0.015	0.005	0.010	0.029	2.725	1.895	1.885	1.875	1.890	1.890	1.895
0.000	-0.015	0.005	-0.005	-0.005	0.005	0.029	2.700	1.890	1.880	1.880	1.895	1.890	1.890
0.005	-0.010	0.000	-0.005	-0.005	-0.020	0.029	2.681	1.890	1.885	1.880	1.895	1.890	1.885
-0.005	0.005	0.000	-0.005	0.005	0.015	0.034	2.695	1.885	1.890	1.885	1.899	1.890	1.895
0.000	0.010	-0.005	-0.005	-0.005	0.010	0.034	2.695	1.890	1.890	1.885	1.899	1.890	1.895
-0.005	0.005	0.000	0.000	0.000	0.015	0.029	2.681	1.885	1.890	1.885	1.899	1.895	1.895
-0.005	0.020	-0.005	-0.005	0.000	-0.005	0.034	2.695	1.885	1.890	1.890	1.899	1.895	1.890
0.000	0.010	-0.005	-0.010	0.000	0.005	0.034	2.671	1.890	1.890	1.885	1.899	1.895	1.895
0.000	0.010	-0.005	-0.005	0.000	0.005	0.029	2.686	1.885	1.885	1.885	1.904	1.895	1.895
0.000	0.005	0.000	0.000	-0.005	-0.005	0.034	2.705	1.890	1.885	1.885	1.904	1.895	1.890
-0.005	0.005	0.000	-0.010	0.005	-0.010	0.029	2.681	1.885	1.885	1.885	1.904	1.895	1.890
0.005	-0.005	0.000	-0.005	0.005	0.010	0.029	2.700	1.890	1.880	1.885	1.899	1.899	1.899
0.005	-0.010	0.005	-0.005	0.005	0.005	0.029	2.681	1.885	1.885	1.885	1.899	1.899	1.895
0.010	-0.029	0.000	-0.005	0.000	-0.010	0.034	2.676	1.885	1.875	1.880	1.904	1.895	1.895
0.000	-0.024	0.005	-0.005	0.005	0.000	0.034	2.671	1.880	1.875	1.880	1.899	1.895	1.895
0.015	-0.024	0.005	-0.010	0.005	-0.020	0.034	2.671	1.880	1.880	1.875	1.895	1.895	1.890
0.015	-0.010	0.005	-0.010	0.010	-0.020	0.034	2.695	1.890	1.885	1.880	1.899	1.890	1.890
0.005	-0.024	0.000	0.000	0.010	-0.024	0.034	2.671	1.880	1.880	1.880	1.899	1.895	1.890
0.000	-0.010	0.005	0.005	0.020	-0.015	0.029	2.681	1.880	1.880	1.880	1.904	1.895	1.895
0.005	-0.005	0.000	0.005	0.020	0.010	0.034	2.700	1.885	1.885	1.880	1.899	1.899	1.899
0.005	0.005	0.000	0.015	0.015	-0.005	0.034	2.686	1.890	1.890	1.880	1.904	1.899	1.895
0.000	0.029	0.000	0.015	0.010	-0.005	0.029	2.690	1.885	1.895	1.885	1.904	1.895	1.895
-0.015	0.029	-0.010	0.015	0.020	-0.005	0.034	2.671	1.880	1.890	1.885	1.899	1.899	1.899
-0.005	0.029	0.000	0.015	0.029	-0.010	0.029	2.681	1.885	1.890	1.885	1.904	1.899	1.895
0.000	0.005	0.000	0.010	0.029	-0.015	0.029	2.676	1.885	1.885	1.885	1.904	1.899	1.895
-0.010	0.010	-0.005	0.010	0.029	-0.005	0.029	2.646	1.880	1.880	1.880	1.904	1.899	1.899
0.005	0.010	0.000	0.010	0.020	-0.015	0.034	2.651	1.880	1.880	1.880	1.899	1.895	1.899
-0.005	-0.005	0.000	0.005	0.015	0.010	0.034	2.642	1.880	1.875	1.880	1.895	1.895	1.899
0.005	-0.020	0.000	0.015	0.005	0.000	0.034	2.622	1.875	1.875	1.880	1.899	1.890	1.895
0.000	-0.010	0.005	0.005	0.000	0.000	0.029	2.637	1.870	1.875	1.875	1.895	1.890	1.890
-0.005	-0.010	0.005	0.005	-0.010	0.010	0.029	2.734	1.880	1.875	1.875	1.895	1.885	1.895
0.010	-0.010	0.005	0.005	-0.010	0.005	0.029	2.622	1.875	1.875	1.875	1.895	1.885	1.890
0.010	-0.010	0.005	0.005	-0.015	0.010	0.034	2.622	1.870	1.875	1.875	1.890	1.885	1.890
-0.005	-0.010	0.005	0.005	-0.024	0.010	0.029	2.681	1.875	1.875	1.875	1.895	1.885	1.885
0.000	0.000	0.000	0.010	-0.024	0.005	0.034	2.642	1.870	1.875	1.875	1.895	1.885	1.885
0.005	0.010	0.000	0.015	-0.029	0.005	0.029	2.671	1.875	1.875	1.875	1.890	1.880	1.885
-0.005	0.015	0.000	0.015	-0.015	0.015	0.029	2.651	1.870	1.875	1.875	1.895	1.885	1.890
-0.005	0.010	0.000	0.010	-0.020	0.005	0.029	2.671	1.875	1.875	1.875	1.890	1.890	1.885
-0.010	0.005	-0.005	0.015	-0.015	0.005	0.029	2.715	1.880	1.875	1.875	1.895	1.890	1.890
-0.010	0.015	-0.005	0.010	-0.010	0.010	0.029	2.617	1.880	1.880	1.875	1.890	1.890	1.890
0.000	0.005	0.000	0.005	-0.015	0.005	0.034	2.734	1.895	1.880	1.875	1.890	1.890	1.890
-0.015	0.015	0.000	0.005	-0.005	-0.010	0.029	2.700	1.890	1.880	1.875	1.895	1.885	1.885
0.000	0.005	-0.005	0.005	0.000	0.005	0.034	2.700	1.895	1.885	1.875	1.895	1.890	1.890
-0.005	0.000	0.000	0.010	-0.005	0.005	0.034	2.681	1.885	1.885	1.880	1.895	1.890	1.890
0.000	-0.010	0.005	0.000	-0.005	0.010	0.034	2.695	1.890	1.885	1.880	1.895	1.890	1.890
0.005	-0.010	0.000	0.000	-0.005	-0.005	0.034	2.690	1.890	1.885	1.880	1.890	1.890	1.885
0.000	0.000	0.005	0.000	-0.005	0.015	0.034	2.676	1.885	1.885	1.880	1.895	1.890	1.895
-0.005	-0.005	0.000	-0.005	0.000	0.005	0.029	2.676	1.885	1.880	1.880	1.895	1.890	1.890
0.005	-0.005	0.000	0.000	0.000	0.010	0.034	2.690	1.885	1.885	1.880	1.895	1.890	1.890
0.015	0.000	0.005	-0.010	0.005	0.015	0.034	2.681	1.890	1.885	1.880	1.895	1.890	1.890
0.010	-0.010	0.000	-0.005	0.005	0.010	0.029	2.676	1.880	1.880	1.880	1.895	1.890	1.890
-0.010	-0.005	0.000	-0.005	0.000	0.010	0.034	2.676	1.875	1.880	1.880	1.895	1.890	1.890
0.000	0.000	0.000	-0.005	0.000	0.000	0.034	2.676	1.880	1.880	1.880	1.899	1.890	1.880
0.005	0.005	-0.005	0.000	0.005	0.005	0.029	2.695	1.880	1.885	1.880	1.899	1.890	1.890
0.005	0.015	0.000	-0.005	0.010	0.005	0.034	2.695	1.885	1.885	1.880	1.899	1.895	1.890
-0.005	0.005	0.005	-0.005	0.000	0.005	0.034	2.681	1.885	1.880	1.880	1.899	1.890	1.890
-0.005	0.010	-0.005	0.000	0.005	-0.010	0.029	2.700	1.880	1.885	1.880	1.899	1.890	1.885
-0.010	0.010	-0.005	0.005	0.000	-0.020	0.034	2.676	1.880	1.880	1.880	1.899	1.895	1.885
0.000	0.005	0.000	-0.005	0.000	0.000	0.029	2.695	1.890	1.880	1.880	1.899	1.895	1.890
0.000	0.005	-0.005	0.000	0.005	0.005	0.034	2.676	1.885	1.885	1.880	1.899	1.895	1.895
-0.005	-0.005	0.000	0.000	-0.005	-0.024	0.029	2.681	1.885	1.880	1.880	1.895	1.895	1.885
0.000	-0.005	0.005	0.005	0.005	0.000	0.034	2.695	1.885	1.885	1.880	1.899	1.895	1.895
0.005	0.000	0.000	-0.005	0.010	0.015	0.029	2.676	1.885	1.880	1.880	1.899	1.895	1.899
0.010	-0.010	0.005	-0.010	0.000	0.000	0.029	2.686	1.880	1.880	1.880	1.895	1.890	1.890
0.005	-0.015	0.000	0.000	0.010	-0.010	0.029	2.725	1.899	1.880	1.880	1.899	1.890	1.890
0.015	0.000	0.005	-0.005	0.005	-0.005	0.034	2.793	1.904	1.890	1.880	1.895	1.890	1.890
0.010	0.000	0.005	-0.005	0.000	0.015	0.034	2.642	1.890	1.890	1.880	1.899	1.890	1.895
0.005	0.000	0.005	-0.005	0.005	-0.005	0.034	2.642	1.885	1.890	1.885	1.899	1.890	1.890
0.000	0.010	0.000	0.005	0.005	-0.005	0.034	2.627	1.875	1.890	1.885	1.904	1.890	1.890
0.000	0.000	0.000	0.000	0.005	0.010	0.029	2.637	1.875	1.880	1.880	1.899	1.895	1.895
0.005	-0.005	-0.005	0.000	0.000	0.010	0.034	2.734	1.885	1.880	1.880	1.899	1.895	1.895
-0.010	-0.005	0.000	0.000	0.005	0.005	0.034	2.734	1.885	1.880	1.880	1.899	1.895	1.890
0.000	0.020	-0.005	0.005	0.005	0.000	0.029	2.637	1.880	1.890	1.880	1.904	1.895	1.895
0.000	0.029	-0.005	0.015	0.000	0.005	0.029	2.661	1.885	1.885	1.885	1.904	1.895	1.895
-0.005	0.015	0.000	0.010	0.000	0.000	0.034	2.642	1.880	1.880	1.880	1.899	1.895	1.895
0.000	0.020	-0.005	0.005	0.005	-0.005	0.029	2.671	1.875	1.880	1.880	1.899	1.895	1.895
0.000	0.005	0.000	0.000	0.000	0.000	0.034	2.734	1.875	1.875	1.880	1.899	1.895	1.895
0.000	0.000	-0.005	-0.005	0.005	0.000	0.034	2.812	1.885	1.875	1.875	1.895	1.895	1.895
0.005	0.000	0.000	-0.005	0.005	0.005	0.029	2.734	1.890	1.880	1.875	1.895	1.895	1.895
0.005	0.005	0.000	-0.005	0.005	0.005	0.029	2.734	1.890	1.880	1.880	1.895	1.890	1.895
0.010	0.005	0.000	0.000	0.000	0.005	0.029	2.710	1.895	1.885	1.880	1.895	1.890	1.890
0.005	-0.010	0.005	-0.005	0.000	0.005	0.034	2.690	1.890	1.880	1.880	1.895	1.890	1.890
0.005	-0.015	0.000	-0.005	0.010	0.000	0.034	2.700	1.885	1.880	1.880	1.895	1.890	1.890
0.005	-0.005	0.000	-0.005	0.000	0.005	0.029	2.671	1.885	1.885	1.880	1.899	1.890	1.895
0.005	0.000	0.010	-0.005	0.005	0.005	0.029	2.686	1.880	1.885	1.880	1.899	1.895	1.890
-0.005	0.010	0.000	0.000	0.000	0.005	0.029	2.700	1.885	1.885	1.880	1.899	1.890	1.890
0.005	0.005	0.005	0.005	-0.005	-0.010	0.029	2.690	1.885	1.885	1.885	1.899	1.890	1.890
0.000	0.000	0.005	0.005	0.000	-0.029	0.034	2.705	1.885	1.880	1.880	1.899	1.890	1.885
0.000	0.005	-0.005	0.000	0.000	0.005	0.029	2.671	1.880	1.880	1.880	1.899	1.895	1.890
-0.005	0.010	-0.005	0.005	0.005	0.015	0.029	2.705	1.885	1.880	1.880	1.899	1.895	1.895
-0.005	0.000	-0.005	0.010	0.000	-0.010	0.029	2.676	1.885	1.885	1.880	1.899	1.895	1.890
-0.010	0.010	-0.005	0.005	0.000	0.005	0.034	2.690	1.880	1.885	1.880	1.899	1.895	1.895
-0.005	0.005	0.000	0.000	0.010	0.000	0.029	2.676	1.885	1.885	1.880	1.899	1.895	1.895
-0.010	0.005	0.000	0.000	0.005	-0.005	0.029	2.695	1.885	1.880	1.880	1.899	1.890	1.890
-0.005	-0.005	0.005	0.000	0.005	0.005	0.034	2.710	1.890	1.880	1.880	1.899	1.895	1.890
0.005	-0.010	0.000	0.000	0.000	0.000	0.034	2.700	1.890	1.885	1.880	1.895	1.890	1.890
0.010	-0.010	0.005	0.000	0.000	0.005	0.034	2.695	1.895	1.885	1.880	1.895	1.895	1.895
0.015	-0.010	0.000	0.000	0.005	0.005	0.029	2.671	1.890	1.885	1.880	1.899	1.895	1.895
0.010	-0.010	0.005	-0.005	0.000	0.000	0.029	2.666	1.885	1.885	1.885	1.899	1.890	1.890
0.000	-0.015	0.010	-0.005	0.000	0.010	0.029	2.700	1.885	1.880	1.885	1.899	1.890	1.895
0.005	-0.005	0.005	0.000	0.000	-0.005	0.034	2.671	1.880	1.885	1.885	1.899	1.890	1.890
0.000	0.005	0.005	0.000	0.000	0.010	0.034	2.705	1.885	1.885	1.885	1.899	1.895	1.895
0.005	0.000	0.005	0.005	0.005	-0.010	0.034	2.676	1.885	1.880	1.880	1.899	1.895	1.890
-0.010	0.005	0.005	0.005	0.000	0.015	0.034	2.695	1.885	1.885	1.885	1.899	1.895	1.895
0.000	0.005	0.000	0.000	-0.005	0.000	0.034	2.798	1.899	1.885	1.880	1.899	1.895	1.895
-0.005	0.010	-0.005	0.010	0.000	0.015	0.029	2.788	1.904	1.895	1.885	1.899	1.895	1.895
-0.005	0.015	-0.005	0.005	-0.005	0.000	0.029	2.661	1.895	1.895	1.885	1.899	1.895	1.895
-0.005	0.015	-0.005	0.005	0.005	0.005	0.029	2.651	1.890	1.890	1.885	1.904	1.899	1.899
-0.005	0.015	0.000	0.005	0.000	0.005	0.029	2.627	1.880	1.890	1.890	1.904	1.899	1.895
-0.005	0.005	0.000	0.005	0.005	0.005	0.029	2.632	1.875	1.885	1.890	1.904	1.895	1.895
0.010	0.000	0.000	0.000	-0.005	0.010	0.034	2.646	1.880	1.880	1.885	1.904	1.895	1.895
0.010	-0.010	0.000	0.005	0.005	-0.010	0.034	2.705	1.870	1.875	1.880	1.904	1.899	1.895
0.000	-0.005	0.005	0.000	0.010	0.000	0.034	2.725	1.875	1.875	1.880	1.899	1.899	1.895
0.005	-0.005	0.010	0.000	0.005	0.010	0.034	2.651	1.880	1.875	1.880	1.899	1.895	1.899
0.005	-0.005	0.000	-0.005	0.005	0.000	0.029	2.720	1.885	1.875	1.875	1.895	1.895	1.895
0.010	-0.005	0.005	-0.005	0.000	-0.020	0.034	2.671	1.885	1.880	1.875	1.895	1.895	1.890
0.000	-0.010	0.010	-0.005	-0.005	0.000	0.034	2.661	1.875	1.875	1.875	1.895	1.890	1.890
0.010	-0.005	0.000	-0.005	-0.005	0.000	0.034	2.808	1.880	1.875	1.875	1.895	1.890	1.890
-0.005	0.005	0.005	0.000	0.000	0.000	0.034	2.729	1.885	1.880	1.875	1.895	1.895	1.890
0.005	0.020	0.000	0.000	0.005	0.005	0.034	2.739	1.895	1.890	1.875	1.895	1.895	1.895
-0.005	0.005	-0.005	0.005	0.005	0.000	0.034	2.627	1.880	1.880	1.880	1.899	1.890	1.890
-0.005	0.010	-0.005	0.010	0.010	0.000	0.034	2.695	1.885	1.885	1.880	1.899	1.895	1.890
-0.005	0.015	-0.005	0.010	0.010	-0.010	0.029	2.690	1.885	1.885	1.880	1.899	1.895	1.890
0.000	0.010	-0.010	0.010	0.005	0.000	0.029	2.695	1.885	1.885	1.880	1.899	1.895	1.895
-0.005	0.010	-0.005	0.005	0.000	0.000	0.029	2.705	1.890	1.885	1.880	1.899	1.890	1.890
-0.005	0.000	0.000	0.000	0.005	0.010	0.034	2.705	1.890	1.885	1.880	1.899	1.890	1.895
-0.005	0.005	0.000	0.010	0.000	0.010	0.029	2.695	1.890	1.885	1.885	1.899	1.890	1.895
0.000	-0.005	0.000	0.010	0.000	0.005	0.034	2.676	1.890	1.885	1.885	1.899	1.895	1.895
-0.005	0.005	0.010	0.005	0.000	0.005	0.034	2.676	1.885	1.890	1.885	1.899	1.895	1.890
0.010	-0.010	0.005	-0.005	0.000	0.005	0.034	2.681	1.885	1.880	1.880	1.899	1.895	1.895
0.005	-0.020	0.005	-0.005	-0.005	0.005	0.029	2.676	1.885	1.875	1.880	1.899	1.895	1.890
0.005	-0.010	0.005	-0.005	0.000	0.000	0.029	2.695	1.890	1.885	1.880	1.899	1.890	1.890
0.010	-0.020	0.005	-0.005	0.000	0.000	0.029	2.676	1.880	1.880	1.880	1.899	1.895	1.890
0.000	-0.005	0.015	-0.005	-0.005	0.010	0.029	2.676	1.885	1.885	1.880	1.899	1.890	1.890
0.010	-0.005	0.000	-0.005	0.000	0.005	0.034	2.700	1.885	1.880	1.880	1.899	1.890	1.890
0.005	0.000	0.005	0.000	0.010	0.000	0.034	2.700	1.885	1.885	1.880	1.899	1.895	1.890
-0.005	0.000	0.000	0.005	0.005	0.000	0.029	2.700	1.880	1.885	1.880	1.899	1.895	1.890
-0.005	0.005	0.000	0.010	0.005	-0.020	0.034	2.695	1.885	1.885	1.880	1.899	1.895	1.885
-0.005	0.015	-0.005	0.020	0.000	0.010	0.034	2.681	1.885	1.890	1.880	1.904	1.895	1.895
0.000	0.010	-0.005	0.000	0.000	0.005	0.034	2.671	1.885	1.885	1.880	1.899	1.895	1.895
0.005	0.010	0.000	0.010	0.000	-0.005	0.029	2.671	1.885	1.885	1.880	1.899	1.895	1.895
0.000	0.005	0.000	0.010	0.000	0.005	0.034	2.695	1.890	1.885	1.880	1.899	1.895	1.895
-0.005	0.000	0.005	0.000	0.000	-0.005	0.034	2.681	1.880	1.880	1.880	1.899	1.895	1.890
-0.005	0.000	0.000	0.005	0.005	0.010	0.034	2.686	1.885	1.880	1.880	1.899	1.895	1.895
0.005	0.000	0.000	-0.010	0.005	-0.010	0.034	2.759	1.895	1.885	1.880	1.895	1.890	1.895
-0.005	-0.005	0.005	-0.015	0.000	-0.015	0.034	2.798	1.899	1.890	1.880	1.895	1.890	1.885
0.000	-0.005	0.005	-0.010	-0.005	0.000	0.034	2.661	1.895	1.890	1.885	1.899	1.890	1.895
0.010	-0.005	0.000	-0.010	0.000	0.005	0.029	2.646	1.885	1.885	1.885	1.899	1.890	1.895
0.000	-0.005	0.005	-0.010	0.000	0.005	0.034	2.637	1.875	1.885	1.885	1.904	1.890	1.895
0.005	-0.010	0.005	0.005	0.005	0.005	0.034	2.734	1.885	1.880	1.885	1.904	1.895	1.895
0.000	-0.005	0.005	0.005	-0.005	0.000	0.029	2.646	1.880	1.880	1.880	1.904	1.890	1.890
0.015	-0.005	0.000	0.000	-0.005	0.000	0.034	2.734	1.890	1.885	1.880	1.899	1.895	1.895
-0.005	0.005	0.000	-0.005	-0.005	0.000	0.029	2.656	1.880	1.885	1.880	1.899	1.895	1.890
0.000	-0.015	0.000	0.005	0.005	0.010	0.034	2.661	1.880	1.875	1.880	1.899	1.899	1.895
0.010	0.005	-0.005	0.000	0.000	-0.005	0.029	2.637	1.875	1.880	1.875	1.899	1.895	1.890
0.005	0.010	-0.005	0.005	0.010	0.005	0.029	2.671	1.880	1.880	1.875	1.899	1.895	1.895
0.005	0.010	-0.005	0.005	0.000	0.005	0.034	2.695	1.875	1.880	1.880	1.899	1.895	1.895
-0.005	0.000	0.000	0.005	0.000	0.005	0.034	2.822	1.875	1.875	1.875	1.899	1.895	1.895
-0.005	0.005	-0.005	0.005	0.000	0.000	0.034	2.715	1.880	1.875	1.875	1.895	1.895	1.895
0.000	-0.005	-0.005	0.000	0.000	0.005	0.034	2.734	1.885	1.875	1.875	1.895	1.895	1.895
-0.005	-0.005	0.000	-0.005	-0.005	0.000	0.029	2.646	1.880	1.875	1.875	1.895	1.890	1.895
-0.005	0.000	0.000	0.000	0.000	0.005	0.034	2.700	1.885	1.880	1.880	1.895	1.890	1.890
0.005	-0.005	0.005	-0.005	0.000	-0.005	0.034	2.690	1.885	1.880	1.875	1.895	1.890	1.890
0.000	-0.005	0.005	-0.005	0.000	0.000	0.034	2.695	1.885	1.880	1.875	1.895	1.890	1.890
0.010	-0.015	0.005	0.005	0.005	0.010	0.034	2.700	1.890	1.880	1.875	1.895	1.890	1.895
0.010	0.000	0.005	0.005	0.000	-0.010	0.034	2.681	1.890	1.885	1.875	1.895	1.890	1.885
0.005	-0.005	0.000	-0.005	0.000	0.005	0.034	2.676	1.885	1.885	1.880	1.895	1.890	1.890
0.010	-0.005	0.000	-0.005	0.000	0.010	0.029	2.671	1.885	1.885	1.880	1.895	1.890	1.890
0.000	0.005	0.000	-0.005	0.000	0.000	0.029	2.686	1.880	1.885	1.880	1.895	1.890	1.885
-0.005	0.010	0.005	0.000	0.000	0.005	0.034	2.681	1.885	1.885	1.880	1.899	1.890	1.890
-0.005	0.015	-0.005	0.005	-0.005	0.005	0.034	2.705	1.880	1.885	1.880	1.904	1.890	1.890
0.000	0.020	0.000	0.010	0.000	0.000	0.034	2.686	1.885	1.885	1.885	1.899	1.890	1.890
-0.005	0.015	-0.005	0.000	-0.005	-0.010	0.029	2.671	1.880	1.885	1.880	1.899	1.895	1.890
0.000	0.010	0.000	0.000	-0.005	0.010	0.029	2.676	1.880	1.880	1.885	1.899	1.895	1.895
0.005	0.010	-0.005	0.005	0.005	-0.005	0.029	2.705	1.885	1.880	1.880	1.904	1.895	1.890
-0.005	0.010	0.000	0.000	0.000	0.005	0.029	2.695	1.890	1.880	1.880	1.899	1.895	1.895
-0.005	0.000	-0.005	0.005	0.005	0.000	0.029	2.700	1.890	1.885	1.880	1.899	1.895	1.895
0.005	-0.005	0.005	0.005	0.000	0.000	0.029	2.695	1.890	1.885	1.880	1.899	1.895	1.895
0.000	0.000	0.005	0.000	0.000	-0.015	0.034	2.681	1.885	1.880	1.880	1.895	1.895	1.890
0.000	0.000	0.010	-0.005	0.005	-0.005	0.029	2.705	1.890	1.885	1.880	1.895	1.890	1.890
0.005	0.000	0.005	-0.010	-0.005	-0.005	0.029	2.671	1.885	1.880	1.880	1.895	1.890	1.890
0.005	-0.024	0.010	-0.010	0.015	0.010	0.029	2.700	1.885	1.875	1.880	1.895	1.895	1.895
0.005	-0.029	0.000	-0.005	0.005	0.015	0.029	2.661	1.885	1.875	1.875	1.895	1.890	1.895
0.000	-0.010	0.010	-0.005	0.000	0.015	0.029	2.695	1.885	1.880	1.880	1.899	1.890	1.895
0.005	-0.010	0.000	0.015	0.000	-0.005	0.034	2.666	1.899	1.885	1.880	1.899	1.895	1.885
0.000	-0.010	0.000	0.005	0.005	0.015	0.029	2.783	1.904	1.890	1.880	1.899	1.895	1.895
0.005	0.000	-0.005	0.010	0.015	0.005	0.034	2.651	1.895	1.895	1.885	1.899	1.895	1.895
-0.010	0.000	0.000	0.005	0.005	0.000	0.034	2.646	1.880	1.890	1.885	1.899	1.890	1.890
0.000	0.005	-0.005	0.010	0.000	-0.010	0.034	2.637	1.880	1.890	1.885	1.904	1.895	1.890
-0.005	0.005	-0.005	0.015	0.000	-0.005	0.034	2.739	1.885	1.885	1.885	1.904	1.895	1.895
-0.005	0.029	0.000	0.015	0.005	0.005	0.034	2.651	1.880	1.890	1.890	1.904	1.899	1.899
-0.005	0.024	0.000	0.015	0.000	-0.005	0.034	2.622	1.875	1.885	1.885	1.904	1.895	1.895
0.000	0.020	-0.005	0.010	0.005	-0.005	0.034	2.651	1.875	1.880	1.885	1.904	1.899	1.895
-0.005	0.015	-0.005	0.010	0.000	0.015	0.034	2.661	1.875	1.875	1.880	1.904	1.899	1.899
0.005	0.010	0.000	0.005	0.010	0.000	0.034	2.715	1.885	1.875	1.880	1.899	1.899	1.899
0.000	0.000	0.010	-0.005	0.005	-0.005	0.034	2.671	1.885	1.875	1.880	1.899	1.895	1.895
0.005	-0.005	0.000	0.000	0.000	-0.005	0.034	2.720	1.885	1.880	1.875	1.895	1.895	1.890
0.005	-0.015	0.000	0.000	0.005	-0.010	0.029	2.808	1.899	1.880	1.875	1.899	1.895	1.890
0.015	-0.005	0.005	-0.005	0.000	-0.005	0.034	2.622	1.904	1.890	1.880	1.895	1.895	1.890
0.005	-0.010	0.005	0.000	-0.005	-0.010	0.029	2.734	1.904	1.890	1.885	1.899	1.890	1.890
0.005	-0.010	0.005	0.000	-0.005	0.010	0.029	2.622	1.890	1.890	1.885	1.899	1.890	1.895
-0.005	0.000	0.005	0.000	-0.005	0.005	0.029	2.705	1.895	1.890	1.880	1.899	1.890	1.890
0.000	-0.005	0.010	0.005	0.000	0.010	0.034	2.690	1.890	1.890	1.885	1.904	1.895	1.895
0.005	0.010	0.000	0.010	-0.005	0.000	0.034	2.676	1.885	1.890	1.885	1.904	1.895	1.890
0.000	0.005	0.000	0.010	0.000	0.000	0.029	2.700	1.885	1.890	1.885	1.904	1.895	1.890
0.000	0.005	0.000	0.020	0.000	0.000	0.029	2.695	1.890	1.885	1.885	1.909	1.899	1.895
0.000	0.015	0.000	0.010	0.000	0.005	0.029	2.705	1.890	1.890	1.885	1.904	1.899	1.899
-0.005	0.010	0.000	0.020	0.005	0.000	0.034	2.676	1.890	1.890	1.885	1.904	1.899	1.899
-0.005	0.015	-0.005	0.024	0.010	-0.005	0.029	2.700	1.890	1.890	1.890	1.909	1.904	1.899
0.000	0.005	0.000	0.020	0.005	0.000	0.034	2.676	1.885	1.885	1.885	1.904	1.899	1.899
0.015	0.015	0.000	0.000	0.000	-0.005	0.029	2.681	1.890	1.890	1.885	1.899	1.899	1.895
-0.005	-0.010	0.005	0.000	0.005	-0.005	0.034	2.690	1.885	1.880	1.885	1.904	1.899	1.895
0.005	-0.005	0.005	0.000	-0.005	0.010	0.034	2.671	1.885	1.885	1.880	1.899	1.895	1.899
0.010	-0.020	0.010	-0.005	-0.005	-0.010	0.034	2.676	1.885	1.880	1.880	1.899	1.895	1.890
0.005	-0.020	0.000	-0.010	-0.005	-0.015	0.034	2.686	1.885	1.880	1.880	1.895	1.895	1.895
0.010	-0.015	-0.005	-0.005	0.000	-0.015	0.034	2.690	1.885	1.880	1.875	1.895	1.895	1.890
-0.010	-0.010	0.005	-0.005	-0.005	0.000	0.029	2.690	1.880	1.880	1.880	1.895	1.890	1.895
0.005	-0.005	0.000	-0.010	0.005	0.015	0.029	2.705	1.890	1.885	1.880	1.899	1.895	1.899
0.000	-0.005	0.005	0.000	0.000	0.005	0.029	2.671	1.885	1.885	1.885	1.899	1.895	1.895
0.000	0.000	0.000	0.005	0.000	0.005	0.029	2.681	1.885	1.885	1.885	1.899	1.895	1.895
-0.010	0.020	0.000	-0.005	0.000	0.005	0.029	2.686	1.885	1.890	1.885	1.904	1.895	1.895
0.000	0.034	-0.005	0.000	0.005	-0.010	0.029	2.700	1.890	1.890	1.885	1.904	1.895	1.890
0.005	0.024	0.000	0.010	0.000	0.005	0.029	2.661	1.885	1.890	1.890	1.904	1.899	1.899
-0.010	0.034	-0.005	0.020	0.000	-0.005	0.029	2.681	1.880	1.890	1.885	1.904	1.899	1.895
0.000	0.020	0.000	0.010	0.000	0.010	0.034	2.700	1.899	1.885	1.885	1.904	1.899	1.899
-0.005	0.010	0.000	-0.005	0.000	0.010	0.029	2.793	1.904	1.885	1.885	1.899	1.895	1.899
-0.005	0.010	0.000	0.000	0.000	0.005	0.029	2.651	1.895	1.890	1.885	1.904	1.895	1.895
0.000	0.015	0.005	-0.005	0.000	0.005	0.034	2.646	1.890	1.890	1.890	1.899	1.895	1.895
-0.005	0.000	0.005	-0.010	0.000	-0.005	0.034	2.632	1.875	1.880	1.885	1.899	1.895	1.895
0.010	-0.010	0.005	-0.015	0.000	0.005	0.029	2.642	1.880	1.875	1.885	1.899	1.895	1.895
0.010	-0.005	0.005	-0.010	0.005	0.000	0.034	2.646	1.880	1.880	1.880	1.899	1.895	1.895
0.010	-0.010	0.000	-0.005	0.005	-0.005	0.029	2.646	1.875	1.875	1.880	1.904	1.895	1.890
0.000	-0.015	0.010	0.000	0.010	-0.020	0.034	2.632	1.870	1.875	1.875	1.899	1.899	1.890
0.000	-0.005	0.005	-0.005	0.000	0.000	0.034	2.651	1.875	1.875	1.875	1.895	1.895	1.899
0.010	0.005	-0.005	-0.010	0.005	0.005	0.029	2.729	1.880	1.880	1.875	1.895	1.895	1.899
0.005	0.000	-0.005	-0.015	0.005	-0.010	0.034	2.671	1.880	1.875	1.875	1.895	1.890	1.890
0.000	0.005	0.000	-0.005	0.000	0.000	0.034	2.749	1.885	1.880	1.875	1.895	1.890	1.895
0.000	0.010	0.000	0.000	0.000	-0.005	0.034	2.812	1.880	1.880	1.875	1.895	1.890	1.890
0.000	0.010	0.000	0.005	-0.005	0.005	0.034	2.739	1.885	1.885	1.880	1.899	1.890	1.895
0.000	0.015	-0.005	0.000	0.000	0.005	0.029	2.739	1.895	1.885	1.880	1.895	1.895	1.890
0.000	0.010	-0.010	0.010	0.010	-0.005	0.034	2.627	1.890	1.885	1.880	1.899	1.895	1.890
-0.005	0.015	-0.005	0.005	0.010	0.010	0.029	2.705	1.885	1.885	1.880	1.899	1.895	1.895
-0.005	0.000	0.000	0.005	-0.005	0.000	0.029	2.705	1.890	1.885	1.880	1.899	1.895	1.890
0.000	-0.005	0.005	0.005	0.000	-0.005	0.029	2.710	1.895	1.885	1.880	1.899	1.890	1.885
-0.005	-0.005	0.000	0.000	0.000	0.005	0.029	2.676	1.880	1.880	1.880	1.895	1.895	1.895
0.000	0.000	0.000	-0.005	0.005	0.005	0.029	2.661	1.880	1.880	1.880	1.895	1.895	1.895
0.000	-0.029	0.005	-0.005	0.000	0.015	0.034	2.671	1.885	1.875	1.880	1.895	1.895	1.895
0.005	-0.044	0.010	-0.005	0.000	0.020	0.029	2.695	1.885	1.870	1.875	1.899	1.890	1.895
0.015	-0.029	0.005	-0.005	0.000	0.000	0.034	2.710	1.890	1.880	1.875	1.895	1.890	1.890
-0.005	-0.015	0.005	-0.005	0.000	-0.005	0.034	2.666	1.880	1.885	1.880	1.895	1.890	1.890
0.005	-0.010	0.010	0.000	-0.005	0.005	0.034	2.695	1.885	1.890	1.880	1.895	1.890	1.890
0.005	0.015	0.000	-0.005	0.010	-0.010	0.034	2.695	1.890	1.890	1.880	1.895	1.890	1.890
0.005	0.005	0.000	-0.005	0.005	-0.010	0.034	2.676	1.885	1.885	1.880	1.899	1.890	1.885
0.005	0.024	0.005	0.005	0.005	-0.020	0.034	2.671	1.885	1.890	1.885	1.904	1.895	1.890
0.000	0.015	-0.005	0.005	0.000	0.015	0.034	2.700	1.880	1.885	1.885	1.904	1.895	1.895
-0.005	0.015	-0.005	0.005	0.000	0.005	0.034	2.700	1.885	1.880	1.880	1.899	1.895	1.895
0.000	0.010	0.000	0.000	0.005	0.005	0.034	2.690	1.890	1.885	1.885	1.899	1.899	1.895
-0.005	0.010	0.000	0.000	0.000	-0.010	0.034	2.695	1.885	1.885	1.885	1.899	1.895	1.890
-0.005	0.010	-0.005	0.000	0.005	0.000	0.034	2.676	1.880	1.880	1.880	1.899	1.895	1.895
-0.005	0.000	-0.005	0.005	0.000	-0.015	0.034	2.676	1.885	1.880	1.880	1.899	1.895	1.890
-0.005	0.005	0.000	0.000	0.005	-0.010	0.029	2.681	1.880	1.880	1.880	1.899	1.895	1.890
0.010	-0.005	0.000	0.000	0.005	0.005	0.034	2.690	1.885	1.880	1.880	1.895	1.899	1.899
0.005	0.000	0.005	-0.005	0.005	0.000	0.034	2.661	1.885	1.880	1.880	1.895	1.895	1.895
0.005	-0.010	0.005	0.000	0.000	0.010	0.029	2.676	1.880	1.880	1.880	1.895	1.895	1.895
0.005	0.000	0.000	-0.005	0.000	0.000	0.034	2.666	1.880	1.880	1.880	1.895	1.890	1.890
0.005	-0.005	0.010	-0.005	-0.005	0.010	0.029	2.671	1.880	1.880	1.880	1.899	1.890	1.895
0.000	-0.010	0.000	-0.005	0.000	0.000	0.029	2.661	1.875	1.875	1.875	1.895	1.890	1.895
0.000	-0.010	0.000	0.005	0.000	-0.015	0.034	2.642	1.875	1.880	1.875	1.895	1.895	1.885
0.000	-0.010	0.005	0.000	0.000	-0.005	0.029	2.651	1.875	1.875	1.875	1.895	1.890	1.890
0.000	0.005	0.005	0.005	0.000	0.010	0.034	2.651	1.875	1.880	1.875	1.895	1.895	1.895
-0.005	0.000	0.000	0.005	-0.005	0.000	0.029	2.651	1.870	1.875	1.875	1.895	1.890	1.890
-0.020	0.010	0.000	0.005	0.000	0.000	0.029	2.749	1.880	1.880	1.875	1.895	1.890	1.890
-0.005	0.015	-0.005	0.015	0.000	0.005	0.029	2.656	1.885	1.880	1.875	1.899	1.890	1.895
0.000	0.005	0.000	0.015	-0.005	0.010	0.029	2.646	1.880	1.880	1.880	1.895	1.890	1.895
0.000	0.024	-0.005	0.010	-0.005	0.005	0.034	2.637	1.880	1.885	1.875	1.895	1.890	1.890
-0.005	-0.010	0.000	0.005	0.000	-0.015	0.029	2.705	1.885	1.875	1.875	1.895	1.890	1.885
-0.005	-0.015	-0.005	0.005	0.000	0.010	0.034	2.646	1.880	1.870	1.875	1.895	1.890	1.895
0.000	-0.015	0.000	0.005	0.005	0.005	0.029	2.671	1.885	1.875	1.875	1.895	1.890	1.895
-0.010	-0.020	0.005	0.005	0.005	0.000	0.034	2.715	1.885	1.875	1.875	1.895	1.890	1.885
0.015	-0.024	0.005	0.000	0.000	-0.005	0.034	2.627	1.880	1.875	1.875	1.890	1.885	1.885
0.005	-0.015	0.005	0.000	0.010	-0.005	0.034	2.646	1.875	1.875	1.875	1.895	1.890	1.890
0.000	0.005	0.005	-0.010	0.005	0.005	0.034	2.690	1.880	1.880	1.875	1.890	1.885	1.890
-0.005	-0.005	0.000	-0.005	0.005	0.000	0.034	2.676	1.875	1.875	1.875	1.890	1.885	1.885
0.010	-0.010	0.005	-0.005	0.000	0.005	0.034	2.705	1.880	1.875	1.875	1.890	1.885	1.885
0.005	-0.010	0.005	-0.005	0.000	0.000	0.034	2.705	1.885	1.880	1.875	1.890	1.885	1.885
0.000	0.000	0.005	0.010	0.000	0.000	0.034	2.681	1.885	1.880	1.875	1.895	1.890	1.890
0.005	0.000	0.000	0.005	0.000	0.000	0.034	2.700	1.885	1.885	1.880	1.895	1.890	1.890
-0.005	0.010	0.000	0.015	-0.005	0.005	0.029	2.700	1.885	1.885	1.880	1.899	1.890	1.890
0.000	0.034	0.000	0.005	0.000	0.005	0.029	2.686	1.885	1.890	1.880	1.899	1.890	1.885
0.000	0.024	-0.005	0.000	0.000	0.005	0.029	2.681	1.885	1.885	1.880	1.895	1.890	1.885
0.000	0.020	-0.005	0.005	0.005	0.000	0.029	2.690	1.885	1.885	1.885	1.899	1.890	1.890
-0.005	0.010	0.000	0.005	0.005	0.010	0.029	2.676	1.880	1.880	1.880	1.899	1.895	1.895
-0.005	0.020	0.000	0.000	0.005	-0.005	0.034	2.686	1.880	1.880	1.880	1.899	1.895	1.890
-0.005	0.010	-0.005	0.000	0.000	0.005	0.034	2.671	1.880	1.880	1.880	1.899	1.895	1.890
0.000	0.005	0.000	0.000	0.000	-0.015	0.034	2.686	1.885	1.875	1.880	1.895	1.890	1.885
0.005	0.005	0.000	-0.005	0.000	0.010	0.034	2.695	1.885	1.880	1.875	1.895	1.890	1.895
-0.005	0.000	0.000	-0.010	0.005	0.005	0.029	2.700	1.885	1.880	1.875	1.895	1.890	1.895
0.000	0.000	0.005	-0.010	0.005	0.005	0.034	2.700	1.890	1.880	1.880	1.895	1.890	1.890
0.000	-0.005	0.005	-0.005	0.000	0.005	0.034	2.690	1.885	1.880	1.875	1.895	1.890	1.890
0.010	-0.015	0.010	0.000	0.000	-0.005	0.034	2.676	1.885	1.875	1.880	1.895	1.890	1.890
0.005	-0.005	0.000	0.000	0.005	0.005	0.034	2.695	1.890	1.880	1.875	1.899	1.890	1.890
0.000	0.000	0.005	0.005	0.005	-0.015	0.034	2.705	1.890	1.885	1.880	1.899	1.890	1.890
0.005	0.005	0.000	0.010	0.005	0.000	0.034	2.676	1.885	1.885	1.880	1.899	1.895	1.895
-0.005	0.010	-0.005	0.005	0.010	0.005	0.029	2.690	1.885	1.885	1.880	1.899	1.890	1.890
-0.005	0.024	-0.005	0.005	0.005	0.000	0.034	2.656	1.895	1.890	1.880	1.899	1.890	1.890
-0.010	0.005	-0.005	0.005	-0.005	-0.020	0.034	2.793	1.899	1.885	1.885	1.899	1.890	1.885
-0.010	0.015	0.000	0.015	-0.005	0.010	0.029	2.656	1.890	1.890	1.885	1.904	1.895	1.895
-0.010	0.010	-0.005	0.010	0.000	0.005	0.034	2.646	1.885	1.885	1.885	1.899	1.895	1.895
-0.005	0.010	-0.005	0.015	0.000	0.005	0.029	2.642	1.880	1.885	1.885	1.904	1.895	1.895
-0.005	0.000	0.000	0.010	0.000	-0.005	0.034	2.729	1.885	1.885	1.885	1.904	1.895	1.890
0.000	0.010	0.005	0.010	0.000	-0.020	0.034	2.642	1.885	1.885	1.885	1.904	1.895	1.890
0.000	0.000	0.005	0.000	0.000	0.005	0.029	2.646	1.875	1.880	1.885	1.899	1.895	1.895
0.000	-0.005	0.005	0.000	0.005	-0.010	0.034	2.637	1.875	1.875	1.880	1.899	1.899	1.895
0.010	-0.010	0.000	0.000	0.000	-0.005	0.029	2.651	1.875	1.875	1.875	1.899	1.895	1.895
0.010	-0.010	0.005	0.000	-0.005	0.010	0.029	2.744	1.885	1.875	1.875	1.899	1.895	1.895
0.000	-0.005	0.005	0.000	0.005	0.010	0.029	2.671	1.880	1.880	1.875	1.895	1.895	1.895
0.005	-0.015	0.000	-0.005	0.010	0.005	0.029	2.739	1.890	1.875	1.875	1.895	1.890	1.890
0.010	-0.005	0.000	0.000	0.000	0.005	0.029	2.817	1.904	1.885	1.875	1.895	1.890	1.890
0.000	0.005	-0.005	0.000	0.000	0.005	0.029	2.734	1.899	1.890	1.880	1.895	1.890	1.890
0.005	0.005	0.005	0.005	-0.005	0.005	0.034	2.744	1.904	1.895	1.885	1.899	1.890	1.890
-0.005	0.010	0.000	0.005	0.005	-0.010	0.034	2.744	1.904	1.899	1.885	1.899	1.895	1.885
0.005	0.020	0.000	0.005	0.005	0.000	0.034	2.700	1.899	1.899	1.890	1.904	1.890	1.895
-0.005	0.015	0.000	0.010	0.000	-0.010	0.034	2.681	1.895	1.899	1.890	1.904	1.895	1.890
-0.005	0.010	0.000	0.010	0.000	-0.024	0.029	2.676	1.890	1.895	1.890	1.909	1.895	1.890
-0.005	0.000	0.000	-0.005	0.000	0.000	0.034	2.710	1.890	1.890	1.890	1.904	1.899	1.895
-0.005	0.005	0.000	0.000	0.000	-0.005	0.034	2.695	1.890	1.890	1.890	1.904	1.899	1.899
-0.015	0.000	0.000	-0.005	0.000	0.015	0.034	2.700	1.890	1.885	1.890	1.904	1.899	1.899
-0.005	-0.005	0.000	-0.005	-0.005	0.015	0.034	2.700	1.895	1.890	1.890	1.904	1.899	1.899
0.005	0.000	0.000	-0.005	-0.005	-0.010	0.034	2.666	1.890	1.890	1.890	1.904	1.899	1.895
0.005	-0.010	-0.005	-0.005	-0.005	0.010	0.034	2.671	1.885	1.885	1.885	1.904	1.899	1.899
0.000	-0.020	0.005	-0.005	0.000	0.000	0.029	2.705	1.885	1.880	1.885	1.904	1.899	1.895
0.005	-0.029	0.005	-0.005	0.000	0.005	0.029	2.695	1.890	1.880	1.885	1.904	1.899	1.895
0.000	-0.015	0.010	-0.005	-0.005	0.005	0.034	2.686	1.885	1.880	1.885	1.899	1.899	1.899
0.000	-0.024	0.000	0.005	0.000	-0.015	0.034	2.695	1.885	1.880	1.880	1.904	1.899	1.890
0.015	-0.029	0.005	0.000	-0.005	-0.024	0.029	2.671	1.885	1.880	1.880	1.899	1.895	1.890
-0.005	-0.005	0.005	0.005	0.000	0.005	0.029	2.700	1.885	1.890	1.880	1.904	1.899	1.899
0.000	0.000	0.000	0.000	0.010	-0.010	0.029	2.705	1.890	1.890	1.880	1.904	1.899	1.895
0.000	0.000	-0.005	0.005	0.005	0.005	0.029	2.676	1.885	1.890	1.885	1.899	1.895	1.899
0.000	0.024	0.000	0.010	0.000	0.010	0.029	2.671	1.890	1.895	1.890	1.904	1.899	1.899
-0.010	0.020	0.000	0.000	0.010	0.010	0.029	2.666	1.885	1.890	1.890	1.899	1.899	1.899
-0.005	0.015	0.000	0.000	0.000	0.010	0.034	2.676	1.885	1.890	1.885	1.904	1.899	1.899
0.000	0.015	0.000	0.005	-0.005	0.010	0.029	2.686	1.890	1.890	1.890	1.904	1.895	1.895
-0.010	0.015	0.000	0.000	0.000	0.005	0.034	2.671	1.885	1.885	1.885	1.904	1.899	1.895
0.005	0.000	-0.005	0.005	0.005	-0.005	0.034	2.686	1.890	1.880	1.885	1.904	1.899	1.895
0.000	0.005	0.000	-0.005	-0.005	0.000	0.034	2.681	1.899	1.890	1.885	1.904	1.895	1.895
-0.005	0.005	0.000	-0.005	0.005	-0.005	0.029	2.803	1.909	1.890	1.885	1.899	1.899	1.895
-0.005	-0.005	0.005	-0.010	0.005	0.010	0.034	2.651	1.895	1.890	1.885	1.899	1.899	1.899
0.010	0.000	0.000	-0.005	0.000	0.000	0.034	2.646	1.895	1.890	1.885	1.904	1.899	1.895
0.005	0.005	0.005	0.000	0.010	0.005	0.029	2.637	1.885	1.890	1.890	1.904	1.899	1.899
0.010	0.000	0.005	-0.005	0.005	-0.010	0.034	2.725	1.890	1.885	1.885	1.904	1.895	1.890
0.005	0.000	0.005	-0.010	0.000	0.010	0.034	2.754	1.899	1.890	1.885	1.904	1.899	1.899
-0.005	0.005	0.005	-0.010	0.000	0.005	0.029	2.651	1.890	1.890	1.885	1.904	1.899	1.899
0.005	0.005	0.000	-0.005	0.000	0.005	0.029	2.651	1.885	1.890	1.885	1.904	1.899	1.895
0.005	0.010	0.005	0.000	0.000	0.000	0.029	2.646	1.885	1.890	1.890	1.904	1.899	1.895
-0.005	0.005	0.000	0.010	-0.005	-0.010	0.029	2.739	1.890	1.885	1.885	1.909	1.899	1.895
-0.005	0.015	0.000	0.010	-0.005	0.005	0.029	2.686	1.890	1.890	1.890	1.909	1.904	1.899
-0.005	0.010	0.000	0.000	-0.005	0.005	0.034	2.734	1.895	1.890	1.885	1.904	1.899	1.899
-0.005	0.015	-0.005	0.005	0.000	-0.010	0.029	2.803	1.909	1.895	1.890	1.909	1.899	1.899
-0.010	0.000	-0.005	0.005	0.000	0.010	0.029	2.651	1.904	1.890	1.890	1.904	1.904	1.904
-0.005	0.010	0.000	-0.005	0.005	-0.010	0.029	2.739	1.904	1.895	1.890	1.904	1.899	1.895
0.000	0.000	0.000	0.000	0.000	0.005	0.029	2.734	1.904	1.899	1.890	1.909	1.904	1.899
0.000	0.000	0.000	-0.005	0.000	0.000	0.034	2.690	1.899	1.895	1.895	1.909	1.904	1.899
0.000	-0.015	0.005	-0.005	0.005	0.000	0.034	2.690	1.895	1.890	1.890	1.904	1.904	1.904
0.005	-0.005	0.000	-0.005	0.005	0.005	0.029	2.676	1.895	1.895	1.895	1.909	1.899	1.899
0.005	-0.010	0.005	-0.010	-0.005	0.005	0.029	2.695	1.899	1.895	1.890	1.909	1.899	1.904
0.000	-0.010	0.000	-0.005	0.000	0.000	0.034	2.676	1.890	1.890	1.890	1.909	1.899	1.899
0.010	-0.015	0.005	-0.005	0.005	0.005	0.029	2.695	1.890	1.890	1.890	1.909	1.904	1.904
0.005	-0.005	0.005	0.005	0.005	0.000	0.034	2.671	1.890	1.890	1.890	1.909	1.904	1.899
-0.005	-0.005	0.000	0.005	0.000	-0.010	0.034	2.681	1.890	1.890	1.890	1.909	1.904	1.899
0.005	-0.005	0.005	0.005	0.000	-0.015	0.034	2.686	1.885	1.890	1.890	1.909	1.904	1.899
0.000	0.010	0.000	-0.005	-0.005	-0.020	0.034	2.695	1.890	1.890	1.890	1.904	1.899	1.899
-0.005	0.005	-0.005	0.000	0.000	0.000	0.034	2.686	1.890	1.890	1.890	1.909	1.904	1.909
-0.005	0.010	0.000	0.010	-0.005	-0.005	0.034	2.681	1.890	1.895	1.890	1.909	1.904	1.904
0.000	0.010	0.000	0.010	-0.005	0.020	0.034	2.700	1.895	1.890	1.890	1.909	1.904	1.904
0.005	0.010	0.000	0.010	0.000	0.015	0.034	2.705	1.899	1.890	1.890	1.909	1.904	1.909
-0.005	0.010	-0.005	0.010	0.000	0.005	0.034	2.695	1.890	1.895	1.890	1.909	1.904	1.904
0.000	0.005	0.000	0.005	0.000	-0.020	0.029	2.686	1.895	1.890	1.890	1.909	1.904	1.899
0.005	-0.020	0.005	-0.005	0.000	0.005	0.029	2.671	1.890	1.885	1.890	1.904	1.904	1.904
0.005	-0.015	0.005	0.000	0.000	-0.020	0.029	2.676	1.890	1.885	1.885	1.904	1.899	1.899
0.000	-0.015	0.000	-0.005	0.005	0.005	0.029	2.690	1.885	1.885	1.890	1.904	1.899	1.904
0.015	-0.015	0.005	-0.005	-0.005	-0.005	0.034	2.671	1.890	1.885	1.885	1.899	1.899	1.899
0.015	-0.015	0.000	-0.005	0.000	-0.005	0.034	2.671	1.890	1.885	1.885	1.904	1.899	1.899
0.015	-0.005	0.005	0.000	0.000	0.000	0.029	2.666	1.885	1.890	1.885	1.904	1.899	1.899
0.005	-0.005	0.000	0.000	0.000	0.005	0.029	2.690	1.890	1.890	1.885	1.904	1.899	1.904
0.005	0.000	0.005	0.000	0.005	-0.010	0.029	2.769	1.899	1.895	1.885	1.904	1.899	1.895
0.005	0.000	0.000	0.005	0.000	0.010	0.029	2.798	1.909	1.895	1.885	1.904	1.899	1.899
0.005	0.000	0.005	0.005	0.000	0.005	0.029	2.661	1.904	1.899	1.890	1.904	1.899	1.899
-0.005	0.005	0.000	0.015	0.000	0.000	0.034	2.637	1.885	1.895	1.890	1.909	1.904	1.899
0.000	0.000	-0.005	0.024	0.000	0.005	0.034	2.627	1.880	1.890	1.890	1.909	1.904	1.904
-0.010	0.000	0.000	0.024	0.000	0.010	0.029	2.720	1.890	1.890	1.890	1.909	1.904	1.904
-0.010	-0.005	0.000	0.010	0.005	-0.005	0.029	2.656	1.885	1.890	1.890	1.909	1.904	1.899
-0.010	0.015	0.000	0.010	-0.005	0.005	0.034	2.725	1.885	1.895	1.890	1.909	1.899	1.899
0.000	0.015	0.000	0.015	0.000	-0.020	0.029	2.725	1.890	1.890	1.890	1.909	1.899	1.895
0.000	0.015	0.000	0.010	-0.005	0.005	0.034	2.651	1.890	1.890	1.890	1.909	1.904	1.904
0.000	0.000	0.000	0.005	0.000	0.010	0.034	2.734	1.895	1.885	1.890	1.904	1.899	1.904
0.015	-0.005	0.000	0.000	0.000	0.005	0.034	2.656	1.890	1.890	1.885	1.904	1.899	1.904
0.005	-0.005	0.000	0.000	0.010	0.000	0.034	2.661	1.885	1.885	1.885	1.904	1.904	1.899
0.010	0.000	0.005	-0.005	0.005	0.000	0.034	2.817	1.885	1.890	1.885	1.899	1.899	1.899
0.000	-0.005	0.005	-0.005	0.010	0.000	0.029	2.739	1.890	1.880	1.885	1.904	1.899	1.899
0.000	-0.005	0.005	0.000	0.010	0.005	0.034	2.734	1.895	1.885	1.885	1.904	1.899	1.899
0.000	-0.005	0.000	0.000	0.010	0.000	0.034	2.646	1.890	1.885	1.885	1.904	1.899	1.895
0.010	0.000	0.005	0.000	0.005	-0.005	0.034	2.690	1.890	1.890	1.885	1.899	1.895	1.895
0.005	-0.005	-0.005	0.015	0.010	-0.010	0.034	2.671	1.885	1.885	1.885	1.904	1.899	1.899
0.000	0.005	0.000	0.015	0.000	0.000	0.034	2.681	1.885	1.885	1.885	1.904	1.899	1.899
0.005	0.024	-0.005	0.010	0.000	0.005	0.034	2.700	1.895	1.890	1.885	1.904	1.899	1.899
-0.010	0.024	0.000	0.005	-0.005	0.000	0.034	2.705	1.890	1.890	1.885	1.904	1.899	1.895
-0.005	0.015	0.000	0.010	-0.010	0.005	0.034	2.690	1.890	1.890	1.885	1.904	1.895	1.895
-0.005	0.010	0.000	0.005	-0.005	0.000	0.034	2.700	1.890	1.885	1.885	1.904	1.899	1.899
0.000	0.010	-0.010	0.000	-0.010	-0.010	0.034	2.690	1.895	1.890	1.885	1.904	1.895	1.895
-0.005	0.010	-0.005	0.005	-0.015	-0.015	0.029	2.681	1.895	1.890	1.885	1.904	1.895	1.890
-0.005	0.000	0.000	0.000	-0.005	-0.020	0.034	2.690	1.890	1.885	1.885	1.904	1.899	1.895
0.005	-0.005	0.000	-0.005	0.000	-0.005	0.034	2.686	1.895	1.885	1.885	1.899	1.899	1.899
0.005	-0.010	0.000	-0.005	0.005	0.015	0.034	2.676	1.890	1.885	1.885	1.899	1.899	1.904
0.010	-0.010	0.005	-0.005	0.000	-0.010	0.034	2.676	1.890	1.885	1.885	1.904	1.895	1.895
0.015	-0.015	0.010	-0.015	-0.005	0.015	0.034	2.671	1.890	1.885	1.885	1.899	1.895	1.899
0.005	-0.015	0.010	-0.010	0.000	0.010	0.034	2.695	1.890	1.885	1.880	1.899	1.895	1.899
0.010	-0.010	0.005	0.000	0.005	0.010	0.029	2.690	1.890	1.885	1.885	1.904	1.895	1.899
0.005	-0.010	0.000	0.005	0.005	0.000	0.034	2.686	1.885	1.885	1.880	1.904	1.899	1.899
0.005	0.000	0.000	0.005	0.010	0.005	0.029	2.676	1.890	1.885	1.885	1.904	1.899	1.899
-0.005	0.010	0.000	0.005	0.010	0.010	0.034	2.676	1.885	1.890	1.885	1.904	1.899	1.899
-0.005	0.015	0.000	0.010	0.015	0.005	0.029	2.686	1.890	1.890	1.885	1.909	1.899	1.899
0.000	0.010	0.005	0.010	0.005	0.005	0.029	2.686	1.890	1.890	1.885	1.909	1.899	1.895
0.000	0.000	0.000	0.015	0.010	-0.005	0.029	2.671	1.885	1.885	1.885	1.909	1.899	1.895
-0.005	0.010	-0.005	0.015	0.005	0.000	0.029	2.690	1.885	1.885	1.885	1.904	1.899	1.899
0.005	0.005	0.000	0.010	0.010	0.000	0.029	2.656	1.890	1.890	1.885	1.904	1.899	1.899
-0.005	0.010	-0.005	0.000	0.005	0.005	0.029	2.793	1.899	1.890	1.885	1.904	1.899	1.899
0.005	-0.005	-0.005	-0.005	0.010	-0.005	0.029	2.646	1.895	1.885	1.885	1.899	1.899	1.899
0.000	0.015	0.000	-0.010	0.010	-0.010	0.029	2.646	1.885	1.895	1.885	1.899	1.895	1.895
-0.005	-0.024	0.010	-0.005	0.010	0.024	0.029	2.710	1.880	1.875	1.885	1.904	1.899	1.904
0.010	-0.020	0.005	-0.005	0.000	0.015	0.029	2.637	1.880	1.875	1.880	1.904	1.895	1.899
0.000	-0.020	0.010	-0.005	-0.015	0.015	0.034	2.651	1.875	1.875	1.880	1.899	1.890	1.895
0.005	-0.015	0.005	-0.010	-0.020	0.000	0.034	2.739	1.885	1.880	1.880	1.895	1.890	1.885
0.005	-0.029	0.005	-0.005	-0.005	-0.010	0.034	2.661	1.885	1.875	1.875	1.899	1.895	1.885
0.000	-0.015	0.000	0.010	-0.015	-0.034	0.034	2.656	1.880	1.880	1.875	1.899	1.890	1.885
0.000	0.005	0.000	0.000	-0.024	-0.029	0.034	2.646	1.880	1.880	1.875	1.895	1.890	1.885
0.005	0.029	0.000	0.005	-0.010	-0.024	0.034	2.656	1.880	1.890	1.880	1.899	1.895	1.890
0.005	0.005	-0.005	0.015	0.000	-0.010	0.034	2.729	1.885	1.880	1.880	1.899	1.899	1.895
-0.005	0.005	0.000	0.020	0.000	0.000	0.034	2.700	1.899	1.885	1.880	1.904	1.895	1.899
-0.015	0.005	0.000	0.015	-0.010	0.000	0.029	2.646	1.890	1.885	1.880	1.899	1.895	1.899
-0.005	0.020	-0.005	0.005	-0.010	0.015	0.034	2.744	1.895	1.890	1.880	1.899	1.895	1.899
-0.010	0.010	-0.005	0.010	-0.015	0.005	0.029	2.617	1.890	1.890	1.885	1.899	1.895	1.899
-0.010	0.020	0.000	0.010	0.034	0.015	0.034	2.690	1.895	1.890	1.885	1.904	1.909	1.899
0.000	0.005	0.000	0.010	0.029	0.020	0.034	2.671	1.890	1.885	1.885	1.904	1.904	1.904
0.000	0.000	0.005	0.010	0.024	0.020	0.034	2.686	1.890	1.885	1.885	1.899	1.904	1.904
-0.005	-0.010	0.000	0.005	0.010	0.020	0.029	2.661	1.885	1.880	1.880	1.899	1.899	1.904
0.005	-0.005	0.000	0.005	0.020	0.020	0.034	2.671	1.890	1.885	1.885	1.899	1.899	1.899
-0.005	-0.015	0.005	-0.005	0.005	-0.005	0.029	2.681	1.885	1.880	1.880	1.899	1.890	1.890
0.005	-0.015	0.005	-0.005	0.005	-0.010	0.034	2.686	1.890	1.885	1.880	1.899	1.890	1.890
0.010	-0.020	0.010	0.000	0.010	0.000	0.034	2.681	1.885	1.885	1.885	1.899	1.895	1.895
0.010	-0.015	0.010	-0.010	0.010	0.010	0.034	2.690	1.885	1.885	1.880	1.895	1.895	1.895
0.005	-0.010	0.000	-0.015	0.005	0.000	0.034	2.686	1.885	1.885	1.880	1.895	1.885	1.890
0.010	0.005	0.000	-0.010	0.000	-0.039	0.034	2.695	1.890	1.890	1.880	1.895	1.890	1.880
0.005	-0.005	-0.005	-0.005	-0.015	-0.010	0.034	2.676	1.885	1.885	1.880	1.899	1.885	1.885
0.005	0.000	0.005	-0.005	-0.015	-0.024	0.034	2.705	1.890	1.885	1.880	1.899	1.890	1.885
-0.005	0.015	0.000	0.005	-0.024	-0.005	0.034	2.705	1.885	1.890	1.885	1.904	1.890	1.890
-0.005	0.010	0.005	-0.005	-0.034	-0.024	0.034	2.700	1.885	1.885	1.885	1.899	1.890	1.880
0.000	0.015	-0.005	-0.005	-0.005	-0.005	0.034	2.695	1.885	1.885	1.885	1.899	1.899	1.895
-0.010	0.015	-0.010	-0.010	0.010	-0.005	0.034	2.690	1.885	1.885	1.885	1.899	1.899	1.899
-0.005	0.015	-0.005	-0.010	0.020	0.000	0.034	2.705	1.890	1.885	1.885	1.904	1.904	1.899
-0.005	0.024	0.000	-0.010	0.024	0.010	0.029	2.681	1.885	1.885	1.885	1.904	1.904	1.904
0.000	0.020	0.000	0.000	-0.015	0.005	0.034	2.666	1.890	1.890	1.885	1.904	1.890	1.899
0.005	0.010	0.005	-0.005	0.020	0.010	0.034	2.671	1.885	1.880	1.885	1.904	1.904	1.904
0.010	0.005	-0.005	-0.005	0.034	0.010	0.029	2.671	1.885	1.880	1.885	1.904	1.904	1.904
0.015	0.005	0.005	-0.005	0.010	0.015	0.034	2.686	1.890	1.880	1.885	1.904	1.899	1.899
0.005	0.000	0.005	-0.010	0.005	0.000	0.029	2.666	1.885	1.880	1.880	1.899	1.895	1.895
0.005	0.000	0.010	0.000	-0.024	0.010	0.034	2.798	1.895	1.880	1.880	1.899	1.885	1.895
0.005	-0.010	0.000	0.010	-0.044	0.005	0.029	2.651	1.890	1.880	1.880	1.899	1.885	1.895
0.010	0.000	0.005	0.015	-0.015	0.020	0.029	2.646	1.885	1.885	1.880	1.899	1.895	1.895
0.005	0.005	0.000	0.005	-0.024	0.010	0.029	2.646	1.880	1.880	1.880	1.899	1.890	1.890
0.000	0.000	0.000	0.010	-0.029	0.015	0.029	2.729	1.880	1.880	1.880	1.899	1.890	1.890
-0.005	0.000	0.000	0.000	-0.005	0.005	0.029	2.656	1.875	1.880	1.880	1.899	1.899	1.890
-0.005	0.010	-0.005	0.005	0.049	0.005	0.029	2.627	1.870	1.875	1.880	1.899	1.909	1.899
0.005	0.010	0.005	0.000	0.020	0.005	0.029	2.759	1.890	1.880	1.880	1.899	1.899	1.899
-0.005	0.015	0.000	0.010	0.044	-0.005	0.034	2.661	1.880	1.880	1.880	1.904	1.909	1.899
-0.005	0.024	-0.005	-0.005	0.054	-0.015	0.029	2.651	1.880	1.885	1.880	1.899	1.904	1.899
-0.005	0.005	0.000	-0.005	0.039	0.015	0.034	2.676	1.880	1.875	1.875	1.895	1.895	1.904
-0.005	-0.005	0.000	0.000	0.034	0.010	0.034	2.720	1.890	1.875	1.875	1.899	1.895	1.899
0.000	0.000	0.000	-0.005	0.010	0.010	0.034	2.817	1.904	1.885	1.880	1.895	1.885	1.895
0.000	0.000	0.005	-0.005	0.005	-0.005	0.034	2.715	1.904	1.890	1.880	1.895	1.885	1.890
0.005	-0.020	0.005	-0.005	0.005	-0.010	0.034	2.739	1.909	1.885	1.880	1.895	1.890	1.885
0.005	-0.024	0.000	-0.010	0.010	0.005	0.034	2.734	1.904	1.890	1.880	1.895	1.890	1.890
0.015	-0.029	0.005	-0.005	0.005	0.005	0.029	2.695	1.899	1.895	1.885	1.899	1.890	1.890
0.005	-0.020	0.005	-0.005	-0.015	-0.005	0.029	2.671	1.895	1.895	1.885	1.899	1.885	1.885
0.005	-0.015	0.005	-0.005	-0.039	0.010	0.034	2.695	1.890	1.895	1.890	1.899	1.880	1.885
0.000	-0.010	0.005	-0.005	-0.039	0.000	0.034	2.666	1.885	1.890	1.890	1.904	1.885	1.885
0.000	0.000	0.000	0.000	-0.039	0.000	0.034	2.695	1.885	1.895	1.890	1.904	1.890	1.885
0.000	0.005	0.000	0.000	-0.034	-0.010	0.034	2.695	1.880	1.890	1.890	1.904	1.895	1.885
-0.005	0.034	-0.005	0.000	-0.020	-0.005	0.029	2.705	1.880	1.895	1.890	1.909	1.899	1.890
-0.005	0.034	0.000	0.005	0.000	0.010	0.029	2.686	1.885	1.890	1.890	1.914	1.904	1.899
-0.010	0.024	0.000	0.005	0.010	0.010	0.034	2.681	1.885	1.885	1.890	1.909	1.914	1.899
0.000	0.029	-0.005	0.005	0.039	-0.005	0.029	2.676	1.885	1.890	1.885	1.909	1.919	1.904
-0.005	0.015	-0.005	0.010	0.049	-0.010	0.029	2.676	1.880	1.880	1.885	1.909	1.914	1.909
-0.015	0.015	0.000	0.000	0.044	-0.005	0.029	2.686	1.880	1.880	1.885	1.909	1.909	1.904
-0.005	0.000	0.000	0.000	0.034	-0.010	0.029	2.676	1.890	1.880	1.880	1.904	1.904	1.904
0.015	0.000	0.005	-0.005	0.020	0.015	0.029	2.666	1.890	1.885	1.880	1.899	1.899	1.909
0.010	-0.005	0.000	0.000	0.005	0.010	0.029	2.695	1.890	1.885	1.880	1.899	1.895	1.904
0.000	-0.010	0.005	-0.010	0.000	0.005	0.029	2.700	1.890	1.880	1.880	1.899	1.890	1.895
0.005	-0.015	0.005	-0.010	-0.005	-0.005	0.034	2.705	1.890	1.885	1.880	1.895	1.890	1.890
0.005	-0.010	0.005	-0.010	0.000	0.005	0.034	2.676	1.890	1.880	1.880	1.899	1.890	1.895
0.005	-0.005	0.005	-0.005	-0.020	0.000	0.034	2.676	1.885	1.885	1.880	1.899	1.885	1.890
0.005	-0.005	0.000	-0.005	-0.034	-0.015	0.034	2.671	1.885	1.885	1.880	1.899	1.885	1.880
-0.005	0.000	0.005	0.005	-0.059	0.000	0.034	2.686	1.885	1.885	1.880	1.899	1.880	1.885
0.000	0.000	0.005	0.000	-0.078	0.000	0.034	2.671	1.885	1.885	1.880	1.899	1.880	1.885
-0.005	0.005	0.000	0.010	-0.054	-0.024	0.034	2.690	1.885	1.885	1.880	1.899	1.890	1.875
0.000	0.005	0.000	0.005	-0.020	0.005	0.034	2.671	1.885	1.880	1.885	1.899	1.899	1.895
-0.015	0.015	-0.005	0.015	0.000	0.000	0.034	2.783	1.880	1.880	1.880	1.904	1.909	1.895
-0.010	0.010	0.000	0.015	0.024	0.005	0.034	2.651	1.875	1.880	1.880	1.904	1.909	1.904
-0.005	0.010	-0.005	0.015	0.068	-0.015	0.034	2.642	1.880	1.880	1.880	1.904	1.919	1.904
-0.005	0.010	-0.005	0.010	0.054	0.000	0.034	2.734	1.880	1.880	1.880	1.899	1.904	1.904
0.000	0.015	0.000	0.010	-0.005	-0.005	0.034	2.642	1.880	1.880	1.880	1.899	1.890	1.899
0.010	0.005	0.000	0.005	0.010	-0.010	0.029	2.661	1.880	1.880	1.875	1.899	1.895	1.895
0.005	-0.010	0.005	0.005	-0.005	0.015	0.034	2.646	1.875	1.875	1.875	1.895	1.890	1.899
0.000	-0.005	0.005	-0.005	0.015	0.015	0.029	2.749	1.890	1.875	1.875	1.895	1.895	1.899
0.010	-0.024	0.005	-0.005	0.049	0.010	0.034	2.671	1.885	1.875	1.875	1.895	1.904	1.899
0.005	-0.020	0.005	0.000	0.054	0.010	0.034	2.651	1.885	1.880	1.875	1.895	1.904	1.899
0.005	-0.005	0.010	0.000	0.049	-0.005	0.029	2.661	1.885	1.880	1.875	1.895	1.895	1.895
0.010	-0.034	0.005	0.000	0.020	-0.010	0.029	2.642	1.880	1.875	1.875	1.895	1.885	1.890
0.000	-0.024	0.000	0.000	0.024	0.000	0.029	2.681	1.880	1.875	1.875	1.890	1.890	1.895
0.005	-0.005	0.000	-0.005	0.005	-0.005	0.029	2.739	1.890	1.885	1.875	1.890	1.880	1.885
0.005	0.005	0.000	0.000	-0.010	-0.005	0.029	2.646	1.880	1.890	1.875	1.895	1.880	1.885
0.000	0.005	0.000	0.005	-0.015	0.015	0.029	2.666	1.890	1.885	1.880	1.899	1.885	1.885
-0.010	0.010	0.000	0.005	-0.015	-0.005	0.029	2.700	1.885	1.885	1.885	1.899	1.885	1.880
0.000	0.020	-0.005	0.010	-0.015	-0.005	0.034	2.681	1.890	1.890	1.880	1.899	1.890	1.885
0.000	0.010	0.000	0.005	-0.020	0.010	0.034	2.715	1.890	1.885	1.885	1.899	1.890	1.890
-0.005	0.010	-0.005	0.010	-0.010	0.005	0.029	2.686	1.885	1.885	1.885	1.904	1.895	1.885
-0.005	0.005	0.000	0.000	-0.005	0.015	0.029	2.695	1.885	1.885	1.885	1.899	1.895	1.895
0.005	-0.005	0.000	0.005	0.005	0.010	0.029	2.671	1.885	1.885	1.885	1.904	1.899	1.895
0.000	-0.010	0.005	0.015	0.005	-0.010	0.034	2.676	1.885	1.880	1.880	1.904	1.899	1.890
0.000	-0.015	0.000	0.000	-0.020	0.015	0.034	2.695	1.885	1.880	1.880	1.899	1.890	1.895
0.000	0.000	0.000	-0.005	-0.024	0.015	0.029	2.666	1.880	1.885	1.880	1.899	1.890	1.895
0.000	-0.005	0.005	0.005	-0.020	0.010	0.029	2.695	1.890	1.885	1.880	1.899	1.890	1.890
0.000	0.000	0.005	0.000	-0.029	0.005	0.029	2.690	1.885	1.885	1.880	1.899	1.890	1.890
0.000	0.005	0.010	-0.005	-0.020	0.010	0.034	2.686	1.885	1.885	1.880	1.899	1.895	1.890
0.005	0.005	0.000	0.005	0.005	0.010	0.034	2.695	1.890	1.885	1.880	1.899	1.899	1.895
-0.010	-0.005	0.005	0.010	0.020	0.000	0.034	2.700	1.885	1.880	1.880	1.904	1.904	1.895
-0.005	0.005	0.000	0.015	0.024	0.000	0.034	2.690	1.885	1.885	1.880	1.899	1.904	1.899
0.005	0.015	0.005	0.015	0.005	-0.015	0.034	2.686	1.890	1.890	1.880	1.899	1.895	1.890
-0.005	0.005	-0.005	0.020	0.010	0.010	0.029	2.681	1.885	1.885	1.880	1.899	1.899	1.899
-0.010	0.020	0.000	0.010	0.029	0.000	0.034	2.686	1.885	1.890	1.885	1.899	1.904	1.899
-0.005	0.020	-0.005	0.005	-0.010	0.005	0.034	2.700	1.890	1.885	1.885	1.899	1.890	1.895
-0.005	0.005	-0.005	0.005	-0.024	0.000	0.034	2.666	1.890	1.885	1.880	1.899	1.890	1.895
0.000	0.010	-0.005	0.010	-0.024	-0.005	0.034	2.676	1.885	1.885	1.885	1.899	1.890	1.890
0.005	0.015	-0.005	0.000	-0.005	0.000	0.029	2.681	1.890	1.885	1.885	1.899	1.895	1.895
0.000	0.000	0.000	0.000	0.005	-0.020	0.034	2.686	1.885	1.880	1.885	1.899	1.899	1.890
0.005	-0.005	0.000	-0.010	0.015	-0.015	0.034	2.666	1.885	1.880	1.880	1.895	1.899	1.895
0.000	-0.010	0.000	-0.015	0.029	-0.024	0.034	2.788	1.890	1.880	1.880	1.895	1.899	1.890
0.010	-0.010	0.005	-0.020	0.010	0.000	0.034	2.656	1.890	1.880	1.880	1.895	1.895	1.899
0.005	-0.015	0.010	-0.020	-0.015	-0.005	0.034	2.651	1.885	1.880	1.880	1.895	1.885	1.890
0.010	-0.015	0.000	-0.015	-0.020	0.000	0.029	2.715	1.885	1.880	1.875	1.895	1.885	1.890
0.010	-0.010	0.005	-0.020	-0.020	0.005	0.029	2.734	1.890	1.885	1.880	1.899	1.890	1.890
-0.005	-0.010	0.005	-0.024	-0.020	0.000	0.034	2.646	1.885	1.885	1.880	1.895	1.890	1.890
0.005	-0.005	0.000	-0.010	-0.005	0.005	0.029	2.715	1.885	1.885	1.880	1.899	1.895	1.890
0.005	0.000	0.000	-0.010	0.029	0.000	0.029	2.739	1.880	1.885	1.880	1.899	1.904	1.895
0.000	-0.010	0.000	-0.005	0.034	0.000	0.029	2.676	1.880	1.880	1.880	1.904	1.899	1.895
0.000	0.010	0.000	-0.005	0.010	0.000	0.029	2.734	1.875	1.885	1.880	1.899	1.895	1.895
0.005	0.015	0.000	0.000	-0.005	-0.005	0.029	2.661	1.880	1.885	1.880	1.899	1.890	1.895
-0.005	0.015	0.000	0.005	-0.005	0.005	0.029	2.729	1.885	1.880	1.880	1.904	1.890	1.895
0.000	0.015	-0.005	0.020	-0.010	0.000	0.034	2.808	1.899	1.890	1.885	1.904	1.895	1.895
-0.005	0.010	-0.005	0.020	-0.015	0.010	0.034	2.710	1.904	1.890	1.885	1.904	1.895	1.895
-0.005	0.005	-0.005	0.010	-0.005	0.015	0.034	2.734	1.904	1.890	1.885	1.899	1.899	1.895
-0.005	0.020	0.000	0.005	0.005	0.005	0.034	2.646	1.904	1.895	1.890	1.904	1.899	1.895
0.000	0.010	0.000	0.000	0.005	0.010	0.034	2.695	1.899	1.895	1.890	1.904	1.899	1.899
0.000	-0.005	0.010	-0.005	-0.005	0.010	0.034	2.700	1.895	1.895	1.890	1.899	1.895	1.899
-0.005	-0.015	0.010	-0.015	-0.010	0.015	0.034	2.690	1.895	1.885	1.885	1.899	1.895	1.899
0.015	-0.015	0.005	-0.020	-0.020	0.010	0.034	2.700	1.899	1.890	1.885	1.899	1.890	1.895
0.005	-0.024	0.005	-0.015	-0.020	0.000	0.029	2.676	1.885	1.885	1.885	1.904	1.890	1.890
-0.005	-0.024	0.005	-0.005	0.000	-0.015	0.034	2.676	1.880	1.885	1.885	1.904	1.899	1.890
0.005	-0.005	0.005	0.000	0.010	-0.005	0.034	2.681	1.885	1.890	1.885	1.904	1.904	1.895
0.005	-0.005	0.005	0.005	0.020	0.005	0.034	2.695	1.880	1.885	1.885	1.909	1.904	1.899
0.000	0.005	0.005	0.015	0.015	0.010	0.034	2.686	1.880	1.890	1.885	1.909	1.904	1.904
0.005	0.020	0.000	0.029	0.015	0.005	0.034	2.676	1.885	1.890	1.890	1.914	1.904	1.899
0.000	0.015	-0.010	0.029	0.020	-0.010	0.029	2.690	1.885	1.890	1.885	1.909	1.904	1.899
0.000	0.010	-0.005	0.015	0.020	-0.034	0.034	2.705	1.885	1.885	1.885	1.904	1.904	1.899
-0.005	0.020	-0.005	0.020	0.015	-0.010	0.029	2.700	1.890	1.885	1.885	1.904	1.904	1.904
-0.005	0.015	-0.005	0.024	0.010	0.005	0.029	2.676	1.885	1.885	1.885	1.904	1.904	1.904
-0.005	0.005	0.000	0.020	0.015	-0.005	0.029	2.700	1.895	1.885	1.885	1.904	1.899	1.899
-0.005	0.005	0.000	0.020	0.020	-0.010	0.029	2.695	1.890	1.885	1.885	1.904	1.904	1.899
0.005	-0.005	0.000	0.020	0.024	-0.029	0.029	2.671	1.890	1.885	1.885	1.904	1.904	1.899
0.000	-0.020	0.010	0.020	0.024	-0.010	0.029	2.695	1.890	1.880	1.885	1.904	1.899	1.904
0.005	-0.015	0.000	0.015	0.024	-0.005	0.029	2.671	1.885	1.880	1.885	1.899	1.899	1.899
0.015	-0.020	0.010	0.010	0.020	-0.010	0.029	2.676	1.890	1.880	1.880	1.899	1.895	1.899
0.010	-0.020	0.005	0.020	0.005	0.000	0.029	2.671	1.885	1.880	1.885	1.899	1.895	1.899
0.000	-0.005	0.000	0.015	0.005	0.005	0.034	2.676	1.880	1.885	1.880	1.899	1.895	1.899
0.000	-0.005	0.010	0.005	-0.015	-0.005	0.034	2.695	1.885	1.880	1.880	1.899	1.890	1.895
0.005	-0.010	0.005	0.015	-0.029	-0.010	0.029	2.661	1.885	1.880	1.880	1.899	1.885	1.885
0.000	-0.005	-0.005	0.024	0.000	0.010	0.034	2.783	1.899	1.885	1.880	1.899	1.895	1.895
0.005	-0.005	0.000	0.020	0.000	0.015	0.029	2.661	1.895	1.890	1.885	1.904	1.895	1.895
-0.015	0.010	0.000	0.015	-0.005	0.010	0.034	2.642	1.880	1.890	1.885	1.899	1.895	1.895
-0.010	0.005	0.005	0.015	-0.010	0.000	0.034	2.666	1.885	1.885	1.885	1.899	1.895	1.895
-0.015	0.005	0.000	0.010	-0.010	-0.005	0.034	2.729	1.880	1.885	1.885	1.904	1.895	1.890
0.005	0.000	0.000	0.020	-0.020	0.015	0.029	2.651	1.885	1.880	1.885	1.904	1.895	1.895
0.000	0.015	0.000	0.005	-0.029	0.000	0.034	2.720	1.885	1.885	1.885	1.899	1.890	1.890
-0.005	0.020	0.000	-0.005	-0.034	-0.005	0.034	2.725	1.895	1.890	1.885	1.895	1.890	1.885
0.010	0.010	0.000	0.000	-0.034	0.020	0.034	2.676	1.890	1.885	1.885	1.899	1.890	1.895
0.000	-0.005	0.005	0.000	-0.020	0.020	0.034	2.729	1.890	1.885	1.885	1.899	1.895	1.895
0.005	-0.005	0.010	0.005	-0.005	0.020	0.034	2.666	1.890	1.885	1.885	1.904	1.904	1.899
0.005	0.000	0.000	0.005	0.000	0.010	0.034	2.715	1.890	1.885	1.885	1.899	1.899	1.895
0.000	0.000	0.005	0.000	0.005	0.010	0.029	2.759	1.904	1.890	1.880	1.899	1.899	1.895
0.005	0.000	0.005	-0.005	0.015	-0.005	0.029	2.637	1.895	1.890	1.885	1.899	1.899	1.895
0.010	-0.005	0.010	-0.015	0.010	0.000	0.029	2.734	1.895	1.895	1.885	1.899	1.899	1.895
0.000	0.005	0.000	-0.010	0.010	0.015	0.029	2.632	1.885	1.890	1.885	1.904	1.899	1.899
0.000	0.000	0.000	-0.015	0.005	0.010	0.034	2.705	1.890	1.890	1.885	1.899	1.895	1.895
0.000	0.005	0.000	-0.015	0.015	0.005	0.034	2.671	1.885	1.885	1.885	1.899	1.899	1.895
-0.005	0.015	-0.005	0.005	0.010	0.000	0.034	2.690	1.885	1.885	1.885	1.909	1.899	1.895
-0.005	0.010	0.000	-0.005	-0.010	-0.005	0.034	2.695	1.890	1.885	1.885	1.904	1.895	1.895
-0.010	0.005	0.000	0.000	-0.005	-0.015	0.029	2.690	1.890	1.885	1.885	1.909	1.899	1.890
-0.010	0.005	0.000	0.005	0.005	0.000	0.034	2.700	1.890	1.885	1.885	1.904	1.899	1.899
0.000	0.000	0.000	0.005	-0.005	-0.010	0.034	2.695	1.890	1.885	1.885	1.904	1.899	1.899
-0.005	0.010	0.005	-0.005	-0.015	-0.005	0.034	2.690	1.890	1.890	1.885	1.904	1.895	1.895
0.000	0.005	-0.005	0.015	-0.044	-0.015	0.034	2.690	1.890	1.890	1.885	1.904	1.890	1.890
0.000	0.005	-0.005	-0.010	-0.054	-0.005	0.029	2.686	1.890	1.885	1.885	1.899	1.890	1.890
0.000	-0.005	0.000	-0.015	-0.044	0.020	0.029	2.705	1.890	1.885	1.885	1.899	1.895	1.899
0.005	0.000	0.000	-0.010	-0.034	0.024	0.029	2.695	1.890	1.885	1.885	1.899	1.899	1.899
0.005	-0.020	0.005	-0.015	0.020	0.024	0.034	2.686	1.890	1.880	1.885	1.899	1.914	1.899
0.000	-0.015	0.005	-0.010	0.044	0.020	0.034	2.671	1.885	1.885	1.885	1.899	1.914	1.909
0.005	-0.005	0.005	-0.010	0.024	0.024	0.034	2.681	1.885	1.885	1.885	1.899	1.904	1.904
0.005	0.000	0.000	-0.005	0.024	0.010	0.034	2.715	1.885	1.885	1.880	1.904	1.899	1.899
0.000	-0.015	0.005	-0.005	0.005	0.005	0.029	2.676	1.890	1.880	1.880	1.904	1.895	1.895
0.005	0.005	0.000	-0.005	0.015	-0.005	0.034	2.695	1.890	1.885	1.880	1.904	1.899	1.895
0.005	0.000	0.005	-0.005	-0.015	-0.005	0.029	2.715	1.890	1.885	1.880	1.899	1.890	1.890
-0.005	0.000	0.005	-0.005	-0.020	0.005	0.034	2.671	1.885	1.890	1.880	1.904	1.890	1.895
0.000	0.024	0.000	0.005	-0.005	0.000	0.029	2.676	1.890	1.895	1.885	1.904	1.899	1.895
0.000	0.034	-0.005	-0.005	0.039	-0.005	0.034	2.681	1.885	1.890	1.885	1.904	1.909	1.895
-0.010	0.020	0.000	-0.005	0.015	0.005	0.029	2.681	1.885	1.885	1.885	1.904	1.899	1.899
-0.005	0.029	0.000	0.000	-0.044	-0.020	0.029	2.651	1.885	1.890	1.885	1.904	1.880	1.885
-0.010	0.024	-0.005	-0.005	-0.127	0.000	0.029	2.793	1.890	1.885	1.885	1.899	1.865	1.885
-0.005	0.015	-0.005	0.000	-0.059	-0.005	0.029	2.656	1.890	1.885	1.885	1.904	1.899	1.890
0.000	-0.010	0.000	-0.005	0.122	0.000	0.029	2.632	1.880	1.875	1.885	1.909	1.943	1.909
0.000	-0.024	0.000	-0.005	0.190	0.000	0.034	2.690	1.875	1.875	1.880	1.904	1.948	1.919
0.005	-0.020	0.005	-0.010	0.122	0.010	0.034	2.642	1.890	1.875	1.875	1.899	1.914	1.919
0.005	-0.020	0.000	-0.005	0.083	0.010	0.034	2.725	1.895	1.880	1.880	1.899	1.899	1.914
0.005	-0.020	0.000	-0.005	0.044	-0.020	0.029	2.710	1.890	1.880	1.875	1.895	1.885	1.895
0.005	-0.015	0.000	0.000	0.024	0.000	0.029	2.749	1.899	1.885	1.880	1.899	1.885	1.895
0.010	-0.015	0.005	-0.005	0.039	-0.005	0.034	2.676	1.895	1.885	1.880	1.899	1.890	1.895
-0.005	-0.005	0.005	-0.005	0.039	0.010	0.029	2.749	1.895	1.890	1.880	1.895	1.890	1.895
0.005	-0.010	0.005	0.000	0.020	0.005	0.034	2.671	1.890	1.890	1.885	1.899	1.885	1.890
-0.010	0.010	0.000	0.000	-0.029	0.000	0.034	2.749	1.895	1.895	1.885	1.899	1.875	1.885
-0.005	0.015	0.000	0.000	-0.039	0.005	0.029	2.695	1.904	1.899	1.890	1.904	1.875	1.885
0.005	0.010	0.000	0.010	-0.044	-0.005	0.029	2.646	1.895	1.899	1.890	1.904	1.885	1.880
-0.005	0.015	-0.010	0.005	-0.049	-0.005	0.034	2.739	1.899	1.895	1.890	1.909	1.885	1.880
-0.005	0.015	-0.005	0.005	-0.054	-0.005	0.029	2.715	1.895	1.895	1.890	1.909	1.890	1.885
-0.005	0.000	-0.005	0.010	-0.034	-0.005	0.034	2.710	1.895	1.890	1.895	1.909	1.899	1.890
0.000	0.000	0.000	0.005	-0.029	0.015	0.029	2.700	1.899	1.895	1.890	1.909	1.904	1.895
-0.005	0.010	0.000	0.005	-0.005	-0.005	0.034	2.690	1.885	1.895	1.895	1.909	1.909	1.899
0.005	-0.005	0.000	0.000	-0.005	0.010	0.029	2.661	1.885	1.885	1.890	1.909	1.909	1.904
0.005	0.000	0.005	-0.005	0.000	-0.020	0.034	2.695	1.890	1.890	1.890	1.904	1.904	1.895
0.000	0.000	0.010	-0.005	-0.005	-0.010	0.034	2.686	1.885	1.890	1.890	1.909	1.904	1.899
0.005	0.010	0.010	-0.010	-0.015	0.005	0.034	2.671	1.885	1.890	1.885	1.904	1.904	1.904
0.005	0.005	0.000	-0.010	-0.024	0.005	0.029	2.686	1.890	1.885	1.885	1.904	1.895	1.904
0.005	0.010	0.005	-0.005	-0.024	0.010	0.029	2.700	1.890	1.885	1.890	1.904	1.899	1.899
0.005	-0.005	0.000	-0.005	-0.005	0.005	0.029	2.681	1.890	1.885	1.885	1.904	1.904	1.899
0.005	0.000	0.005	-0.005	0.000	0.000	0.029	2.705	1.890	1.885	1.880	1.904	1.904	1.899
0.005	0.005	0.005	-0.005	0.000	-0.005	0.034	2.686	1.890	1.890	1.885	1.904	1.899	1.899
0.005	0.015	0.000	0.000	0.029	-0.010	0.029	2.695	1.885	1.890	1.885	1.904	1.909	1.904
0.000	0.015	0.000	0.010	0.049	0.005	0.029	2.700	1.890	1.890	1.885	1.909	1.914	1.909
-0.010	0.005	-0.005	0.010	0.024	0.005	0.029	2.695	1.890	1.890	1.885	1.909	1.904	1.909
-0.010	0.005	0.000	0.005	0.020	-0.005	0.029	2.710	1.895	1.890	1.885	1.904	1.899	1.899
0.000	-0.005	-0.010	0.010	-0.005	0.005	0.034	2.686	1.890	1.885	1.880	1.904	1.895	1.904
0.000	-0.010	-0.005	0.005	-0.005	0.010	0.034	2.681	1.895	1.890	1.885	1.904	1.899	1.904
-0.005	-0.010	0.000	0.010	-0.005	0.010	0.034	2.686	1.890	1.890	1.885	1.904	1.895	1.899
0.000	-0.005	-0.005	0.005	-0.005	0.010	0.029	2.666	1.890	1.890	1.885	1.904	1.895	1.899
0.010	-0.005	0.000	0.010	0.005	0.000	0.034	2.676	1.890	1.890	1.890	1.904	1.899	1.895
0.000	-0.005	0.010	-0.005	0.005	-0.015	0.029	2.681	1.885	1.890	1.890	1.899	1.895	1.890
0.010	-0.005	0.010	-0.010	-0.005	0.010	0.029	2.686	1.890	1.885	1.885	1.899	1.895	1.899
0.005	-0.020	0.010	-0.005	-0.010	0.005	0.034	2.666	1.885	1.885	1.885	1.904	1.895	1.895
0.005	-0.015	0.005	-0.005	-0.010	-0.010	0.029	2.783	1.895	1.885	1.885	1.899	1.895	1.890
0.010	-0.015	0.005	0.005	-0.010	0.005	0.029	2.651	1.890	1.885	1.885	1.904	1.899	1.895
0.005	-0.015	0.000	0.005	-0.020	0.005	0.029	2.646	1.880	1.885	1.885	1.899	1.895	1.895
0.000	0.005	0.005	0.005	-0.005	-0.005	0.029	2.729	1.870	1.885	1.885	1.904	1.899	1.895
0.000	0.010	0.005	0.000	-0.010	-0.005	0.029	2.637	1.870	1.885	1.885	1.904	1.895	1.895
-0.005	0.010	0.000	0.005	-0.005	0.000	0.029	2.739	1.880	1.880	1.880	1.904	1.899	1.899
0.000	0.005	0.005	0.005	0.005	0.000	0.029	2.661	1.885	1.880	1.885	1.904	1.899	1.899
-0.005	0.024	0.000	0.000	0.005	0.000	0.029	2.651	1.880	1.885	1.880	1.899	1.899	1.899
-0.010	0.024	-0.005	0.010	0.020	0.005	0.029	2.686	1.880	1.885	1.880	1.904	1.904	1.899
-0.005	0.029	0.000	0.010	0.024	0.005	0.034	2.642	1.885	1.885	1.885	1.899	1.904	1.904
-0.010	0.024	0.000	0.000	0.015	-0.005	0.034	2.661	1.880	1.880	1.880	1.899	1.899	1.899
0.000	0.010	-0.005	0.000	0.005	-0.010	0.034	2.720	1.885	1.880	1.880	1.899	1.895	1.895
0.010	0.010	0.005	0.005	-0.005	0.010	0.034	2.812	1.904	1.885	1.880	1.899	1.890	1.899
0.005	0.000	0.000	0.000	-0.010	0.010	0.029	2.646	1.899	1.885	1.880	1.899	1.895	1.895
0.010	-0.005	0.000	-0.005	-0.005	0.000	0.034	2.739	1.899	1.885	1.880	1.895	1.890	1.895
0.015	-0.015	0.005	0.005	-0.010	0.005	0.034	2.642	1.890	1.890	1.880	1.899	1.890	1.890
0.000	-0.015	0.015	-0.005	-0.005	0.000	0.034	2.705	1.890	1.890	1.885	1.899	1.895	1.890
0.005	-0.015	0.010	0.005	-0.015	0.005	0.029	2.686	1.890	1.890	1.880	1.899	1.895	1.890
0.005	-0.005	0.005	0.005	-0.010	0.005	0.029	2.676	1.890	1.890	1.885	1.899	1.895	1.895
0.005	0.000	0.000	0.000	0.005	0.000	0.034	2.671	1.885	1.885	1.885	1.899	1.899	1.895
0.005	0.005	0.000	0.000	0.010	-0.005	0.034	2.705	1.885	1.885	1.880	1.904	1.899	1.890
-0.005	0.005	0.000	0.005	0.020	-0.005	0.034	2.690	1.885	1.885	1.880	1.904	1.904	1.890
-0.005	0.010	0.000	0.005	0.034	0.000	0.034	2.671	1.885	1.885	1.885	1.904	1.904	1.899
-0.005	0.024	0.000	0.000	0.010	0.010	0.029	2.681	1.885	1.890	1.885	1.899	1.895	1.904
-0.005	0.015	-0.005	0.005	0.000	0.010	0.034	2.700	1.885	1.885	1.885	1.899	1.890	1.899
-0.020	0.015	-0.005	0.005	-0.010	0.000	0.034	2.676	1.885	1.885	1.880	1.904	1.895	1.899
-0.010	0.005	0.000	0.010	0.005	-0.010	0.029	2.710	1.895	1.885	1.885	1.904	1.899	1.890
-0.005	0.015	0.000	0.010	0.010	0.020	0.029	2.695	1.890	1.890	1.885	1.904	1.899	1.899
0.015	0.000	-0.005	0.005	0.010	0.010	0.034	2.671	1.890	1.890	1.885	1.899	1.899	1.899
0.000	0.000	0.000	-0.010	0.005	0.000	0.034	2.676	1.890	1.885	1.885	1.899	1.895	1.895
0.005	-0.020	0.005	0.000	0.010	0.015	0.029	2.676	1.885	1.875	1.880	1.904	1.899	1.899
0.010	-0.015	0.010	-0.010	0.000	0.010	0.029	2.705	1.890	1.880	1.880	1.899	1.895	1.895
0.010	-0.020	0.000	0.000	-0.005	0.015	0.034	2.705	1.890	1.885	1.880	1.899	1.895	1.895
0.015	0.015	0.000	0.000	-0.005	0.015	0.034	2.666	1.885	1.895	1.885	1.899	1.895	1.895
0.010	0.005	0.000	-0.005	-0.005	-0.020	0.034	2.686	1.885	1.885	1.885	1.899	1.890	1.890
0.005	-0.005	0.000	-0.005	-0.005	-0.015	0.034	2.671	1.880	1.880	1.885	1.899	1.890	1.890
0.000	-0.024	0.000	0.005	-0.005	0.010	0.034	2.681	1.880	1.875	1.880	1.899	1.895	1.899
-0.005	0.010	0.005	0.000	-0.015	0.000	0.034	2.681	1.880	1.885	1.880	1.899	1.890	1.895
-0.005	0.000	0.000	0.000	-0.010	0.000	0.029	2.695	1.880	1.880	1.880	1.899	1.895	1.895
-0.005	0.005	0.000	0.000	-0.005	-0.005	0.029	2.671	1.885	1.885	1.880	1.899	1.895	1.890
-0.005	0.000	0.000	0.000	0.010	-0.005	0.034	2.793	1.895	1.880	1.880	1.899	1.899	1.890
0.000	-0.010	0.000	0.005	0.010	-0.005	0.029	2.666	1.890	1.880	1.880	1.899	1.899	1.895
-0.005	-0.005	0.000	0.010	0.005	-0.005	0.029	2.642	1.885	1.880	1.880	1.899	1.899	1.895
0.000	-0.005	-0.005	0.005	0.015	-0.010	0.029	2.622	1.880	1.885	1.880	1.899	1.899	1.895
0.000	0.005	-0.005	0.005	0.005	0.005	0.029	2.637	1.875	1.885	1.880	1.899	1.895	1.899
0.000	-0.005	0.000	0.005	0.000	-0.015	0.029	2.642	1.885	1.880	1.880	1.899	1.895	1.890
0.000	-0.005	-0.005	0.005	0.005	-0.024	0.029	2.642	1.880	1.880	1.880	1.899	1.895	1.885
0.000	-0.005	0.000	0.000	0.015	0.015	0.029	2.720	1.885	1.880	1.880	1.895	1.899	1.899
0.000	-0.010	0.005	-0.005	0.015	0.005	0.034	2.681	1.885	1.880	1.880	1.899	1.895	1.895
0.010	-0.015	0.000	0.000	0.000	0.005	0.034	2.734	1.895	1.880	1.880	1.895	1.890	1.895
0.000	-0.005	0.010	-0.005	-0.020	-0.005	0.034	2.671	1.890	1.885	1.880	1.895	1.885	1.890
-0.005	0.005	0.000	-0.005	-0.029	0.005	0.034	2.642	1.890	1.890	1.880	1.895	1.885	1.890
0.000	0.000	0.010	-0.005	-0.020	0.000	0.034	2.676	1.904	1.890	1.885	1.899	1.890	1.885
0.000	0.010	0.000	-0.005	-0.010	-0.015	0.034	2.651	1.895	1.890	1.885	1.899	1.890	1.880
-0.005	0.015	0.000	-0.005	0.024	0.005	0.029	2.715	1.890	1.890	1.885	1.904	1.904	1.895
0.005	0.020	0.000	0.000	0.024	0.010	0.029	2.661	1.890	1.890	1.885	1.904	1.899	1.899
0.000	0.020	-0.005	0.000	0.024	0.005	0.034	2.695	1.890	1.890	1.890	1.904	1.899	1.899
-0.005	0.015	0.000	0.000	0.020	0.010	0.034	2.681	1.885	1.890	1.890	1.904	1.899	1.899
-0.010	0.010	0.000	0.000	0.020	0.015	0.029	2.705	1.890	1.890	1.885	1.904	1.899	1.899
0.000	0.015	-0.010	0.000	0.015	0.005	0.034	2.681	1.890	1.890	1.885	1.904	1.899	1.899
0.000	0.005	-0.005	0.000	0.010	0.005	0.029	2.676	1.890	1.885	1.890	1.904	1.899	1.895
-0.005	0.005	0.000	0.000	0.015	0.000	0.034	2.700	1.890	1.885	1.885	1.904	1.899	1.895
0.005	0.005	0.000	-0.005	0.020	0.000	0.034	2.705	1.895	1.885	1.885	1.904	1.899	1.895
0.005	-0.015	0.005	-0.005	0.005	0.005	0.034	2.695	1.890	1.880	1.885	1.904	1.895	1.895
0.005	-0.015	0.000	-0.005	-0.039	0.000	0.029	2.695	1.890	1.885	1.880	1.899	1.885	1.890
0.005	-0.010	0.000	-0.010	-0.044	0.010	0.029	2.700	1.890	1.885	1.885	1.899	1.885	1.890
0.000	-0.010	0.010	-0.005	-0.034	-0.005	0.029	2.671	1.885	1.885	1.885	1.899	1.890	1.890
0.010	-0.005	0.010	-0.005	-0.024	-0.005	0.029	2.690	1.885	1.885	1.885	1.899	1.895	1.890
0.010	-0.015	0.005	-0.005	-0.010	0.010	0.034	2.695	1.890	1.885	1.880	1.904	1.899	1.895
-0.005	-0.005	0.005	0.000	0.010	0.000	0.029	2.681	1.885	1.885	1.885	1.904	1.904	1.895
0.000	0.005	0.005	0.000	0.049	0.015	0.029	2.681	1.885	1.890	1.885	1.904	1.914	1.904
-0.005	0.005	0.005	0.010	0.044	0.000	0.029	2.695	1.890	1.885	1.885	1.904	1.909	1.904
0.000	0.000	0.000	0.005	-0.005	0.000	0.029	2.686	1.890	1.885	1.885	1.904	1.895	1.899
-0.005	0.000	0.000	0.000	-0.024	-0.005	0.029	2.676	1.885	1.885	1.880	1.899	1.890	1.895
-0.005	0.020	-0.005	0.010	-0.020	-0.010	0.029	2.695	1.895	1.890	1.885	1.904	1.895	1.890
-0.010	0.005	0.000	0.010	0.010	0.000	0.029	2.666	1.885	1.890	1.890	1.904	1.904	1.899
-0.005	0.000	-0.005	0.010	0.010	-0.015	0.029	2.671	1.890	1.885	1.885	1.904	1.899	1.899
-0.010	0.005	-0.005	0.015	-0.054	-0.010	0.029	2.671	1.885	1.885	1.885	1.899	1.880	1.890
0.000	0.005	0.005	0.005	-0.098	0.000	0.034	2.686	1.885	1.885	1.885	1.899	1.875	1.890
0.000	0.005	-0.005	0.005	-0.054	-0.005	0.029	2.666	1.885	1.885	1.885	1.904	1.895	1.890
-0.005	-0.015	0.000	0.000	0.005	0.020	0.029	2.788	1.895	1.880	1.880	1.904	1.914	1.904
0.000	-0.015	0.005	-0.005	0.068	0.024	0.034	2.661	1.890	1.880	1.885	1.899	1.924	1.909
0.000	-0.010	0.005	-0.005	0.039	0.020	0.034	2.642	1.885	1.880	1.880	1.899	1.904	1.909
0.010	0.000	0.000	-0.005	0.059	0.015	0.034	2.734	1.895	1.890	1.880	1.899	1.909	1.904
0.005	-0.010	0.005	-0.005	0.044	0.000	0.034	2.637	1.885	1.885	1.880	1.899	1.899	1.899
0.005	-0.005	0.005	-0.005	0.024	0.005	0.034	2.739	1.890	1.885	1.880	1.899	1.895	1.899
0.005	-0.020	0.005	0.000	0.024	-0.010	0.029	2.725	1.895	1.885	1.880	1.899	1.895	1.895
0.005	-0.020	0.000	0.000	0.034	0.005	0.029	2.632	1.890	1.885	1.880	1.904	1.899	1.899
0.005	0.000	0.000	0.005	0.020	0.005	0.034	2.666	1.885	1.890	1.880	1.904	1.895	1.895
0.000	0.000	-0.005	0.005	0.000	-0.020	0.034	2.642	1.880	1.885	1.885	1.899	1.890	1.885
-0.005	0.005	0.000	0.005	-0.010	0.005	0.034	2.695	1.880	1.885	1.885	1.899	1.890	1.895
-0.005	0.005	0.000	0.000	-0.005	-0.010	0.029	2.749	1.890	1.885	1.885	1.904	1.895	1.890
-0.005	0.000	-0.005	0.000	0.000	-0.015	0.029	2.666	1.890	1.885	1.885	1.899	1.895	1.890
-0.010	0.005	0.000	0.015	0.005	0.010	0.034	2.646	1.885	1.885	1.885	1.904	1.899	1.899
-0.005	0.015	0.000	0.015	0.005	0.000	0.034	2.729	1.890	1.890	1.885	1.904	1.899	1.899
0.000	0.000	0.005	0.000	0.005	-0.010	0.034	2.651	1.890	1.885	1.885	1.899	1.899	1.890
0.000	0.005	0.005	-0.005	-0.005	0.000	0.034	2.705	1.890	1.885	1.885	1.899	1.895	1.895
0.000	0.000	0.005	-0.005	0.000	-0.005	0.034	2.700	1.890	1.885	1.880	1.899	1.895	1.895
0.015	-0.005	0.005	-0.005	0.010	0.000	0.034	2.695	1.895	1.885	1.880	1.899	1.899	1.895
0.005	-0.015	0.000	-0.005	0.000	0.000	0.029	2.671	1.885	1.880	1.880	1.899	1.895	1.895
0.000	-0.015	0.005	0.000	0.000	-0.015	0.034	2.671	1.885	1.880	1.880	1.899	1.895	1.890
0.010	-0.015	0.000	0.000	0.000	-0.020	0.034	2.676	1.885	1.880	1.880	1.899	1.895	1.885
0.005	-0.010	0.000	0.010	-0.015	0.005	0.029	2.681	1.885	1.880	1.880	1.904	1.895	1.895
0.000	-0.005	0.005	0.005	-0.024	0.000	0.034	2.661	1.880	1.880	1.880	1.899	1.890	1.895
-0.005	0.000	0.000	0.005	-0.029	-0.015	0.029	2.690	1.885	1.880	1.880	1.899	1.890	1.890
0.000	0.010	-0.005	0.000	-0.034	0.005	0.029	2.690	1.890	1.885	1.880	1.899	1.890	1.895
-0.010	0.000	0.000	0.005	-0.010	0.000	0.034	2.700	1.885	1.885	1.880	1.899	1.899	1.890
0.000	0.010	-0.005	0.005	-0.020	0.000	0.029	2.700	1.890	1.890	1.880	1.899	1.895	1.890
-0.005	0.020	-0.005	0.005	-0.005	0.005	0.029	2.700	1.890	1.890	1.880	1.899	1.899	1.895
0.000	0.039	-0.005	0.005	0.024	0.010	0.029	2.700	1.895	1.895	1.890	1.904	1.909	1.904
0.000	0.029	-0.005	0.010	0.015	0.010	0.034	2.681	1.890	1.895	1.890	1.904	1.904	1.899
0.000	0.024	0.000	0.010	-0.010	0.015	0.029	2.690	1.895	1.890	1.890	1.904	1.895	1.899
0.000	0.024	0.005	0.000	-0.020	0.015	0.029	2.681	1.895	1.890	1.890	1.904	1.895	1.899
0.010	0.010	0.005	0.005	0.005	0.010	0.029	2.671	1.890	1.885	1.890	1.904	1.899	1.899
0.010	0.000	0.000	0.010	0.005	-0.005	0.029	2.690	1.885	1.885	1.885	1.904	1.899	1.895
0.005	-0.005	0.005	0.000	-0.020	0.005	0.029	2.695	1.890	1.885	1.885	1.899	1.895	1.895
0.015	-0.005	0.005	-0.015	0.010	0.005	0.029	2.676	1.890	1.885	1.880	1.899	1.904	1.895
0.010	-0.010	0.005	-0.015	0.039	0.005	0.034	2.676	1.885	1.880	1.880	1.899	1.904	1.899
0.005	-0.005	0.005	-0.010	0.010	-0.020	0.029	2.686	1.885	1.885	1.880	1.899	1.895	1.895
0.000	-0.005	0.000	0.029	-0.005	0.000	0.029	2.656	1.880	1.880	1.880	1.909	1.895	1.899
0.000	-0.005	-0.005	0.049	-0.015	0.005	0.029	2.769	1.895	1.885	1.880	1.909	1.895	1.899
0.005	0.005	0.000	0.005	0.010	0.005	0.034	2.646	1.890	1.890	1.885	1.899	1.904	1.899
-0.005	0.005	0.000	-0.020	0.073	0.005	0.034	2.637	1.885	1.885	1.880	1.890	1.914	1.904
0.005	0.005	0.000	-0.068	0.044	-0.005	0.034	2.637	1.880	1.885	1.880	1.880	1.895	1.899
0.005	0.010	0.000	-0.078	-0.010	0.005	0.034	2.642	1.880	1.885	1.880	1.880	1.875	1.890
-0.010	0.010	0.000	-0.068	-0.005	0.010	0.034	2.749	1.885	1.885	1.880	1.890	1.880	1.890
-0.010	0.005	-0.005	-0.054	0.015	0.005	0.034	2.651	1.880	1.880	1.880	1.899	1.890	1.890
-0.005	0.005	0.000	-0.010	0.015	0.005	0.034	2.744	1.890	1.885	1.880	1.909	1.895	1.890
0.000	0.005	0.000	0.029	0.005	0.005	0.034	2.671	1.890	1.885	1.885	1.919	1.899	1.890
-0.005	-0.005	0.005	0.039	0.010	-0.010	0.034	2.651	1.880	1.885	1.885	1.919	1.899	1.890
0.000	-0.024	0.000	0.039	-0.005	-0.005	0.029	2.666	1.880	1.875	1.880	1.909	1.899	1.895
-0.005	-0.005	0.005	0.039	-0.010	0.010	0.034	2.651	1.890	1.880	1.880	1.914	1.899	1.895
0.015	0.000	0.005	0.034	-0.010	-0.015	0.034	2.666	1.914	1.890	1.880	1.904	1.899	1.890
0.005	-0.010	0.000	0.015	-0.015	-0.005	0.029	2.637	1.895	1.885	1.880	1.899	1.895	1.895
0.010	-0.024	0.005	0.034	-0.005	0.005	0.034	2.715	1.895	1.885	1.885	1.904	1.899	1.899
0.005	-0.015	0.005	0.039	-0.005	-0.015	0.034	2.749	1.904	1.890	1.885	1.904	1.899	1.895
0.005	-0.010	0.005	0.024	-0.010	0.005	0.029	2.686	1.895	1.895	1.885	1.899	1.899	1.899
0.000	-0.005	0.005	0.010	0.000	-0.020	0.029	2.666	1.890	1.890	1.890	1.895	1.899	1.895
-0.005	0.010	0.000	0.000	0.005	0.005	0.034	2.695	1.890	1.895	1.890	1.899	1.899	1.899
0.000	0.005	0.000	0.005	0.000	0.005	0.029	2.700	1.895	1.895	1.890	1.904	1.895	1.899
-0.005	0.000	-0.005	0.015	-0.005	0.005	0.029	2.705	1.895	1.890	1.890	1.909	1.899	1.899
-0.010	0.000	0.000	0.015	-0.005	0.000	0.029	2.681	1.895	1.895	1.890	1.904	1.899	1.899
-0.010	0.005	0.000	0.000	-0.005	0.000	0.034	2.695	1.895	1.890	1.890	1.904	1.899	1.895
0.010	0.000	-0.005	0.015	0.000	0.010	0.029	2.690	1.895	1.890	1.890	1.909	1.899	1.904
0.000	0.005	-0.005	0.020	0.000	0.005	0.029	2.671	1.895	1.890	1.890	1.909	1.904	1.899
0.005	-0.005	0.000	0.024	0.000	0.000	0.029	2.700	1.895	1.890	1.890	1.914	1.904	1.899
0.005	-0.005	0.000	0.015	0.000	0.005	0.034	2.681	1.890	1.890	1.890	1.904	1.904	1.899
0.000	-0.010	0.005	0.005	0.000	0.015	0.034	2.700	1.895	1.885	1.890	1.904	1.904	1.904
0.005	-0.005	0.005	-0.020	0.005	0.005	0.029	2.676	1.890	1.890	1.890	1.899	1.899	1.899
0.005	-0.005	0.010	-0.005	-0.005	0.005	0.029	2.695	1.890	1.885	1.890	1.904	1.899	1.895
0.010	-0.010	0.005	0.000	0.000	0.000	0.029	2.695	1.890	1.890	1.890	1.904	1.899	1.899
0.010	-0.015	0.005	-0.005	0.000	-0.005	0.034	2.690	1.890	1.885	1.885	1.899	1.899	1.895
0.010	-0.005	0.000	-0.020	-0.005	0.000	0.029	2.676	1.885	1.885	1.885	1.899	1.895	1.899
0.005	0.000	0.005	-0.029	-0.010	-0.005	0.034	2.686	1.890	1.890	1.885	1.895	1.895	1.895
0.000	0.005	0.000	-0.024	-0.005	0.000	0.029	2.690	1.890	1.890	1.885	1.899	1.895	1.895
-0.005	0.005	0.000	-0.029	0.000	-0.029	0.034	2.661	1.880	1.885	1.885	1.899	1.895	1.890
-0.005	0.015	-0.005	-0.034	0.005	-0.015	0.034	2.681	1.880	1.890	1.885	1.895	1.899	1.895
-0.010	0.015	-0.005	-0.029	0.000	-0.015	0.029	2.671	1.885	1.885	1.885	1.904	1.895	1.890
-0.015	0.010	0.005	-0.015	0.000	0.005	0.029	2.695	1.885	1.885	1.885	1.904	1.899	1.899
-0.010	0.015	0.000	-0.005	0.010	0.010	0.034	2.671	1.885	1.890	1.885	1.909	1.904	1.904
-0.005	0.039	-0.005	0.000	0.015	-0.015	0.029	2.788	1.904	1.895	1.885	1.909	1.904	1.899
0.000	0.024	0.000	0.010	0.005	-0.010	0.029	2.661	1.895	1.895	1.890	1.909	1.904	1.904
0.000	0.020	0.000	0.020	0.010	0.024	0.034	2.646	1.890	1.890	1.890	1.914	1.904	1.909
-0.005	-0.005	0.005	0.020	0.005	0.015	0.029	2.627	1.880	1.880	1.885	1.909	1.904	1.904
0.000	-0.005	0.000	0.020	0.005	0.005	0.034	2.632	1.880	1.880	1.885	1.904	1.904	1.904
0.005	-0.010	0.005	0.024	0.005	0.015	0.034	2.729	1.880	1.880	1.880	1.909	1.904	1.904
0.005	-0.005	0.005	0.024	0.005	0.010	0.034	2.622	1.875	1.875	1.880	1.904	1.899	1.904
0.005	-0.010	0.000	0.010	0.005	0.015	0.034	2.734	1.885	1.875	1.875	1.899	1.899	1.899
0.005	-0.005	0.000	0.005	0.000	0.015	0.034	2.676	1.885	1.880	1.875	1.895	1.895	1.899
0.010	-0.005	0.000	0.000	0.000	0.005	0.029	2.646	1.885	1.880	1.875	1.895	1.895	1.895
0.005	0.005	0.005	0.010	0.000	-0.010	0.034	2.666	1.885	1.885	1.880	1.899	1.890	1.890
-0.005	0.015	0.000	0.000	-0.010	-0.029	0.029	2.710	1.885	1.885	1.880	1.895	1.890	1.880
0.000	0.039	-0.005	-0.010	-0.010	-0.010	0.034	2.778	1.904	1.899	1.880	1.890	1.890	1.890
-0.010	0.020	0.000	-0.029	-0.005	0.000	0.029	2.642	1.890	1.890	1.885	1.890	1.890	1.895
-0.005	0.029	-0.005	-0.024	0.000	0.010	0.029	2.734	1.899	1.890	1.885	1.895	1.890	1.895
-0.010	0.029	-0.005	-0.024	-0.005	0.010	0.034	2.744	1.899	1.895	1.890	1.895	1.890	1.895
-0.005	0.024	0.000	-0.024	-0.005	0.005	0.034	2.690	1.899	1.895	1.890	1.899	1.890	1.890
0.005	0.020	0.000	-0.024	-0.005	0.015	0.034	2.690	1.895	1.895	1.890	1.899	1.895	1.895
0.005	0.005	0.000	-0.020	0.000	-0.005	0.034	2.690	1.890	1.890	1.890	1.909	1.899	1.890
0.000	0.005	0.000	0.005	0.015	0.000	0.034	2.681	1.895	1.885	1.890	1.914	1.904	1.895
0.000	-0.005	0.005	0.029	0.015	0.000	0.029	2.695	1.890	1.885	1.890	1.924	1.909	1.899
0.015	-0.034	0.005	0.044	0.010	0.010	0.034	2.671	1.890	1.875	1.885	1.919	1.909	1.904
0.010	-0.029	0.005	0.024	-0.005	-0.005	0.034	2.690	1.890	1.885	1.885	1.904	1.899	1.899
0.010	-0.024	0.005	-0.015	-0.015	0.000	0.029	2.671	1.885	1.880	1.880	1.895	1.895	1.899
0.005	-0.024	0.005	-0.034	-0.024	-0.005	0.029	2.671	1.885	1.880	1.880	1.890	1.890	1.895
0.015	-0.015	0.000	-0.049	-0.039	-0.010	0.029	2.690	1.890	1.890	1.880	1.885	1.885	1.890
0.005	-0.010	0.000	-0.054	-0.034	-0.020	0.029	2.690	1.885	1.885	1.880	1.890	1.880	1.885
0.000	-0.005	0.005	-0.044	-0.024	-0.029	0.034	2.700	1.885	1.890	1.885	1.895	1.890	1.885
-0.005	0.000	0.005	-0.024	-0.024	-0.034	0.034	2.686	1.885	1.885	1.885	1.904	1.890	1.885
-0.005	0.005	0.000	-0.010	-0.024	-0.020	0.034	2.695	1.885	1.890	1.885	1.909	1.895	1.890
-0.005	0.005	-0.005	0.015	-0.024	-0.005	0.034	2.676	1.880	1.890	1.885	1.914	1.899	1.899
-0.010	0.010	0.000	0.044	-0.015	-0.015	0.034	2.695	1.885	1.890	1.890	1.919	1.904	1.895
-0.005	0.015	-0.005	0.039	0.020	0.020	0.029	2.690	1.890	1.890	1.890	1.914	1.924	1.914
-0.005	0.015	0.000	0.039	0.054	0.015	0.029	2.671	1.890	1.890	1.890	1.914	1.929	1.914
0.005	0.020	0.000	0.029	0.073	0.015	0.034	2.676	1.895	1.895	1.890	1.909	1.929	1.914
-0.010	0.015	-0.005	0.000	0.078	0.010	0.029	2.666	1.890	1.890	1.890	1.899	1.919	1.919
0.000	0.010	0.000	-0.020	0.073	0.005	0.034	2.676	1.890	1.890	1.885	1.895	1.904	1.914
0.000	0.010	-0.005	-0.039	0.024	0.015	0.029	2.671	1.890	1.885	1.885	1.890	1.885	1.909
0.010	0.005	0.005	-0.049	-0.005	0.010	0.029	2.690	1.890	1.885	1.880	1.890	1.880	1.899
0.000	0.000	0.005	-0.044	-0.010	0.015	0.029	2.651	1.885	1.890	1.885	1.895	1.880	1.890
0.000	0.005	0.010	-0.049	0.000	0.020	0.029	2.808	1.899	1.890	1.885	1.895	1.890	1.895
