0.000	0.000	0.000	0.005	0.005	-0.010	0.039	2.681	4.414	2.959	2.622	2.329	2.295	2.280
0.010	-0.005	0.000	0.005	0.010	-0.044	0.039	2.676	3.823	3.213	2.778	2.456	2.334	2.280
0.005	-0.010	0.000	0.000	0.005	-0.010	0.039	2.676	3.389	3.271	2.910	2.573	2.393	2.319
-0.005	-0.005	-0.005	0.000	0.015	0.010	0.034	2.676	3.062	3.223	2.993	2.695	2.471	2.358
0.010	0.000	-0.005	0.000	0.000	0.015	0.034	2.676	2.837	3.120	3.032	2.788	2.549	2.412
0.005	0.000	0.000	0.005	-0.005	0.010	0.034	2.676	2.671	3.003	3.027	2.856	2.627	2.461
-0.005	0.005	0.005	0.000	-0.015	0.010	0.039	2.681	2.563	2.886	2.988	2.900	2.695	2.524
0.005	0.005	0.000	0.000	-0.005	0.015	0.039	2.681	2.485	2.778	2.930	2.915	2.754	2.588
0.000	0.005	-0.005	0.005	0.005	0.000	0.034	2.686	2.437	2.686	2.866	2.905	2.798	2.642
0.000	0.000	0.005	0.000	0.010	0.015	0.034	2.681	2.407	2.612	2.803	2.886	2.822	2.695
0.000	0.005	0.000	0.000	0.000	0.005	0.039	2.690	2.397	2.559	2.734	2.852	2.827	2.734
0.005	0.005	0.000	0.000	0.005	-0.010	0.039	2.681	2.393	2.520	2.681	2.808	2.827	2.754
0.000	-0.005	0.000	0.000	0.005	0.010	0.034	2.690	2.393	2.485	2.627	2.773	2.817	2.778
0.000	0.000	0.000	0.005	0.000	0.010	0.039	2.676	2.402	2.476	2.588	2.729	2.798	2.788
-0.005	0.005	0.000	0.000	-0.005	-0.024	0.039	2.690	2.402	2.461	2.559	2.690	2.769	2.778
-0.005	0.000	0.005	0.000	-0.005	-0.010	0.034	2.690	2.412	2.451	2.529	2.651	2.739	2.773
0.000	0.000	0.000	-0.005	-0.005	0.000	0.034	2.671	2.407	2.441	2.505	2.617	2.705	2.759
0.005	0.010	0.005	-0.005	-0.005	-0.034	0.039	2.690	2.412	2.441	2.485	2.588	2.671	2.725
-0.005	-0.005	0.010	0.005	0.010	-0.005	0.039	2.690	2.402	2.427	2.471	2.559	2.642	2.710
-0.005	-0.005	0.005	0.000	0.005	0.005	0.034	2.681	2.397	2.417	2.451	2.534	2.607	2.686
0.005	-0.010	-0.005	0.005	0.000	0.005	0.034	2.681	2.393	2.407	2.437	2.510	2.573	2.656
0.000	0.000	0.000	0.005	-0.010	0.000	0.034	2.666	2.378	2.402	2.422	2.490	2.544	2.622
-0.005	0.000	0.005	0.005	-0.005	0.005	0.034	2.676	2.368	2.388	2.412	2.466	2.520	2.598
-0.005	0.005	-0.005	-0.005	0.015	0.010	0.034	2.686	2.363	2.378	2.397	2.456	2.505	2.568
-0.010	0.010	0.000	0.000	0.029	-0.029	0.039	2.686	2.354	2.378	2.393	2.441	2.490	2.534
0.000	0.010	0.005	-0.005	0.000	-0.015	0.039	2.686	2.354	2.368	2.388	2.432	2.461	2.520
0.000	-0.005	0.005	0.005	0.005	0.010	0.039	2.695	2.349	2.363	2.378	2.422	2.456	2.505
0.005	0.000	0.005	0.005	0.015	-0.010	0.039	2.676	2.349	2.368	2.378	2.417	2.446	2.485
0.000	0.005	0.000	0.010	0.005	-0.005	0.039	2.681	2.344	2.368	2.378	2.417	2.437	2.480
0.000	-0.005	0.005	0.005	-0.005	0.015	0.034	2.666	2.344	2.358	2.373	2.412	2.427	2.466
0.005	-0.005	0.005	0.005	-0.005	0.005	0.034	2.676	2.344	2.358	2.373	2.407	2.422	2.461
0.000	0.005	-0.005	0.005	-0.010	0.015	0.039	2.686	2.344	2.363	2.373	2.402	2.417	2.451
0.000	0.015	0.005	0.000	-0.010	-0.005	0.034	2.686	2.339	2.358	2.373	2.402	2.412	2.437
0.000	0.000	0.000	-0.005	-0.005	-0.024	0.034	2.681	2.329	2.349	2.363	2.393	2.407	2.422
0.000	0.000	0.000	-0.005	-0.005	0.000	0.034	2.676	2.324	2.344	2.358	2.388	2.397	2.422
0.005	-0.015	0.000	-0.010	-0.010	-0.010	0.034	2.686	2.314	2.329	2.349	2.383	2.393	2.412
0.015	-0.005	0.005	0.000	0.005	0.010	0.039	2.666	2.295	2.324	2.339	2.373	2.393	2.407
0.000	-0.005	0.005	0.000	-0.005	0.020	0.039	2.690	2.285	2.310	2.329	2.368	2.373	2.402
0.000	-0.010	0.005	0.005	0.005	0.000	0.039	2.676	2.275	2.295	2.319	2.358	2.373	2.383
0.000	-0.015	0.000	0.010	0.010	0.015	0.039	2.661	2.266	2.285	2.305	2.344	2.358	2.383
0.000	0.015	-0.005	0.005	0.010	-0.020	0.039	2.671	2.256	2.280	2.295	2.329	2.349	2.363
0.015	0.010	0.005	0.000	0.005	0.005	0.034	2.671	2.256	2.275	2.290	2.324	2.339	2.363
0.000	0.010	-0.005	0.005	-0.005	0.005	0.039	2.681	2.251	2.266	2.280	2.319	2.329	2.354
0.000	0.000	0.000	0.015	-0.005	0.005	0.039	2.686	2.251	2.261	2.275	2.314	2.324	2.349
-0.005	0.005	0.000	0.015	-0.005	0.005	0.039	2.681	2.251	2.261	2.275	2.314	2.324	2.344
0.005	0.005	0.005	0.010	0.000	0.005	0.039	2.690	2.256	2.266	2.271	2.310	2.324	2.339
0.010	0.000	0.005	0.005	0.010	0.015	0.039	2.690	2.256	2.261	2.271	2.305	2.319	2.339
0.005	0.000	0.005	0.005	0.000	0.015	0.034	2.700	2.256	2.266	2.275	2.305	2.319	2.334
-0.010	0.005	0.000	0.005	0.005	0.000	0.039	2.671	2.246	2.266	2.271	2.300	2.314	2.329
0.005	0.005	0.005	0.000	0.010	0.010	0.039	2.690	2.246	2.266	2.271	2.295	2.310	2.324
-0.005	0.005	0.000	-0.010	0.005	-0.024	0.039	2.686	2.236	2.256	2.266	2.295	2.300	2.310
0.000	0.005	-0.005	0.000	0.000	0.005	0.039	2.671	2.227	2.251	2.261	2.290	2.295	2.314
0.000	-0.005	0.000	0.000	0.000	0.005	0.034	2.686	2.217	2.236	2.251	2.285	2.290	2.310
0.005	0.005	0.000	0.000	-0.005	0.010	0.034	2.690	2.212	2.227	2.241	2.275	2.280	2.300
0.000	-0.005	0.000	0.000	0.000	0.005	0.039	2.681	2.197	2.217	2.231	2.261	2.271	2.290
-0.005	0.000	0.000	0.000	0.000	0.005	0.039	2.690	2.187	2.207	2.222	2.256	2.266	2.280
0.000	0.005	-0.005	0.005	0.005	-0.020	0.034	2.686	2.183	2.197	2.212	2.246	2.256	2.266
0.000	-0.005	0.005	0.005	0.000	-0.005	0.039	2.686	2.178	2.187	2.202	2.236	2.246	2.266
0.005	-0.005	0.000	0.005	0.000	0.000	0.034	2.686	2.173	2.187	2.197	2.231	2.246	2.261
-0.005	0.010	0.005	0.005	0.010	0.015	0.034	2.686	2.173	2.183	2.192	2.227	2.241	2.261
0.000	0.005	0.000	0.005	0.005	0.010	0.039	2.690	2.178	2.183	2.192	2.222	2.231	2.251
0.005	0.000	0.005	0.005	0.000	0.005	0.039	2.671	2.178	2.187	2.192	2.222	2.231	2.246
0.005	0.005	0.005	0.000	0.000	-0.005	0.039	2.690	2.173	2.183	2.192	2.222	2.231	2.241
0.000	0.000	0.005	-0.005	0.000	0.000	0.034	2.686	2.178	2.187	2.192	2.217	2.227	2.241
-0.010	0.000	0.000	0.000	0.000	0.010	0.034	2.686	2.173	2.187	2.192	2.222	2.227	2.241
0.000	0.000	0.005	0.000	0.000	0.015	0.039	2.681	2.173	2.187	2.192	2.217	2.227	2.241
0.005	0.005	0.005	0.000	0.005	0.029	0.039	2.686	2.168	2.183	2.187	2.217	2.222	2.241
0.010	-0.005	-0.005	0.000	0.000	0.015	0.039	2.666	2.163	2.178	2.187	2.212	2.222	2.231
-0.015	0.000	0.000	-0.005	0.005	-0.015	0.034	2.686	2.148	2.168	2.183	2.207	2.212	2.217
-0.005	0.000	0.005	-0.005	0.015	0.015	0.039	2.686	2.144	2.158	2.173	2.202	2.207	2.222
0.000	0.005	-0.005	-0.005	0.020	0.000	0.034	2.666	2.134	2.153	2.163	2.192	2.202	2.212
0.000	0.005	0.000	0.000	0.005	-0.020	0.039	2.686	2.129	2.144	2.153	2.187	2.187	2.197
0.000	0.005	0.005	-0.005	-0.005	-0.020	0.039	2.690	2.124	2.134	2.148	2.178	2.183	2.187
0.005	0.000	0.000	0.000	-0.010	-0.039	0.039	2.686	2.114	2.124	2.139	2.173	2.173	2.183
0.005	0.000	0.005	0.000	-0.005	-0.010	0.034	2.686	2.109	2.119	2.134	2.168	2.173	2.187
0.000	0.000	0.000	0.005	-0.005	-0.005	0.039	2.686	2.109	2.119	2.129	2.158	2.168	2.183
-0.005	0.000	0.005	0.005	0.005	0.005	0.039	2.695	2.109	2.119	2.124	2.153	2.163	2.178
0.005	0.000	0.000	0.000	0.015	0.010	0.039	2.690	2.119	2.119	2.124	2.153	2.163	2.183
0.000	0.000	0.000	-0.005	0.000	0.000	0.039	2.690	2.119	2.119	2.124	2.153	2.158	2.173
0.000	0.005	0.000	0.000	-0.005	0.015	0.039	2.686	2.119	2.124	2.124	2.153	2.158	2.178
0.005	0.000	0.000	0.000	-0.010	0.024	0.039	2.700	2.129	2.129	2.129	2.153	2.158	2.173
0.005	0.010	0.005	0.000	-0.020	-0.005	0.039	2.686	2.124	2.134	2.134	2.153	2.153	2.163
-0.005	0.000	0.005	0.000	-0.020	0.010	0.034	2.676	2.109	2.129	2.134	2.158	2.158	2.168
0.000	0.010	0.005	0.005	0.010	0.000	0.034	2.690	2.109	2.129	2.134	2.158	2.163	2.168
-0.005	-0.010	0.000	0.000	0.029	0.020	0.034	2.686	2.100	2.114	2.124	2.153	2.163	2.168
-0.005	0.000	0.000	0.005	0.024	0.005	0.034	2.690	2.100	2.114	2.119	2.148	2.153	2.158
0.005	-0.015	0.000	0.005	0.015	0.000	0.034	2.681	2.090	2.100	2.109	2.139	2.148	2.153
0.010	-0.010	0.000	0.005	0.020	0.000	0.034	2.671	2.085	2.095	2.104	2.129	2.139	2.148
0.005	0.005	0.005	0.000	0.005	-0.015	0.034	2.686	2.080	2.090	2.100	2.129	2.129	2.134
0.000	0.005	0.005	0.010	-0.015	0.005	0.039	2.676	2.065	2.085	2.090	2.119	2.119	2.134
0.000	0.010	0.000	0.015	-0.029	0.005	0.034	2.671	2.061	2.075	2.080	2.114	2.109	2.124
0.000	0.010	-0.005	0.010	-0.024	-0.015	0.034	2.686	2.061	2.065	2.075	2.109	2.109	2.114
0.000	0.010	0.005	0.015	-0.005	-0.015	0.039	2.690	2.061	2.065	2.075	2.104	2.109	2.114
0.000	0.005	-0.005	0.005	0.010	0.000	0.034	2.681	2.061	2.061	2.065	2.100	2.109	2.119
0.000	0.000	0.000	0.000	0.005	0.010	0.034	2.681	2.065	2.065	2.070	2.095	2.109	2.119
0.000	0.005	0.000	-0.005	0.010	0.015	0.034	2.695	2.070	2.070	2.070	2.095	2.109	2.119
0.000	0.000	0.005	0.000	0.024	0.005	0.039	2.690	2.075	2.075	2.075	2.100	2.109	2.114
0.000	-0.005	0.000	0.000	0.020	-0.015	0.039	2.681	2.075	2.075	2.075	2.100	2.104	2.114
-0.005	0.000	-0.005	-0.010	-0.015	-0.005	0.034	2.695	2.075	2.080	2.080	2.100	2.100	2.114
0.010	0.000	0.000	-0.010	-0.010	0.000	0.034	2.676	2.075	2.080	2.080	2.100	2.100	2.114
-0.005	0.000	0.000	-0.005	0.000	0.005	0.039	2.681	2.065	2.075	2.080	2.100	2.100	2.109
-0.005	-0.005	0.005	-0.005	-0.015	0.005	0.039	2.686	2.065	2.070	2.080	2.100	2.095	2.104
0.000	-0.005	0.000	0.000	-0.010	0.005	0.039	2.671	2.056	2.065	2.070	2.095	2.095	2.100
0.000	0.000	0.005	0.005	-0.005	0.000	0.039	2.671	2.046	2.056	2.065	2.095	2.095	2.100
-0.005	0.005	0.005	0.005	0.005	0.010	0.034	2.690	2.036	2.046	2.056	2.085	2.090	2.095
-0.005	0.000	0.000	0.005	0.010	0.005	0.034	2.666	2.026	2.041	2.046	2.080	2.080	2.090
0.005	0.005	0.005	0.010	0.005	-0.005	0.034	2.690	2.026	2.036	2.046	2.070	2.075	2.080
0.005	0.000	0.000	0.010	0.000	0.010	0.039	2.671	2.017	2.026	2.036	2.065	2.070	2.080
-0.005	-0.005	0.000	0.000	-0.005	0.005	0.034	2.676	2.017	2.021	2.026	2.061	2.065	2.070
0.005	0.000	0.005	0.000	-0.005	0.000	0.034	2.690	2.021	2.021	2.026	2.056	2.061	2.065
0.000	0.005	0.005	0.005	0.000	-0.024	0.039	2.671	2.021	2.026	2.031	2.056	2.061	2.061
0.005	0.005	0.000	-0.005	0.010	0.010	0.034	2.690	2.026	2.026	2.026	2.056	2.065	2.070
0.000	-0.005	0.010	-0.005	0.015	0.005	0.039	2.695	2.036	2.031	2.031	2.056	2.065	2.070
0.005	0.000	0.005	-0.005	0.015	0.010	0.034	2.686	2.041	2.036	2.036	2.056	2.061	2.070
-0.005	0.005	0.000	-0.005	0.010	0.015	0.039	2.686	2.041	2.046	2.036	2.056	2.061	2.070
0.000	-0.005	0.000	-0.005	0.000	-0.010	0.034	2.681	2.036	2.041	2.041	2.061	2.056	2.065
0.005	-0.005	0.000	0.000	-0.005	-0.005	0.034	2.676	2.036	2.041	2.041	2.065	2.056	2.065
0.000	0.000	0.000	0.010	-0.010	-0.015	0.034	2.646	2.026	2.041	2.041	2.065	2.056	2.061
-0.005	-0.005	0.000	0.005	-0.010	-0.005	0.034	2.651	2.017	2.026	2.036	2.061	2.056	2.065
0.000	0.005	0.000	0.010	-0.020	-0.010	0.034	2.769	2.021	2.026	2.031	2.056	2.051	2.056
0.000	0.005	0.000	0.015	-0.005	0.010	0.039	2.651	2.012	2.021	2.026	2.051	2.056	2.061
0.005	-0.005	0.010	0.010	0.000	-0.005	0.039	2.681	2.012	2.012	2.021	2.046	2.046	2.046
0.034	0.000	0.005	0.005	0.010	0.010	0.039	2.656	2.007	2.012	2.012	2.036	2.041	2.046
0.020	-0.005	0.000	0.000	0.000	-0.005	0.039	2.656	1.992	1.997	2.007	2.031	2.031	2.041
0.000	0.000	-0.005	0.000	-0.010	-0.005	0.039	2.661	1.982	1.992	2.002	2.026	2.026	2.031
-0.010	0.005	0.000	0.005	0.005	-0.005	0.039	2.646	1.978	1.987	1.997	2.026	2.026	2.031
-0.020	-0.005	0.000	0.000	0.015	0.005	0.039	2.671	1.982	1.982	1.992	2.021	2.026	2.031
-0.034	-0.005	0.000	0.000	0.005	0.010	0.034	2.837	1.987	1.987	1.992	2.021	2.021	2.036
-0.029	-0.010	0.000	0.000	0.015	0.015	0.034	2.646	1.992	1.987	1.992	2.021	2.026	2.036
-0.015	-0.005	0.005	0.005	0.034	0.020	0.034	2.656	2.002	1.997	1.997	2.021	2.031	2.041
-0.005	0.020	0.005	0.010	0.020	-0.010	0.039	2.666	2.007	2.017	2.007	2.026	2.026	2.031
-0.005	0.015	0.000	0.000	0.015	-0.010	0.039	2.671	2.007	2.012	2.007	2.026	2.026	2.031
0.010	0.015	0.000	-0.005	0.010	0.015	0.034	2.671	2.012	2.017	2.012	2.026	2.026	2.036
0.005	0.005	0.000	-0.005	0.005	0.005	0.034	2.681	2.012	2.012	2.012	2.026	2.026	2.026
0.005	0.000	0.000	-0.005	-0.015	-0.029	0.039	2.666	2.002	2.012	2.007	2.026	2.017	2.017
0.020	0.000	0.000	-0.005	-0.024	0.015	0.039	2.676	1.997	2.002	2.007	2.021	2.017	2.026
0.020	0.000	0.000	0.000	-0.015	0.015	0.039	2.671	1.987	1.992	2.002	2.021	2.017	2.021
0.020	0.005	0.005	-0.005	-0.010	-0.015	0.039	2.656	1.982	1.992	1.997	2.017	2.017	2.012
0.005	-0.005	0.000	-0.005	-0.005	0.005	0.034	2.661	1.968	1.978	1.987	2.012	2.017	2.012
0.000	0.000	0.000	-0.005	-0.005	-0.005	0.034	2.642	1.958	1.968	1.982	2.007	2.002	2.007
0.000	0.005	-0.005	0.000	0.000	-0.010	0.039	2.671	1.958	1.963	1.973	2.002	2.002	2.007
-0.005	0.000	0.005	0.000	0.015	0.010	0.039	2.651	1.963	1.963	1.968	1.997	2.002	2.012
-0.005	0.000	0.005	0.000	0.005	-0.005	0.039	2.837	1.982	1.963	1.968	1.992	1.992	1.997
0.000	0.010	0.000	0.000	0.015	0.015	0.039	2.642	1.973	1.973	1.968	1.992	1.997	2.007
-0.005	0.005	0.000	-0.005	0.005	-0.020	0.034	2.681	1.978	1.973	1.973	1.997	1.992	1.997
-0.005	-0.005	0.000	0.000	0.020	0.010	0.034	2.676	1.982	1.978	1.973	1.997	2.002	2.007
0.000	0.005	0.000	0.005	0.015	0.010	0.039	2.671	1.982	1.987	1.982	2.002	2.007	2.012
-0.005	0.000	-0.005	0.005	-0.005	0.024	0.039	2.671	1.982	1.987	1.982	2.002	1.997	2.012
0.005	0.000	0.000	0.005	-0.015	0.020	0.034	2.666	1.987	1.992	1.987	2.007	1.997	2.002
0.000	0.010	0.005	0.005	-0.015	0.015	0.034	2.671	1.987	1.992	1.992	2.007	1.997	2.002
0.010	0.000	0.005	0.000	-0.020	0.015	0.034	2.681	1.982	1.987	1.992	2.007	2.002	2.002
0.010	-0.005	0.005	0.010	-0.005	-0.005	0.039	2.646	1.973	1.982	1.987	2.007	2.002	1.997
0.000	-0.005	-0.005	0.000	0.000	-0.005	0.034	2.666	1.963	1.973	1.982	2.002	2.002	1.997
0.000	0.000	0.000	0.000	0.015	0.000	0.039	2.646	1.958	1.968	1.973	1.997	2.002	1.997
0.000	-0.005	-0.005	0.005	0.005	-0.005	0.039	2.651	1.948	1.958	1.968	1.992	1.992	1.997
0.005	0.000	0.000	0.005	0.005	0.000	0.039	2.720	1.963	1.953	1.963	1.987	1.987	1.987
0.005	-0.005	0.000	0.000	0.005	0.005	0.034	2.646	1.948	1.948	1.953	1.982	1.982	1.987
0.010	0.000	0.005	0.000	0.000	0.005	0.039	2.817	1.968	1.948	1.953	1.978	1.978	1.982
0.000	-0.005	0.000	0.000	0.000	-0.020	0.039	2.676	1.958	1.953	1.953	1.973	1.973	1.978
-0.010	0.005	0.000	0.000	-0.005	0.010	0.034	2.686	1.953	1.953	1.948	1.973	1.973	1.982
0.000	-0.005	0.000	0.000	-0.005	0.000	0.034	2.681	1.953	1.953	1.953	1.973	1.968	1.978
0.005	0.010	0.005	0.000	-0.020	0.000	0.039	2.666	1.963	1.963	1.958	1.978	1.973	1.982
0.000	0.005	-0.005	0.005	-0.005	0.015	0.039	2.666	1.963	1.963	1.958	1.978	1.978	1.982
-0.005	-0.005	-0.005	0.000	0.005	0.005	0.034	2.671	1.963	1.963	1.963	1.982	1.982	1.987
0.005	0.000	-0.005	0.005	0.020	0.005	0.034	2.671	1.973	1.968	1.968	1.987	1.987	1.982
0.005	-0.005	0.000	0.010	0.020	0.015	0.039	2.666	1.968	1.973	1.973	1.992	1.992	1.992
0.000	-0.005	-0.005	0.015	0.020	0.005	0.039	2.661	1.963	1.968	1.973	1.992	1.992	1.992
-0.005	0.005	0.000	0.010	0.005	0.005	0.034	2.646	1.958	1.968	1.968	1.992	1.987	1.987
0.005	-0.005	0.005	0.005	0.005	0.010	0.034	2.651	1.953	1.963	1.968	1.987	1.987	1.987
-0.005	0.010	0.005	-0.005	0.029	0.005	0.034	2.812	1.963	1.963	1.963	1.982	1.987	1.982
0.000	0.005	0.005	-0.005	0.000	-0.029	0.034	2.656	1.958	1.958	1.958	1.978	1.973	1.973
0.000	0.000	0.005	-0.005	0.000	-0.010	0.034	2.651	1.968	1.953	1.953	1.973	1.968	1.978
0.010	0.000	0.005	0.000	-0.020	-0.010	0.039	2.803	1.973	1.953	1.948	1.968	1.958	1.963
-0.005	0.005	0.000	-0.010	-0.034	-0.005	0.039	2.686	1.953	1.948	1.948	1.963	1.953	1.963
0.000	-0.005	0.005	-0.010	-0.015	0.000	0.034	2.676	1.948	1.948	1.943	1.963	1.958	1.963
0.005	0.000	0.005	0.000	-0.005	-0.005	0.039	2.671	1.943	1.948	1.948	1.963	1.958	1.958
-0.005	0.000	0.000	0.000	0.005	-0.024	0.034	2.676	1.938	1.943	1.943	1.963	1.963	1.958
0.000	0.000	0.000	0.000	0.020	-0.005	0.039	2.690	1.943	1.943	1.943	1.968	1.968	1.968
0.000	0.015	0.000	0.005	0.034	0.000	0.039	2.666	1.948	1.953	1.948	1.973	1.973	1.973
-0.005	-0.005	0.005	0.005	0.024	0.005	0.039	2.661	1.948	1.948	1.953	1.973	1.973	1.978
0.005	0.000	0.000	0.000	0.010	-0.015	0.034	2.666	1.953	1.953	1.953	1.973	1.968	1.973
0.000	0.005	0.005	0.000	0.010	0.020	0.039	2.651	1.953	1.958	1.958	1.978	1.973	1.982
0.005	0.000	0.000	0.000	0.000	-0.010	0.039	2.661	1.953	1.958	1.958	1.978	1.973	1.973
-0.005	0.005	0.000	0.005	-0.005	-0.005	0.039	2.793	1.963	1.963	1.963	1.978	1.973	1.973
0.000	-0.005	0.005	0.005	-0.005	0.010	0.039	2.666	1.953	1.953	1.958	1.978	1.973	1.978
0.000	0.005	0.000	0.005	-0.005	0.020	0.034	2.661	1.943	1.953	1.953	1.978	1.973	1.978
-0.005	-0.005	0.005	0.015	-0.010	0.024	0.034	2.681	1.938	1.943	1.948	1.973	1.968	1.973
0.000	0.005	0.000	0.005	-0.005	0.010	0.039	2.681	1.938	1.943	1.943	1.968	1.968	1.968
-0.005	-0.005	0.005	0.005	-0.010	0.000	0.039	2.681	1.929	1.934	1.938	1.963	1.958	1.963
0.005	0.000	0.005	0.000	0.005	-0.015	0.039	2.686	1.929	1.929	1.934	1.953	1.953	1.953
0.000	0.005	0.000	0.005	0.015	0.015	0.034	2.671	1.924	1.924	1.924	1.953	1.958	1.958
-0.005	0.000	0.000	-0.005	0.015	-0.005	0.034	2.676	1.919	1.919	1.924	1.948	1.948	1.948
0.000	0.010	0.005	-0.010	0.000	-0.005	0.039	2.661	1.924	1.924	1.924	1.943	1.943	1.948
-0.005	0.005	0.000	-0.010	-0.020	-0.015	0.034	2.671	1.924	1.924	1.919	1.943	1.938	1.943
0.005	-0.005	0.005	-0.005	0.010	0.010	0.034	2.646	1.929	1.929	1.929	1.948	1.953	1.953
-0.005	0.010	0.000	0.000	-0.015	0.010	0.039	2.642	1.929	1.934	1.929	1.953	1.943	1.953
0.000	0.000	0.000	0.010	-0.044	0.024	0.034	2.651	1.938	1.934	1.934	1.953	1.938	1.953
0.010	0.000	-0.005	0.010	-0.015	0.020	0.034	2.754	1.948	1.938	1.938	1.958	1.953	1.958
0.005	0.005	-0.005	0.010	0.010	0.020	0.034	2.646	1.948	1.948	1.943	1.963	1.963	1.963
-0.005	0.000	0.005	0.000	0.000	0.010	0.034	2.817	1.963	1.948	1.948	1.963	1.958	1.963
-0.005	0.005	0.005	-0.005	-0.005	0.000	0.034	2.852	1.973	1.958	1.948	1.963	1.958	1.953
0.000	0.005	0.000	-0.005	0.010	0.005	0.034	2.686	1.963	1.958	1.948	1.963	1.963	1.958
0.010	-0.005	0.005	0.000	0.005	-0.015	0.039	2.695	1.953	1.953	1.948	1.963	1.958	1.948
-0.005	-0.005	0.000	-0.005	0.005	0.010	0.034	2.681	1.934	1.943	1.943	1.958	1.953	1.958
-0.015	0.000	0.005	-0.005	0.000	0.005	0.034	2.681	1.924	1.938	1.943	1.958	1.953	1.948
-0.005	0.000	0.000	-0.005	-0.005	-0.005	0.034	2.681	1.924	1.929	1.934	1.953	1.948	1.948
0.005	0.000	0.000	-0.005	0.015	0.000	0.034	2.666	1.919	1.924	1.929	1.948	1.948	1.948
0.000	0.000	0.000	0.000	0.010	-0.020	0.034	2.681	1.919	1.914	1.919	1.948	1.943	1.938
-0.010	0.000	0.000	0.010	0.000	-0.010	0.034	2.661	1.914	1.914	1.919	1.948	1.938	1.938
0.000	0.010	0.000	0.015	0.005	-0.010	0.039	2.651	1.914	1.919	1.919	1.948	1.943	1.938
0.005	0.020	0.005	0.015	0.000	0.000	0.039	2.666	1.919	1.919	1.919	1.943	1.938	1.943
0.005	0.005	0.000	0.010	0.010	0.000	0.034	2.744	1.929	1.919	1.919	1.943	1.948	1.948
0.000	0.005	0.000	0.010	-0.010	0.005	0.034	2.661	1.934	1.924	1.924	1.948	1.943	1.948
0.005	0.005	-0.005	0.010	0.000	0.000	0.039	2.642	1.929	1.929	1.929	1.948	1.948	1.948
0.000	-0.005	-0.005	0.010	0.005	-0.015	0.039	2.676	1.934	1.934	1.934	1.948	1.948	1.948
0.005	-0.005	0.005	0.005	0.005	0.000	0.039	2.671	1.938	1.938	1.938	1.953	1.953	1.953
0.005	0.005	0.000	0.000	0.010	0.000	0.034	2.661	1.938	1.938	1.938	1.953	1.953	1.953
0.010	-0.015	0.000	0.000	0.015	0.000	0.034	2.632	1.929	1.934	1.934	1.948	1.953	1.958
0.010	-0.010	0.000	-0.005	0.000	0.005	0.039	2.676	1.929	1.929	1.934	1.953	1.948	1.953
0.000	-0.005	-0.005	0.000	0.000	0.000	0.034	2.808	1.924	1.924	1.929	1.943	1.943	1.948
0.005	0.005	-0.005	-0.005	-0.010	0.020	0.034	2.817	1.919	1.924	1.929	1.943	1.938	1.948
0.005	0.010	0.000	-0.005	-0.005	0.005	0.034	2.651	1.929	1.924	1.924	1.943	1.938	1.943
-0.005	0.010	0.005	-0.005	0.005	0.024	0.039	2.656	1.914	1.919	1.919	1.938	1.934	1.943
0.000	0.010	0.000	-0.010	-0.005	0.010	0.034	2.666	1.909	1.909	1.914	1.934	1.929	1.934
-0.005	0.005	0.000	-0.005	-0.005	0.010	0.034	2.651	1.909	1.909	1.909	1.929	1.929	1.929
0.005	-0.005	0.000	0.000	-0.005	-0.024	0.039	2.646	1.899	1.904	1.909	1.929	1.929	1.919
0.000	-0.005	0.005	0.000	0.000	0.005	0.034	2.715	1.904	1.904	1.909	1.929	1.929	1.934
0.010	-0.020	0.000	0.005	0.005	0.005	0.039	2.773	1.934	1.904	1.904	1.929	1.929	1.929
0.000	-0.024	0.005	0.000	0.005	-0.015	0.034	2.637	1.929	1.914	1.909	1.929	1.934	1.929
-0.005	-0.005	0.000	0.005	0.000	-0.005	0.034	2.842	1.943	1.929	1.919	1.934	1.934	1.934
0.005	0.000	0.005	0.000	0.000	0.000	0.039	2.661	1.943	1.938	1.924	1.938	1.934	1.938
0.000	0.000	0.000	0.000	0.005	0.005	0.039	2.661	1.938	1.943	1.934	1.943	1.943	1.943
0.010	-0.005	0.000	0.000	0.010	0.000	0.034	2.637	1.938	1.948	1.934	1.948	1.943	1.943
0.005	0.000	-0.005	0.005	0.010	-0.005	0.039	2.651	1.929	1.943	1.938	1.948	1.943	1.938
0.000	0.010	0.000	0.000	0.005	0.005	0.034	2.642	1.924	1.938	1.938	1.953	1.943	1.948
0.000	0.000	0.000	0.005	0.015	0.005	0.039	2.642	1.914	1.929	1.934	1.953	1.948	1.948
-0.005	0.005	0.000	0.005	0.005	0.000	0.039	2.817	1.924	1.924	1.929	1.948	1.943	1.938
-0.005	0.005	0.000	0.000	-0.020	-0.015	0.034	2.676	1.919	1.919	1.924	1.943	1.934	1.934
0.005	0.005	0.000	0.005	-0.024	-0.005	0.039	2.686	1.914	1.914	1.914	1.938	1.929	1.934
-0.005	0.010	0.005	0.000	-0.005	-0.029	0.039	2.666	1.904	1.909	1.909	1.934	1.934	1.924
-0.005	0.010	-0.005	-0.005	0.000	-0.010	0.034	2.681	1.899	1.899	1.904	1.924	1.924	1.929
0.000	0.010	0.000	0.005	-0.005	0.000	0.039	2.661	1.899	1.899	1.904	1.924	1.924	1.929
0.005	-0.005	0.000	-0.005	0.000	0.015	0.034	2.637	1.899	1.895	1.899	1.919	1.924	1.934
0.005	0.000	0.000	0.005	0.020	0.024	0.039	2.627	1.895	1.899	1.899	1.924	1.934	1.934
0.005	-0.010	0.000	0.000	0.005	0.024	0.034	2.852	1.924	1.904	1.899	1.924	1.924	1.934
0.000	-0.005	0.000	0.005	-0.005	0.020	0.034	2.681	1.924	1.914	1.909	1.929	1.924	1.934
0.000	0.000	0.000	0.005	0.015	0.024	0.039	2.666	1.929	1.924	1.914	1.934	1.934	1.934
0.005	0.000	0.005	0.005	0.020	0.015	0.034	2.646	1.929	1.929	1.919	1.938	1.938	1.934
0.000	-0.005	0.000	0.005	0.000	0.000	0.034	2.671	1.924	1.924	1.924	1.938	1.929	1.934
0.000	-0.005	0.000	0.000	-0.020	-0.010	0.034	2.812	1.943	1.934	1.929	1.938	1.929	1.929
0.010	0.000	-0.005	0.010	-0.005	-0.010	0.039	2.646	1.934	1.934	1.929	1.948	1.934	1.934
0.005	-0.005	0.000	0.005	0.000	-0.010	0.039	2.827	1.943	1.934	1.929	1.948	1.938	1.934
0.005	0.000	0.005	0.005	-0.005	-0.015	0.034	2.666	1.948	1.938	1.934	1.943	1.938	1.929
0.000	0.000	0.005	0.000	0.005	-0.010	0.034	2.686	1.934	1.934	1.929	1.943	1.938	1.934
0.005	-0.005	0.000	-0.005	0.010	-0.005	0.034	2.676	1.924	1.929	1.924	1.938	1.934	1.929
0.000	0.005	0.000	0.000	0.005	-0.005	0.039	2.686	1.909	1.919	1.919	1.938	1.934	1.929
-0.005	0.024	-0.005	0.010	0.005	-0.015	0.039	2.612	1.895	1.914	1.919	1.934	1.924	1.924
0.000	0.010	0.000	-0.005	-0.005	0.005	0.034	2.642	1.914	1.909	1.909	1.929	1.924	1.929
-0.005	0.010	0.000	0.005	-0.005	0.000	0.039	2.676	1.904	1.904	1.909	1.929	1.919	1.924
0.005	0.005	0.000	0.000	-0.005	0.000	0.034	2.739	1.914	1.909	1.909	1.929	1.924	1.924
0.000	0.000	0.005	0.000	0.000	0.005	0.034	2.642	1.909	1.909	1.909	1.929	1.929	1.929
-0.005	0.005	0.000	0.005	-0.005	0.005	0.039	2.622	1.909	1.909	1.909	1.934	1.929	1.929
0.010	-0.005	-0.005	0.005	0.005	-0.005	0.039	2.637	1.909	1.909	1.914	1.934	1.934	1.934
-0.005	0.005	0.000	-0.005	0.020	0.010	0.034	2.705	1.919	1.919	1.919	1.934	1.938	1.938
0.010	0.000	0.000	-0.005	0.024	0.020	0.034	2.661	1.924	1.919	1.924	1.938	1.938	1.938
0.005	-0.005	-0.010	0.010	0.015	0.015	0.039	2.671	1.924	1.924	1.924	1.943	1.938	1.943
-0.005	0.005	0.000	-0.005	0.005	0.010	0.034	2.666	1.919	1.929	1.924	1.943	1.934	1.943
0.005	0.005	0.000	0.000	0.005	-0.010	0.034	2.676	1.924	1.924	1.924	1.943	1.938	1.929
0.000	0.000	0.005	0.005	-0.005	0.015	0.039	2.686	1.919	1.924	1.924	1.943	1.934	1.943
0.000	-0.005	0.005	0.000	-0.005	0.015	0.034	2.681	1.919	1.914	1.919	1.938	1.929	1.934
-0.010	-0.005	-0.005	0.010	-0.010	0.000	0.039	2.695	1.909	1.909	1.909	1.938	1.929	1.929
0.005	0.005	0.000	0.000	0.005	0.005	0.039	2.676	1.904	1.909	1.909	1.929	1.929	1.929
-0.005	-0.005	0.000	0.000	0.005	-0.005	0.034	2.686	1.904	1.899	1.904	1.929	1.924	1.919
0.000	-0.010	0.005	0.000	0.000	-0.020	0.039	2.686	1.899	1.895	1.899	1.919	1.919	1.914
-0.005	-0.005	0.000	-0.005	0.000	-0.024	0.034	2.686	1.895	1.890	1.895	1.914	1.914	1.909
0.000	-0.005	0.000	-0.005	0.005	-0.029	0.039	2.686	1.899	1.895	1.895	1.914	1.914	1.914
0.000	-0.005	-0.005	0.000	0.010	0.005	0.034	2.686	1.904	1.895	1.895	1.914	1.914	1.919
-0.005	0.000	0.000	0.000	0.010	-0.005	0.039	2.686	1.909	1.899	1.895	1.914	1.919	1.924
0.010	-0.005	0.000	0.000	0.005	0.015	0.034	2.686	1.919	1.909	1.899	1.919	1.919	1.924
-0.005	-0.005	0.005	0.000	-0.020	0.015	0.039	2.690	1.919	1.909	1.909	1.924	1.914	1.919
0.005	0.010	0.005	0.005	-0.015	0.010	0.034	2.690	1.924	1.924	1.914	1.934	1.919	1.929
0.005	0.015	0.005	0.005	0.000	0.029	0.039	2.695	1.934	1.929	1.919	1.934	1.929	1.934
0.000	0.005	0.000	0.000	0.005	0.015	0.034	2.642	1.924	1.929	1.924	1.938	1.934	1.934
0.010	0.005	0.000	0.005	0.010	-0.020	0.034	2.671	1.924	1.929	1.924	1.938	1.934	1.924
0.000	0.020	0.005	0.005	0.005	0.005	0.039	2.681	1.919	1.929	1.924	1.943	1.934	1.934
0.005	0.000	0.005	0.010	0.005	-0.005	0.034	2.681	1.909	1.914	1.919	1.943	1.934	1.934
-0.005	0.000	0.000	0.005	0.000	0.005	0.034	2.690	1.909	1.909	1.914	1.938	1.929	1.929
0.000	-0.005	0.005	0.005	0.000	0.000	0.034	2.676	1.904	1.904	1.909	1.934	1.929	1.929
-0.005	0.000	0.005	0.000	0.000	-0.010	0.034	2.690	1.899	1.899	1.904	1.924	1.919	1.919
0.005	0.000	0.000	0.005	0.000	0.000	0.039	2.686	1.899	1.895	1.895	1.919	1.919	1.919
-0.005	0.000	-0.005	0.005	0.005	0.015	0.034	2.666	1.890	1.890	1.890	1.914	1.914	1.919
0.005	0.000	0.000	-0.005	0.005	0.024	0.034	2.681	1.895	1.890	1.890	1.909	1.914	1.924
0.005	0.005	0.000	-0.005	0.000	0.015	0.039	2.681	1.899	1.890	1.890	1.909	1.909	1.909
0.005	-0.015	0.000	0.000	0.000	0.000	0.034	2.676	1.899	1.890	1.890	1.914	1.909	1.909
-0.005	-0.015	0.000	-0.005	0.005	-0.010	0.034	2.681	1.904	1.895	1.890	1.909	1.909	1.909
-0.005	0.020	-0.005	-0.005	0.005	-0.005	0.034	2.695	1.909	1.909	1.899	1.914	1.914	1.914
0.000	0.005	0.000	0.000	0.005	-0.005	0.039	2.686	1.914	1.914	1.904	1.924	1.919	1.919
0.005	0.005	0.000	0.000	0.010	0.000	0.034	2.681	1.919	1.919	1.909	1.924	1.924	1.924
0.000	0.000	-0.005	0.000	0.000	0.005	0.039	2.651	1.919	1.919	1.914	1.929	1.919	1.929
0.005	0.005	-0.005	0.005	-0.005	-0.010	0.039	2.686	1.919	1.924	1.919	1.934	1.924	1.924
0.000	0.005	0.000	0.000	-0.005	0.010	0.034	2.676	1.909	1.919	1.919	1.934	1.929	1.924
0.005	0.010	0.000	0.005	-0.005	0.000	0.039	2.656	1.914	1.919	1.919	1.934	1.924	1.919
0.000	0.010	0.005	0.000	-0.005	-0.010	0.039	2.690	1.909	1.914	1.919	1.929	1.929	1.919
0.005	0.020	0.000	-0.005	-0.005	0.015	0.039	2.686	1.904	1.909	1.909	1.929	1.924	1.924
0.000	-0.010	0.000	0.000	0.000	0.015	0.034	2.690	1.895	1.895	1.899	1.924	1.924	1.924
0.000	-0.005	0.005	-0.005	0.010	0.010	0.039	2.686	1.895	1.895	1.899	1.919	1.919	1.919
-0.010	0.005	0.005	-0.005	0.005	0.000	0.034	2.651	1.890	1.890	1.890	1.914	1.914	1.909
-0.005	0.000	0.005	0.000	0.005	0.005	0.039	2.686	1.890	1.885	1.890	1.909	1.909	1.914
-0.005	0.005	0.005	0.000	0.005	-0.020	0.034	2.686	1.890	1.885	1.885	1.909	1.909	1.904
-0.005	-0.005	0.005	0.005	0.000	0.015	0.039	2.695	1.895	1.885	1.885	1.909	1.909	1.914
0.005	-0.010	0.000	0.005	0.000	0.005	0.034	2.671	1.895	1.890	1.885	1.909	1.909	1.909
-0.005	-0.010	-0.005	0.005	0.000	0.005	0.039	2.676	1.899	1.895	1.890	1.909	1.909	1.909
-0.005	-0.005	0.000	0.010	-0.010	0.005	0.039	2.676	1.904	1.899	1.895	1.914	1.909	1.914
-0.005	0.005	-0.005	0.010	-0.010	-0.005	0.034	2.681	1.914	1.909	1.899	1.919	1.909	1.909
0.005	0.000	-0.005	0.005	0.000	0.000	0.039	2.690	1.919	1.909	1.909	1.919	1.919	1.919
0.005	0.010	0.000	0.005	-0.010	-0.005	0.039	2.686	1.919	1.924	1.914	1.924	1.919	1.919
0.005	0.005	0.005	0.005	-0.005	0.005	0.034	2.686	1.919	1.919	1.914	1.929	1.924	1.924
0.010	0.000	-0.005	0.005	0.010	0.005	0.034	2.686	1.919	1.919	1.914	1.934	1.924	1.924
0.000	-0.020	0.000	0.010	0.010	0.010	0.034	2.686	1.914	1.909	1.914	1.934	1.929	1.924
-0.005	-0.005	-0.005	0.010	0.015	-0.020	0.039	2.681	1.904	1.909	1.909	1.924	1.924	1.914
0.000	-0.005	0.000	0.005	0.020	0.005	0.034	2.681	1.899	1.899	1.904	1.919	1.924	1.924
0.010	0.015	0.005	0.000	0.015	0.010	0.034	2.690	1.904	1.904	1.899	1.919	1.919	1.919
0.005	0.010	-0.005	0.000	-0.010	-0.005	0.034	2.637	1.885	1.895	1.895	1.914	1.904	1.914
-0.005	0.015	0.005	-0.005	-0.020	-0.010	0.034	2.676	1.885	1.890	1.890	1.909	1.899	1.904
0.000	0.005	0.000	-0.005	0.005	-0.015	0.039	2.690	1.885	1.885	1.885	1.909	1.904	1.904
0.005	-0.005	0.000	-0.005	-0.005	0.005	0.034	2.671	1.885	1.885	1.885	1.904	1.904	1.904
0.000	0.010	0.000	0.000	-0.010	0.005	0.034	2.686	1.885	1.890	1.885	1.904	1.899	1.904
-0.005	0.015	0.000	-0.005	0.000	0.000	0.034	2.686	1.895	1.890	1.890	1.909	1.904	1.904
-0.005	0.005	-0.005	0.000	0.005	-0.015	0.034	2.681	1.899	1.895	1.890	1.909	1.909	1.904
0.005	0.000	0.005	0.000	0.005	0.010	0.039	2.671	1.899	1.899	1.895	1.914	1.914	1.914
0.010	0.000	0.005	0.000	0.015	0.005	0.039	2.690	1.909	1.904	1.899	1.919	1.919	1.919
-0.005	0.000	0.000	0.000	0.010	-0.010	0.034	2.681	1.909	1.909	1.904	1.919	1.914	1.914
-0.005	0.010	0.005	0.000	0.005	-0.020	0.034	2.690	1.914	1.914	1.909	1.924	1.914	1.914
0.000	0.005	0.000	0.000	0.010	0.010	0.039	2.686	1.914	1.914	1.909	1.929	1.924	1.924
0.000	0.010	0.005	0.000	-0.005	0.010	0.034	2.686	1.914	1.914	1.909	1.929	1.919	1.924
0.000	0.005	0.005	0.000	0.005	0.005	0.034	2.676	1.909	1.909	1.909	1.924	1.919	1.919
-0.005	0.010	0.005	0.000	-0.005	-0.015	0.039	2.681	1.904	1.904	1.904	1.924	1.914	1.909
0.000	0.000	0.000	0.005	-0.005	0.000	0.034	2.671	1.895	1.895	1.899	1.919	1.914	1.914
0.005	-0.024	0.000	0.005	-0.005	0.005	0.039	2.646	1.890	1.885	1.890	1.914	1.909	1.909
-0.005	-0.010	0.000	0.005	0.020	-0.005	0.034	2.676	1.880	1.880	1.885	1.909	1.909	1.909
0.000	-0.010	0.000	0.005	0.015	0.020	0.039	2.681	1.885	1.875	1.880	1.904	1.909	1.914
-0.005	-0.005	0.000	0.000	0.010	0.005	0.034	2.700	1.885	1.880	1.880	1.904	1.904	1.909
-0.005	-0.005	0.000	0.000	0.005	0.005	0.034	2.695	1.890	1.885	1.880	1.899	1.899	1.899
0.005	0.000	0.010	0.000	-0.010	-0.015	0.034	2.686	1.895	1.890	1.885	1.899	1.895	1.895
-0.005	0.005	0.000	-0.005	-0.010	-0.010	0.034	2.681	1.899	1.895	1.890	1.904	1.895	1.899
0.000	0.005	-0.005	-0.005	-0.005	-0.005	0.034	2.686	1.899	1.899	1.890	1.909	1.899	1.904
0.005	0.005	0.005	-0.005	-0.005	0.000	0.039	2.656	1.909	1.904	1.899	1.914	1.904	1.904
0.000	0.000	0.000	0.000	-0.015	0.005	0.039	2.686	1.914	1.909	1.904	1.919	1.909	1.914
0.005	0.015	0.005	0.000	-0.005	0.015	0.034	2.686	1.914	1.914	1.909	1.924	1.914	1.914
0.005	0.015	0.000	0.005	0.000	0.015	0.039	2.690	1.914	1.919	1.909	1.929	1.924	1.919
0.000	0.005	0.000	0.000	0.020	0.005	0.039	2.695	1.919	1.919	1.914	1.929	1.929	1.919
-0.005	-0.005	0.005	0.000	0.010	0.015	0.039	2.681	1.909	1.909	1.909	1.929	1.924	1.924
0.000	0.000	0.000	0.000	0.010	0.000	0.034	2.686	1.904	1.909	1.909	1.924	1.919	1.919
-0.005	0.000	0.005	-0.005	0.000	-0.005	0.039	2.695	1.899	1.899	1.904	1.924	1.914	1.909
0.000	0.000	0.005	0.000	-0.005	0.005	0.034	2.681	1.890	1.895	1.899	1.919	1.914	1.909
0.010	0.005	0.010	0.000	0.000	0.005	0.034	2.690	1.890	1.890	1.895	1.914	1.909	1.909
0.005	0.015	0.000	0.000	0.005	0.000	0.034	2.690	1.890	1.890	1.890	1.909	1.909	1.909
-0.005	0.000	0.000	0.005	0.005	0.000	0.039	2.690	1.885	1.880	1.885	1.909	1.904	1.904
0.000	-0.005	0.000	0.005	0.005	-0.005	0.034	2.676	1.885	1.875	1.880	1.904	1.904	1.904
-0.005	0.020	0.000	0.005	0.000	-0.005	0.034	2.676	1.890	1.885	1.880	1.904	1.899	1.899
-0.005	0.015	0.000	0.005	-0.010	0.010	0.034	2.681	1.895	1.890	1.885	1.904	1.899	1.904
0.000	0.005	0.000	0.000	0.000	0.005	0.034	2.690	1.899	1.890	1.885	1.904	1.904	1.904
0.000	-0.005	0.005	0.000	0.000	0.015	0.034	2.642	1.899	1.890	1.890	1.909	1.909	1.909
-0.005	0.000	0.005	0.005	0.000	0.015	0.034	2.681	1.904	1.899	1.895	1.909	1.909	1.914
0.000	-0.010	0.000	0.000	0.000	0.000	0.034	2.671	1.909	1.904	1.899	1.919	1.914	1.909
0.000	-0.005	0.000	0.000	0.005	-0.010	0.034	2.690	1.914	1.909	1.904	1.919	1.919	1.909
0.010	-0.005	0.005	0.000	0.044	-0.005	0.034	2.681	1.914	1.914	1.909	1.924	1.929	1.919
0.005	0.000	0.000	0.005	0.015	-0.029	0.039	2.676	1.909	1.914	1.909	1.924	1.919	1.909
0.005	0.005	0.000	0.000	-0.005	-0.015	0.034	2.690	1.904	1.909	1.904	1.924	1.909	1.914
0.000	0.000	0.000	0.000	-0.010	-0.029	0.039	2.666	1.899	1.904	1.904	1.924	1.909	1.904
0.005	-0.005	0.000	0.000	-0.029	0.005	0.039	2.676	1.890	1.895	1.895	1.919	1.904	1.914
0.000	-0.005	-0.005	-0.005	-0.024	0.005	0.034	2.686	1.890	1.890	1.890	1.914	1.904	1.909
-0.005	0.005	-0.005	-0.005	0.010	0.015	0.034	2.686	1.885	1.890	1.885	1.909	1.909	1.909
0.005	0.000	0.000	0.000	0.005	-0.010	0.034	2.681	1.885	1.880	1.880	1.904	1.904	1.904
-0.005	0.000	-0.005	0.000	0.000	-0.010	0.034	2.671	1.880	1.875	1.880	1.899	1.899	1.899
0.000	0.000	-0.005	0.005	0.000	0.005	0.034	2.661	1.880	1.880	1.880	1.899	1.895	1.904
-0.005	0.005	0.005	-0.005	0.000	0.015	0.039	2.695	1.890	1.880	1.880	1.899	1.899	1.904
0.005	-0.005	0.005	0.005	0.015	0.005	0.039	2.690	1.895	1.885	1.880	1.899	1.904	1.904
0.000	-0.005	0.005	0.000	0.029	0.010	0.034	2.656	1.895	1.890	1.890	1.904	1.909	1.909
-0.005	0.000	0.000	0.000	0.020	-0.005	0.034	2.676	1.899	1.899	1.890	1.904	1.904	1.904
-0.005	0.010	0.000	0.000	0.010	0.000	0.039	2.700	1.909	1.904	1.899	1.909	1.904	1.909
0.005	0.010	0.000	0.000	0.000	-0.005	0.039	2.690	1.909	1.909	1.899	1.914	1.904	1.909
0.010	0.000	0.000	0.005	-0.005	0.020	0.039	2.686	1.914	1.909	1.904	1.919	1.914	1.919
0.005	0.010	0.000	0.000	0.005	0.015	0.039	2.686	1.914	1.914	1.909	1.924	1.914	1.919
-0.005	0.010	0.000	0.000	-0.005	0.020	0.034	2.681	1.909	1.909	1.909	1.924	1.914	1.919
-0.005	-0.005	0.005	0.000	-0.010	0.015	0.039	2.681	1.904	1.904	1.909	1.924	1.909	1.914
0.005	0.005	-0.005	0.005	-0.005	0.015	0.039	2.656	1.895	1.899	1.904	1.919	1.914	1.914
0.000	0.000	-0.005	0.000	0.000	0.010	0.034	2.686	1.890	1.895	1.895	1.919	1.909	1.909
0.010	-0.005	0.000	0.010	-0.005	0.000	0.034	2.686	1.890	1.885	1.890	1.914	1.904	1.904
0.000	-0.005	0.000	0.005	0.000	-0.015	0.034	2.676	1.880	1.880	1.885	1.909	1.904	1.899
0.000	-0.010	0.000	0.005	0.005	0.010	0.034	2.671	1.875	1.875	1.880	1.904	1.904	1.904
0.000	-0.005	0.000	0.000	0.000	-0.029	0.039	2.686	1.880	1.875	1.875	1.899	1.899	1.890
0.000	0.005	0.005	0.000	0.005	-0.010	0.039	2.690	1.880	1.880	1.875	1.899	1.899	1.895
0.000	0.010	0.000	0.005	0.000	-0.020	0.039	2.686	1.885	1.880	1.880	1.899	1.895	1.895
0.005	0.000	0.005	0.005	0.000	-0.015	0.039	2.695	1.890	1.885	1.880	1.899	1.899	1.899
0.000	0.000	0.005	0.010	0.000	0.000	0.039	2.690	1.895	1.890	1.885	1.904	1.899	1.904
0.000	0.010	0.005	0.005	0.005	0.000	0.034	2.690	1.904	1.895	1.890	1.909	1.904	1.909
0.000	0.005	0.000	0.005	0.000	0.000	0.039	2.690	1.909	1.899	1.895	1.909	1.904	1.909
0.000	0.010	0.000	0.005	0.005	0.010	0.034	2.681	1.909	1.909	1.899	1.919	1.909	1.914
-0.005	0.000	0.000	0.000	0.005	-0.010	0.039	2.671	1.904	1.909	1.909	1.919	1.914	1.914
0.005	0.010	0.000	0.000	0.000	-0.010	0.034	2.681	1.909	1.909	1.909	1.919	1.914	1.914
0.000	0.005	0.005	0.000	0.000	0.015	0.039	2.651	1.909	1.904	1.909	1.924	1.914	1.919
0.010	-0.005	0.005	0.005	0.000	0.000	0.039	2.676	1.899	1.899	1.904	1.924	1.914	1.909
0.005	0.000	0.000	-0.005	-0.005	0.005	0.034	2.686	1.895	1.895	1.899	1.914	1.909	1.909
0.000	-0.005	0.005	0.000	-0.005	0.000	0.034	2.676	1.890	1.890	1.890	1.909	1.904	1.904
0.000	-0.005	0.000	0.000	0.000	0.000	0.034	2.681	1.890	1.890	1.885	1.904	1.904	1.904
-0.005	0.000	0.000	0.000	0.000	-0.010	0.034	2.681	1.885	1.885	1.880	1.904	1.899	1.899
0.005	0.000	-0.005	0.000	0.000	-0.020	0.039	2.686	1.880	1.880	1.880	1.899	1.899	1.895
0.000	-0.005	0.000	0.000	0.005	-0.010	0.039	2.686	1.885	1.880	1.875	1.899	1.899	1.899
-0.005	0.000	0.000	0.000	0.000	-0.015	0.039	2.695	1.885	1.880	1.875	1.895	1.895	1.895
-0.005	-0.010	0.000	0.000	-0.010	0.005	0.039	2.681	1.885	1.880	1.875	1.895	1.890	1.899
0.005	-0.010	0.000	0.010	-0.005	0.005	0.034	2.681	1.895	1.885	1.885	1.899	1.895	1.904
0.000	-0.005	0.000	0.000	-0.005	0.010	0.034	2.695	1.904	1.895	1.890	1.904	1.899	1.904
0.000	-0.005	0.000	0.000	0.000	0.000	0.034	2.671	1.904	1.899	1.895	1.904	1.904	1.904
0.000	-0.005	0.005	-0.005	0.005	0.000	0.039	2.710	1.914	1.904	1.899	1.914	1.909	1.909
0.000	0.000	0.000	-0.005	0.005	-0.020	0.039	2.681	1.914	1.914	1.904	1.919	1.914	1.909
0.000	0.010	0.000	0.000	0.005	0.010	0.034	2.681	1.909	1.914	1.909	1.919	1.914	1.919
0.000	0.010	0.005	0.005	0.010	0.005	0.034	2.651	1.904	1.909	1.909	1.924	1.919	1.919
-0.005	0.000	0.005	0.010	-0.005	0.010	0.039	2.686	1.899	1.904	1.909	1.924	1.914	1.914
-0.005	0.005	0.000	0.015	0.000	0.000	0.039	2.671	1.895	1.899	1.899	1.924	1.914	1.914
0.000	0.000	-0.005	0.015	0.005	0.005	0.039	2.681	1.890	1.895	1.895	1.919	1.914	1.909
-0.005	0.000	0.000	0.010	-0.005	0.005	0.039	2.676	1.885	1.890	1.895	1.909	1.909	1.909
-0.005	0.000	0.000	0.005	-0.015	-0.015	0.034	2.686	1.880	1.885	1.890	1.904	1.899	1.899
0.015	0.000	0.000	-0.005	0.005	0.020	0.034	2.676	1.880	1.880	1.880	1.904	1.904	1.904
0.005	-0.005	0.005	-0.010	0.010	0.024	0.034	2.681	1.880	1.875	1.880	1.899	1.899	1.904
0.005	0.005	0.000	-0.010	0.015	0.010	0.034	2.651	1.880	1.880	1.875	1.895	1.899	1.899
0.005	0.000	0.000	-0.005	0.005	-0.010	0.034	2.690	1.885	1.875	1.875	1.895	1.890	1.895
0.010	0.005	0.000	-0.010	-0.015	-0.005	0.039	2.695	1.895	1.885	1.880	1.899	1.890	1.890
0.000	-0.005	0.005	-0.005	-0.010	-0.010	0.039	2.681	1.895	1.890	1.885	1.899	1.895	1.895
0.000	0.000	0.000	0.000	-0.005	-0.029	0.034	2.671	1.895	1.895	1.890	1.904	1.899	1.890
-0.010	0.000	0.000	0.000	-0.015	0.010	0.034	2.695	1.904	1.895	1.895	1.909	1.904	1.909
0.005	0.005	0.000	0.000	-0.005	-0.005	0.034	2.695	1.914	1.909	1.899	1.919	1.909	1.904
0.000	0.010	0.000	0.000	0.010	0.015	0.039	2.686	1.909	1.909	1.904	1.919	1.914	1.919
0.000	-0.005	0.000	0.010	0.010	-0.010	0.039	2.690	1.909	1.904	1.904	1.924	1.914	1.914
0.000	0.005	0.000	0.015	0.005	0.005	0.039	2.686	1.909	1.909	1.904	1.924	1.914	1.919
0.000	0.010	0.000	0.010	-0.005	-0.010	0.034	2.695	1.904	1.904	1.904	1.924	1.914	1.909
0.005	0.000	0.000	0.005	0.005	0.010	0.039	2.690	1.899	1.899	1.904	1.919	1.914	1.914
0.010	0.000	-0.005	0.005	0.000	-0.024	0.039	2.676	1.899	1.895	1.899	1.914	1.909	1.904
-0.010	0.000	0.005	0.005	-0.005	-0.005	0.039	2.681	1.885	1.890	1.890	1.909	1.904	1.904
0.005	-0.005	0.000	0.000	0.000	0.005	0.039	2.666	1.885	1.885	1.885	1.904	1.904	1.904
0.000	0.005	-0.005	0.000	0.005	0.005	0.034	2.686	1.880	1.880	1.880	1.899	1.899	1.899
0.000	0.010	0.000	0.000	0.010	0.000	0.034	2.690	1.885	1.880	1.880	1.899	1.899	1.899
-0.005	0.005	0.005	-0.005	0.000	0.015	0.034	2.695	1.885	1.880	1.880	1.899	1.895	1.899
0.005	0.005	0.000	-0.005	0.005	0.000	0.034	2.676	1.885	1.880	1.880	1.899	1.899	1.899
0.000	0.005	0.005	-0.005	0.010	0.015	0.034	2.690	1.890	1.885	1.880	1.904	1.899	1.904
0.000	0.000	0.000	0.000	0.010	0.000	0.039	2.686	1.895	1.890	1.885	1.904	1.899	1.904
-0.010	-0.005	0.005	0.000	0.000	-0.010	0.039	2.666	1.895	1.895	1.890	1.909	1.899	1.899
0.010	-0.010	0.005	0.000	-0.015	-0.010	0.039	2.686	1.909	1.899	1.895	1.909	1.899	1.899
0.005	-0.015	0.005	0.000	-0.015	0.005	0.034	2.690	1.909	1.899	1.899	1.914	1.909	1.904
0.000	-0.005	0.000	0.000	0.005	0.010	0.034	2.681	1.909	1.909	1.899	1.919	1.914	1.914
0.000	0.010	0.005	0.005	0.010	0.015	0.034	2.690	1.909	1.914	1.904	1.924	1.919	1.914
0.010	0.000	0.000	0.010	0.010	-0.024	0.039	2.690	1.909	1.909	1.909	1.924	1.919	1.909
0.000	0.005	0.000	0.005	0.005	-0.005	0.034	2.676	1.904	1.909	1.904	1.924	1.914	1.914
0.005	-0.005	0.000	0.005	0.005	0.000	0.034	2.686	1.899	1.899	1.895	1.919	1.909	1.909
0.000	0.005	0.005	0.005	0.010	0.000	0.034	2.666	1.890	1.895	1.895	1.914	1.909	1.909
-0.005	0.010	0.000	0.005	0.015	0.010	0.039	2.676	1.885	1.890	1.890	1.909	1.909	1.909
0.000	0.015	0.005	0.000	0.010	0.010	0.034	2.671	1.880	1.885	1.885	1.904	1.904	1.904
0.000	0.005	0.000	0.000	0.005	0.010	0.039	2.808	1.895	1.880	1.880	1.904	1.899	1.904
0.000	0.005	0.005	0.005	0.000	0.005	0.039	2.681	1.895	1.880	1.880	1.899	1.895	1.899
0.005	0.005	0.005	0.005	-0.005	-0.005	0.034	2.671	1.890	1.885	1.880	1.899	1.895	1.895
0.000	0.005	0.000	0.000	-0.020	0.005	0.034	2.686	1.890	1.880	1.880	1.899	1.890	1.895
0.000	0.005	0.000	0.000	-0.005	0.010	0.039	2.690	1.899	1.895	1.885	1.904	1.899	1.899
0.000	0.010	0.000	0.000	0.000	0.000	0.039	2.690	1.899	1.899	1.895	1.909	1.904	1.899
0.010	0.000	0.000	0.000	0.005	-0.029	0.034	2.676	1.904	1.899	1.895	1.909	1.909	1.899
0.005	0.005	0.000	0.000	0.000	0.015	0.034	2.676	1.904	1.904	1.899	1.914	1.909	1.914
-0.005	-0.015	0.000	0.000	-0.005	0.005	0.034	2.642	1.904	1.904	1.904	1.919	1.909	1.909
0.000	0.000	0.005	0.000	0.000	0.000	0.034	2.671	1.904	1.909	1.904	1.919	1.914	1.909
-0.010	-0.005	0.005	-0.005	0.005	-0.005	0.034	2.690	1.904	1.904	1.904	1.919	1.919	1.914
0.005	-0.005	0.000	0.000	0.005	-0.015	0.039	2.690	1.909	1.904	1.904	1.919	1.914	1.909
0.005	0.010	0.000	0.000	0.000	-0.024	0.039	2.676	1.899	1.904	1.904	1.919	1.909	1.909
0.005	0.010	0.000	0.000	-0.005	-0.020	0.039	2.686	1.895	1.899	1.899	1.914	1.909	1.909
0.005	0.029	-0.005	-0.005	0.000	0.010	0.039	2.690	1.890	1.899	1.895	1.914	1.909	1.914
0.005	0.010	0.005	0.000	0.005	-0.010	0.039	2.690	1.890	1.890	1.890	1.909	1.909	1.909
0.005	0.010	0.000	0.000	0.015	-0.005	0.039	2.686	1.880	1.880	1.885	1.904	1.904	1.904
0.000	0.000	0.000	0.000	0.010	0.020	0.034	2.681	1.880	1.875	1.880	1.899	1.904	1.909
0.005	-0.005	0.000	0.000	0.010	0.020	0.034	2.666	1.885	1.875	1.875	1.899	1.899	1.909
0.005	0.005	0.000	-0.005	0.000	0.020	0.034	2.686	1.885	1.880	1.880	1.895	1.895	1.904
-0.005	0.000	-0.005	-0.005	0.000	0.015	0.034	2.671	1.885	1.880	1.880	1.899	1.895	1.899
0.005	0.000	0.000	0.000	-0.005	0.015	0.039	2.676	1.895	1.890	1.885	1.899	1.895	1.904
-0.005	0.000	0.005	0.005	-0.005	0.015	0.039	2.686	1.899	1.895	1.890	1.909	1.904	1.904
0.000	0.000	0.000	0.005	0.010	-0.010	0.034	2.681	1.909	1.899	1.895	1.914	1.909	1.899
-0.005	0.000	0.000	0.000	0.005	0.015	0.039	2.656	1.904	1.904	1.899	1.914	1.909	1.914
0.010	-0.010	0.000	0.000	0.000	0.005	0.039	2.681	1.909	1.904	1.904	1.919	1.909	1.909
0.000	-0.010	0.005	0.005	0.000	-0.029	0.034	2.690	1.909	1.909	1.904	1.919	1.914	1.904
0.005	0.005	0.005	0.000	0.000	-0.005	0.039	2.676	1.909	1.909	1.904	1.919	1.914	1.914
0.005	0.005	0.005	0.005	0.005	0.005	0.034	2.690	1.904	1.909	1.904	1.919	1.914	1.914
0.005	0.015	0.005	0.000	0.010	0.010	0.039	2.686	1.899	1.904	1.904	1.919	1.914	1.909
0.000	-0.010	0.005	0.010	0.005	0.000	0.034	2.676	1.890	1.890	1.895	1.919	1.914	1.909
0.000	-0.020	0.000	0.000	0.005	0.010	0.039	2.666	1.880	1.885	1.885	1.909	1.909	1.909
-0.005	-0.015	-0.005	0.005	0.005	0.005	0.039	2.681	1.875	1.880	1.880	1.904	1.904	1.904
0.000	-0.010	0.000	0.000	0.005	0.015	0.034	2.676	1.880	1.875	1.875	1.899	1.899	1.899
0.000	0.010	0.000	0.005	0.000	0.005	0.039	2.695	1.885	1.875	1.875	1.899	1.895	1.895
0.000	-0.005	0.000	0.000	-0.005	-0.005	0.034	2.676	1.885	1.875	1.875	1.895	1.890	1.895
0.000	0.010	-0.005	0.000	-0.005	-0.015	0.034	2.690	1.885	1.880	1.880	1.895	1.895	1.895
-0.005	0.000	0.005	0.000	-0.005	0.005	0.034	2.695	1.890	1.885	1.880	1.899	1.895	1.899
0.000	0.000	0.000	0.000	0.000	0.005	0.034	2.676	1.899	1.890	1.885	1.904	1.899	1.899
-0.005	0.005	0.000	0.000	-0.005	0.000	0.034	2.690	1.904	1.895	1.890	1.904	1.899	1.899
0.000	0.000	0.005	0.005	0.000	0.000	0.034	2.646	1.899	1.904	1.899	1.914	1.909	1.904
0.000	0.000	0.005	0.005	0.000	-0.005	0.039	2.681	1.904	1.904	1.899	1.919	1.909	1.904
0.005	0.000	0.000	0.000	-0.005	0.005	0.039	2.686	1.909	1.909	1.904	1.919	1.914	1.914
-0.005	-0.005	0.005	0.000	0.000	0.000	0.039	2.700	1.909	1.909	1.904	1.919	1.914	1.914
0.000	0.005	0.005	0.000	0.005	0.000	0.039	2.686	1.909	1.909	1.904	1.919	1.914	1.909
0.000	0.000	0.000	0.005	0.005	0.000	0.039	2.690	1.904	1.904	1.899	1.919	1.914	1.909
0.000	0.005	-0.005	0.000	0.000	0.000	0.034	2.681	1.899	1.899	1.899	1.914	1.909	1.909
0.000	0.005	0.000	0.000	0.000	-0.010	0.039	2.681	1.895	1.895	1.895	1.909	1.904	1.904
-0.005	0.024	0.000	0.005	0.005	-0.015	0.039	2.666	1.885	1.895	1.890	1.909	1.909	1.899
0.010	0.005	-0.005	0.000	0.000	0.015	0.034	2.666	1.880	1.880	1.885	1.904	1.899	1.904
0.010	0.010	0.005	0.005	-0.005	0.010	0.034	2.686	1.880	1.880	1.880	1.904	1.899	1.899
0.000	0.000	0.005	0.005	0.005	0.015	0.034	2.690	1.880	1.875	1.875	1.899	1.899	1.899
0.005	-0.005	0.010	0.000	0.005	0.015	0.034	2.700	1.885	1.875	1.880	1.899	1.899	1.899
0.000	0.000	0.005	-0.005	-0.005	0.005	0.034	2.686	1.890	1.880	1.880	1.899	1.890	1.895
0.000	-0.005	0.005	-0.005	-0.005	-0.015	0.034	2.695	1.895	1.885	1.880	1.899	1.895	1.890
-0.005	-0.005	0.000	-0.005	-0.005	-0.005	0.034	2.690	1.904	1.890	1.885	1.904	1.899	1.899
0.010	0.000	0.000	0.000	0.005	0.010	0.034	2.690	1.909	1.904	1.890	1.909	1.904	1.909
0.005	-0.005	0.000	0.005	0.005	0.000	0.039	2.686	1.909	1.904	1.899	1.914	1.909	1.909
0.000	0.000	0.010	0.010	0.010	0.010	0.039	2.681	1.909	1.909	1.904	1.919	1.914	1.914
0.000	0.005	0.005	0.005	-0.005	0.010	0.039	2.681	1.909	1.914	1.909	1.919	1.914	1.914
-0.005	0.000	0.000	0.005	0.000	-0.015	0.039	2.686	1.909	1.909	1.909	1.924	1.914	1.909
-0.005	-0.005	0.005	0.000	0.000	-0.015	0.039	2.690	1.904	1.904	1.909	1.924	1.914	1.909
0.000	-0.010	0.000	0.000	-0.005	-0.029	0.034	2.686	1.899	1.904	1.904	1.919	1.914	1.904
0.000	0.005	-0.005	0.000	0.000	0.005	0.034	2.681	1.890	1.899	1.895	1.914	1.909	1.914
0.000	-0.005	0.000	0.005	0.000	0.010	0.034	2.642	1.885	1.895	1.895	1.914	1.909	1.909
0.000	-0.010	0.005	0.000	0.005	0.010	0.034	2.671	1.875	1.885	1.890	1.909	1.904	1.909
0.005	0.005	0.005	0.005	0.015	0.005	0.034	2.690	1.880	1.885	1.885	1.904	1.904	1.904
-0.005	0.005	0.005	0.005	0.000	-0.020	0.039	2.690	1.880	1.880	1.880	1.904	1.899	1.899
-0.005	0.005	0.000	0.000	0.010	-0.005	0.034	2.690	1.885	1.880	1.875	1.899	1.899	1.899
-0.005	0.005	0.000	0.005	0.005	0.000	0.034	2.686	1.880	1.880	1.880	1.899	1.895	1.899
0.005	0.005	0.000	-0.005	0.000	-0.005	0.034	2.671	1.890	1.885	1.880	1.899	1.895	1.899
0.000	0.005	0.000	0.000	0.005	0.010	0.039	2.690	1.895	1.890	1.885	1.904	1.899	1.909
0.010	0.005	0.000	-0.005	-0.015	0.015	0.039	2.695	1.909	1.899	1.890	1.904	1.899	1.904
0.000	0.000	0.000	0.000	-0.015	0.010	0.039	2.690	1.904	1.899	1.895	1.909	1.899	1.904
0.000	-0.005	0.005	0.000	-0.015	0.005	0.034	2.690	1.914	1.904	1.899	1.919	1.909	1.904
0.000	0.005	0.000	0.000	-0.005	0.015	0.034	2.690	1.914	1.914	1.904	1.919	1.914	1.909
0.005	0.000	0.005	0.000	0.005	-0.005	0.034	2.695	1.909	1.909	1.904	1.919	1.919	1.909
-0.005	0.000	0.000	0.000	0.029	0.005	0.034	2.671	1.899	1.909	1.909	1.924	1.924	1.919
0.000	0.000	0.005	0.010	0.015	0.000	0.039	2.676	1.904	1.909	1.904	1.924	1.919	1.919
-0.005	0.000	0.005	0.005	-0.005	-0.005	0.039	2.676	1.895	1.904	1.904	1.919	1.909	1.909
-0.005	0.005	0.005	0.000	-0.010	-0.034	0.034	2.651	1.885	1.890	1.895	1.914	1.904	1.899
-0.005	-0.005	-0.005	0.000	-0.010	0.000	0.034	2.676	1.880	1.885	1.885	1.909	1.904	1.909
0.000	0.000	0.000	0.000	-0.005	0.005	0.034	2.681	1.880	1.880	1.885	1.904	1.904	1.904
-0.005	-0.010	-0.005	0.005	0.000	0.010	0.034	2.681	1.875	1.875	1.875	1.899	1.899	1.899
0.000	0.005	0.000	0.010	0.010	-0.010	0.039	2.686	1.885	1.875	1.875	1.899	1.899	1.895
0.005	0.000	0.005	0.005	0.015	-0.029	0.039	2.686	1.885	1.875	1.875	1.899	1.899	1.895
-0.005	0.000	0.000	0.000	0.010	0.005	0.039	2.686	1.885	1.880	1.875	1.895	1.895	1.904
0.005	0.005	0.000	0.000	0.005	0.015	0.039	2.681	1.895	1.885	1.880	1.895	1.895	1.904
0.000	0.005	0.000	0.000	0.005	0.010	0.039	2.661	1.899	1.890	1.885	1.899	1.899	1.904
0.005	-0.005	0.000	-0.005	0.005	0.010	0.034	2.656	1.899	1.895	1.885	1.904	1.899	1.904
0.005	0.000	0.000	0.000	0.000	0.020	0.039	2.793	1.919	1.904	1.895	1.909	1.904	1.909
0.000	0.000	0.000	-0.005	-0.005	0.015	0.034	2.642	1.914	1.909	1.899	1.914	1.909	1.909
0.000	0.000	0.000	0.000	0.000	0.015	0.034	2.656	1.909	1.909	1.904	1.919	1.909	1.909
0.005	0.000	0.005	0.000	-0.005	0.005	0.039	2.803	1.924	1.914	1.909	1.919	1.909	1.909
0.010	-0.005	0.000	-0.005	-0.005	-0.015	0.034	2.720	1.919	1.914	1.909	1.919	1.909	1.899
0.000	-0.005	0.000	-0.005	-0.010	0.005	0.034	2.651	1.904	1.909	1.904	1.924	1.914	1.909
0.005	0.000	0.000	0.000	-0.005	-0.005	0.034	2.720	1.904	1.904	1.904	1.919	1.909	1.909
0.000	0.000	0.000	-0.005	-0.010	-0.010	0.039	2.739	1.904	1.899	1.899	1.914	1.904	1.899
0.000	0.000	0.000	0.000	-0.005	0.010	0.034	2.734	1.899	1.895	1.895	1.914	1.909	1.909
0.010	0.005	0.005	0.005	0.005	0.005	0.039	2.666	1.899	1.895	1.890	1.909	1.909	1.904
0.005	0.000	0.005	0.005	0.010	-0.020	0.034	2.646	1.890	1.890	1.890	1.909	1.909	1.899
0.005	0.000	0.005	0.010	0.020	-0.010	0.039	2.734	1.890	1.885	1.885	1.909	1.904	1.899
0.000	0.000	0.000	0.000	0.005	0.000	0.039	2.729	1.895	1.890	1.885	1.904	1.899	1.904
0.000	0.015	0.000	0.000	0.000	0.000	0.034	2.739	1.904	1.895	1.885	1.904	1.899	1.899
0.000	0.005	0.000	-0.010	0.015	0.015	0.039	2.671	1.904	1.899	1.895	1.904	1.904	1.909
0.015	0.000	0.005	-0.005	0.000	0.020	0.034	2.788	1.919	1.904	1.899	1.909	1.904	1.914
0.005	0.010	0.000	-0.005	0.000	0.024	0.034	2.646	1.909	1.914	1.904	1.919	1.909	1.919
-0.010	0.010	0.000	0.000	0.005	0.000	0.034	2.671	1.909	1.914	1.909	1.924	1.914	1.909
-0.005	0.005	0.000	-0.005	0.005	-0.010	0.039	2.734	1.919	1.919	1.914	1.929	1.919	1.909
0.000	0.000	0.000	0.000	0.000	0.000	0.034	2.642	1.909	1.919	1.914	1.929	1.919	1.919
0.000	-0.005	0.000	0.005	-0.010	-0.015	0.034	2.627	1.899	1.909	1.914	1.934	1.919	1.914
-0.005	0.000	0.000	0.005	0.000	-0.010	0.039	2.656	1.899	1.904	1.914	1.934	1.924	1.919
-0.010	-0.005	0.000	0.005	-0.005	-0.015	0.034	2.729	1.899	1.904	1.904	1.929	1.919	1.914
0.000	0.010	0.000	0.005	0.000	0.010	0.034	2.661	1.895	1.899	1.899	1.924	1.919	1.924
0.005	0.000	0.005	0.000	0.000	0.020	0.034	2.651	1.890	1.895	1.895	1.919	1.919	1.919
0.005	0.010	0.000	0.005	-0.005	-0.015	0.039	2.705	1.890	1.890	1.895	1.914	1.909	1.909
0.000	0.000	0.005	0.005	0.000	0.010	0.039	2.725	1.890	1.885	1.885	1.909	1.909	1.914
0.005	0.000	0.000	0.000	0.000	0.010	0.039	2.817	1.904	1.885	1.880	1.904	1.904	1.909
0.010	0.010	-0.005	0.005	-0.005	-0.015	0.039	2.715	1.899	1.890	1.885	1.904	1.904	1.899
0.015	0.005	0.000	0.010	0.000	-0.005	0.034	2.651	1.890	1.890	1.885	1.904	1.899	1.904
-0.005	0.000	0.000	0.005	0.000	0.005	0.039	2.715	1.899	1.890	1.885	1.904	1.904	1.904
0.005	0.000	0.000	0.000	0.005	0.005	0.039	2.710	1.904	1.899	1.890	1.909	1.909	1.909
-0.005	0.015	0.005	0.005	0.005	-0.005	0.039	2.681	1.909	1.909	1.899	1.914	1.909	1.909
0.000	0.024	0.005	0.005	0.000	-0.020	0.039	2.681	1.914	1.919	1.904	1.919	1.909	1.904
-0.010	0.010	0.000	0.005	0.000	0.005	0.039	2.705	1.914	1.914	1.909	1.929	1.919	1.914
-0.010	0.015	0.005	0.005	0.005	0.010	0.039	2.715	1.914	1.914	1.914	1.929	1.924	1.924
0.029	0.005	0.000	0.005	0.005	0.015	0.039	2.710	1.929	1.919	1.914	1.929	1.924	1.924
0.034	-0.020	-0.005	0.005	0.005	0.020	0.034	2.671	1.919	1.914	1.914	1.929	1.924	1.924
0.015	-0.010	0.000	0.000	0.000	0.015	0.034	2.671	1.904	1.914	1.914	1.929	1.924	1.924
-0.005	-0.005	0.005	0.000	0.000	0.010	0.034	2.690	1.899	1.904	1.909	1.924	1.919	1.919
-0.010	0.000	0.000	-0.005	0.000	0.005	0.034	2.671	1.890	1.895	1.904	1.919	1.919	1.914
-0.020	0.005	-0.005	-0.005	0.000	-0.015	0.034	2.666	1.880	1.890	1.895	1.914	1.909	1.904
-0.020	-0.015	0.000	-0.010	0.000	0.005	0.034	2.700	1.885	1.875	1.890	1.909	1.909	1.909
-0.020	-0.005	-0.005	-0.005	0.005	-0.005	0.034	2.695	1.885	1.875	1.880	1.904	1.904	1.904
-0.010	-0.005	0.005	-0.005	0.000	-0.005	0.034	2.700	1.890	1.880	1.880	1.904	1.899	1.904
-0.010	0.000	0.000	-0.005	0.000	0.000	0.034	2.676	1.885	1.885	1.880	1.899	1.899	1.899
0.010	0.000	0.000	-0.005	0.000	-0.015	0.034	2.686	1.895	1.885	1.880	1.899	1.899	1.904
0.000	0.000	0.000	-0.005	0.010	-0.005	0.034	2.710	1.899	1.890	1.885	1.904	1.904	1.904
0.010	0.005	0.005	-0.005	0.005	0.015	0.034	2.666	1.904	1.899	1.890	1.909	1.904	1.909
0.010	0.015	0.000	-0.005	0.000	0.000	0.039	2.695	1.909	1.909	1.895	1.914	1.909	1.909
0.015	0.005	0.005	0.005	0.000	0.000	0.034	2.705	1.919	1.914	1.904	1.919	1.909	1.909
0.015	0.005	0.005	0.010	0.000	0.010	0.034	2.705	1.924	1.914	1.909	1.924	1.914	1.919
0.010	0.005	0.000	0.010	0.000	0.000	0.034	2.695	1.919	1.919	1.914	1.929	1.919	1.914
0.005	0.000	0.005	0.005	0.005	0.000	0.039	2.690	1.909	1.914	1.919	1.929	1.919	1.919
0.000	0.010	0.000	0.005	0.005	0.015	0.039	2.642	1.909	1.914	1.914	1.929	1.924	1.924
-0.005	0.010	0.000	0.000	0.000	0.015	0.034	2.793	1.919	1.914	1.909	1.929	1.919	1.919
0.005	-0.005	0.000	0.000	0.005	-0.005	0.034	2.642	1.899	1.904	1.909	1.924	1.919	1.909
0.010	0.005	0.000	-0.005	0.005	0.000	0.034	2.656	1.890	1.895	1.899	1.919	1.914	1.914
0.010	0.010	0.005	-0.005	0.005	-0.005	0.034	2.734	1.895	1.895	1.899	1.914	1.914	1.909
0.020	0.000	-0.005	-0.005	0.010	-0.005	0.034	2.725	1.899	1.890	1.890	1.909	1.909	1.904
0.015	0.000	0.000	0.000	0.020	-0.005	0.034	2.744	1.890	1.885	1.885	1.909	1.909	1.904
0.005	-0.005	0.000	0.005	0.015	-0.010	0.034	2.646	1.885	1.885	1.885	1.909	1.909	1.904
0.010	-0.005	0.000	0.005	0.015	-0.015	0.034	2.710	1.890	1.885	1.885	1.904	1.904	1.904
-0.005	-0.005	0.005	0.000	0.015	-0.010	0.039	2.690	1.890	1.885	1.885	1.904	1.904	1.904
-0.005	0.005	0.005	0.000	0.015	-0.029	0.034	2.725	1.899	1.890	1.890	1.909	1.899	1.899
-0.015	0.005	0.005	0.005	0.015	-0.015	0.039	2.710	1.904	1.899	1.895	1.914	1.909	1.909
-0.015	-0.005	-0.005	0.010	0.015	-0.005	0.034	2.612	1.904	1.899	1.895	1.919	1.909	1.914
-0.015	0.024	0.005	0.010	0.010	0.000	0.039	2.827	1.924	1.914	1.904	1.924	1.914	1.914
-0.010	0.029	0.000	0.005	0.005	0.000	0.034	2.729	1.929	1.924	1.914	1.924	1.914	1.919
-0.005	0.010	-0.005	0.005	0.010	-0.029	0.039	2.656	1.919	1.919	1.909	1.929	1.919	1.914
0.000	-0.020	0.005	0.005	0.005	-0.005	0.039	2.642	1.909	1.909	1.909	1.929	1.924	1.924
0.000	-0.005	0.000	0.005	0.000	0.010	0.039	2.705	1.914	1.914	1.909	1.929	1.924	1.924
0.005	0.000	0.005	0.005	0.005	0.005	0.034	2.666	1.904	1.909	1.909	1.924	1.919	1.924
0.005	-0.005	0.000	0.005	0.005	0.005	0.034	2.710	1.904	1.899	1.904	1.924	1.914	1.919
0.000	-0.005	-0.005	0.010	0.005	0.005	0.034	2.676	1.895	1.899	1.899	1.924	1.914	1.914
0.005	0.000	0.000	0.010	0.005	0.000	0.039	2.705	1.890	1.890	1.890	1.914	1.909	1.914
0.000	-0.005	0.000	0.005	0.000	0.010	0.034	2.686	1.890	1.885	1.885	1.909	1.909	1.909
0.005	0.000	0.005	0.005	-0.005	0.005	0.039	2.700	1.880	1.885	1.885	1.904	1.904	1.904
0.005	-0.005	0.005	0.005	-0.005	-0.005	0.034	2.671	1.875	1.880	1.885	1.904	1.899	1.899
-0.005	-0.005	0.000	0.005	-0.010	0.005	0.039	2.671	1.880	1.880	1.880	1.899	1.899	1.904
-0.010	0.000	0.000	0.000	-0.005	0.005	0.034	2.681	1.885	1.885	1.885	1.904	1.899	1.904
-0.010	0.005	0.000	0.005	-0.010	0.010	0.034	2.676	1.890	1.890	1.885	1.904	1.904	1.904
0.000	0.000	-0.005	0.005	-0.010	0.010	0.039	2.676	1.899	1.895	1.890	1.909	1.904	1.909
0.000	0.015	0.005	-0.005	0.000	0.015	0.034	2.705	1.909	1.904	1.899	1.909	1.909	1.909
0.015	0.020	0.010	-0.005	-0.015	0.005	0.039	2.676	1.914	1.909	1.904	1.914	1.909	1.909
0.010	0.010	0.000	-0.005	-0.010	0.005	0.039	2.676	1.909	1.909	1.909	1.919	1.914	1.914
0.010	-0.005	0.000	-0.005	-0.010	0.005	0.034	2.676	1.909	1.904	1.904	1.924	1.914	1.909
0.010	0.000	0.000	0.000	-0.010	0.015	0.034	2.690	1.899	1.904	1.904	1.924	1.914	1.919
0.005	0.000	0.005	0.000	-0.005	0.000	0.034	2.705	1.904	1.904	1.904	1.924	1.914	1.914
0.000	-0.010	0.000	0.005	-0.010	0.015	0.034	2.710	1.899	1.899	1.899	1.924	1.914	1.914
0.005	-0.005	0.010	0.005	-0.010	0.010	0.034	2.700	1.899	1.895	1.895	1.914	1.914	1.914
0.010	0.005	0.000	0.000	-0.005	0.005	0.039	2.676	1.895	1.895	1.890	1.909	1.909	1.909
0.000	0.005	0.000	0.000	0.000	0.010	0.034	2.695	1.880	1.885	1.885	1.904	1.904	1.909
0.010	0.010	0.000	-0.005	0.000	0.005	0.039	2.690	1.885	1.880	1.880	1.904	1.899	1.904
0.010	0.005	0.000	0.000	0.000	-0.024	0.039	2.651	1.880	1.880	1.880	1.899	1.899	1.895
0.000	0.010	0.000	0.010	0.000	0.015	0.039	2.783	1.890	1.880	1.880	1.899	1.899	1.904
0.000	0.000	0.000	0.005	0.005	0.005	0.039	2.642	1.890	1.880	1.880	1.899	1.895	1.899
0.005	-0.005	0.000	0.000	0.000	0.005	0.039	2.661	1.895	1.885	1.885	1.904	1.899	1.899
0.000	-0.024	0.005	0.000	0.005	0.000	0.039	2.749	1.904	1.890	1.885	1.904	1.904	1.899
0.000	-0.020	0.005	0.000	-0.005	0.010	0.034	2.734	1.914	1.899	1.890	1.909	1.904	1.909
0.020	-0.010	0.000	-0.005	0.005	0.005	0.034	2.720	1.929	1.909	1.899	1.909	1.909	1.909
0.020	-0.005	0.000	-0.005	0.000	-0.005	0.034	2.646	1.924	1.919	1.909	1.919	1.909	1.909
0.005	-0.005	0.005	-0.005	0.005	-0.005	0.034	2.637	1.909	1.924	1.914	1.919	1.914	1.909
-0.005	0.020	0.000	0.000	0.000	0.005	0.034	2.695	1.909	1.924	1.914	1.924	1.919	1.919
-0.015	0.010	0.000	0.000	0.005	0.010	0.039	2.720	1.904	1.914	1.914	1.929	1.919	1.919
-0.020	0.010	0.000	0.005	0.005	-0.010	0.039	2.700	1.899	1.909	1.909	1.929	1.919	1.909
-0.034	0.005	0.005	0.005	0.000	0.010	0.039	2.651	1.885	1.895	1.904	1.929	1.919	1.914
-0.015	-0.005	0.000	0.005	0.000	0.015	0.039	2.769	1.890	1.890	1.895	1.919	1.914	1.914
-0.010	0.000	0.005	0.005	0.005	0.005	0.039	2.739	1.895	1.890	1.895	1.914	1.914	1.909
-0.010	0.005	0.000	0.005	0.005	-0.005	0.039	2.627	1.885	1.880	1.885	1.909	1.904	1.909
0.010	0.010	-0.005	0.010	0.010	0.015	0.039	2.632	1.880	1.880	1.885	1.909	1.904	1.909
0.020	0.005	0.005	0.015	0.005	0.010	0.034	2.695	1.880	1.875	1.880	1.904	1.904	1.904
0.010	-0.005	0.000	0.010	0.005	0.005	0.034	2.705	1.885	1.875	1.875	1.899	1.899	1.899
0.010	-0.010	0.005	0.010	0.000	0.000	0.034	2.666	1.890	1.880	1.880	1.899	1.899	1.904
0.020	-0.015	0.005	0.010	0.000	0.005	0.039	2.666	1.895	1.885	1.880	1.904	1.899	1.904
0.015	-0.005	0.000	0.000	0.005	0.005	0.034	2.710	1.899	1.890	1.885	1.904	1.904	1.904
0.005	-0.005	0.005	0.000	0.000	0.000	0.034	2.671	1.904	1.899	1.890	1.909	1.904	1.904
-0.010	0.000	-0.005	-0.005	0.005	0.000	0.034	2.705	1.904	1.904	1.895	1.909	1.909	1.909
-0.005	0.005	0.000	0.000	0.000	-0.005	0.039	2.666	1.904	1.914	1.904	1.914	1.909	1.909
-0.005	0.010	0.005	0.000	0.005	0.000	0.039	2.681	1.909	1.909	1.909	1.924	1.914	1.914
-0.005	0.005	0.000	0.005	0.010	0.000	0.039	2.681	1.909	1.909	1.904	1.924	1.914	1.914
-0.015	0.010	-0.005	0.010	0.005	-0.010	0.039	2.700	1.904	1.904	1.904	1.924	1.914	1.909
0.000	0.000	0.000	0.005	0.000	0.005	0.034	2.695	1.904	1.899	1.899	1.919	1.914	1.914
0.000	0.010	0.000	0.000	0.005	-0.005	0.034	2.695	1.899	1.904	1.899	1.914	1.909	1.909
0.000	0.005	0.005	-0.005	0.000	-0.024	0.034	2.690	1.895	1.895	1.895	1.909	1.904	1.899
-0.005	0.005	0.000	-0.005	0.005	-0.015	0.034	2.666	1.885	1.890	1.890	1.909	1.904	1.899
0.005	0.015	0.000	-0.005	0.000	-0.010	0.034	2.671	1.880	1.885	1.885	1.904	1.899	1.904
0.005	0.005	0.000	0.000	0.010	0.010	0.034	2.681	1.880	1.875	1.880	1.899	1.899	1.904
-0.010	0.000	0.000	-0.005	0.000	0.010	0.034	2.700	1.880	1.875	1.880	1.899	1.895	1.899
0.010	0.000	0.005	0.000	0.010	0.010	0.039	2.676	1.890	1.880	1.875	1.899	1.895	1.904
0.020	-0.005	0.000	0.000	0.000	0.015	0.039	2.715	1.899	1.885	1.880	1.904	1.895	1.899
0.024	0.005	0.000	0.010	0.000	0.020	0.039	2.705	1.904	1.895	1.885	1.909	1.899	1.904
0.020	0.005	0.005	0.005	0.005	0.015	0.039	2.715	1.914	1.899	1.895	1.909	1.904	1.904
0.000	0.010	0.005	0.005	0.000	0.005	0.039	2.695	1.909	1.909	1.899	1.914	1.904	1.904
0.015	0.010	0.000	0.010	0.000	0.000	0.034	2.637	1.904	1.914	1.904	1.919	1.909	1.904
-0.010	-0.005	0.000	0.000	0.000	0.005	0.034	2.788	1.909	1.909	1.909	1.919	1.914	1.914
-0.020	0.000	0.000	0.000	0.000	0.000	0.039	2.642	1.904	1.909	1.909	1.919	1.914	1.909
-0.015	0.000	0.005	-0.005	0.010	0.010	0.039	2.656	1.904	1.909	1.909	1.924	1.919	1.914
-0.015	0.000	0.000	0.005	0.000	0.005	0.039	2.734	1.909	1.904	1.909	1.924	1.914	1.919
-0.010	-0.005	0.000	0.005	-0.005	0.010	0.034	2.734	1.904	1.899	1.904	1.919	1.914	1.914
-0.015	0.005	0.005	-0.005	0.005	0.010	0.034	2.734	1.899	1.899	1.899	1.914	1.914	1.909
-0.015	0.005	0.000	0.000	0.000	0.010	0.034	2.642	1.890	1.890	1.890	1.914	1.909	1.909
-0.010	0.000	0.000	0.000	0.000	-0.010	0.039	2.656	1.880	1.885	1.885	1.909	1.904	1.899
0.000	-0.010	0.005	0.005	0.000	-0.015	0.039	2.681	1.885	1.880	1.885	1.904	1.899	1.899
-0.005	0.000	0.005	0.000	0.005	0.005	0.039	2.686	1.885	1.875	1.880	1.899	1.899	1.909
-0.010	-0.015	-0.005	0.005	0.000	0.010	0.039	2.705	1.890	1.880	1.875	1.899	1.899	1.904
-0.005	-0.010	0.005	-0.005	0.005	0.000	0.034	2.729	1.895	1.880	1.880	1.899	1.899	1.899
0.000	-0.005	0.000	-0.005	0.000	-0.020	0.034	2.822	1.919	1.890	1.885	1.899	1.895	1.895
0.000	0.005	0.005	0.000	0.000	-0.010	0.034	2.759	1.924	1.909	1.895	1.904	1.899	1.899
0.015	0.010	0.000	0.000	0.005	-0.005	0.034	2.666	1.919	1.914	1.899	1.909	1.904	1.904
0.020	0.005	0.005	0.005	0.000	-0.005	0.039	2.720	1.924	1.919	1.909	1.919	1.909	1.909
0.024	0.000	0.005	0.010	-0.005	0.010	0.034	2.695	1.924	1.924	1.919	1.924	1.914	1.919
0.010	0.005	0.000	0.005	0.005	0.000	0.034	2.681	1.914	1.924	1.919	1.929	1.919	1.909
0.010	0.005	0.005	0.005	0.000	0.010	0.034	2.681	1.909	1.919	1.919	1.934	1.924	1.919
0.015	-0.005	0.005	0.010	0.000	0.000	0.039	2.666	1.909	1.919	1.919	1.934	1.924	1.919
0.010	0.015	0.005	0.005	0.005	0.010	0.039	2.705	1.904	1.909	1.914	1.934	1.924	1.924
0.005	0.010	0.005	0.000	0.005	0.000	0.039	2.676	1.899	1.909	1.909	1.929	1.924	1.919
-0.005	0.005	0.000	0.000	0.000	-0.010	0.034	2.690	1.890	1.899	1.904	1.924	1.919	1.914
-0.010	-0.005	0.000	-0.005	0.000	0.005	0.034	2.671	1.880	1.885	1.895	1.919	1.914	1.914
-0.005	-0.005	0.005	0.000	-0.005	-0.005	0.034	2.686	1.880	1.880	1.890	1.914	1.909	1.909
-0.005	0.000	-0.005	0.005	0.000	0.000	0.034	2.671	1.875	1.875	1.880	1.909	1.904	1.904
-0.010	0.005	0.000	0.010	0.010	0.010	0.034	2.666	1.880	1.875	1.880	1.904	1.909	1.909
0.005	-0.010	0.000	0.010	-0.005	0.005	0.034	2.710	1.890	1.875	1.875	1.904	1.904	1.904
0.029	0.000	-0.005	0.005	-0.005	0.005	0.039	2.695	1.904	1.890	1.880	1.899	1.904	1.904
0.020	0.000	-0.005	0.000	0.000	0.005	0.034	2.681	1.899	1.890	1.885	1.899	1.899	1.904
0.010	0.000	0.005	-0.005	0.000	0.010	0.034	2.715	1.909	1.899	1.890	1.904	1.904	1.909
-0.005	0.000	0.000	0.000	0.005	-0.005	0.034	2.671	1.904	1.904	1.895	1.909	1.909	1.909
0.005	0.000	0.000	0.000	0.005	-0.015	0.039	2.715	1.919	1.909	1.904	1.914	1.909	1.909
0.015	0.010	0.005	-0.005	0.005	0.010	0.034	2.681	1.914	1.914	1.909	1.919	1.914	1.919
-0.010	0.005	0.005	-0.020	0.000	0.010	0.034	2.671	1.914	1.914	1.909	1.919	1.914	1.919
-0.005	0.000	0.000	-0.015	-0.005	-0.005	0.034	2.700	1.914	1.914	1.909	1.924	1.914	1.914
-0.005	0.000	0.000	-0.005	0.005	0.000	0.039	2.700	1.909	1.909	1.909	1.929	1.919	1.914
0.034	0.005	0.000	0.000	0.005	0.005	0.034	2.710	1.919	1.909	1.909	1.929	1.919	1.914
0.063	0.005	0.000	0.015	0.000	0.005	0.034	2.690	1.914	1.909	1.904	1.929	1.914	1.914
0.034	0.015	0.000	0.020	0.000	0.000	0.034	2.656	1.895	1.904	1.904	1.929	1.914	1.909
0.010	0.000	0.000	0.029	0.000	0.000	0.039	2.788	1.890	1.895	1.899	1.919	1.914	1.909
-0.024	0.000	0.000	0.024	0.000	0.000	0.039	2.632	1.870	1.880	1.890	1.914	1.909	1.909
-0.059	0.020	0.005	0.020	-0.005	0.000	0.039	2.656	1.865	1.875	1.880	1.904	1.909	1.904
-0.063	0.010	0.005	0.015	0.000	0.015	0.039	2.729	1.875	1.875	1.880	1.904	1.904	1.909
-0.049	0.010	-0.005	0.005	0.005	0.015	0.039	2.642	1.875	1.870	1.875	1.899	1.904	1.904
-0.049	0.000	0.000	0.000	0.000	0.015	0.039	2.632	1.880	1.875	1.875	1.895	1.899	1.904
-0.015	0.000	0.000	0.005	0.005	0.010	0.034	2.642	1.895	1.880	1.880	1.899	1.899	1.904
0.000	0.000	0.010	0.000	0.005	0.005	0.034	2.642	1.904	1.895	1.885	1.904	1.904	1.904
0.039	0.005	0.000	0.000	0.000	0.005	0.039	2.690	1.919	1.904	1.895	1.909	1.904	1.909
0.044	0.005	0.000	0.005	0.005	0.000	0.034	2.622	1.914	1.909	1.895	1.909	1.909	1.909
0.034	0.010	0.005	0.005	0.005	0.005	0.034	2.700	1.914	1.914	1.909	1.919	1.914	1.914
0.015	0.005	-0.005	0.000	0.000	0.010	0.039	2.622	1.904	1.909	1.904	1.919	1.914	1.914
0.000	0.005	0.000	0.000	-0.005	0.010	0.039	2.812	1.899	1.909	1.909	1.919	1.914	1.914
-0.015	-0.005	0.000	-0.005	0.005	0.010	0.034	2.764	1.899	1.899	1.904	1.919	1.914	1.909
-0.039	0.000	0.000	-0.005	0.000	-0.010	0.039	2.656	1.885	1.895	1.899	1.919	1.909	1.909
-0.039	-0.005	0.005	0.005	0.000	-0.005	0.034	2.627	1.875	1.885	1.895	1.914	1.909	1.904
-0.024	-0.005	0.005	0.000	0.005	0.005	0.034	2.695	1.885	1.880	1.885	1.909	1.904	1.909
-0.005	-0.010	0.005	0.010	0.000	-0.005	0.034	2.705	1.890	1.875	1.880	1.909	1.899	1.899
0.000	-0.005	0.005	0.015	0.000	-0.020	0.034	2.671	1.885	1.880	1.875	1.904	1.899	1.895
-0.005	0.000	0.000	0.010	0.005	0.000	0.034	2.671	1.880	1.875	1.875	1.895	1.899	1.904
0.000	-0.010	-0.005	0.005	-0.005	0.005	0.034	2.705	1.890	1.880	1.875	1.895	1.890	1.899
0.020	-0.015	0.000	0.000	0.005	-0.010	0.034	2.705	1.895	1.885	1.875	1.895	1.890	1.895
0.024	-0.005	0.000	-0.005	0.000	0.010	0.034	2.690	1.904	1.890	1.880	1.895	1.895	1.904
0.020	0.000	0.000	-0.005	0.000	0.010	0.039	2.671	1.904	1.899	1.890	1.899	1.895	1.899
0.000	0.000	0.000	-0.005	0.005	0.005	0.034	2.676	1.899	1.904	1.895	1.904	1.904	1.904
0.015	0.010	0.000	-0.005	0.005	-0.005	0.039	2.705	1.909	1.909	1.899	1.909	1.904	1.899
0.005	0.000	0.005	0.000	0.000	-0.015	0.039	2.676	1.909	1.909	1.909	1.919	1.909	1.904
0.000	0.005	0.010	0.000	0.000	0.015	0.039	2.676	1.909	1.909	1.909	1.924	1.914	1.914
0.010	-0.005	0.000	0.000	0.005	0.005	0.039	2.695	1.909	1.909	1.909	1.924	1.919	1.914
0.020	0.000	0.000	0.000	0.000	-0.005	0.034	2.676	1.909	1.909	1.909	1.924	1.914	1.909
0.005	-0.005	0.000	0.000	0.005	0.010	0.034	2.705	1.904	1.904	1.904	1.924	1.914	1.914
0.010	-0.005	0.000	0.000	0.000	-0.005	0.039	2.676	1.899	1.899	1.899	1.919	1.909	1.904
0.000	0.000	0.000	-0.005	0.000	0.000	0.034	2.710	1.895	1.895	1.895	1.914	1.909	1.904
0.000	-0.005	0.005	-0.005	0.005	0.005	0.034	2.705	1.890	1.890	1.890	1.914	1.909	1.904
0.010	-0.010	-0.005	0.000	0.000	-0.015	0.034	2.710	1.890	1.885	1.885	1.909	1.904	1.899
0.010	0.000	0.005	0.005	0.000	0.005	0.034	2.710	1.890	1.880	1.880	1.904	1.899	1.904
0.015	-0.005	0.000	0.000	-0.005	-0.010	0.034	2.671	1.890	1.885	1.880	1.899	1.895	1.895
0.010	-0.010	0.000	0.000	0.005	-0.005	0.034	2.695	1.885	1.880	1.880	1.899	1.899	1.904
0.000	-0.010	0.005	0.005	0.005	0.015	0.034	2.671	1.880	1.880	1.880	1.904	1.899	1.904
0.005	0.000	0.000	0.005	-0.005	0.010	0.039	2.642	1.890	1.890	1.885	1.904	1.899	1.904
0.000	0.024	0.000	0.005	0.000	-0.020	0.034	2.798	1.909	1.899	1.895	1.909	1.899	1.895
0.005	0.010	0.000	0.015	0.000	-0.020	0.034	2.642	1.904	1.899	1.895	1.914	1.909	1.904
0.005	0.005	0.000	0.005	0.000	0.015	0.034	2.671	1.904	1.904	1.899	1.919	1.914	1.914
-0.015	0.005	0.000	0.005	0.005	0.010	0.034	2.744	1.909	1.909	1.904	1.919	1.914	1.919
-0.005	0.000	0.005	-0.005	0.005	0.020	0.034	2.739	1.919	1.909	1.909	1.924	1.914	1.919
0.000	0.005	0.005	-0.005	0.000	0.015	0.034	2.710	1.919	1.914	1.909	1.924	1.919	1.919
0.000	0.010	0.000	0.000	0.000	0.010	0.039	2.651	1.909	1.914	1.909	1.924	1.919	1.914
-0.010	0.000	0.005	0.000	-0.005	0.000	0.034	2.705	1.895	1.904	1.899	1.924	1.914	1.909
0.000	0.015	0.000	0.005	0.000	-0.005	0.034	2.656	1.895	1.904	1.899	1.919	1.914	1.909
-0.005	0.000	-0.005	0.010	0.005	-0.005	0.039	2.725	1.885	1.890	1.895	1.919	1.914	1.909
0.000	0.000	0.005	0.005	0.015	0.005	0.039	2.710	1.885	1.885	1.895	1.914	1.914	1.909
-0.005	0.005	0.000	0.010	0.005	0.000	0.039	2.637	1.875	1.880	1.885	1.909	1.904	1.904
0.000	0.000	0.005	0.010	0.000	-0.005	0.039	2.817	1.895	1.875	1.880	1.904	1.899	1.904
0.000	0.000	0.005	0.015	0.005	0.000	0.039	2.715	1.895	1.885	1.880	1.904	1.899	1.904
0.000	0.000	0.000	0.010	0.005	0.000	0.039	2.666	1.890	1.890	1.880	1.899	1.899	1.904
-0.005	-0.005	0.000	0.005	0.005	-0.015	0.034	2.725	1.899	1.890	1.885	1.899	1.899	1.899
0.000	0.010	0.005	0.000	0.005	0.005	0.034	2.710	1.904	1.895	1.890	1.904	1.899	1.904
-0.005	0.010	0.005	0.005	0.000	0.015	0.039	2.700	1.909	1.904	1.895	1.909	1.904	1.909
-0.010	0.010	0.000	0.005	0.000	0.010	0.034	2.671	1.909	1.909	1.899	1.919	1.909	1.914
0.005	0.000	0.005	0.015	0.000	-0.005	0.039	2.671	1.914	1.909	1.904	1.924	1.914	1.909
0.000	-0.005	0.000	0.015	0.000	0.000	0.039	2.705	1.914	1.914	1.909	1.924	1.914	1.914
-0.010	-0.010	0.000	0.000	-0.005	-0.010	0.034	2.676	1.909	1.914	1.909	1.924	1.914	1.914
0.005	-0.010	0.005	-0.005	0.005	0.015	0.039	2.705	1.914	1.914	1.909	1.924	1.919	1.919
0.010	-0.015	0.005	-0.005	0.005	0.000	0.039	2.676	1.909	1.909	1.909	1.924	1.919	1.919
0.000	-0.024	0.000	-0.005	-0.005	-0.005	0.039	2.676	1.899	1.899	1.904	1.919	1.914	1.914
-0.005	0.029	0.000	0.000	0.005	0.000	0.039	2.695	1.895	1.914	1.904	1.919	1.914	1.914
0.000	0.029	-0.005	0.000	0.000	0.000	0.039	2.695	1.895	1.899	1.899	1.914	1.914	1.904
0.005	-0.005	0.000	0.005	0.005	0.010	0.034	2.676	1.885	1.880	1.890	1.914	1.909	1.909
0.000	-0.015	0.000	0.000	0.000	-0.015	0.034	2.695	1.885	1.875	1.885	1.909	1.904	1.904
0.000	-0.005	0.000	0.000	0.000	0.015	0.034	2.666	1.880	1.880	1.880	1.904	1.904	1.909
0.000	0.005	0.000	0.000	0.005	-0.015	0.034	2.676	1.880	1.885	1.880	1.904	1.899	1.899
0.010	0.000	0.000	-0.005	0.015	0.010	0.039	2.686	1.890	1.885	1.880	1.899	1.904	1.904
0.005	0.000	0.005	-0.005	0.010	0.005	0.034	2.705	1.899	1.890	1.885	1.904	1.904	1.904
0.000	0.000	0.005	0.000	0.000	0.010	0.039	2.681	1.899	1.895	1.890	1.909	1.904	1.904
0.000	-0.005	0.005	0.000	0.005	0.000	0.034	2.661	1.904	1.899	1.895	1.909	1.904	1.904
0.005	0.005	0.000	0.005	0.000	-0.005	0.034	2.705	1.909	1.904	1.895	1.914	1.909	1.909
0.005	-0.005	0.000	0.005	0.000	0.000	0.039	2.666	1.909	1.909	1.904	1.919	1.914	1.914
-0.005	0.010	0.000	-0.005	0.005	0.015	0.039	2.710	1.914	1.914	1.909	1.924	1.919	1.919
0.005	0.029	0.000	-0.005	0.000	0.005	0.039	2.686	1.914	1.924	1.914	1.924	1.914	1.914
0.005	0.015	0.000	-0.005	-0.005	0.010	0.034	2.651	1.909	1.914	1.914	1.924	1.919	1.919
0.005	0.005	0.000	0.005	0.005	-0.005	0.034	2.793	1.919	1.909	1.909	1.924	1.919	1.909
0.000	0.010	0.000	0.000	-0.005	-0.020	0.034	2.642	1.904	1.904	1.904	1.924	1.914	1.909
0.005	0.000	0.000	0.005	0.005	-0.010	0.034	2.651	1.890	1.895	1.899	1.919	1.914	1.909
0.000	0.005	0.000	0.005	0.005	-0.029	0.039	2.729	1.890	1.890	1.895	1.914	1.909	1.899
0.005	0.015	0.000	0.000	0.005	-0.005	0.039	2.671	1.880	1.890	1.890	1.914	1.909	1.909
0.010	-0.010	0.005	0.005	-0.005	-0.010	0.034	2.729	1.890	1.875	1.880	1.904	1.899	1.904
0.000	-0.015	0.000	0.000	-0.005	0.010	0.039	2.651	1.885	1.875	1.880	1.899	1.899	1.909
-0.005	-0.020	0.000	0.000	0.005	-0.010	0.034	2.632	1.875	1.875	1.880	1.904	1.899	1.904
0.005	-0.005	0.000	0.010	0.010	0.015	0.034	2.676	1.885	1.880	1.880	1.899	1.899	1.909
0.000	-0.010	0.000	0.010	0.000	0.010	0.039	2.715	1.895	1.890	1.880	1.904	1.904	1.904
0.000	-0.015	0.000	0.000	-0.005	0.010	0.039	2.705	1.904	1.895	1.890	1.904	1.899	1.909
0.005	-0.005	0.005	0.000	0.000	-0.005	0.034	2.627	1.904	1.899	1.895	1.909	1.904	1.909
0.000	0.000	0.005	0.005	0.000	0.000	0.034	2.827	1.924	1.914	1.899	1.914	1.909	1.909
0.010	-0.010	0.005	0.000	0.000	0.015	0.034	2.749	1.934	1.919	1.909	1.919	1.914	1.919
-0.005	0.024	0.005	0.000	0.000	0.015	0.034	2.666	1.924	1.934	1.914	1.924	1.919	1.914
0.005	0.039	0.000	0.005	0.000	0.015	0.034	2.715	1.919	1.934	1.919	1.929	1.919	1.919
0.010	0.015	0.005	0.000	0.005	0.010	0.039	2.710	1.919	1.919	1.919	1.934	1.919	1.914
0.010	-0.010	0.000	-0.005	0.000	0.010	0.039	2.700	1.914	1.909	1.914	1.934	1.919	1.914
0.005	-0.005	0.005	-0.010	0.000	0.010	0.039	2.671	1.904	1.909	1.909	1.924	1.919	1.914
0.005	0.005	0.000	-0.005	0.000	-0.015	0.039	2.671	1.895	1.899	1.899	1.924	1.914	1.909
-0.005	0.000	0.000	-0.005	0.000	0.015	0.034	2.700	1.885	1.890	1.895	1.914	1.914	1.914
-0.005	0.000	0.005	0.000	0.000	-0.005	0.034	2.715	1.890	1.890	1.890	1.914	1.909	1.904
-0.015	0.000	0.000	0.010	0.000	-0.005	0.034	2.700	1.885	1.885	1.885	1.909	1.909	1.904
0.000	0.010	0.000	0.020	0.005	0.005	0.039	2.671	1.885	1.885	1.885	1.914	1.909	1.909
-0.010	0.000	0.000	0.015	0.010	0.005	0.039	2.681	1.880	1.880	1.885	1.909	1.909	1.909
-0.005	0.005	0.000	0.020	0.005	-0.010	0.034	2.705	1.895	1.890	1.885	1.909	1.909	1.904
0.005	0.000	0.000	0.010	0.000	0.010	0.039	2.715	1.909	1.895	1.890	1.909	1.909	1.909
0.005	-0.005	0.000	0.005	0.000	-0.015	0.039	2.671	1.904	1.899	1.895	1.909	1.909	1.904
0.010	-0.005	0.000	0.000	0.005	0.015	0.034	2.705	1.909	1.904	1.899	1.914	1.914	1.919
0.005	-0.010	-0.005	-0.005	0.000	0.000	0.034	2.681	1.914	1.909	1.899	1.919	1.914	1.919
0.005	0.000	0.005	-0.010	0.005	-0.005	0.034	2.666	1.914	1.919	1.904	1.919	1.919	1.919
0.010	-0.005	0.000	-0.015	0.005	-0.010	0.039	2.671	1.914	1.914	1.909	1.919	1.914	1.914
0.015	0.000	0.000	-0.005	-0.005	-0.015	0.039	2.715	1.914	1.919	1.909	1.929	1.914	1.914
0.010	-0.005	0.000	0.005	0.005	0.010	0.039	2.676	1.909	1.914	1.914	1.929	1.919	1.924
0.010	0.010	0.000	0.010	0.010	-0.005	0.039	2.676	1.909	1.909	1.909	1.929	1.924	1.914
0.039	0.015	0.005	0.010	0.005	-0.010	0.039	2.705	1.909	1.909	1.909	1.924	1.919	1.914
0.024	0.015	0.005	0.010	0.005	-0.005	0.039	2.671	1.895	1.899	1.904	1.924	1.914	1.914
0.000	0.015	0.000	0.000	0.005	0.000	0.034	2.700	1.880	1.890	1.899	1.914	1.909	1.909
-0.024	0.010	0.000	-0.005	-0.005	-0.005	0.034	2.690	1.875	1.880	1.885	1.909	1.909	1.904
-0.034	0.010	0.000	-0.005	0.010	0.010	0.034	2.632	1.870	1.875	1.880	1.909	1.909	1.909
-0.044	-0.005	0.000	0.000	0.000	0.010	0.034	2.778	1.880	1.875	1.875	1.904	1.904	1.909
-0.029	0.000	0.005	0.010	0.005	0.005	0.039	2.637	1.885	1.875	1.875	1.904	1.904	1.904
-0.020	0.010	0.005	0.010	0.000	-0.005	0.039	2.661	1.895	1.885	1.880	1.904	1.899	1.904
-0.010	-0.005	0.000	0.015	0.000	-0.015	0.039	2.739	1.909	1.895	1.885	1.909	1.904	1.904
0.020	0.000	0.005	0.010	0.000	-0.029	0.039	2.651	1.914	1.904	1.895	1.909	1.909	1.904
0.015	0.000	0.000	0.005	-0.005	-0.005	0.039	2.720	1.909	1.909	1.899	1.909	1.909	1.914
0.020	0.005	-0.005	-0.005	-0.005	-0.015	0.034	2.646	1.909	1.914	1.899	1.914	1.909	1.914
0.010	0.015	0.000	-0.005	0.000	0.010	0.034	2.632	1.904	1.914	1.904	1.919	1.914	1.919
0.010	-0.005	0.000	-0.010	0.005	0.024	0.034	2.661	1.904	1.909	1.904	1.919	1.919	1.924
0.005	-0.005	0.000	-0.005	0.005	-0.005	0.034	2.666	1.899	1.904	1.909	1.924	1.919	1.914
0.000	-0.005	-0.005	0.005	0.005	0.015	0.034	2.671	1.899	1.904	1.904	1.924	1.919	1.919
0.000	-0.005	0.005	0.005	-0.005	-0.015	0.034	2.729	1.890	1.899	1.899	1.919	1.914	1.904
0.005	0.000	0.000	0.005	0.005	0.010	0.039	2.676	1.885	1.890	1.895	1.914	1.909	1.914
-0.005	-0.005	0.000	0.005	-0.005	-0.005	0.034	2.734	1.885	1.885	1.890	1.909	1.904	1.909
0.005	0.005	0.005	0.000	0.000	0.010	0.039	2.666	1.890	1.880	1.885	1.904	1.904	1.904
0.005	-0.010	0.000	0.005	-0.015	-0.024	0.039	2.729	1.890	1.875	1.875	1.899	1.895	1.895
0.000	-0.010	-0.005	0.000	0.000	0.000	0.039	2.700	1.885	1.875	1.875	1.895	1.895	1.904
-0.005	-0.010	0.005	-0.005	0.005	0.029	0.034	2.676	1.890	1.880	1.875	1.895	1.899	1.904
0.000	0.000	0.005	-0.005	0.024	0.029	0.039	2.686	1.890	1.885	1.875	1.895	1.899	1.904
0.005	0.005	0.005	-0.005	0.015	0.020	0.034	2.690	1.899	1.890	1.885	1.899	1.899	1.904
0.000	0.005	0.005	-0.005	0.010	-0.005	0.034	2.671	1.904	1.895	1.890	1.904	1.899	1.899
0.005	0.000	0.000	-0.005	0.015	0.005	0.034	2.695	1.909	1.904	1.895	1.909	1.904	1.904
0.005	0.005	0.000	0.000	0.010	-0.010	0.039	2.700	1.914	1.914	1.904	1.914	1.904	1.899
0.005	0.005	0.005	-0.005	0.005	-0.005	0.039	2.661	1.914	1.914	1.909	1.919	1.909	1.904
-0.005	-0.005	0.000	-0.005	-0.005	-0.029	0.039	2.681	1.914	1.914	1.909	1.924	1.909	1.899
0.005	-0.005	0.005	0.000	-0.020	-0.044	0.034	2.651	1.909	1.914	1.909	1.929	1.909	1.899
0.000	0.000	0.000	0.005	-0.015	-0.034	0.039	2.700	1.909	1.909	1.909	1.929	1.914	1.904
0.010	-0.005	0.000	0.000	-0.010	-0.024	0.039	2.671	1.899	1.909	1.904	1.924	1.914	1.914
0.010	0.000	0.000	0.000	-0.010	0.020	0.039	2.690	1.895	1.899	1.904	1.919	1.914	1.919
0.015	0.000	0.000	-0.005	-0.010	0.015	0.039	2.690	1.895	1.895	1.899	1.914	1.909	1.914
0.000	0.005	-0.005	0.005	-0.029	0.020	0.034	2.681	1.890	1.895	1.890	1.914	1.904	1.909
0.010	0.010	0.010	0.010	-0.015	0.015	0.034	2.681	1.890	1.890	1.890	1.909	1.909	1.904
0.005	0.010	0.005	0.010	0.029	0.005	0.034	2.676	1.885	1.885	1.885	1.909	1.919	1.909
0.005	0.000	0.005	0.015	0.044	0.015	0.034	2.661	1.880	1.880	1.885	1.909	1.914	1.914
0.000	0.015	0.000	0.010	0.024	0.010	0.034	2.705	1.885	1.885	1.880	1.904	1.904	1.904
0.000	0.024	0.000	0.005	0.000	0.000	0.034	2.686	1.899	1.890	1.885	1.904	1.899	1.899
0.000	0.024	0.000	0.005	-0.020	-0.005	0.034	2.681	1.899	1.895	1.890	1.904	1.899	1.904
0.005	0.015	0.005	0.005	-0.005	0.000	0.039	2.705	1.909	1.895	1.895	1.909	1.904	1.904
0.000	0.010	0.005	0.000	-0.005	0.015	0.039	2.705	1.909	1.899	1.899	1.914	1.909	1.909
-0.010	0.005	0.000	-0.005	0.005	0.005	0.034	2.642	1.904	1.904	1.899	1.919	1.914	1.914
-0.010	0.000	0.005	-0.005	0.000	-0.005	0.034	2.788	1.919	1.904	1.904	1.919	1.914	1.909
-0.015	-0.005	0.005	-0.005	0.020	-0.005	0.034	2.651	1.909	1.909	1.904	1.919	1.924	1.919
-0.010	-0.005	0.000	-0.010	0.024	0.005	0.034	2.656	1.904	1.909	1.909	1.919	1.924	1.919
-0.005	-0.010	0.000	-0.005	0.020	-0.005	0.034	2.739	1.909	1.904	1.904	1.924	1.919	1.914
-0.005	-0.005	0.005	0.000	0.015	0.005	0.034	2.739	1.919	1.904	1.904	1.924	1.919	1.914
0.010	-0.020	0.000	-0.005	0.000	-0.020	0.039	2.710	1.904	1.899	1.899	1.919	1.909	1.909
0.010	-0.020	0.000	0.005	0.005	0.000	0.039	2.642	1.890	1.895	1.895	1.919	1.909	1.914
0.010	-0.010	0.005	0.000	0.000	0.000	0.034	2.632	1.880	1.890	1.890	1.909	1.904	1.904
0.005	0.010	0.005	-0.005	-0.005	0.015	0.039	2.700	1.880	1.885	1.885	1.904	1.899	1.909
0.010	0.015	0.000	-0.010	-0.005	0.020	0.039	2.676	1.880	1.885	1.880	1.899	1.899	1.904
0.010	0.010	0.000	-0.010	0.000	-0.010	0.039	2.700	1.880	1.880	1.880	1.899	1.895	1.895
0.005	0.010	0.005	-0.005	0.000	0.005	0.039	2.734	1.880	1.880	1.880	1.904	1.899	1.899
0.005	0.000	0.005	0.005	0.000	0.000	0.039	2.808	1.899	1.885	1.885	1.909	1.899	1.899
0.005	0.000	0.000	0.015	0.000	0.000	0.039	2.700	1.904	1.890	1.890	1.909	1.904	1.904
0.005	-0.005	0.005	0.015	0.000	-0.005	0.039	2.661	1.904	1.899	1.890	1.909	1.904	1.904
0.005	0.005	0.000	0.010	0.000	0.005	0.039	2.642	1.904	1.904	1.899	1.919	1.909	1.914
0.000	0.015	-0.005	0.005	0.015	0.000	0.034	2.700	1.909	1.909	1.899	1.914	1.914	1.914
-0.005	0.010	0.005	0.000	0.010	0.010	0.034	2.676	1.909	1.914	1.904	1.919	1.914	1.919
0.005	0.005	0.000	0.000	0.005	-0.010	0.039	2.676	1.909	1.909	1.909	1.924	1.914	1.914
0.005	-0.005	0.000	0.000	0.005	-0.015	0.039	2.671	1.904	1.904	1.904	1.919	1.914	1.909
0.005	-0.005	0.000	-0.010	0.000	0.005	0.034	2.671	1.899	1.904	1.904	1.919	1.914	1.919
0.005	-0.005	-0.005	-0.010	0.005	0.005	0.034	2.695	1.895	1.899	1.899	1.914	1.909	1.914
0.005	-0.010	-0.005	-0.005	0.010	0.015	0.034	2.700	1.890	1.890	1.895	1.914	1.909	1.909
0.000	-0.005	0.000	0.005	-0.010	-0.020	0.039	2.686	1.890	1.890	1.890	1.914	1.899	1.895
0.005	-0.005	0.005	0.015	-0.005	0.015	0.039	2.666	1.885	1.880	1.885	1.909	1.904	1.904
0.010	0.015	0.005	0.010	-0.010	0.010	0.039	2.710	1.885	1.885	1.885	1.904	1.895	1.899
0.000	0.015	0.005	0.010	-0.015	-0.005	0.039	2.700	1.885	1.885	1.885	1.899	1.895	1.895
-0.005	0.020	0.005	0.015	-0.020	-0.005	0.034	2.676	1.880	1.885	1.880	1.904	1.895	1.899
0.000	0.024	0.005	0.015	-0.010	0.005	0.039	2.710	1.895	1.890	1.885	1.904	1.899	1.899
0.000	0.010	0.005	0.010	-0.005	0.000	0.039	2.666	1.895	1.885	1.885	1.904	1.904	1.904
0.000	-0.010	0.000	0.010	0.005	0.010	0.039	2.681	1.899	1.885	1.885	1.904	1.909	1.904
0.010	0.049	0.000	0.015	0.000	0.000	0.034	2.690	1.909	1.914	1.899	1.909	1.909	1.909
0.005	0.049	-0.005	0.000	0.029	0.005	0.034	2.681	1.909	1.914	1.904	1.914	1.919	1.914
-0.005	-0.020	-0.005	-0.005	0.024	0.000	0.039	2.710	1.914	1.895	1.904	1.919	1.914	1.914
0.005	-0.020	0.005	0.000	0.015	0.010	0.039	2.681	1.909	1.904	1.904	1.919	1.914	1.919
-0.005	-0.015	0.005	0.000	0.005	0.015	0.039	2.705	1.909	1.904	1.904	1.919	1.914	1.919
-0.010	-0.015	0.010	0.000	0.010	0.000	0.039	2.666	1.904	1.904	1.904	1.919	1.914	1.914
-0.010	-0.015	0.000	0.005	0.005	-0.010	0.034	2.695	1.904	1.904	1.899	1.919	1.914	1.909
-0.005	-0.010	0.000	-0.005	0.005	0.005	0.034	2.690	1.899	1.899	1.895	1.914	1.909	1.909
-0.005	-0.010	0.000	-0.005	0.000	0.010	0.034	2.632	1.885	1.890	1.890	1.909	1.904	1.909
-0.005	0.034	0.005	-0.005	0.005	0.015	0.039	2.783	1.904	1.904	1.895	1.909	1.904	1.904
0.000	0.020	0.000	-0.005	0.000	0.000	0.039	2.651	1.890	1.890	1.890	1.904	1.899	1.899
0.010	-0.015	0.000	0.000	0.000	0.000	0.039	2.661	1.885	1.875	1.880	1.904	1.899	1.895
0.015	-0.020	0.000	0.000	0.000	-0.005	0.034	2.739	1.890	1.875	1.880	1.899	1.895	1.899
0.000	-0.020	0.000	-0.005	0.000	0.005	0.034	2.646	1.885	1.875	1.880	1.899	1.895	1.899
0.000	-0.005	0.005	0.000	-0.005	0.000	0.034	2.632	1.880	1.880	1.880	1.899	1.895	1.895
0.005	0.000	0.005	0.005	0.005	0.005	0.039	2.642	1.885	1.890	1.885	1.904	1.904	1.904
0.000	0.005	0.005	0.005	0.000	0.000	0.039	2.729	1.885	1.895	1.890	1.909	1.904	1.904
0.010	0.005	0.000	0.005	0.000	-0.005	0.039	2.666	1.895	1.895	1.895	1.909	1.904	1.904
0.000	-0.005	0.000	0.000	-0.005	-0.005	0.039	2.656	1.895	1.899	1.895	1.914	1.909	1.909
0.000	-0.005	0.005	-0.005	-0.005	-0.020	0.039	2.705	1.899	1.899	1.899	1.914	1.909	1.904
0.010	0.005	0.000	-0.010	0.000	0.010	0.039	2.637	1.899	1.904	1.899	1.914	1.914	1.919
0.000	0.000	-0.005	-0.005	0.000	-0.020	0.034	2.812	1.914	1.904	1.899	1.919	1.909	1.904
0.000	0.010	0.000	0.000	0.005	0.010	0.034	2.710	1.914	1.909	1.904	1.919	1.914	1.919
0.005	0.000	0.005	0.005	0.000	0.005	0.039	2.661	1.899	1.904	1.899	1.919	1.909	1.914
0.000	-0.005	0.000	0.010	0.000	0.005	0.039	2.632	1.899	1.899	1.895	1.914	1.909	1.909
0.000	0.000	0.000	0.005	0.000	0.005	0.034	2.705	1.899	1.890	1.895	1.914	1.909	1.904
-0.005	0.000	0.005	0.005	0.000	0.005	0.034	2.681	1.890	1.890	1.890	1.909	1.904	1.904
0.000	0.005	0.005	0.000	0.005	0.010	0.034	2.676	1.885	1.885	1.885	1.904	1.904	1.899
0.005	0.005	0.000	0.000	0.000	0.010	0.034	2.661	1.875	1.880	1.880	1.899	1.895	1.895
-0.010	-0.010	0.000	0.005	-0.005	0.015	0.034	2.671	1.875	1.875	1.875	1.899	1.895	1.899
0.005	0.000	0.000	0.010	-0.015	0.015	0.034	2.671	1.885	1.880	1.875	1.899	1.890	1.895
0.000	0.005	0.000	0.005	-0.005	0.015	0.034	2.671	1.885	1.885	1.880	1.899	1.895	1.899
0.005	0.005	0.000	0.005	-0.010	0.000	0.039	2.666	1.895	1.890	1.885	1.904	1.899	1.899
0.000	-0.005	0.000	0.010	-0.015	0.000	0.039	2.661	1.890	1.890	1.890	1.909	1.899	1.899
-0.010	0.010	0.005	0.000	-0.010	-0.015	0.034	2.695	1.899	1.899	1.895	1.909	1.904	1.899
0.000	0.010	0.000	-0.005	0.015	-0.039	0.039	2.710	1.909	1.904	1.899	1.909	1.914	1.899
0.005	0.010	0.005	-0.005	0.024	-0.024	0.039	2.676	1.909	1.904	1.904	1.919	1.914	1.909
0.000	0.000	0.005	0.000	0.000	-0.010	0.039	2.710	1.909	1.909	1.904	1.919	1.914	1.914
0.015	-0.005	0.005	0.000	-0.010	0.000	0.039	2.676	1.914	1.909	1.904	1.919	1.914	1.914
-0.005	-0.005	0.000	0.000	0.015	-0.005	0.039	2.681	1.904	1.904	1.904	1.919	1.919	1.914
0.005	0.000	0.000	0.000	0.034	0.005	0.034	2.671	1.895	1.904	1.899	1.914	1.919	1.919
-0.005	0.000	0.000	0.000	0.034	-0.020	0.034	2.671	1.890	1.895	1.895	1.909	1.914	1.909
0.005	0.005	0.000	0.005	0.015	0.005	0.034	2.671	1.885	1.890	1.890	1.909	1.904	1.914
0.005	0.010	-0.005	0.005	0.010	0.020	0.034	2.695	1.885	1.885	1.885	1.909	1.904	1.909
0.005	0.000	0.000	0.005	0.005	0.005	0.034	2.700	1.880	1.875	1.880	1.904	1.895	1.904
0.005	0.005	0.000	0.000	-0.005	0.015	0.034	2.671	1.880	1.875	1.880	1.899	1.895	1.899
-0.005	0.010	0.005	0.000	-0.015	0.020	0.039	2.710	1.885	1.875	1.875	1.899	1.890	1.899
0.000	0.010	0.005	0.000	-0.020	0.010	0.034	2.695	1.890	1.880	1.880	1.899	1.890	1.895
0.010	-0.005	0.005	0.010	-0.010	0.015	0.039	2.676	1.895	1.885	1.880	1.899	1.895	1.895
0.005	0.000	0.005	0.000	-0.005	-0.005	0.039	2.778	1.904	1.895	1.885	1.899	1.899	1.895
0.000	0.000	0.005	0.010	0.010	0.005	0.039	2.651	1.904	1.899	1.890	1.909	1.909	1.904
0.005	-0.005	0.005	0.000	0.024	0.015	0.039	2.661	1.909	1.909	1.895	1.909	1.914	1.909
0.015	0.000	0.000	-0.005	0.010	0.010	0.034	2.729	1.914	1.909	1.904	1.914	1.909	1.914
0.000	-0.005	0.000	0.000	0.000	0.010	0.034	2.710	1.919	1.909	1.904	1.919	1.909	1.914
0.000	0.000	-0.005	-0.005	-0.005	0.000	0.039	2.622	1.904	1.914	1.909	1.919	1.909	1.909
0.000	-0.010	0.005	-0.005	0.000	0.010	0.039	2.651	1.899	1.909	1.909	1.924	1.914	1.914
0.005	-0.015	0.000	-0.005	0.000	0.010	0.034	2.642	1.890	1.899	1.904	1.919	1.914	1.914
0.000	0.000	0.000	-0.005	0.000	-0.005	0.039	2.695	1.890	1.895	1.899	1.914	1.909	1.904
-0.010	-0.005	-0.005	-0.005	0.000	0.000	0.039	2.651	1.880	1.885	1.890	1.909	1.904	1.904
0.000	0.000	0.005	-0.005	0.005	-0.010	0.034	2.700	1.880	1.885	1.890	1.909	1.904	1.904
-0.005	0.068	-0.005	0.000	0.000	0.010	0.034	2.710	1.875	1.895	1.885	1.909	1.904	1.904
-0.010	0.015	0.000	0.000	-0.005	0.005	0.034	2.822	1.890	1.875	1.880	1.904	1.899	1.899
-0.010	-0.005	0.000	0.015	0.000	0.015	0.039	2.710	1.890	1.875	1.875	1.904	1.899	1.899
0.000	0.015	0.005	0.020	0.005	0.015	0.039	2.622	1.890	1.885	1.880	1.904	1.899	1.904
0.000	0.000	0.005	0.020	0.000	0.015	0.039	2.637	1.885	1.880	1.880	1.904	1.899	1.904
0.005	0.000	0.000	0.020	0.005	0.000	0.039	2.710	1.895	1.885	1.880	1.904	1.899	1.899
0.000	0.005	0.005	0.010	0.005	0.000	0.039	2.681	1.899	1.895	1.890	1.904	1.904	1.904
0.005	-0.005	0.005	0.000	0.005	0.005	0.039	2.686	1.904	1.899	1.890	1.904	1.904	1.909
-0.010	-0.010	0.005	-0.005	0.000	-0.020	0.039	2.666	1.904	1.899	1.895	1.909	1.904	1.904
-0.005	-0.005	0.000	-0.005	-0.010	0.000	0.034	2.676	1.904	1.904	1.899	1.914	1.909	1.909
0.015	0.005	0.000	0.000	-0.010	0.005	0.034	2.705	1.914	1.909	1.904	1.914	1.909	1.909
0.000	0.000	0.000	0.005	-0.005	-0.020	0.039	2.705	1.914	1.909	1.909	1.919	1.914	1.904
0.005	0.000	0.000	0.000	0.005	0.005	0.039	2.666	1.904	1.909	1.904	1.919	1.914	1.914
0.005	0.000	0.000	-0.005	-0.005	-0.005	0.034	2.676	1.899	1.899	1.899	1.914	1.909	1.909
0.005	-0.005	0.000	-0.005	-0.005	0.015	0.034	2.710	1.895	1.895	1.895	1.914	1.909	1.914
0.005	-0.005	0.000	-0.005	-0.005	0.020	0.039	2.705	1.895	1.895	1.895	1.914	1.904	1.909
0.000	0.005	0.000	0.000	0.000	-0.020	0.034	2.681	1.890	1.890	1.890	1.909	1.904	1.895
0.000	0.010	0.000	-0.005	0.020	0.000	0.039	2.710	1.890	1.885	1.880	1.904	1.909	1.899
0.000	0.000	0.005	-0.005	0.020	0.020	0.039	2.681	1.880	1.880	1.880	1.899	1.904	1.909
0.005	-0.005	0.005	0.000	0.010	0.000	0.034	2.690	1.885	1.880	1.880	1.904	1.899	1.899
0.005	0.000	0.000	0.005	0.010	0.010	0.039	2.671	1.885	1.880	1.880	1.899	1.899	1.904
0.000	0.010	0.000	0.005	0.020	-0.005	0.034	2.681	1.890	1.885	1.880	1.904	1.899	1.899
0.005	-0.015	0.000	0.005	0.020	0.020	0.039	2.700	1.899	1.885	1.885	1.904	1.899	1.909
0.010	-0.015	0.000	0.000	0.020	0.015	0.039	2.681	1.904	1.895	1.890	1.909	1.904	1.909
0.005	-0.010	0.000	-0.005	0.010	-0.005	0.039	2.720	1.914	1.904	1.895	1.909	1.904	1.899
0.005	0.000	0.000	0.000	-0.010	0.015	0.039	2.681	1.914	1.909	1.899	1.914	1.904	1.909
0.005	-0.010	0.005	0.000	-0.015	-0.005	0.034	2.710	1.919	1.909	1.904	1.919	1.904	1.904
-0.005	0.015	0.000	0.000	-0.015	-0.015	0.034	2.690	1.909	1.919	1.909	1.924	1.909	1.904
0.005	0.015	0.000	0.005	-0.044	0.000	0.034	2.637	1.904	1.914	1.914	1.924	1.904	1.909
-0.005	0.020	0.005	-0.005	-0.054	0.000	0.034	2.793	1.909	1.914	1.914	1.924	1.909	1.904
-0.005	0.020	0.005	0.005	0.010	-0.005	0.034	2.637	1.895	1.904	1.909	1.924	1.929	1.909
0.005	0.000	0.000	0.000	0.029	0.005	0.034	2.651	1.890	1.895	1.899	1.919	1.924	1.914
0.010	-0.015	0.000	0.005	0.034	0.020	0.034	2.720	1.890	1.885	1.895	1.914	1.924	1.919
0.010	-0.020	0.005	0.000	0.039	0.020	0.034	2.642	1.880	1.880	1.885	1.909	1.919	1.914
0.005	0.020	0.000	-0.005	-0.005	-0.010	0.034	2.622	1.875	1.885	1.885	1.904	1.895	1.904
-0.005	0.020	0.000	-0.005	-0.034	-0.029	0.034	2.651	1.875	1.875	1.875	1.899	1.885	1.885
0.010	0.020	0.000	-0.005	-0.024	0.000	0.034	2.715	1.880	1.880	1.880	1.895	1.895	1.899
0.000	0.005	0.005	-0.005	-0.020	-0.024	0.034	2.661	1.875	1.875	1.875	1.899	1.895	1.895
0.005	-0.010	0.000	0.000	-0.005	-0.015	0.039	2.754	1.895	1.875	1.875	1.904	1.899	1.895
0.010	-0.005	0.005	0.005	-0.005	-0.044	0.039	2.705	1.904	1.895	1.885	1.904	1.904	1.895
0.005	0.015	-0.005	0.010	0.015	0.005	0.039	2.622	1.895	1.904	1.890	1.909	1.914	1.909
0.000	0.005	0.000	0.005	0.049	0.005	0.034	2.822	1.919	1.904	1.895	1.914	1.924	1.919
-0.005	0.010	0.005	0.005	0.059	0.000	0.039	2.729	1.924	1.914	1.904	1.919	1.924	1.924
-0.005	0.005	0.000	0.005	0.034	-0.010	0.034	2.622	1.914	1.914	1.904	1.919	1.914	1.919
-0.005	0.005	0.000	0.005	0.015	0.015	0.039	2.617	1.899	1.914	1.909	1.919	1.914	1.924
-0.010	0.000	0.005	0.010	0.000	0.010	0.039	2.705	1.904	1.909	1.909	1.924	1.909	1.914
0.000	-0.005	0.005	0.010	0.005	0.005	0.039	2.671	1.899	1.904	1.904	1.919	1.909	1.914
0.005	0.020	0.000	0.000	0.005	0.000	0.039	2.671	1.899	1.904	1.904	1.919	1.909	1.909
0.000	0.010	0.005	0.005	0.000	0.020	0.039	2.661	1.885	1.890	1.895	1.914	1.909	1.909
-0.005	0.015	0.000	0.005	-0.005	0.005	0.039	2.700	1.885	1.885	1.890	1.909	1.899	1.904
0.010	0.005	0.000	0.005	-0.015	0.010	0.034	2.710	1.890	1.880	1.885	1.909	1.899	1.899
0.005	0.000	0.005	0.005	-0.010	0.024	0.039	2.671	1.880	1.875	1.880	1.899	1.899	1.899
0.005	0.000	0.000	0.005	0.000	0.015	0.034	2.666	1.875	1.875	1.875	1.899	1.899	1.899
0.000	0.005	0.000	0.005	-0.010	0.015	0.034	2.676	1.880	1.875	1.875	1.899	1.895	1.899
0.000	0.005	0.005	0.005	-0.020	0.010	0.039	2.690	1.890	1.880	1.880	1.899	1.895	1.895
0.005	-0.005	-0.005	0.000	0.000	-0.005	0.034	2.671	1.890	1.885	1.880	1.899	1.899	1.895
-0.005	-0.005	0.005	0.000	0.005	-0.024	0.034	2.715	1.899	1.890	1.885	1.904	1.899	1.895
-0.005	-0.005	0.000	0.000	0.015	0.010	0.034	2.681	1.904	1.895	1.890	1.904	1.909	1.909
0.000	-0.005	0.000	0.000	0.000	-0.020	0.034	2.666	1.904	1.904	1.895	1.909	1.904	1.899
0.005	-0.005	0.000	0.005	-0.010	0.005	0.039	2.705	1.909	1.904	1.904	1.919	1.909	1.914
0.005	-0.005	0.000	0.000	-0.029	0.010	0.039	2.686	1.914	1.909	1.904	1.914	1.904	1.909
0.010	0.000	0.000	0.005	-0.029	-0.015	0.034	2.666	1.904	1.909	1.904	1.919	1.904	1.904
0.000	-0.010	0.000	-0.005	-0.034	-0.020	0.034	2.681	1.904	1.899	1.899	1.919	1.904	1.904
0.005	-0.010	0.005	0.000	0.000	-0.024	0.039	2.671	1.895	1.899	1.899	1.919	1.919	1.899
0.005	-0.005	0.000	0.000	0.029	-0.015	0.044	2.715	1.895	1.895	1.895	1.919	1.919	1.909
-0.005	-0.015	0.000	0.000	0.029	0.020	0.039	2.695	1.890	1.885	1.890	1.914	1.914	1.919
0.005	-0.005	0.005	0.005	0.049	0.020	0.039	2.700	1.890	1.885	1.885	1.909	1.914	1.919
0.010	0.068	0.000	0.010	0.049	0.020	0.039	2.676	1.885	1.904	1.890	1.904	1.909	1.914
0.000	0.034	0.000	0.000	0.024	0.015	0.034	2.637	1.875	1.880	1.885	1.904	1.895	1.904
0.000	-0.010	0.005	0.000	0.000	0.005	0.039	2.793	1.895	1.870	1.875	1.899	1.890	1.895
0.010	-0.010	0.000	0.005	0.000	-0.015	0.039	2.651	1.890	1.880	1.875	1.899	1.890	1.890
0.010	0.000	0.000	-0.005	-0.010	0.000	0.039	2.666	1.890	1.885	1.880	1.899	1.890	1.895
0.005	0.000	-0.005	0.000	-0.010	0.000	0.034	2.734	1.899	1.890	1.885	1.899	1.895	1.899
0.000	-0.005	0.000	-0.005	-0.010	0.000	0.039	2.729	1.904	1.895	1.890	1.904	1.899	1.899
0.005	-0.005	0.005	-0.010	-0.020	0.005	0.039	2.749	1.919	1.904	1.899	1.909	1.899	1.904
-0.005	-0.005	0.005	-0.005	0.015	0.020	0.034	2.651	1.909	1.909	1.904	1.914	1.914	1.909
0.000	-0.015	0.005	-0.005	0.034	0.024	0.039	2.720	1.904	1.909	1.909	1.919	1.924	1.919
0.005	0.005	0.005	0.010	0.029	0.020	0.039	2.666	1.909	1.909	1.909	1.929	1.919	1.919
0.005	-0.005	0.000	0.020	0.015	0.010	0.034	2.637	1.914	1.909	1.909	1.929	1.919	1.914
0.000	0.005	0.000	0.020	-0.010	0.005	0.034	2.695	1.909	1.914	1.909	1.929	1.914	1.909
0.005	0.000	0.000	0.010	-0.020	-0.020	0.034	2.725	1.904	1.904	1.904	1.919	1.909	1.899
0.005	0.005	0.005	-0.010	-0.020	-0.034	0.034	2.817	1.909	1.904	1.899	1.909	1.904	1.895
0.000	0.015	0.005	-0.005	-0.039	-0.024	0.034	2.754	1.909	1.909	1.899	1.914	1.899	1.899
0.005	0.020	0.005	-0.005	-0.044	-0.015	0.039	2.720	1.904	1.899	1.895	1.909	1.895	1.895
-0.010	0.000	0.000	0.005	-0.029	-0.010	0.034	2.617	1.880	1.890	1.890	1.909	1.904	1.899
0.000	-0.010	0.000	0.010	0.000	0.005	0.039	2.710	1.885	1.880	1.885	1.909	1.914	1.904
-0.005	-0.005	0.000	0.010	0.010	0.010	0.039	2.690	1.880	1.880	1.885	1.909	1.909	1.909
0.005	-0.005	0.005	0.005	0.000	0.015	0.039	2.715	1.899	1.885	1.885	1.904	1.904	1.909
0.005	-0.005	0.000	0.005	0.010	0.005	0.039	2.676	1.899	1.890	1.890	1.909	1.909	1.909
0.000	-0.005	0.000	0.005	0.029	0.005	0.034	2.671	1.899	1.895	1.890	1.909	1.914	1.914
-0.005	0.005	-0.005	0.005	0.029	0.000	0.039	2.671	1.904	1.904	1.899	1.914	1.914	1.919
0.000	-0.005	0.005	0.005	0.020	0.024	0.039	2.690	1.914	1.909	1.899	1.919	1.919	1.924
0.000	0.005	0.000	-0.010	0.029	0.005	0.039	2.671	1.909	1.914	1.909	1.919	1.919	1.919
0.000	0.000	0.000	0.000	0.024	0.015	0.039	2.676	1.914	1.914	1.914	1.924	1.919	1.919
0.000	0.000	0.000	0.005	0.005	0.000	0.034	2.671	1.909	1.909	1.909	1.924	1.919	1.919
0.000	-0.005	-0.005	0.005	0.000	-0.015	0.039	2.676	1.909	1.909	1.909	1.924	1.914	1.909
-0.005	0.000	0.005	0.000	-0.005	0.010	0.034	2.681	1.899	1.904	1.909	1.924	1.914	1.919
0.010	0.000	-0.005	0.005	0.005	-0.015	0.034	2.676	1.899	1.899	1.899	1.919	1.919	1.914
0.000	-0.010	0.000	0.000	-0.005	0.005	0.034	2.661	1.890	1.890	1.895	1.914	1.909	1.909
-0.005	0.000	0.000	-0.005	0.000	0.010	0.034	2.676	1.885	1.885	1.890	1.909	1.904	1.909
0.005	0.000	0.000	0.000	-0.010	0.010	0.039	2.671	1.880	1.885	1.885	1.904	1.904	1.904
0.005	0.010	0.000	0.000	-0.005	0.015	0.039	2.690	1.880	1.880	1.885	1.904	1.904	1.909
0.000	0.015	0.000	0.000	-0.015	0.010	0.034	2.671	1.875	1.880	1.880	1.904	1.895	1.899
0.005	0.005	0.000	0.000	-0.010	0.000	0.034	2.690	1.885	1.875	1.875	1.899	1.899	1.899
0.005	0.015	0.000	0.005	-0.010	-0.005	0.039	2.695	1.890	1.885	1.880	1.899	1.895	1.899
-0.010	-0.005	0.000	0.005	-0.010	-0.020	0.039	2.705	1.895	1.885	1.885	1.904	1.899	1.895
-0.010	0.000	0.005	0.000	0.010	0.010	0.039	2.705	1.904	1.895	1.890	1.904	1.909	1.909
0.000	0.005	0.005	-0.005	0.015	0.005	0.039	2.695	1.914	1.899	1.895	1.909	1.909	1.909
0.005	-0.010	0.005	-0.005	0.010	0.010	0.039	2.642	1.909	1.904	1.899	1.914	1.909	1.914
0.000	0.015	0.005	0.000	-0.005	-0.005	0.034	2.705	1.924	1.914	1.904	1.914	1.909	1.909
0.000	0.000	0.000	0.000	-0.034	0.000	0.034	2.651	1.914	1.914	1.904	1.919	1.904	1.909
0.005	-0.020	0.000	0.005	-0.024	-0.005	0.039	2.651	1.909	1.909	1.904	1.919	1.909	1.909
0.000	-0.015	0.000	0.005	-0.010	-0.005	0.039	2.744	1.914	1.909	1.904	1.924	1.919	1.914
0.005	-0.024	0.005	0.005	0.015	0.000	0.039	2.734	1.899	1.904	1.904	1.924	1.924	1.914
0.005	0.010	0.005	-0.005	0.015	-0.005	0.034	2.622	1.890	1.909	1.904	1.919	1.914	1.914
-0.005	0.059	0.000	0.000	0.024	0.005	0.034	2.646	1.880	1.909	1.899	1.919	1.919	1.909
0.010	-0.020	0.005	0.005	0.039	0.010	0.039	2.725	1.885	1.875	1.890	1.914	1.914	1.914
0.020	-0.039	0.000	0.010	0.024	0.000	0.039	2.666	1.885	1.870	1.880	1.909	1.904	1.909
0.010	-0.044	0.005	0.000	-0.005	-0.005	0.034	2.725	1.875	1.870	1.870	1.899	1.895	1.904
-0.005	0.063	0.000	0.005	-0.020	0.010	0.034	2.671	1.885	1.899	1.880	1.899	1.890	1.899
0.000	0.059	0.005	0.005	-0.039	0.015	0.039	2.720	1.890	1.895	1.885	1.899	1.890	1.899
-0.005	0.010	-0.005	0.010	-0.020	0.010	0.039	2.676	1.890	1.875	1.880	1.904	1.899	1.895
0.005	-0.020	-0.005	0.015	0.024	0.005	0.039	2.744	1.909	1.885	1.885	1.904	1.909	1.904
0.000	0.039	0.000	0.005	0.029	-0.005	0.039	2.661	1.904	1.909	1.895	1.904	1.914	1.909
0.005	0.029	0.000	0.005	0.049	0.005	0.034	2.642	1.904	1.909	1.899	1.909	1.919	1.914
0.000	-0.010	0.005	0.000	0.039	0.010	0.034	2.705	1.909	1.899	1.899	1.914	1.919	1.919
0.000	0.039	0.000	-0.005	0.034	-0.005	0.034	2.705	1.914	1.914	1.909	1.919	1.914	1.914
0.000	0.005	0.005	0.000	0.034	0.015	0.039	2.671	1.914	1.904	1.909	1.924	1.924	1.924
0.000	-0.015	0.005	0.000	0.059	0.020	0.039	2.700	1.914	1.904	1.904	1.924	1.924	1.924
0.010	-0.059	0.000	-0.005	0.010	0.010	0.034	2.661	1.904	1.890	1.899	1.919	1.909	1.919
0.005	-0.015	0.005	-0.005	-0.029	0.000	0.039	2.705	1.904	1.904	1.899	1.914	1.895	1.909
-0.005	0.000	0.005	-0.005	-0.015	0.015	0.039	2.686	1.899	1.904	1.895	1.914	1.904	1.909
0.005	0.000	0.005	0.005	0.005	0.005	0.044	2.661	1.890	1.895	1.895	1.914	1.904	1.904
-0.010	-0.005	0.005	0.015	0.000	0.015	0.034	2.671	1.875	1.885	1.890	1.909	1.899	1.904
-0.005	0.010	0.005	0.005	-0.005	0.015	0.039	2.710	1.885	1.885	1.885	1.904	1.899	1.899
0.000	0.000	0.005	0.005	-0.005	-0.015	0.039	2.666	1.885	1.885	1.880	1.899	1.895	1.890
0.000	0.015	0.005	0.000	-0.005	0.000	0.039	2.671	1.880	1.880	1.885	1.899	1.895	1.895
0.000	0.020	0.005	0.000	-0.015	-0.020	0.034	2.671	1.885	1.885	1.880	1.899	1.890	1.890
0.005	0.024	0.005	-0.005	-0.024	-0.034	0.034	2.666	1.895	1.890	1.890	1.899	1.890	1.885
-0.005	-0.015	0.005	-0.005	-0.015	-0.034	0.034	2.676	1.890	1.880	1.885	1.904	1.899	1.890
0.010	0.005	0.005	0.000	-0.010	-0.049	0.034	2.676	1.904	1.895	1.895	1.909	1.904	1.890
0.015	-0.029	0.000	-0.005	-0.020	-0.034	0.034	2.705	1.904	1.890	1.895	1.914	1.909	1.904
0.010	-0.029	0.005	0.000	-0.010	-0.024	0.034	2.671	1.909	1.904	1.899	1.919	1.914	1.914
0.000	-0.015	0.005	0.005	0.000	0.020	0.034	2.671	1.909	1.909	1.904	1.924	1.919	1.929
0.000	-0.005	0.005	0.005	0.000	0.024	0.034	2.681	1.909	1.909	1.904	1.924	1.919	1.924
-0.005	-0.015	0.000	0.005	0.010	0.024	0.039	2.695	1.909	1.909	1.904	1.919	1.924	1.924
-0.005	0.005	0.000	0.005	0.020	0.000	0.034	2.700	1.904	1.909	1.909	1.919	1.919	1.914
-0.005	0.015	0.000	-0.005	-0.010	0.024	0.034	2.695	1.899	1.904	1.899	1.919	1.909	1.919
0.000	0.005	0.000	0.005	-0.049	0.020	0.034	2.632	1.885	1.895	1.895	1.914	1.899	1.909
0.000	0.005	0.000	0.000	-0.005	0.005	0.034	2.783	1.895	1.890	1.890	1.909	1.909	1.904
-0.015	0.010	-0.005	0.000	0.034	0.029	0.039	2.637	1.880	1.885	1.885	1.909	1.914	1.909
-0.005	0.005	-0.005	-0.005	0.015	0.024	0.039	2.666	1.885	1.880	1.880	1.904	1.904	1.904
0.000	0.000	0.000	0.005	0.010	0.029	0.039	2.729	1.895	1.885	1.880	1.904	1.899	1.904
0.000	0.005	0.005	-0.005	0.024	0.020	0.039	2.656	1.890	1.885	1.880	1.899	1.904	1.899
0.010	0.005	0.000	-0.005	0.029	0.010	0.034	2.725	1.895	1.885	1.885	1.899	1.904	1.899
0.000	0.010	0.000	0.000	0.010	0.000	0.034	2.651	1.895	1.895	1.885	1.904	1.899	1.899
-0.005	0.005	0.005	0.005	-0.005	0.015	0.039	2.661	1.895	1.895	1.890	1.909	1.899	1.904
0.005	0.000	0.000	0.010	-0.005	0.005	0.034	2.651	1.904	1.899	1.895	1.909	1.904	1.904
0.005	0.015	0.000	0.005	-0.015	0.015	0.039	2.622	1.904	1.909	1.899	1.914	1.904	1.909
0.005	0.005	0.000	-0.005	-0.005	0.005	0.034	2.715	1.914	1.909	1.904	1.919	1.909	1.909
-0.010	0.000	0.000	-0.005	-0.005	0.010	0.039	2.632	1.899	1.904	1.904	1.924	1.914	1.914
0.000	0.000	0.005	0.010	0.000	-0.005	0.039	2.827	1.924	1.914	1.909	1.924	1.919	1.904
0.005	0.000	-0.005	0.010	0.000	-0.024	0.034	2.705	1.909	1.909	1.909	1.924	1.919	1.909
0.005	0.000	0.000	0.005	-0.024	-0.029	0.039	2.632	1.904	1.904	1.904	1.924	1.909	1.904
0.000	0.000	0.005	0.005	-0.049	-0.029	0.039	2.627	1.890	1.899	1.899	1.914	1.899	1.899
-0.005	0.005	0.000	-0.005	-0.044	-0.044	0.034	2.700	1.885	1.890	1.890	1.909	1.899	1.895
-0.005	0.000	0.000	-0.005	-0.034	-0.029	0.034	2.705	1.880	1.880	1.885	1.909	1.904	1.899
-0.005	-0.010	0.010	-0.005	-0.020	-0.020	0.034	2.681	1.880	1.875	1.885	1.904	1.904	1.904
-0.010	-0.005	0.000	0.000	-0.039	-0.010	0.039	2.676	1.880	1.875	1.875	1.899	1.895	1.895
-0.005	-0.005	0.000	0.005	-0.049	-0.020	0.034	2.705	1.880	1.875	1.880	1.899	1.890	1.895
0.010	-0.005	0.000	0.005	-0.020	-0.034	0.039	2.700	1.890	1.880	1.880	1.899	1.899	1.895
0.010	0.005	0.000	0.000	0.083	0.010	0.039	2.686	1.895	1.885	1.880	1.899	1.934	1.919
0.005	0.005	0.000	0.000	0.161	0.034	0.039	2.671	1.899	1.890	1.885	1.909	1.943	1.934
0.010	0.005	0.000	0.000	0.122	0.039	0.039	2.676	1.904	1.899	1.890	1.909	1.924	1.934
-0.005	0.020	0.000	0.005	0.068	0.020	0.039	2.715	1.909	1.904	1.895	1.909	1.909	1.919
-0.010	0.020	0.000	0.000	0.005	0.024	0.039	2.686	1.909	1.914	1.899	1.914	1.895	1.914
0.010	-0.005	0.000	0.000	-0.015	0.010	0.034	2.705	1.919	1.909	1.904	1.919	1.899	1.909
0.005	-0.020	0.000	0.005	-0.010	0.005	0.039	2.705	1.919	1.909	1.909	1.924	1.904	1.909
0.010	-0.010	0.005	0.000	-0.020	0.020	0.039	2.690	1.914	1.914	1.909	1.919	1.904	1.909
0.005	0.000	0.005	0.000	-0.010	0.005	0.044	2.671	1.904	1.909	1.909	1.924	1.909	1.904
0.010	-0.015	0.000	0.005	-0.005	0.005	0.039	2.676	1.899	1.904	1.904	1.924	1.909	1.904
0.010	0.068	-0.005	0.005	-0.005	-0.010	0.034	2.700	1.895	1.924	1.904	1.919	1.909	1.899
0.005	0.039	0.000	0.005	-0.010	-0.020	0.034	2.671	1.890	1.895	1.899	1.914	1.909	1.899
-0.005	-0.020	0.000	0.000	-0.010	-0.005	0.039	2.710	1.885	1.875	1.890	1.914	1.904	1.899
0.000	-0.015	0.000	0.000	-0.005	0.010	0.034	2.715	1.885	1.875	1.880	1.909	1.904	1.904
-0.010	0.000	0.005	0.005	-0.005	0.000	0.039	2.686	1.885	1.885	1.880	1.904	1.899	1.895
-0.005	-0.010	0.000	0.005	-0.010	0.015	0.034	2.705	1.885	1.875	1.875	1.899	1.899	1.904
0.005	-0.005	0.000	0.005	-0.005	0.010	0.039	2.695	1.890	1.885	1.880	1.899	1.899	1.904
0.010	0.000	0.000	0.000	-0.010	0.010	0.039	2.651	1.895	1.890	1.885	1.904	1.899	1.899
0.000	0.000	0.005	-0.005	-0.010	0.005	0.039	2.798	1.909	1.895	1.885	1.904	1.899	1.904
0.000	0.034	0.000	-0.005	-0.005	0.015	0.044	2.651	1.904	1.914	1.895	1.909	1.904	1.909
-0.005	0.015	0.000	-0.005	-0.015	-0.005	0.039	2.661	1.904	1.909	1.899	1.914	1.904	1.904
0.000	-0.010	-0.005	-0.005	-0.010	-0.005	0.039	2.729	1.914	1.904	1.904	1.919	1.914	1.909
-0.005	0.000	0.000	0.000	-0.005	0.015	0.039	2.646	1.914	1.909	1.909	1.924	1.914	1.914
0.005	-0.020	0.005	0.000	0.005	0.000	0.039	2.725	1.919	1.904	1.909	1.924	1.919	1.919
0.000	0.000	-0.005	0.000	0.005	0.000	0.039	2.642	1.904	1.914	1.909	1.924	1.919	1.914
0.000	0.020	0.000	0.000	0.015	-0.005	0.039	2.720	1.909	1.914	1.909	1.924	1.919	1.914
-0.005	0.000	-0.005	0.005	0.015	-0.024	0.039	2.661	1.890	1.895	1.904	1.919	1.914	1.909
0.015	-0.029	-0.005	0.000	0.010	-0.005	0.044	2.715	1.895	1.890	1.895	1.914	1.909	1.914
0.015	-0.020	0.005	0.005	0.000	-0.029	0.044	2.700	1.890	1.885	1.890	1.909	1.904	1.904
0.005	-0.005	-0.005	0.005	0.000	0.005	0.039	2.627	1.875	1.885	1.885	1.904	1.899	1.909
-0.015	0.049	0.005	0.005	0.005	0.005	0.039	2.817	1.890	1.895	1.890	1.904	1.899	1.904
-0.010	0.024	0.000	0.010	0.005	0.005	0.034	2.725	1.890	1.885	1.890	1.904	1.899	1.904
0.015	-0.024	0.000	0.010	0.005	-0.015	0.039	2.759	1.890	1.875	1.880	1.904	1.904	1.899
0.010	-0.034	0.000	0.005	0.000	0.010	0.039	2.642	1.885	1.875	1.875	1.899	1.899	1.904
0.005	-0.005	0.000	0.010	0.005	0.015	0.039	2.710	1.895	1.890	1.885	1.904	1.904	1.904
0.015	0.005	0.000	0.005	0.000	0.000	0.039	2.671	1.899	1.899	1.895	1.909	1.904	1.909
0.005	0.015	0.005	0.005	-0.005	0.015	0.034	2.710	1.904	1.909	1.899	1.909	1.904	1.909
0.005	0.024	0.005	0.005	-0.020	0.000	0.039	2.681	1.914	1.914	1.904	1.919	1.904	1.909
0.000	0.015	0.010	0.005	-0.034	0.005	0.034	2.676	1.909	1.914	1.909	1.924	1.909	1.909
-0.005	0.000	0.005	0.010	-0.049	-0.005	0.034	2.681	1.909	1.909	1.909	1.924	1.909	1.909
0.000	0.005	0.005	0.005	-0.039	0.010	0.039	2.681	1.909	1.909	1.909	1.929	1.914	1.909
-0.005	-0.005	0.000	0.000	-0.044	-0.005	0.039	2.666	1.899	1.904	1.904	1.919	1.909	1.904
0.005	-0.015	0.000	-0.005	-0.039	0.010	0.039	2.676	1.899	1.899	1.904	1.919	1.914	1.914
0.000	-0.005	0.005	-0.005	-0.010	0.000	0.039	2.676	1.890	1.895	1.899	1.914	1.919	1.909
0.000	-0.005	0.000	-0.005	0.020	0.000	0.034	2.671	1.885	1.890	1.890	1.914	1.919	1.914
-0.005	-0.015	0.000	0.000	0.015	0.015	0.039	2.705	1.885	1.880	1.885	1.909	1.914	1.914
-0.005	-0.010	0.000	-0.005	0.000	0.010	0.039	2.681	1.880	1.880	1.880	1.899	1.899	1.904
-0.005	0.005	0.000	-0.005	0.000	-0.005	0.039	2.676	1.885	1.880	1.880	1.899	1.899	1.904
0.000	0.005	0.005	0.000	0.059	0.000	0.034	2.681	1.885	1.880	1.875	1.899	1.914	1.904
-0.005	-0.005	0.000	-0.005	0.088	-0.010	0.039	2.686	1.890	1.885	1.880	1.899	1.914	1.909
0.010	0.015	0.000	0.000	0.039	-0.034	0.039	2.686	1.895	1.890	1.885	1.899	1.895	1.899
0.000	0.005	-0.005	0.005	0.068	-0.005	0.039	2.681	1.899	1.890	1.890	1.904	1.914	1.914
0.005	0.005	0.000	0.010	0.122	0.005	0.034	2.676	1.904	1.899	1.895	1.909	1.924	1.924
0.010	0.010	0.005	0.005	0.020	0.005	0.039	2.705	1.909	1.904	1.899	1.909	1.895	1.914
0.000	0.005	0.000	0.000	-0.005	0.005	0.039	2.705	1.919	1.914	1.904	1.919	1.895	1.909
0.000	0.024	-0.005	0.000	0.029	-0.005	0.039	2.705	1.919	1.919	1.909	1.924	1.909	1.909
0.005	0.005	0.000	0.005	-0.005	-0.034	0.034	2.695	1.919	1.914	1.909	1.924	1.904	1.899
0.000	0.015	0.005	0.005	-0.015	-0.020	0.034	2.666	1.909	1.919	1.914	1.929	1.909	1.904
0.000	0.000	-0.005	0.005	-0.039	-0.005	0.039	2.793	1.914	1.909	1.909	1.924	1.904	1.909
-0.005	0.005	0.000	0.010	-0.054	0.005	0.034	2.637	1.899	1.904	1.904	1.924	1.904	1.909
0.005	0.005	0.005	0.015	-0.015	0.000	0.034	2.661	1.895	1.904	1.899	1.924	1.919	1.909
0.005	0.015	0.005	0.010	0.024	0.024	0.034	2.725	1.890	1.895	1.899	1.919	1.924	1.919
0.005	-0.010	0.005	0.000	0.029	0.015	0.034	2.642	1.885	1.880	1.890	1.914	1.919	1.914
-0.005	-0.039	0.010	0.000	0.098	0.024	0.034	2.720	1.885	1.870	1.880	1.909	1.929	1.924
-0.005	-0.005	0.000	-0.005	0.103	0.010	0.034	2.646	1.880	1.880	1.880	1.904	1.919	1.914
0.005	-0.005	0.005	-0.005	0.029	0.015	0.039	2.666	1.880	1.880	1.875	1.899	1.890	1.909
0.000	0.000	0.000	-0.005	-0.020	0.010	0.039	2.661	1.885	1.885	1.880	1.899	1.880	1.899
0.000	0.000	0.005	-0.005	-0.039	0.000	0.039	2.651	1.890	1.885	1.885	1.899	1.885	1.895
0.015	0.005	0.000	0.005	-0.039	0.005	0.039	2.705	1.895	1.895	1.885	1.904	1.890	1.890
0.005	0.010	-0.005	0.000	-0.039	0.020	0.039	2.642	1.895	1.899	1.895	1.909	1.895	1.899
0.000	0.015	0.005	0.005	-0.039	0.020	0.039	2.827	1.919	1.909	1.899	1.914	1.899	1.904
0.000	0.005	-0.005	0.005	-0.039	0.005	0.044	2.725	1.919	1.914	1.904	1.919	1.904	1.899
0.000	0.015	-0.005	0.000	-0.029	0.000	0.039	2.759	1.929	1.919	1.909	1.924	1.914	1.909
-0.005	0.015	-0.005	0.000	-0.020	-0.015	0.039	2.734	1.924	1.919	1.914	1.924	1.919	1.904
0.005	0.005	0.000	0.010	-0.015	-0.044	0.039	2.700	1.919	1.914	1.914	1.929	1.919	1.904
0.000	0.015	0.000	0.010	-0.015	-0.024	0.044	2.710	1.914	1.914	1.914	1.929	1.919	1.909
-0.005	0.010	0.000	0.005	-0.020	-0.044	0.039	2.666	1.909	1.909	1.909	1.924	1.914	1.904
0.005	0.010	0.000	0.005	-0.020	-0.010	0.039	2.666	1.899	1.904	1.904	1.924	1.914	1.914
0.000	-0.005	0.005	-0.005	-0.010	-0.005	0.039	2.666	1.890	1.885	1.895	1.914	1.914	1.914
0.000	-0.010	0.005	-0.005	0.005	0.010	0.039	2.705	1.890	1.885	1.890	1.914	1.914	1.914
0.005	-0.020	0.005	0.005	0.010	0.010	0.039	2.671	1.885	1.880	1.885	1.909	1.914	1.914
0.005	-0.024	0.000	0.005	0.015	-0.005	0.034	2.661	1.885	1.875	1.880	1.904	1.909	1.909
-0.010	0.029	0.005	0.000	0.020	0.020	0.039	2.681	1.885	1.895	1.885	1.904	1.909	1.914
0.005	0.078	0.005	0.005	0.029	0.029	0.039	2.666	1.895	1.904	1.890	1.904	1.909	1.914
0.010	-0.015	0.000	0.000	0.044	0.010	0.034	2.705	1.899	1.880	1.890	1.904	1.909	1.914
0.005	-0.015	0.000	-0.010	0.000	0.039	0.034	2.705	1.904	1.890	1.890	1.909	1.899	1.919
0.010	-0.005	0.000	0.000	-0.034	0.024	0.034	2.690	1.909	1.904	1.895	1.914	1.895	1.909
-0.005	0.024	0.000	0.010	-0.015	0.005	0.039	2.681	1.914	1.914	1.904	1.919	1.904	1.909
-0.015	0.010	0.005	0.005	-0.024	0.005	0.039	2.695	1.914	1.909	1.909	1.924	1.909	1.904
-0.005	-0.005	0.000	-0.005	-0.029	-0.029	0.034	2.676	1.914	1.904	1.909	1.924	1.909	1.904
0.000	-0.010	-0.005	0.000	-0.015	-0.015	0.039	2.676	1.909	1.909	1.904	1.924	1.919	1.909
0.000	-0.015	0.000	0.005	0.000	-0.015	0.039	2.681	1.914	1.909	1.904	1.924	1.919	1.914
0.000	0.000	0.000	0.005	0.000	-0.020	0.034	2.705	1.904	1.909	1.904	1.924	1.919	1.914
0.010	0.010	0.005	0.005	0.010	-0.005	0.039	2.700	1.904	1.909	1.904	1.919	1.919	1.914
0.000	-0.005	0.005	0.005	0.005	0.010	0.039	2.705	1.899	1.895	1.899	1.919	1.914	1.919
0.000	0.010	0.005	0.005	0.015	0.000	0.039	2.715	1.895	1.899	1.899	1.919	1.914	1.909
0.005	0.005	0.000	0.010	0.010	0.015	0.039	2.681	1.890	1.890	1.890	1.909	1.909	1.914
0.000	0.000	0.000	0.005	-0.005	-0.005	0.039	2.642	1.885	1.885	1.890	1.909	1.899	1.909
0.000	0.000	0.005	0.005	-0.010	0.005	0.039	2.798	1.895	1.885	1.885	1.904	1.899	1.904
0.005	0.005	0.005	0.005	-0.024	0.024	0.039	2.646	1.890	1.890	1.885	1.904	1.899	1.909
0.000	-0.015	0.005	-0.005	-0.020	0.020	0.034	2.671	1.895	1.885	1.885	1.904	1.895	1.899
0.015	-0.010	0.005	-0.005	0.005	0.020	0.039	2.725	1.904	1.895	1.890	1.909	1.909	1.909
0.010	-0.010	0.000	-0.010	0.024	0.020	0.039	2.729	1.909	1.899	1.890	1.909	1.914	1.914
0.000	-0.005	0.005	-0.005	0.020	0.015	0.039	2.676	1.914	1.909	1.899	1.914	1.914	1.914
-0.005	-0.020	0.005	-0.005	0.024	0.000	0.034	2.651	1.909	1.904	1.904	1.919	1.914	1.914
0.005	-0.015	-0.005	0.005	0.024	0.000	0.039	2.734	1.919	1.914	1.904	1.924	1.919	1.914
0.010	-0.005	0.000	0.015	0.034	0.000	0.034	2.666	1.909	1.914	1.914	1.929	1.924	1.924
0.005	-0.010	0.000	0.010	0.015	-0.005	0.039	2.729	1.919	1.914	1.909	1.929	1.919	1.919
0.005	0.039	0.005	0.005	0.010	0.000	0.039	2.720	1.919	1.934	1.919	1.934	1.919	1.919
-0.005	0.063	0.010	0.005	0.005	0.000	0.039	2.720	1.909	1.924	1.914	1.929	1.919	1.914
0.000	-0.005	0.005	0.000	0.000	0.000	0.034	2.817	1.919	1.899	1.904	1.924	1.914	1.909
-0.005	-0.015	0.005	0.005	-0.010	-0.005	0.034	2.749	1.909	1.895	1.899	1.924	1.914	1.909
-0.005	-0.044	-0.005	0.010	-0.010	-0.015	0.034	2.617	1.890	1.885	1.895	1.914	1.909	1.904
0.000	0.005	-0.005	0.000	-0.015	0.000	0.034	2.627	1.880	1.895	1.890	1.909	1.904	1.904
0.000	0.010	0.000	0.000	-0.005	0.005	0.039	2.700	1.880	1.890	1.890	1.909	1.904	1.904
0.000	0.020	0.000	0.000	-0.010	0.000	0.034	2.695	1.885	1.890	1.885	1.904	1.904	1.904
0.010	-0.005	-0.005	-0.005	-0.010	-0.005	0.039	2.715	1.895	1.885	1.885	1.899	1.904	1.904
0.015	0.000	0.005	-0.010	-0.010	-0.020	0.039	2.666	1.895	1.890	1.890	1.904	1.899	1.899
0.005	-0.015	0.000	-0.010	-0.005	-0.010	0.034	2.705	1.899	1.890	1.895	1.909	1.904	1.904
0.010	-0.005	0.000	-0.010	-0.005	0.029	0.039	2.686	1.909	1.904	1.895	1.914	1.914	1.919
0.010	0.010	0.000	-0.005	-0.010	0.029	0.039	2.681	1.909	1.909	1.899	1.919	1.914	1.919
-0.005	0.010	0.005	0.000	-0.005	0.020	0.039	2.681	1.909	1.919	1.909	1.924	1.919	1.919
0.000	0.049	0.005	0.000	0.005	0.015	0.034	2.681	1.914	1.929	1.919	1.934	1.924	1.919
0.000	0.010	0.010	0.000	0.015	-0.005	0.034	2.671	1.909	1.909	1.914	1.929	1.929	1.914
0.000	0.000	0.000	0.000	0.020	-0.020	0.034	2.710	1.909	1.909	1.909	1.934	1.929	1.914
0.000	0.010	0.005	0.000	0.005	-0.029	0.039	2.700	1.909	1.904	1.909	1.929	1.924	1.914
0.010	-0.005	0.000	0.000	-0.005	-0.059	0.034	2.700	1.904	1.899	1.899	1.924	1.914	1.904
0.000	0.000	0.000	0.005	-0.020	-0.029	0.039	2.661	1.890	1.899	1.899	1.919	1.909	1.909
0.005	0.015	-0.005	0.000	-0.005	-0.024	0.034	2.671	1.890	1.890	1.895	1.914	1.909	1.909
-0.005	0.020	0.000	0.005	0.010	-0.029	0.034	2.666	1.885	1.890	1.890	1.909	1.914	1.909
-0.010	0.000	0.005	0.010	-0.010	-0.029	0.039	2.681	1.880	1.875	1.880	1.904	1.904	1.904
-0.005	-0.010	0.005	0.010	-0.020	-0.010	0.039	2.676	1.880	1.875	1.880	1.904	1.899	1.909
0.000	-0.024	0.005	0.000	0.024	0.010	0.039	2.705	1.890	1.870	1.875	1.899	1.909	1.914
-0.010	-0.010	0.010	-0.005	0.059	0.000	0.034	2.710	1.895	1.885	1.880	1.899	1.914	1.909
0.000	-0.010	0.010	0.000	0.059	0.015	0.034	2.710	1.904	1.890	1.885	1.904	1.914	1.919
0.010	-0.020	0.005	0.005	0.020	0.024	0.034	2.705	1.914	1.899	1.890	1.909	1.899	1.919
0.005	-0.020	0.005	0.010	0.020	0.010	0.034	2.690	1.909	1.899	1.895	1.909	1.904	1.909
0.005	-0.029	-0.005	0.015	0.034	0.020	0.039	2.646	1.909	1.909	1.899	1.914	1.914	1.919
0.010	-0.005	0.005	0.010	0.039	0.005	0.034	2.778	1.924	1.919	1.909	1.919	1.914	1.914
-0.005	-0.024	-0.005	0.010	0.010	0.015	0.034	2.632	1.909	1.914	1.909	1.919	1.909	1.919
-0.005	0.073	-0.005	0.000	0.024	0.020	0.034	2.651	1.914	1.943	1.919	1.924	1.914	1.914
-0.005	0.044	0.005	-0.005	0.029	0.010	0.034	2.729	1.909	1.919	1.919	1.929	1.919	1.914
-0.005	-0.010	0.005	-0.005	0.024	-0.005	0.034	2.734	1.909	1.899	1.909	1.924	1.914	1.909
0.005	-0.024	0.000	-0.010	0.005	-0.005	0.034	2.627	1.895	1.895	1.904	1.919	1.909	1.914
0.005	-0.005	-0.005	0.000	-0.010	0.000	0.034	2.642	1.890	1.895	1.899	1.919	1.904	1.904
0.010	0.000	-0.005	0.015	-0.020	-0.015	0.034	2.700	1.890	1.890	1.890	1.919	1.904	1.895
-0.005	0.000	-0.010	0.020	0.010	0.020	0.039	2.666	1.875	1.880	1.885	1.914	1.909	1.909
0.000	-0.010	-0.005	0.015	0.005	0.015	0.039	2.651	1.875	1.875	1.880	1.904	1.904	1.909
0.000	0.010	-0.005	0.010	-0.010	0.039	0.039	2.695	1.885	1.880	1.880	1.904	1.899	1.914
-0.005	-0.005	-0.005	0.010	-0.005	0.020	0.034	2.725	1.890	1.880	1.875	1.899	1.899	1.899
-0.015	-0.005	0.000	0.005	-0.005	0.044	0.034	2.822	1.909	1.885	1.885	1.899	1.899	1.909
0.015	-0.010	-0.005	0.005	-0.020	0.024	0.039	2.749	1.924	1.895	1.885	1.904	1.895	1.899
0.005	-0.005	-0.005	0.000	-0.034	-0.005	0.034	2.754	1.924	1.909	1.895	1.909	1.895	1.890
0.000	-0.015	0.000	-0.005	-0.034	-0.044	0.034	2.734	1.929	1.914	1.904	1.909	1.895	1.885
0.000	-0.005	0.000	-0.010	-0.078	-0.039	0.034	2.705	1.924	1.919	1.909	1.919	1.895	1.890
-0.005	0.044	0.000	-0.005	-0.068	-0.005	0.034	2.695	1.919	1.938	1.919	1.924	1.909	1.904
0.005	-0.005	0.000	0.000	-0.044	-0.015	0.034	2.671	1.909	1.919	1.919	1.929	1.919	1.909
0.015	-0.005	0.000	-0.005	-0.029	-0.039	0.039	2.676	1.914	1.919	1.919	1.934	1.924	1.904
-0.010	0.000	-0.005	-0.005	0.000	-0.005	0.039	2.671	1.899	1.914	1.919	1.929	1.934	1.924
-0.005	0.015	0.000	-0.005	-0.015	0.005	0.034	2.666	1.895	1.914	1.914	1.929	1.929	1.929
-0.005	-0.005	0.005	0.010	-0.029	-0.010	0.034	2.705	1.895	1.895	1.904	1.929	1.919	1.919
0.000	-0.015	0.000	0.020	-0.029	-0.015	0.034	2.671	1.890	1.885	1.895	1.924	1.914	1.909
0.010	-0.005	0.000	0.015	-0.073	-0.039	0.039	2.671	1.890	1.885	1.890	1.914	1.904	1.904
0.015	-0.015	0.005	0.015	-0.039	0.005	0.039	2.705	1.885	1.880	1.885	1.914	1.914	1.914
0.000	0.000	0.000	0.005	0.020	0.015	0.039	2.666	1.880	1.885	1.885	1.909	1.929	1.919
-0.005	0.005	0.005	-0.005	0.142	0.034	0.039	2.715	1.890	1.885	1.885	1.904	1.948	1.934
0.005	-0.020	0.005	-0.005	0.142	0.049	0.039	2.700	1.899	1.885	1.885	1.904	1.934	1.943
0.005	0.000	0.005	-0.010	0.093	0.044	0.039	2.676	1.904	1.895	1.885	1.904	1.909	1.929
0.005	0.024	0.010	-0.005	0.059	0.034	0.034	2.695	1.904	1.909	1.895	1.909	1.904	1.924
0.005	0.039	0.000	0.000	0.078	0.039	0.034	2.681	1.909	1.914	1.904	1.914	1.914	1.924
0.000	0.024	0.005	0.000	0.083	0.039	0.039	2.710	1.919	1.909	1.909	1.924	1.919	1.924
0.000	0.024	0.005	0.000	0.049	0.005	0.039	2.686	1.919	1.914	1.914	1.929	1.909	1.914
0.005	0.010	0.010	0.005	0.015	0.024	0.039	2.666	1.914	1.914	1.914	1.929	1.909	1.919
0.000	0.000	0.000	0.000	-0.005	0.010	0.034	2.705	1.914	1.909	1.914	1.929	1.909	1.914
-0.005	-0.005	0.005	0.000	-0.024	-0.005	0.034	2.671	1.909	1.909	1.909	1.929	1.909	1.909
-0.005	0.005	0.010	0.000	-0.034	0.005	0.034	2.695	1.909	1.909	1.909	1.929	1.909	1.909
0.005	0.010	0.000	0.000	-0.039	-0.010	0.039	2.686	1.899	1.904	1.909	1.924	1.904	1.899
0.005	0.020	0.005	0.000	-0.049	-0.034	0.039	2.637	1.890	1.899	1.904	1.919	1.904	1.895
-0.010	0.024	0.005	0.000	-0.049	-0.024	0.034	2.651	1.880	1.890	1.895	1.914	1.904	1.895
-0.020	0.020	0.005	0.005	-0.039	0.005	0.039	2.646	1.875	1.880	1.890	1.914	1.904	1.904
-0.005	0.005	0.005	0.005	-0.029	0.010	0.034	2.661	1.875	1.870	1.880	1.909	1.904	1.904
-0.005	0.000	0.005	0.000	-0.015	0.020	0.039	2.739	1.880	1.870	1.875	1.904	1.909	1.904
0.005	-0.010	0.000	0.005	-0.020	0.005	0.039	2.734	1.890	1.875	1.875	1.899	1.904	1.904
0.005	0.010	0.005	0.000	-0.024	-0.020	0.039	2.622	1.890	1.885	1.875	1.895	1.899	1.895
0.015	0.010	0.000	0.005	-0.020	0.005	0.039	2.632	1.890	1.885	1.880	1.899	1.904	1.904
0.005	0.010	0.005	0.005	-0.029	0.015	0.039	2.632	1.885	1.895	1.885	1.904	1.899	1.904
0.005	-0.015	0.000	0.005	-0.020	0.005	0.039	2.666	1.895	1.885	1.885	1.909	1.909	1.909
0.005	-0.010	0.005	-0.005	0.000	0.015	0.034	2.739	1.909	1.895	1.895	1.909	1.914	1.914
-0.005	-0.015	0.010	0.000	0.015	0.015	0.034	2.686	1.909	1.904	1.899	1.919	1.919	1.919
0.010	-0.049	0.005	-0.010	0.034	-0.005	0.034	2.617	1.904	1.895	1.895	1.914	1.924	1.919
0.010	-0.020	0.005	-0.010	0.049	0.005	0.034	2.676	1.904	1.904	1.899	1.914	1.924	1.919
0.005	0.029	0.000	-0.010	0.059	-0.005	0.034	2.666	1.909	1.919	1.904	1.919	1.919	1.914
0.010	0.010	0.000	-0.005	0.068	-0.005	0.039	2.681	1.899	1.904	1.904	1.919	1.919	1.919
0.005	0.005	0.000	0.005	0.059	-0.005	0.034	2.729	1.904	1.899	1.895	1.919	1.919	1.914
0.010	0.005	0.000	0.005	0.029	-0.015	0.039	2.705	1.899	1.895	1.895	1.914	1.904	1.909
0.000	0.005	-0.005	0.010	-0.010	-0.005	0.039	2.705	1.895	1.890	1.890	1.909	1.890	1.899
0.005	-0.005	0.005	0.015	-0.029	0.000	0.039	2.705	1.890	1.890	1.885	1.909	1.885	1.895
0.000	-0.020	0.005	0.015	-0.020	-0.015	0.039	2.695	1.885	1.880	1.880	1.904	1.890	1.890
-0.005	-0.020	0.005	0.005	-0.010	0.000	0.039	2.705	1.880	1.880	1.880	1.899	1.895	1.895
0.005	-0.015	0.005	0.000	-0.010	0.015	0.034	2.666	1.890	1.880	1.880	1.899	1.895	1.899
0.015	-0.010	0.005	0.005	-0.015	0.015	0.034	2.705	1.895	1.890	1.885	1.899	1.895	1.904
0.010	0.103	0.005	0.005	-0.015	0.015	0.034	2.671	1.899	1.929	1.899	1.909	1.899	1.899
-0.005	0.049	0.005	0.005	-0.010	-0.005	0.034	2.676	1.899	1.904	1.899	1.914	1.904	1.899
0.000	-0.015	0.005	0.000	-0.010	0.024	0.034	2.715	1.909	1.890	1.899	1.919	1.909	1.909
0.000	-0.015	0.005	0.005	-0.034	0.015	0.039	2.681	1.914	1.899	1.904	1.919	1.909	1.909
0.010	0.005	0.005	-0.005	-0.039	0.005	0.034	2.710	1.924	1.909	1.909	1.924	1.909	1.909
-0.005	-0.005	0.000	0.005	-0.039	-0.010	0.034	2.686	1.914	1.914	1.909	1.929	1.914	1.909
-0.005	0.015	0.005	0.005	-0.039	-0.010	0.039	2.666	1.909	1.919	1.909	1.929	1.914	1.909
0.000	-0.005	0.005	0.000	-0.044	-0.015	0.039	2.705	1.904	1.909	1.909	1.924	1.914	1.904
0.015	-0.020	0.000	-0.005	-0.063	-0.039	0.034	2.671	1.904	1.895	1.899	1.919	1.904	1.899
0.000	-0.049	0.000	-0.010	-0.078	-0.059	0.034	2.690	1.890	1.885	1.895	1.914	1.899	1.895
-0.005	-0.015	0.000	-0.010	-0.078	-0.010	0.034	2.666	1.885	1.890	1.890	1.909	1.904	1.909
-0.005	-0.005	0.000	-0.005	-0.059	0.010	0.034	2.666	1.880	1.885	1.885	1.909	1.904	1.909
0.005	-0.010	0.005	0.000	-0.044	0.015	0.034	2.681	1.875	1.880	1.880	1.904	1.904	1.909
-0.005	0.029	0.005	0.005	0.010	0.029	0.034	2.681	1.875	1.885	1.880	1.904	1.919	1.914
-0.005	0.024	0.005	0.005	0.122	0.024	0.034	2.720	1.890	1.885	1.880	1.904	1.943	1.919
0.000	-0.005	0.000	0.010	0.161	0.029	0.034	2.700	1.895	1.880	1.880	1.904	1.943	1.929
0.005	-0.020	0.000	0.010	0.190	0.024	0.034	2.651	1.895	1.880	1.880	1.904	1.943	1.934
0.015	0.005	0.000	0.010	0.200	0.020	0.039	2.788	1.914	1.899	1.890	1.909	1.938	1.934
0.005	0.010	0.000	0.010	0.171	0.020	0.039	2.651	1.919	1.909	1.895	1.909	1.919	1.934
0.000	0.024	-0.005	0.005	0.073	0.020	0.039	2.651	1.914	1.914	1.899	1.909	1.895	1.924
0.005	0.015	0.000	0.010	-0.015	0.015	0.039	2.739	1.924	1.919	1.909	1.919	1.880	1.909
0.005	0.024	-0.005	0.005	-0.044	0.015	0.034	2.642	1.914	1.924	1.914	1.919	1.885	1.904
-0.005	0.049	0.005	0.000	-0.044	0.015	0.039	2.661	1.909	1.929	1.919	1.924	1.895	1.899
0.000	0.020	0.005	-0.005	-0.034	-0.020	0.034	2.651	1.904	1.909	1.919	1.929	1.899	1.890
0.005	-0.049	0.005	-0.010	-0.054	-0.020	0.034	2.725	1.890	1.880	1.904	1.924	1.899	1.895
0.000	-0.063	0.000	-0.015	-0.034	-0.029	0.034	2.676	1.880	1.875	1.890	1.919	1.904	1.890
0.000	-0.010	0.000	-0.005	-0.024	-0.024	0.034	2.617	1.885	1.890	1.890	1.914	1.909	1.899
-0.005	0.000	0.000	0.005	-0.020	-0.015	0.034	2.695	1.885	1.885	1.890	1.909	1.909	1.899
-0.005	-0.029	0.005	0.005	-0.005	-0.010	0.039	2.637	1.875	1.870	1.880	1.909	1.904	1.899
-0.005	-0.020	0.005	0.010	-0.015	0.000	0.039	2.812	1.885	1.875	1.875	1.899	1.899	1.899
0.005	0.005	0.000	0.005	-0.020	-0.029	0.034	2.725	1.895	1.880	1.875	1.899	1.899	1.890
-0.010	0.024	0.000	0.020	-0.029	0.015	0.039	2.632	1.885	1.890	1.875	1.899	1.895	1.904
0.000	0.034	-0.005	0.029	-0.020	0.010	0.034	2.642	1.895	1.895	1.880	1.904	1.899	1.904
0.005	-0.015	-0.005	0.020	-0.010	0.020	0.034	2.710	1.899	1.880	1.880	1.904	1.899	1.904
0.005	-0.005	0.000	0.010	-0.010	0.005	0.034	2.705	1.909	1.895	1.890	1.904	1.904	1.904
0.000	-0.020	0.000	0.005	-0.010	0.005	0.034	2.681	1.909	1.899	1.890	1.904	1.909	1.909
0.000	0.000	0.000	0.000	-0.010	0.000	0.039	2.666	1.909	1.909	1.899	1.909	1.909	1.904
0.000	0.010	0.005	0.000	-0.005	-0.020	0.039	2.676	1.904	1.914	1.909	1.914	1.914	1.904
0.010	0.020	-0.005	0.000	-0.015	-0.005	0.039	2.671	1.909	1.919	1.914	1.919	1.909	1.909
