-0.005	0.000	-0.005	0.000	-0.049	-0.005	0.034	1.763	3.408	2.119	1.841	1.572	1.235	1.450
0.000	0.000	0.000	0.000	-0.034	0.005	0.034	1.743	2.861	2.344	1.968	1.680	1.357	1.421
0.005	-0.005	-0.005	0.005	-0.005	0.005	0.034	1.763	2.461	2.383	2.080	1.792	1.475	1.431
0.005	0.000	0.000	0.000	0.005	0.015	0.034	1.763	2.173	2.334	2.153	1.895	1.582	1.475
0.005	0.000	0.000	-0.005	0.010	0.024	0.034	1.797	1.968	2.236	2.183	1.973	1.689	1.528
0.015	0.005	0.000	0.000	0.020	0.024	0.029	1.738	1.826	2.134	2.173	2.036	1.787	1.597
0.005	0.010	0.000	0.000	0.020	0.015	0.029	1.782	1.729	2.026	2.139	2.070	1.860	1.670
0.010	0.010	0.000	0.000	0.020	0.000	0.034	1.772	1.670	1.929	2.085	2.085	1.924	1.733
0.005	-0.015	0.000	-0.005	0.015	-0.015	0.034	1.724	1.621	1.851	2.026	2.075	1.968	1.792
0.015	-0.010	-0.005	0.000	0.005	-0.005	0.029	1.724	1.597	1.787	1.968	2.056	1.992	1.855
0.024	0.000	0.000	-0.005	-0.005	-0.020	0.034	1.758	1.592	1.743	1.909	2.026	2.002	1.890
0.015	-0.005	0.000	0.000	-0.020	-0.005	0.034	1.777	1.587	1.704	1.855	1.987	1.997	1.924
0.010	0.005	-0.005	0.000	-0.020	-0.005	0.029	1.743	1.582	1.675	1.807	1.943	1.982	1.943
-0.005	-0.005	-0.005	0.000	-0.015	-0.010	0.029	1.777	1.577	1.646	1.763	1.904	1.963	1.948
-0.020	0.005	0.000	0.000	-0.015	0.010	0.034	1.763	1.577	1.636	1.729	1.860	1.934	1.948
-0.034	0.000	0.000	0.000	-0.005	0.000	0.034	1.758	1.567	1.616	1.694	1.816	1.904	1.934
-0.029	-0.010	0.000	0.000	0.024	-0.010	0.034	1.714	1.558	1.597	1.665	1.782	1.875	1.914
-0.034	-0.005	0.000	-0.005	0.024	-0.024	0.034	1.802	1.562	1.587	1.641	1.748	1.836	1.890
-0.029	-0.010	0.000	0.000	0.010	0.010	0.034	1.758	1.558	1.577	1.621	1.714	1.797	1.870
-0.020	-0.005	0.000	0.000	0.000	0.000	0.034	1.753	1.558	1.572	1.602	1.685	1.758	1.836
-0.015	0.000	0.000	0.000	0.005	0.010	0.034	1.768	1.558	1.567	1.592	1.660	1.729	1.812
0.005	0.000	0.000	-0.005	0.000	-0.005	0.034	1.743	1.558	1.567	1.582	1.646	1.704	1.777
-0.005	0.000	-0.005	0.000	-0.005	-0.005	0.034	1.763	1.553	1.562	1.577	1.631	1.685	1.748
0.010	0.000	-0.005	0.000	-0.010	0.010	0.034	1.772	1.558	1.562	1.577	1.621	1.665	1.733
0.005	0.005	0.000	0.000	0.005	0.005	0.034	1.768	1.553	1.567	1.572	1.621	1.655	1.709
0.020	0.005	0.005	0.005	-0.005	0.000	0.034	1.748	1.553	1.567	1.577	1.611	1.646	1.694
0.015	0.000	-0.005	-0.005	-0.005	0.010	0.034	1.782	1.548	1.567	1.577	1.611	1.636	1.680
0.005	-0.005	0.000	-0.005	0.000	0.015	0.034	1.772	1.548	1.567	1.572	1.611	1.631	1.670
0.015	-0.024	0.000	-0.005	-0.005	-0.005	0.034	1.758	1.538	1.558	1.567	1.602	1.621	1.655
0.010	-0.020	-0.005	0.000	-0.005	-0.005	0.034	1.768	1.538	1.553	1.567	1.602	1.611	1.646
0.005	-0.015	0.000	-0.005	-0.005	0.010	0.034	1.768	1.528	1.548	1.558	1.597	1.606	1.636
-0.005	-0.015	-0.005	0.000	0.000	0.000	0.034	1.758	1.514	1.538	1.558	1.587	1.602	1.626
0.010	0.015	-0.005	0.000	0.000	0.010	0.029	1.772	1.509	1.538	1.548	1.577	1.592	1.616
0.010	0.015	0.005	0.000	-0.005	0.010	0.034	1.802	1.499	1.523	1.538	1.572	1.582	1.606
0.000	0.010	0.000	0.000	0.000	0.005	0.034	1.724	1.479	1.509	1.528	1.562	1.577	1.592
0.005	0.000	-0.005	0.000	0.000	-0.005	0.034	1.743	1.470	1.494	1.514	1.553	1.562	1.577
0.000	0.005	0.000	0.000	-0.005	0.000	0.029	1.782	1.465	1.479	1.499	1.543	1.558	1.572
0.005	0.000	0.000	0.005	0.000	0.005	0.034	1.758	1.460	1.475	1.494	1.533	1.553	1.562
0.015	-0.005	0.005	0.000	0.000	0.000	0.034	1.724	1.455	1.470	1.489	1.523	1.538	1.558
0.010	-0.010	0.005	-0.005	0.010	-0.005	0.034	1.782	1.455	1.465	1.479	1.519	1.533	1.553
0.000	0.000	0.005	0.000	0.000	0.005	0.034	1.758	1.450	1.465	1.475	1.514	1.528	1.548
-0.010	0.000	0.000	0.000	0.000	-0.005	0.034	1.792	1.450	1.465	1.475	1.514	1.523	1.543
-0.020	-0.005	0.005	0.000	-0.005	-0.010	0.034	1.724	1.445	1.460	1.475	1.509	1.519	1.533
-0.015	0.005	-0.005	0.000	0.000	-0.029	0.034	1.763	1.445	1.465	1.470	1.504	1.514	1.528
-0.010	0.005	-0.005	0.000	0.000	-0.020	0.034	1.782	1.450	1.465	1.475	1.504	1.514	1.528
-0.005	0.000	-0.005	-0.005	-0.005	0.005	0.034	1.768	1.445	1.460	1.470	1.504	1.514	1.533
-0.010	0.005	-0.005	0.000	-0.005	-0.010	0.034	1.733	1.436	1.455	1.470	1.494	1.504	1.523
0.000	0.005	0.000	-0.005	0.000	0.010	0.029	1.772	1.431	1.450	1.465	1.494	1.504	1.523
0.000	0.000	0.005	-0.005	0.000	0.015	0.034	1.787	1.421	1.440	1.455	1.484	1.494	1.514
0.010	0.000	0.000	-0.005	0.005	0.010	0.029	1.738	1.416	1.431	1.445	1.475	1.489	1.504
0.000	0.000	-0.005	0.000	0.000	-0.010	0.034	1.787	1.401	1.421	1.436	1.470	1.479	1.489
0.000	-0.005	0.000	0.000	0.000	-0.010	0.034	1.768	1.396	1.411	1.426	1.460	1.470	1.484
0.005	0.000	0.000	0.000	0.000	0.005	0.034	1.714	1.387	1.401	1.421	1.450	1.460	1.479
0.005	0.005	0.000	0.000	0.005	-0.005	0.034	1.782	1.387	1.392	1.406	1.440	1.455	1.465
0.000	0.000	0.000	0.000	0.000	0.000	0.034	1.763	1.377	1.387	1.401	1.436	1.450	1.465
0.000	-0.005	-0.005	0.000	0.005	-0.005	0.034	1.738	1.372	1.382	1.396	1.426	1.440	1.455
0.000	0.020	0.000	0.010	-0.005	0.010	0.034	1.738	1.367	1.387	1.396	1.426	1.436	1.455
0.000	0.015	-0.005	0.005	0.000	0.010	0.034	1.782	1.372	1.387	1.396	1.426	1.436	1.450
-0.010	0.010	0.000	0.000	0.000	0.015	0.034	1.704	1.372	1.382	1.396	1.421	1.431	1.450
-0.010	0.005	0.000	0.000	0.000	0.010	0.034	1.733	1.372	1.382	1.396	1.421	1.431	1.445
0.000	0.005	0.000	0.000	0.005	0.005	0.029	1.777	1.377	1.382	1.396	1.421	1.426	1.440
0.000	0.005	0.000	0.000	0.000	0.000	0.034	1.787	1.377	1.387	1.392	1.421	1.426	1.440
-0.005	0.000	0.000	-0.005	-0.005	0.010	0.029	1.748	1.372	1.387	1.392	1.416	1.426	1.436
-0.005	0.000	0.000	0.000	0.000	-0.010	0.029	1.758	1.367	1.377	1.392	1.416	1.421	1.431
0.000	-0.010	-0.005	-0.005	-0.005	0.010	0.034	1.777	1.362	1.367	1.382	1.411	1.416	1.426
0.000	-0.020	-0.005	-0.005	0.000	0.000	0.034	1.738	1.348	1.362	1.372	1.401	1.411	1.421
0.015	-0.020	0.000	0.005	-0.005	0.005	0.034	1.753	1.338	1.353	1.367	1.396	1.401	1.411
-0.005	-0.015	0.000	0.000	0.000	0.000	0.034	1.782	1.333	1.343	1.357	1.387	1.396	1.406
-0.005	0.005	-0.005	0.000	0.000	0.000	0.029	1.709	1.313	1.343	1.348	1.382	1.392	1.396
0.005	0.005	0.000	0.005	-0.005	-0.010	0.034	1.733	1.304	1.328	1.343	1.372	1.382	1.392
0.000	-0.005	0.000	0.000	-0.005	-0.024	0.034	1.782	1.304	1.318	1.333	1.362	1.372	1.377
-0.005	-0.015	0.000	0.005	-0.005	0.000	0.029	1.782	1.304	1.313	1.328	1.362	1.367	1.382
-0.005	-0.005	0.000	-0.005	0.000	0.000	0.034	1.748	1.299	1.309	1.323	1.353	1.367	1.377
-0.005	-0.005	0.000	-0.005	0.000	0.000	0.029	1.782	1.309	1.313	1.323	1.353	1.362	1.377
-0.005	0.000	0.000	0.000	0.000	0.000	0.029	1.768	1.313	1.318	1.318	1.353	1.357	1.372
-0.005	-0.005	0.000	0.000	0.000	-0.024	0.034	1.748	1.309	1.318	1.323	1.353	1.357	1.362
0.000	0.010	0.005	0.000	-0.005	0.000	0.034	1.782	1.318	1.323	1.328	1.353	1.357	1.372
-0.005	-0.005	0.000	0.000	-0.005	0.000	0.034	1.748	1.313	1.323	1.328	1.353	1.357	1.367
0.000	-0.005	0.000	-0.005	-0.005	-0.005	0.034	1.772	1.318	1.323	1.328	1.353	1.357	1.367
-0.010	0.000	-0.005	0.000	0.005	0.000	0.034	1.758	1.313	1.323	1.323	1.353	1.357	1.362
0.005	0.000	0.000	0.005	0.000	-0.024	0.029	1.753	1.309	1.318	1.323	1.348	1.353	1.353
-0.005	-0.005	-0.005	0.000	0.005	-0.010	0.034	1.777	1.299	1.313	1.323	1.348	1.348	1.353
-0.005	0.000	0.000	0.000	-0.005	-0.010	0.034	1.792	1.294	1.304	1.313	1.343	1.343	1.348
-0.005	0.000	0.000	0.000	-0.005	0.010	0.034	1.782	1.289	1.299	1.309	1.333	1.338	1.353
-0.005	0.000	0.005	0.000	0.000	0.015	0.034	1.714	1.274	1.289	1.299	1.323	1.333	1.343
0.000	0.000	0.005	0.005	0.000	0.005	0.034	1.763	1.270	1.279	1.294	1.323	1.323	1.333
0.000	0.029	0.000	0.000	0.005	0.005	0.034	1.758	1.265	1.279	1.284	1.313	1.318	1.328
0.005	0.015	0.005	0.000	-0.005	-0.020	0.034	1.748	1.265	1.270	1.279	1.309	1.313	1.318
0.020	0.005	-0.005	-0.005	-0.010	0.000	0.029	1.738	1.265	1.265	1.274	1.304	1.309	1.318
0.020	0.005	-0.005	0.000	-0.005	0.005	0.029	1.763	1.260	1.265	1.274	1.299	1.304	1.313
0.015	-0.005	0.000	-0.005	-0.020	-0.010	0.034	1.743	1.260	1.260	1.270	1.294	1.299	1.304
0.000	-0.010	0.000	-0.005	-0.005	0.000	0.034	1.748	1.255	1.265	1.270	1.299	1.304	1.313
0.000	-0.005	0.000	0.000	-0.005	0.005	0.034	1.758	1.265	1.265	1.274	1.299	1.304	1.313
-0.015	-0.005	0.000	0.000	0.010	-0.015	0.034	1.782	1.270	1.270	1.274	1.304	1.309	1.309
-0.015	-0.005	0.000	0.000	0.015	-0.010	0.034	1.704	1.265	1.274	1.274	1.304	1.309	1.309
0.010	0.005	0.000	-0.005	0.015	-0.010	0.034	1.763	1.274	1.274	1.279	1.299	1.304	1.313
0.024	0.005	-0.005	-0.005	-0.010	0.005	0.034	1.772	1.274	1.274	1.274	1.299	1.299	1.309
0.010	-0.005	0.005	0.000	0.000	0.010	0.034	1.743	1.260	1.270	1.274	1.299	1.299	1.309
0.000	0.000	-0.005	0.000	0.005	0.005	0.034	1.772	1.255	1.265	1.270	1.294	1.299	1.304
-0.020	-0.005	-0.005	-0.005	0.005	0.005	0.034	1.758	1.240	1.255	1.260	1.289	1.289	1.294
-0.024	-0.005	-0.005	0.000	-0.010	0.005	0.034	1.768	1.230	1.245	1.255	1.279	1.279	1.289
-0.029	-0.005	-0.005	0.000	-0.010	-0.005	0.029	1.758	1.216	1.230	1.245	1.274	1.274	1.279
-0.034	0.000	-0.005	-0.005	-0.005	0.005	0.034	1.787	1.216	1.226	1.235	1.265	1.270	1.279
-0.020	-0.010	0.000	-0.005	0.015	-0.029	0.029	1.768	1.221	1.221	1.230	1.260	1.270	1.265
-0.015	0.000	0.005	0.000	0.015	-0.005	0.034	1.743	1.221	1.221	1.226	1.255	1.265	1.270
-0.010	0.000	0.000	0.000	0.005	0.010	0.034	1.753	1.216	1.221	1.226	1.250	1.255	1.270
0.005	-0.010	-0.005	-0.005	-0.005	-0.005	0.034	1.777	1.230	1.221	1.226	1.245	1.250	1.265
-0.005	-0.010	-0.005	0.000	-0.005	0.000	0.034	1.719	1.226	1.226	1.226	1.250	1.250	1.260
0.005	-0.010	0.000	0.000	0.000	-0.005	0.034	1.777	1.230	1.230	1.230	1.250	1.250	1.260
0.005	-0.005	-0.005	0.000	-0.005	-0.020	0.029	1.743	1.235	1.240	1.235	1.255	1.255	1.260
0.005	-0.010	-0.005	0.000	-0.005	0.015	0.034	1.743	1.230	1.240	1.240	1.260	1.260	1.270
0.000	-0.005	0.000	0.000	0.000	-0.005	0.029	1.782	1.235	1.240	1.245	1.260	1.260	1.260
0.015	-0.010	0.000	0.000	0.000	0.000	0.034	1.738	1.230	1.240	1.240	1.260	1.260	1.265
0.015	-0.010	-0.005	0.005	-0.005	0.015	0.034	1.768	1.226	1.240	1.240	1.260	1.260	1.265
0.010	-0.005	-0.005	-0.005	0.000	-0.005	0.034	1.748	1.221	1.230	1.240	1.260	1.255	1.260
0.005	-0.005	0.000	-0.005	0.000	-0.020	0.034	1.782	1.221	1.226	1.235	1.255	1.250	1.250
0.005	-0.005	0.000	0.000	-0.005	-0.015	0.034	1.738	1.206	1.221	1.226	1.250	1.245	1.255
0.005	0.000	0.005	0.000	0.000	0.000	0.029	1.782	1.201	1.211	1.221	1.245	1.245	1.250
0.005	0.000	0.000	0.005	-0.005	0.005	0.034	1.719	1.191	1.201	1.211	1.240	1.240	1.245
0.010	0.005	-0.005	0.000	0.000	0.010	0.034	1.733	1.187	1.196	1.201	1.230	1.235	1.240
0.000	0.000	-0.005	0.000	-0.005	0.005	0.034	1.782	1.187	1.187	1.196	1.226	1.226	1.235
0.005	0.000	0.000	-0.005	-0.005	0.005	0.029	1.772	1.196	1.187	1.191	1.221	1.226	1.230
0.020	-0.005	0.000	0.000	-0.005	0.005	0.029	1.753	1.196	1.191	1.191	1.221	1.221	1.230
0.015	0.000	0.000	0.005	0.000	0.000	0.034	1.743	1.196	1.191	1.196	1.221	1.221	1.226
0.020	0.015	0.000	-0.005	0.000	0.005	0.034	1.802	1.206	1.201	1.196	1.221	1.221	1.230
0.005	-0.015	0.005	0.000	0.000	-0.015	0.034	1.733	1.196	1.196	1.201	1.221	1.221	1.221
-0.010	-0.015	0.005	0.000	0.000	0.000	0.034	1.738	1.191	1.201	1.201	1.226	1.226	1.230
-0.020	-0.005	0.000	-0.005	0.005	-0.029	0.034	1.782	1.201	1.206	1.206	1.226	1.226	1.226
-0.039	0.010	0.005	0.000	0.000	0.005	0.034	1.758	1.201	1.211	1.206	1.230	1.230	1.235
-0.029	0.015	0.000	0.000	0.000	0.000	0.034	1.758	1.201	1.211	1.206	1.226	1.226	1.235
-0.020	0.010	-0.005	-0.005	-0.005	0.000	0.034	1.787	1.206	1.206	1.206	1.230	1.226	1.230
-0.024	0.000	0.000	-0.005	0.000	-0.020	0.034	1.748	1.196	1.201	1.201	1.226	1.226	1.221
-0.015	0.010	0.000	0.005	0.000	0.010	0.034	1.743	1.187	1.191	1.201	1.221	1.221	1.230
-0.005	-0.005	-0.005	0.000	0.000	0.000	0.034	1.787	1.187	1.187	1.191	1.216	1.211	1.216
0.000	-0.015	0.000	-0.005	0.000	-0.020	0.034	1.768	1.182	1.177	1.187	1.211	1.211	1.211
0.010	-0.005	-0.005	-0.005	0.000	-0.015	0.034	1.772	1.177	1.177	1.177	1.206	1.206	1.206
-0.005	0.000	0.000	0.005	0.000	-0.015	0.034	1.772	1.172	1.172	1.177	1.201	1.201	1.201
0.005	0.005	0.005	0.005	0.000	0.020	0.034	1.777	1.172	1.172	1.177	1.201	1.201	1.211
0.005	0.000	0.000	-0.005	0.005	0.015	0.029	1.758	1.177	1.172	1.172	1.196	1.201	1.201
0.000	-0.015	0.000	0.000	-0.005	-0.010	0.029	1.733	1.172	1.172	1.172	1.191	1.191	1.196
0.000	0.005	0.000	-0.005	0.000	0.005	0.029	1.777	1.177	1.177	1.177	1.196	1.196	1.201
0.005	-0.005	0.000	0.000	-0.005	0.010	0.034	1.758	1.177	1.177	1.177	1.201	1.196	1.201
0.010	-0.010	-0.005	0.000	0.000	0.005	0.034	1.758	1.182	1.182	1.182	1.201	1.201	1.206
0.005	-0.005	0.005	0.000	0.005	-0.005	0.034	1.787	1.187	1.187	1.187	1.206	1.201	1.206
-0.005	0.000	0.005	0.000	0.000	0.005	0.034	1.807	1.201	1.191	1.191	1.211	1.206	1.206
0.010	0.005	0.000	0.000	0.005	-0.005	0.034	1.748	1.191	1.196	1.191	1.211	1.206	1.206
0.005	-0.005	0.000	0.000	0.005	-0.005	0.034	1.768	1.187	1.187	1.191	1.211	1.206	1.206
0.000	0.010	0.000	0.005	-0.005	-0.020	0.034	1.777	1.187	1.191	1.191	1.211	1.206	1.206
-0.010	-0.005	-0.005	0.000	0.005	0.005	0.034	1.724	1.172	1.187	1.187	1.206	1.206	1.206
-0.005	0.000	-0.005	0.000	0.000	-0.015	0.034	1.763	1.167	1.177	1.187	1.206	1.201	1.196
-0.005	0.000	0.000	-0.005	0.000	0.010	0.034	1.768	1.162	1.167	1.177	1.201	1.196	1.201
0.000	0.005	0.000	-0.005	-0.005	-0.010	0.029	1.719	1.157	1.167	1.172	1.191	1.191	1.191
-0.010	0.015	-0.005	0.000	-0.005	-0.005	0.029	1.743	1.143	1.157	1.162	1.191	1.187	1.191
-0.005	0.010	0.000	-0.005	-0.005	-0.020	0.034	1.777	1.143	1.147	1.157	1.187	1.182	1.182
0.000	0.005	0.000	0.000	-0.005	0.005	0.029	1.768	1.143	1.143	1.152	1.182	1.182	1.187
0.000	-0.005	-0.005	0.000	0.000	-0.015	0.034	1.724	1.147	1.143	1.147	1.177	1.177	1.182
0.000	0.005	0.000	0.000	0.000	0.005	0.034	1.787	1.157	1.143	1.152	1.177	1.177	1.182
-0.005	0.005	0.000	0.000	0.000	0.005	0.034	1.772	1.162	1.152	1.152	1.177	1.177	1.182
0.005	0.005	0.000	0.005	0.005	-0.005	0.034	1.787	1.167	1.162	1.157	1.177	1.177	1.182
-0.005	0.000	0.000	0.000	0.005	0.005	0.034	1.782	1.172	1.162	1.162	1.182	1.182	1.187
0.000	-0.005	0.005	0.000	0.000	-0.024	0.034	1.748	1.172	1.172	1.167	1.182	1.182	1.177
0.000	-0.005	0.000	0.000	0.000	0.015	0.034	1.768	1.177	1.172	1.172	1.187	1.187	1.191
0.015	0.000	0.000	0.000	0.000	0.005	0.034	1.738	1.177	1.172	1.172	1.187	1.187	1.187
0.010	-0.005	0.000	0.000	0.000	0.005	0.034	1.763	1.172	1.177	1.172	1.191	1.187	1.187
-0.005	-0.010	-0.005	0.000	0.000	-0.020	0.034	1.738	1.162	1.167	1.172	1.187	1.187	1.182
-0.015	0.000	-0.005	0.000	0.000	0.000	0.034	1.763	1.152	1.162	1.167	1.187	1.182	1.182
-0.010	0.000	0.000	-0.005	0.000	0.005	0.029	1.777	1.152	1.152	1.162	1.182	1.177	1.182
-0.010	-0.015	0.010	0.005	-0.005	0.000	0.034	1.738	1.143	1.147	1.157	1.177	1.172	1.177
-0.015	-0.005	0.000	0.005	0.000	0.000	0.034	1.724	1.133	1.143	1.147	1.172	1.172	1.172
-0.005	0.005	0.000	-0.005	0.000	-0.015	0.029	1.787	1.138	1.138	1.143	1.167	1.162	1.162
0.000	0.000	0.000	0.000	0.000	0.000	0.034	1.763	1.133	1.133	1.138	1.162	1.162	1.162
0.005	-0.005	0.000	0.000	0.005	-0.005	0.029	1.772	1.138	1.133	1.138	1.157	1.162	1.162
0.000	0.005	-0.005	-0.005	0.000	0.000	0.034	1.772	1.138	1.133	1.133	1.157	1.162	1.162
0.000	-0.005	-0.005	-0.005	0.000	0.000	0.034	1.738	1.138	1.138	1.138	1.157	1.162	1.162
0.000	-0.010	-0.005	0.000	0.000	-0.020	0.034	1.772	1.143	1.138	1.138	1.162	1.162	1.162
0.005	-0.010	0.000	-0.005	0.000	0.005	0.034	1.753	1.152	1.147	1.143	1.162	1.162	1.167
-0.005	-0.005	0.000	0.000	-0.005	0.000	0.034	1.724	1.147	1.152	1.147	1.167	1.167	1.167
-0.005	-0.010	-0.005	-0.005	-0.005	-0.010	0.034	1.772	1.147	1.152	1.152	1.172	1.167	1.167
0.005	0.000	-0.005	-0.005	-0.005	0.010	0.029	1.748	1.152	1.162	1.152	1.172	1.167	1.172
0.000	-0.005	0.000	0.000	0.005	0.005	0.034	1.729	1.147	1.157	1.157	1.177	1.172	1.172
0.000	0.000	0.000	0.000	0.000	0.005	0.034	1.777	1.152	1.152	1.152	1.172	1.172	1.172
0.000	-0.005	0.000	0.000	-0.005	0.005	0.034	1.753	1.147	1.147	1.152	1.172	1.167	1.172
0.010	0.005	-0.005	0.000	-0.010	-0.034	0.034	1.729	1.133	1.147	1.147	1.172	1.167	1.157
0.000	-0.005	-0.005	0.000	-0.005	-0.020	0.029	1.782	1.128	1.138	1.143	1.167	1.162	1.162
0.005	-0.005	0.000	0.000	-0.005	-0.005	0.034	1.724	1.128	1.133	1.138	1.162	1.157	1.162
0.005	-0.005	0.000	0.000	0.000	-0.010	0.034	1.743	1.123	1.128	1.133	1.157	1.152	1.152
0.000	0.000	-0.005	0.000	0.000	0.010	0.029	1.763	1.113	1.118	1.123	1.152	1.147	1.157
0.000	-0.005	0.000	0.005	-0.005	0.015	0.034	1.782	1.118	1.113	1.118	1.147	1.147	1.152
0.000	0.005	-0.005	0.000	0.000	0.005	0.034	1.748	1.118	1.118	1.118	1.143	1.143	1.147
0.000	0.000	0.000	0.000	0.000	0.005	0.029	1.772	1.128	1.118	1.118	1.143	1.143	1.147
-0.005	0.000	0.005	0.000	0.000	-0.010	0.029	1.777	1.128	1.128	1.123	1.143	1.138	1.143
0.000	0.000	0.000	0.000	-0.005	-0.005	0.039	1.738	1.133	1.128	1.123	1.143	1.143	1.147
-0.005	0.005	-0.005	0.000	0.000	-0.005	0.034	1.763	1.143	1.138	1.133	1.152	1.147	1.147
-0.005	0.005	0.000	0.000	0.000	0.020	0.039	1.777	1.147	1.143	1.138	1.152	1.152	1.157
0.000	-0.010	0.000	0.000	0.000	0.015	0.034	1.733	1.143	1.143	1.143	1.157	1.152	1.157
0.000	0.005	0.000	0.000	0.005	0.010	0.034	1.787	1.152	1.147	1.143	1.162	1.157	1.157
0.000	-0.010	0.005	0.000	-0.005	-0.024	0.034	1.753	1.147	1.147	1.143	1.162	1.152	1.147
-0.005	0.005	-0.005	0.000	-0.005	0.015	0.034	1.729	1.133	1.152	1.147	1.157	1.157	1.162
0.000	0.000	-0.005	-0.005	0.000	0.010	0.034	1.768	1.128	1.138	1.143	1.162	1.152	1.157
0.005	0.000	0.005	0.000	0.000	-0.005	0.034	1.733	1.123	1.133	1.138	1.157	1.152	1.147
0.000	-0.015	0.000	-0.005	0.000	-0.005	0.034	1.743	1.113	1.123	1.133	1.152	1.147	1.143
-0.005	-0.005	0.000	-0.005	0.000	0.005	0.029	1.782	1.108	1.113	1.123	1.147	1.143	1.147
0.015	0.000	-0.005	0.000	0.000	-0.005	0.029	1.772	1.113	1.113	1.113	1.143	1.143	1.138
0.010	0.005	0.000	0.000	0.000	-0.015	0.034	1.738	1.108	1.108	1.113	1.133	1.133	1.133
0.010	0.000	0.000	0.000	-0.005	-0.024	0.034	1.787	1.118	1.108	1.108	1.133	1.133	1.133
-0.005	-0.005	0.000	0.000	0.000	0.020	0.034	1.748	1.108	1.108	1.108	1.128	1.133	1.138
-0.005	-0.005	-0.005	0.000	-0.005	0.005	0.034	1.748	1.113	1.108	1.108	1.128	1.133	1.138
-0.010	0.005	0.000	0.005	0.000	-0.005	0.034	1.782	1.118	1.118	1.113	1.133	1.133	1.133
-0.010	-0.010	0.000	0.000	-0.005	-0.005	0.034	1.743	1.123	1.118	1.118	1.133	1.133	1.143
-0.015	-0.010	-0.005	0.000	0.000	0.015	0.029	1.719	1.123	1.123	1.123	1.138	1.138	1.143
-0.015	0.005	-0.005	-0.005	0.000	-0.010	0.034	1.772	1.128	1.128	1.128	1.143	1.138	1.138
-0.015	0.000	0.005	0.000	-0.005	0.020	0.034	1.758	1.133	1.133	1.128	1.147	1.143	1.147
-0.010	-0.005	0.000	0.000	0.000	0.000	0.034	1.719	1.133	1.138	1.133	1.147	1.147	1.143
-0.015	-0.005	-0.005	0.000	0.000	0.005	0.034	1.772	1.133	1.133	1.133	1.152	1.143	1.143
-0.010	0.005	0.000	0.000	0.000	0.010	0.029	1.787	1.133	1.133	1.128	1.147	1.143	1.143
0.000	-0.005	-0.005	0.000	0.000	-0.005	0.029	1.729	1.123	1.128	1.128	1.147	1.143	1.138
-0.005	0.000	-0.005	0.000	0.000	0.000	0.034	1.743	1.113	1.123	1.123	1.143	1.138	1.138
0.000	0.005	0.000	-0.005	0.000	-0.010	0.034	1.777	1.118	1.118	1.118	1.138	1.133	1.128
0.005	0.000	0.000	-0.005	-0.005	-0.005	0.034	1.772	1.113	1.113	1.113	1.133	1.128	1.133
0.005	-0.005	0.000	-0.005	-0.005	-0.010	0.034	1.763	1.108	1.104	1.108	1.128	1.123	1.128
0.000	-0.005	0.000	-0.005	0.000	0.005	0.034	1.782	1.108	1.104	1.104	1.128	1.128	1.128
0.005	-0.005	0.000	0.000	0.005	-0.015	0.034	1.753	1.108	1.104	1.104	1.128	1.128	1.123
0.005	0.010	0.000	0.000	0.000	0.010	0.034	1.768	1.108	1.104	1.104	1.128	1.123	1.128
0.005	0.000	-0.005	-0.005	-0.005	0.000	0.034	1.777	1.108	1.104	1.104	1.123	1.123	1.128
0.005	-0.005	-0.005	0.000	-0.005	0.010	0.034	1.733	1.113	1.108	1.108	1.128	1.128	1.133
0.010	0.005	-0.005	0.000	0.000	0.005	0.034	1.777	1.123	1.118	1.118	1.133	1.128	1.133
0.000	-0.005	0.005	-0.005	0.000	-0.024	0.029	1.758	1.123	1.118	1.118	1.138	1.133	1.123
0.005	-0.005	0.000	0.005	-0.005	0.000	0.034	1.768	1.128	1.128	1.123	1.138	1.133	1.133
0.000	-0.005	0.000	0.000	0.000	0.000	0.034	1.777	1.133	1.128	1.128	1.143	1.138	1.138
0.005	0.005	-0.005	0.000	0.000	-0.015	0.034	1.768	1.138	1.133	1.128	1.147	1.143	1.138
0.000	0.000	-0.005	0.000	0.005	0.005	0.034	1.719	1.128	1.128	1.128	1.147	1.143	1.143
0.000	0.005	0.000	0.000	0.000	-0.020	0.034	1.777	1.123	1.128	1.128	1.143	1.138	1.133
-0.010	0.000	0.000	0.000	0.000	-0.020	0.034	1.733	1.108	1.123	1.123	1.143	1.138	1.128
0.000	-0.015	0.000	-0.005	0.000	0.010	0.034	1.748	1.104	1.108	1.118	1.138	1.133	1.138
-0.005	-0.005	0.005	0.000	-0.005	0.005	0.034	1.777	1.104	1.104	1.113	1.133	1.128	1.133
0.000	-0.005	0.000	0.005	0.005	0.000	0.034	1.753	1.099	1.099	1.099	1.128	1.128	1.128
-0.010	0.005	-0.005	-0.005	0.005	0.000	0.034	1.748	1.094	1.094	1.099	1.123	1.123	1.123
0.000	0.010	0.005	-0.005	0.000	0.000	0.029	1.777	1.099	1.094	1.099	1.118	1.118	1.118
0.005	0.005	0.000	-0.005	-0.005	0.000	0.034	1.753	1.099	1.094	1.094	1.118	1.118	1.118
-0.005	-0.005	-0.005	0.000	0.000	-0.005	0.034	1.772	1.099	1.094	1.094	1.118	1.118	1.118
0.005	-0.005	0.005	-0.005	0.005	0.000	0.034	1.753	1.108	1.099	1.099	1.118	1.118	1.118
0.000	0.000	-0.005	0.000	0.000	-0.029	0.034	1.738	1.113	1.108	1.099	1.123	1.118	1.113
0.005	0.000	0.000	0.000	0.000	0.000	0.029	1.768	1.118	1.113	1.108	1.123	1.123	1.128
0.000	0.000	0.000	-0.005	-0.005	0.015	0.029	1.753	1.118	1.118	1.113	1.133	1.123	1.133
0.005	-0.005	0.000	0.000	-0.005	0.005	0.029	1.763	1.123	1.123	1.118	1.133	1.133	1.128
0.000	0.000	-0.005	0.000	0.000	0.005	0.034	1.777	1.133	1.123	1.123	1.138	1.128	1.133
0.000	-0.010	0.000	0.000	-0.005	0.005	0.039	1.719	1.118	1.123	1.123	1.138	1.133	1.128
-0.005	0.000	-0.005	0.005	-0.005	-0.010	0.039	1.748	1.113	1.123	1.123	1.138	1.128	1.128
-0.005	0.005	0.000	0.000	-0.005	0.005	0.034	1.787	1.118	1.118	1.123	1.138	1.133	1.133
0.000	-0.005	0.000	0.000	-0.005	0.000	0.034	1.743	1.108	1.108	1.113	1.133	1.128	1.128
0.000	-0.010	-0.005	0.005	0.000	0.000	0.034	1.709	1.089	1.099	1.108	1.133	1.128	1.128
0.000	-0.010	-0.005	-0.005	0.000	-0.034	0.034	1.782	1.094	1.094	1.104	1.123	1.118	1.113
-0.005	-0.010	-0.005	0.000	-0.005	0.010	0.034	1.738	1.084	1.089	1.094	1.118	1.118	1.123
-0.010	-0.005	-0.005	0.005	0.000	0.010	0.034	1.763	1.089	1.089	1.094	1.113	1.113	1.118
0.000	0.000	0.000	0.005	-0.005	0.005	0.034	1.782	1.099	1.089	1.089	1.113	1.108	1.113
-0.005	0.000	0.000	0.000	0.005	0.010	0.034	1.733	1.089	1.089	1.089	1.108	1.113	1.113
0.005	0.005	-0.005	0.000	0.010	-0.015	0.034	1.777	1.104	1.094	1.094	1.108	1.108	1.108
0.000	0.024	0.000	0.000	0.010	0.005	0.034	1.758	1.108	1.104	1.094	1.113	1.113	1.113
0.000	0.005	0.005	0.000	-0.005	-0.005	0.029	1.743	1.108	1.104	1.099	1.118	1.113	1.113
0.000	0.005	0.000	-0.005	-0.005	0.005	0.029	1.748	1.108	1.108	1.104	1.123	1.113	1.118
0.000	0.005	0.000	-0.005	0.000	-0.010	0.034	1.797	1.123	1.113	1.108	1.123	1.118	1.118
0.000	0.020	0.000	0.005	0.000	-0.010	0.029	1.724	1.118	1.123	1.113	1.128	1.123	1.118
-0.005	-0.010	0.000	0.000	-0.010	-0.049	0.034	1.729	1.113	1.113	1.113	1.133	1.123	1.113
-0.005	-0.010	-0.005	-0.005	0.000	-0.005	0.034	1.777	1.113	1.108	1.113	1.133	1.128	1.128
0.000	-0.015	-0.005	0.000	0.000	0.010	0.034	1.724	1.108	1.113	1.113	1.133	1.128	1.128
0.000	-0.005	0.000	0.000	-0.005	-0.010	0.034	1.719	1.099	1.108	1.113	1.128	1.123	1.123
-0.005	0.000	-0.005	0.000	-0.005	0.010	0.034	1.772	1.099	1.099	1.108	1.123	1.123	1.123
0.000	0.005	-0.005	0.000	-0.005	0.010	0.034	1.772	1.099	1.099	1.099	1.123	1.118	1.118
-0.005	-0.005	-0.005	0.000	0.000	-0.020	0.034	1.738	1.089	1.089	1.094	1.113	1.113	1.108
-0.005	-0.005	-0.005	-0.005	0.000	0.015	0.034	1.782	1.094	1.089	1.094	1.108	1.108	1.113
0.020	0.010	0.005	0.000	0.000	0.015	0.034	1.812	1.104	1.094	1.094	1.108	1.108	1.113
0.020	0.005	0.000	0.000	0.000	0.000	0.034	1.724	1.099	1.094	1.089	1.108	1.108	1.108
0.015	0.010	-0.005	-0.005	0.005	0.015	0.034	1.777	1.099	1.094	1.089	1.108	1.104	1.108
0.000	0.010	0.005	0.000	0.000	0.015	0.034	1.777	1.099	1.094	1.094	1.108	1.108	1.108
0.005	0.005	0.000	0.000	0.000	0.010	0.034	1.729	1.099	1.099	1.099	1.113	1.108	1.108
0.000	0.015	0.000	0.000	0.000	-0.010	0.034	1.777	1.104	1.104	1.104	1.118	1.113	1.113
-0.020	-0.005	0.000	0.005	0.000	0.000	0.034	1.758	1.113	1.104	1.104	1.123	1.118	1.113
-0.029	0.005	0.000	0.000	0.005	0.005	0.034	1.748	1.113	1.113	1.108	1.123	1.123	1.118
-0.024	0.005	0.000	0.000	0.000	0.015	0.034	1.787	1.118	1.113	1.113	1.128	1.123	1.123
-0.020	0.000	-0.005	0.005	-0.005	0.015	0.034	1.758	1.113	1.113	1.113	1.128	1.123	1.123
-0.020	-0.005	0.000	0.000	-0.005	0.000	0.034	1.782	1.113	1.113	1.113	1.128	1.123	1.123
-0.005	0.000	0.000	0.000	0.000	0.005	0.029	1.768	1.118	1.113	1.113	1.133	1.123	1.118
0.010	0.005	0.000	0.000	0.000	-0.024	0.034	1.753	1.108	1.113	1.108	1.123	1.118	1.113
0.010	-0.005	0.000	0.000	0.000	-0.015	0.034	1.777	1.104	1.104	1.104	1.123	1.118	1.113
0.010	-0.010	0.005	0.005	0.000	-0.044	0.029	1.724	1.094	1.099	1.099	1.123	1.113	1.104
0.015	-0.005	-0.005	0.000	-0.005	-0.010	0.034	1.743	1.089	1.094	1.094	1.113	1.113	1.108
0.005	0.000	0.000	0.000	0.000	0.000	0.039	1.772	1.089	1.089	1.094	1.113	1.108	1.108
0.015	-0.005	0.000	0.000	0.000	0.000	0.034	1.758	1.089	1.084	1.089	1.113	1.108	1.108
0.024	-0.005	0.000	0.005	0.000	-0.005	0.034	1.758	1.089	1.084	1.089	1.108	1.108	1.108
0.010	0.005	0.000	-0.005	0.000	-0.010	0.034	1.787	1.089	1.089	1.089	1.108	1.104	1.104
0.005	0.000	0.000	0.000	-0.005	0.005	0.034	1.777	1.104	1.089	1.089	1.108	1.104	1.108
-0.005	-0.010	0.000	0.000	-0.005	0.015	0.034	1.743	1.099	1.094	1.094	1.108	1.108	1.113
-0.010	-0.005	0.000	0.000	0.000	0.010	0.034	1.768	1.104	1.104	1.099	1.113	1.108	1.113
-0.005	0.005	0.000	0.000	-0.005	0.005	0.034	1.787	1.123	1.113	1.104	1.118	1.113	1.113
-0.015	0.000	0.000	0.000	0.000	0.010	0.034	1.733	1.113	1.113	1.108	1.123	1.118	1.118
0.020	-0.010	-0.005	0.000	0.000	-0.024	0.029	1.772	1.128	1.118	1.113	1.128	1.123	1.113
0.020	0.000	0.005	0.000	0.000	0.010	0.034	1.777	1.128	1.123	1.113	1.128	1.123	1.123
0.020	-0.015	0.000	0.000	0.000	-0.005	0.029	1.758	1.118	1.118	1.113	1.128	1.123	1.123
0.000	0.000	-0.005	0.005	0.005	-0.015	0.039	1.758	1.108	1.118	1.113	1.128	1.123	1.123
-0.015	0.010	0.005	0.000	-0.005	0.015	0.034	1.792	1.104	1.108	1.113	1.128	1.118	1.123
-0.024	-0.020	0.000	0.000	-0.005	0.015	0.034	1.738	1.089	1.094	1.099	1.123	1.118	1.118
-0.034	-0.029	-0.005	0.000	0.000	0.000	0.034	1.753	1.084	1.084	1.094	1.113	1.113	1.108
-0.024	-0.015	0.000	0.000	-0.005	-0.010	0.034	1.787	1.089	1.084	1.089	1.108	1.108	1.104
-0.015	-0.010	0.000	0.000	-0.005	0.020	0.034	1.768	1.094	1.089	1.084	1.108	1.108	1.108
0.000	-0.010	0.000	0.000	-0.005	0.000	0.029	1.758	1.094	1.089	1.089	1.104	1.104	1.104
0.000	0.000	0.000	0.000	0.000	-0.005	0.034	1.772	1.094	1.084	1.084	1.104	1.104	1.104
-0.005	-0.010	0.005	0.000	0.000	-0.015	0.034	1.758	1.094	1.089	1.089	1.104	1.104	1.099
0.000	0.005	-0.005	0.000	-0.005	0.000	0.034	1.772	1.099	1.099	1.094	1.108	1.108	1.108
0.000	0.000	-0.005	0.005	0.000	-0.005	0.034	1.753	1.104	1.099	1.094	1.113	1.108	1.108
0.000	-0.005	0.000	0.000	0.000	0.000	0.034	1.743	1.108	1.104	1.099	1.118	1.113	1.113
0.005	0.000	-0.005	0.000	0.000	0.010	0.034	1.733	1.113	1.108	1.108	1.118	1.118	1.118
0.005	0.005	0.005	0.000	0.005	-0.010	0.034	1.768	1.113	1.113	1.113	1.128	1.118	1.113
0.000	0.005	-0.005	-0.005	0.005	-0.015	0.034	1.758	1.108	1.113	1.113	1.128	1.123	1.118
0.010	0.000	-0.005	0.005	0.005	-0.005	0.034	1.724	1.108	1.113	1.113	1.128	1.123	1.118
0.000	0.015	-0.005	0.000	0.000	0.010	0.034	1.782	1.108	1.108	1.113	1.128	1.123	1.123
0.010	0.010	0.000	0.000	0.005	-0.015	0.034	1.714	1.104	1.108	1.108	1.128	1.123	1.113
0.000	0.015	-0.005	0.000	-0.005	-0.005	0.034	1.768	1.094	1.104	1.104	1.123	1.113	1.113
0.005	0.010	-0.005	0.000	-0.015	0.005	0.029	1.777	1.094	1.089	1.099	1.118	1.108	1.113
-0.005	-0.005	0.000	0.000	-0.005	-0.020	0.029	1.782	1.094	1.089	1.094	1.113	1.108	1.104
0.015	-0.005	-0.005	0.000	-0.005	-0.005	0.029	1.738	1.084	1.079	1.089	1.108	1.108	1.104
0.000	-0.005	0.000	0.000	-0.005	0.005	0.034	1.772	1.079	1.079	1.084	1.104	1.104	1.108
-0.015	-0.005	0.000	0.000	-0.005	0.015	0.034	1.797	1.089	1.074	1.079	1.104	1.099	1.104
-0.005	-0.010	0.005	0.000	-0.005	-0.005	0.034	1.738	1.084	1.079	1.079	1.104	1.104	1.099
-0.010	0.000	0.000	0.000	0.015	0.005	0.029	1.772	1.089	1.084	1.084	1.104	1.108	1.108
-0.010	0.015	-0.005	0.000	0.010	-0.005	0.034	1.797	1.099	1.094	1.084	1.104	1.104	1.104
-0.010	-0.005	-0.005	0.000	0.005	0.005	0.034	1.685	1.094	1.094	1.089	1.108	1.108	1.104
-0.020	-0.015	0.000	0.005	0.010	0.010	0.034	1.777	1.104	1.099	1.099	1.113	1.108	1.113
-0.005	0.015	0.000	0.000	-0.005	0.000	0.034	1.768	1.113	1.108	1.104	1.118	1.108	1.108
-0.010	0.010	-0.005	0.000	-0.005	0.000	0.034	1.719	1.113	1.113	1.108	1.118	1.113	1.113
-0.005	0.015	-0.005	0.000	-0.005	-0.020	0.034	1.748	1.113	1.113	1.108	1.123	1.113	1.108
-0.005	0.005	0.000	0.005	-0.005	0.005	0.034	1.792	1.108	1.108	1.108	1.128	1.118	1.118
0.010	-0.005	0.000	0.000	0.000	0.000	0.034	1.763	1.108	1.108	1.108	1.123	1.118	1.113
0.010	-0.005	0.000	0.000	0.000	0.005	0.034	1.753	1.104	1.104	1.104	1.123	1.113	1.118
0.000	-0.005	0.000	0.000	0.000	0.005	0.034	1.787	1.094	1.094	1.099	1.118	1.113	1.113
0.005	-0.005	0.005	0.000	0.000	0.000	0.034	1.748	1.089	1.094	1.094	1.113	1.108	1.108
0.000	-0.010	-0.005	0.000	0.000	-0.005	0.034	1.748	1.084	1.084	1.089	1.108	1.104	1.104
0.005	-0.005	0.000	-0.005	-0.005	-0.005	0.034	1.782	1.084	1.084	1.084	1.104	1.099	1.099
0.010	0.000	0.000	0.005	0.000	0.000	0.034	1.758	1.084	1.084	1.084	1.104	1.099	1.099
0.000	0.000	-0.010	0.000	0.000	0.005	0.034	1.772	1.089	1.084	1.079	1.099	1.099	1.099
0.010	-0.005	-0.005	0.000	0.000	0.000	0.029	1.743	1.094	1.084	1.084	1.104	1.099	1.099
-0.005	0.005	0.000	0.000	0.000	0.000	0.034	1.758	1.089	1.089	1.089	1.104	1.104	1.104
0.005	0.005	0.000	0.000	0.000	0.000	0.029	1.782	1.104	1.094	1.089	1.104	1.104	1.104
0.000	-0.005	0.000	0.000	-0.005	0.005	0.034	1.768	1.104	1.099	1.094	1.108	1.104	1.108
-0.005	-0.005	0.000	0.000	0.000	-0.020	0.034	1.733	1.099	1.099	1.099	1.113	1.108	1.104
0.005	0.000	-0.005	0.000	0.005	0.000	0.034	1.772	1.108	1.104	1.104	1.118	1.113	1.113
-0.015	-0.005	0.000	0.000	-0.005	-0.015	0.034	1.748	1.104	1.108	1.104	1.123	1.113	1.108
-0.005	-0.005	-0.005	0.000	0.000	0.000	0.039	1.685	1.099	1.108	1.104	1.123	1.113	1.113
0.000	0.000	-0.005	0.000	0.000	0.000	0.034	1.772	1.104	1.104	1.108	1.123	1.118	1.118
0.015	0.005	0.000	0.000	0.000	0.005	0.034	1.787	1.104	1.104	1.104	1.123	1.113	1.118
0.005	-0.005	0.000	0.000	-0.010	-0.015	0.029	1.719	1.094	1.094	1.099	1.118	1.108	1.108
-0.005	0.000	-0.005	-0.005	0.000	-0.024	0.034	1.763	1.089	1.089	1.094	1.113	1.108	1.104
-0.005	-0.005	0.000	0.000	0.000	-0.005	0.034	1.787	1.089	1.084	1.089	1.108	1.104	1.104
-0.010	-0.020	0.000	0.005	-0.010	0.015	0.034	1.743	1.079	1.074	1.079	1.104	1.099	1.108
0.000	0.000	-0.005	0.000	0.000	0.015	0.034	1.772	1.084	1.079	1.079	1.099	1.099	1.104
0.010	-0.005	0.005	0.000	0.000	-0.010	0.029	1.777	1.089	1.079	1.074	1.099	1.094	1.094
0.010	0.000	0.000	0.000	0.000	-0.005	0.029	1.748	1.084	1.084	1.079	1.094	1.099	1.099
0.005	0.000	-0.005	0.000	0.000	-0.010	0.034	1.802	1.089	1.084	1.079	1.099	1.099	1.094
0.000	-0.005	-0.005	0.000	0.005	0.015	0.034	1.729	1.094	1.089	1.084	1.104	1.099	1.104
-0.010	-0.005	-0.005	0.000	0.005	0.010	0.034	1.772	1.094	1.089	1.089	1.104	1.099	1.104
-0.010	-0.005	0.000	-0.005	0.000	0.000	0.034	1.787	1.108	1.099	1.094	1.108	1.104	1.104
-0.020	0.005	0.000	0.005	0.000	-0.005	0.034	1.724	1.104	1.104	1.099	1.113	1.108	1.104
-0.024	0.005	0.000	0.000	0.005	0.000	0.034	1.758	1.104	1.108	1.104	1.118	1.113	1.113
-0.024	-0.005	0.000	-0.005	0.000	0.010	0.034	1.777	1.108	1.108	1.104	1.123	1.113	1.113
-0.005	0.005	0.000	0.000	-0.010	-0.020	0.034	1.753	1.113	1.113	1.108	1.123	1.113	1.108
0.000	-0.005	-0.005	0.005	0.000	0.005	0.034	1.729	1.104	1.108	1.104	1.123	1.118	1.113
0.020	0.005	0.005	-0.005	0.000	-0.020	0.034	1.777	1.108	1.108	1.108	1.118	1.108	1.099
0.000	-0.005	0.000	0.005	-0.005	0.010	0.029	1.772	1.094	1.094	1.099	1.118	1.108	1.108
-0.005	0.000	0.000	0.000	-0.005	0.010	0.034	1.704	1.084	1.089	1.094	1.113	1.108	1.108
0.005	-0.005	0.005	0.005	0.005	0.010	0.034	1.782	1.079	1.084	1.089	1.113	1.108	1.108
-0.005	0.000	0.000	0.000	0.005	0.010	0.029	1.768	1.079	1.079	1.084	1.104	1.104	1.099
0.000	0.000	0.000	0.005	0.000	0.005	0.034	1.724	1.074	1.079	1.079	1.099	1.099	1.099
0.000	0.005	0.000	-0.005	0.005	-0.020	0.029	1.768	1.074	1.074	1.079	1.094	1.094	1.094
0.005	-0.005	-0.005	-0.005	-0.005	-0.024	0.029	1.782	1.084	1.074	1.074	1.099	1.094	1.094
0.005	-0.010	0.000	0.005	-0.010	-0.015	0.034	1.714	1.084	1.079	1.079	1.099	1.099	1.094
0.000	-0.005	0.000	-0.005	-0.020	-0.005	0.034	1.724	1.089	1.084	1.084	1.099	1.094	1.099
0.000	-0.005	0.000	-0.005	-0.020	0.000	0.034	1.782	1.099	1.089	1.089	1.104	1.099	1.104
0.005	-0.005	0.000	0.000	-0.005	-0.044	0.039	1.768	1.104	1.094	1.094	1.108	1.104	1.094
0.010	0.005	0.000	0.000	0.000	-0.005	0.034	1.709	1.099	1.104	1.099	1.113	1.113	1.108
0.000	0.005	0.000	-0.005	0.010	-0.024	0.034	1.777	1.108	1.104	1.099	1.118	1.113	1.113
0.005	-0.005	-0.005	0.000	0.005	0.024	0.034	1.733	1.108	1.104	1.104	1.118	1.118	1.123
0.024	-0.005	0.000	0.000	0.000	0.020	0.034	1.748	1.108	1.104	1.104	1.118	1.113	1.113
0.029	-0.005	0.000	-0.005	0.010	0.024	0.034	1.777	1.104	1.104	1.099	1.118	1.113	1.118
0.015	0.000	0.000	-0.005	0.005	0.010	0.029	1.772	1.099	1.099	1.099	1.118	1.108	1.108
-0.005	-0.005	-0.005	0.000	-0.005	-0.015	0.034	1.719	1.079	1.089	1.094	1.108	1.104	1.099
-0.010	0.005	-0.005	0.000	0.005	-0.010	0.034	1.758	1.079	1.089	1.089	1.108	1.104	1.099
-0.024	0.005	0.005	0.000	0.005	-0.010	0.034	1.787	1.074	1.079	1.084	1.104	1.099	1.094
-0.024	0.000	0.000	0.000	0.015	0.015	0.029	1.738	1.069	1.069	1.079	1.099	1.099	1.104
-0.020	-0.005	0.000	0.000	0.010	0.010	0.029	1.758	1.074	1.069	1.074	1.094	1.094	1.104
-0.024	0.000	0.005	0.000	-0.005	0.024	0.034	1.758	1.079	1.074	1.074	1.094	1.089	1.099
-0.005	0.000	0.000	0.000	-0.020	0.010	0.029	1.758	1.084	1.074	1.074	1.094	1.089	1.089
0.000	0.000	0.000	-0.005	0.000	0.005	0.034	1.782	1.094	1.084	1.079	1.099	1.094	1.094
0.010	0.000	0.000	0.000	0.005	0.010	0.034	1.733	1.104	1.094	1.084	1.104	1.099	1.094
0.010	-0.005	0.000	0.000	0.010	-0.005	0.034	1.733	1.104	1.094	1.089	1.104	1.099	1.099
0.010	-0.010	-0.005	0.000	0.005	0.000	0.034	1.787	1.108	1.099	1.094	1.108	1.104	1.099
0.010	-0.015	-0.005	0.005	0.024	-0.005	0.034	1.758	1.108	1.104	1.099	1.113	1.113	1.108
0.005	-0.005	0.000	0.000	0.020	0.005	0.034	1.777	1.108	1.108	1.104	1.118	1.113	1.108
0.000	-0.005	-0.005	0.000	0.000	-0.020	0.029	1.782	1.108	1.108	1.104	1.118	1.108	1.099
0.000	0.000	0.000	-0.005	-0.005	-0.005	0.034	1.738	1.094	1.108	1.104	1.118	1.108	1.108
0.000	0.000	-0.005	0.000	-0.005	0.005	0.034	1.772	1.094	1.099	1.104	1.118	1.108	1.113
-0.010	0.000	-0.005	-0.005	-0.034	0.015	0.034	1.787	1.094	1.094	1.094	1.113	1.099	1.108
0.000	0.005	0.000	-0.005	-0.054	0.005	0.034	1.758	1.089	1.089	1.094	1.108	1.094	1.099
-0.005	0.000	0.000	0.000	-0.073	-0.024	0.029	1.768	1.079	1.084	1.089	1.108	1.089	1.089
0.000	0.000	-0.005	-0.005	0.000	0.000	0.034	1.782	1.084	1.079	1.084	1.104	1.108	1.099
-0.005	-0.005	0.005	0.000	0.015	-0.005	0.034	1.758	1.079	1.079	1.079	1.099	1.108	1.094
0.000	-0.005	-0.005	0.000	0.005	-0.005	0.034	1.763	1.074	1.074	1.074	1.099	1.099	1.099
-0.005	-0.005	-0.005	0.000	0.005	-0.020	0.029	1.753	1.074	1.069	1.074	1.094	1.099	1.089
-0.005	-0.005	0.000	0.000	0.010	0.015	0.034	1.743	1.079	1.079	1.074	1.094	1.099	1.104
-0.005	0.005	-0.005	0.000	0.015	0.000	0.029	1.763	1.089	1.084	1.079	1.099	1.099	1.099
-0.005	0.015	0.000	-0.005	0.010	0.010	0.034	1.768	1.099	1.094	1.084	1.104	1.099	1.104
0.015	0.000	0.000	0.000	0.005	0.005	0.034	1.753	1.108	1.099	1.094	1.108	1.099	1.104
0.000	0.000	-0.005	-0.005	0.010	0.005	0.034	1.777	1.108	1.099	1.094	1.108	1.104	1.108
0.000	0.005	0.000	-0.010	0.010	0.000	0.034	1.787	1.113	1.108	1.099	1.113	1.108	1.108
0.005	-0.010	-0.005	0.000	0.005	-0.010	0.034	1.724	1.104	1.108	1.104	1.118	1.108	1.108
0.005	0.000	0.005	0.000	0.000	-0.010	0.034	1.772	1.104	1.108	1.104	1.118	1.108	1.108
-0.005	0.010	0.000	0.000	-0.005	0.005	0.034	1.782	1.108	1.108	1.104	1.118	1.108	1.108
-0.005	-0.005	-0.005	0.000	0.000	0.000	0.034	1.743	1.094	1.099	1.104	1.118	1.113	1.108
-0.010	0.005	-0.005	0.000	0.000	-0.020	0.034	1.777	1.089	1.094	1.099	1.118	1.108	1.099
-0.005	0.005	0.000	-0.005	0.000	0.005	0.034	1.772	1.089	1.094	1.089	1.113	1.104	1.108
0.000	-0.005	0.000	0.000	-0.005	0.000	0.034	1.768	1.089	1.084	1.084	1.108	1.104	1.104
0.000	-0.005	-0.005	0.005	0.000	-0.015	0.034	1.768	1.084	1.079	1.084	1.104	1.099	1.094
0.000	0.005	0.000	0.000	0.000	0.015	0.034	1.787	1.084	1.079	1.079	1.099	1.099	1.099
0.005	0.000	-0.005	0.000	0.000	-0.005	0.034	1.758	1.084	1.079	1.079	1.094	1.094	1.094
-0.005	0.000	-0.005	0.000	-0.005	0.000	0.034	1.748	1.084	1.079	1.079	1.094	1.094	1.094
0.000	0.005	-0.005	0.005	0.000	0.000	0.034	1.729	1.089	1.084	1.079	1.099	1.099	1.094
-0.010	0.000	-0.005	0.000	-0.005	0.005	0.029	1.753	1.084	1.089	1.084	1.099	1.099	1.099
0.000	0.005	0.000	-0.005	-0.005	0.010	0.029	1.768	1.099	1.094	1.089	1.104	1.099	1.104
-0.005	-0.005	0.000	0.000	-0.010	0.005	0.034	1.729	1.094	1.094	1.094	1.108	1.104	1.104
0.000	0.000	-0.005	0.000	-0.010	-0.010	0.034	1.758	1.099	1.099	1.099	1.113	1.104	1.104
0.000	0.000	0.000	-0.010	-0.010	0.005	0.034	1.782	1.104	1.104	1.104	1.118	1.108	1.108
0.005	0.000	0.000	0.000	0.015	-0.024	0.034	1.738	1.108	1.104	1.104	1.118	1.118	1.104
0.005	0.000	-0.005	-0.005	0.015	-0.010	0.034	1.729	1.099	1.104	1.099	1.118	1.118	1.108
-0.010	0.000	-0.005	-0.005	0.015	-0.010	0.034	1.768	1.099	1.099	1.099	1.118	1.113	1.113
0.000	-0.010	0.000	-0.005	0.005	0.005	0.034	1.738	1.094	1.094	1.094	1.113	1.113	1.118
0.005	0.000	-0.005	0.000	-0.005	0.010	0.034	1.729	1.084	1.094	1.094	1.108	1.104	1.113
-0.005	-0.005	-0.005	-0.005	0.000	0.015	0.034	1.807	1.089	1.084	1.089	1.108	1.099	1.104
-0.010	-0.015	0.000	0.000	-0.015	-0.015	0.034	1.733	1.079	1.074	1.084	1.104	1.094	1.094
-0.015	-0.005	-0.005	0.005	0.000	-0.005	0.034	1.777	1.069	1.074	1.079	1.099	1.094	1.094
0.005	0.000	0.000	-0.005	-0.015	-0.024	0.034	1.782	1.084	1.074	1.074	1.094	1.089	1.084
-0.010	0.005	0.005	0.000	-0.029	0.010	0.034	1.772	1.079	1.079	1.074	1.094	1.089	1.094
0.000	-0.005	-0.005	0.000	-0.005	0.010	0.034	1.714	1.079	1.074	1.074	1.094	1.094	1.099
-0.005	-0.010	0.005	0.000	0.005	0.005	0.034	1.787	1.089	1.079	1.079	1.094	1.099	1.094
-0.005	-0.005	0.000	0.000	0.005	-0.015	0.034	1.777	1.094	1.089	1.079	1.099	1.099	1.094
-0.005	0.000	0.000	0.005	0.005	-0.005	0.034	1.792	1.099	1.094	1.089	1.104	1.099	1.099
-0.010	0.005	-0.005	0.000	-0.005	-0.005	0.034	1.772	1.104	1.099	1.094	1.108	1.099	1.099
0.000	-0.005	-0.005	0.000	0.000	0.000	0.034	1.743	1.104	1.104	1.099	1.108	1.104	1.108
-0.005	-0.005	-0.005	0.000	0.005	-0.015	0.034	1.777	1.108	1.104	1.104	1.118	1.108	1.104
-0.005	-0.005	0.000	0.000	0.010	0.000	0.034	1.758	1.108	1.108	1.104	1.118	1.113	1.108
0.000	-0.005	0.000	0.005	0.005	0.005	0.034	1.787	1.108	1.104	1.099	1.118	1.108	1.108
0.000	-0.005	-0.005	0.000	-0.005	-0.010	0.034	1.743	1.094	1.099	1.099	1.118	1.108	1.104
0.000	-0.010	0.000	0.000	-0.005	-0.024	0.034	1.738	1.094	1.094	1.099	1.113	1.104	1.099
0.000	0.005	0.000	0.000	-0.005	-0.024	0.034	1.753	1.084	1.089	1.094	1.113	1.104	1.099
0.010	0.005	-0.005	0.000	-0.005	0.010	0.034	1.699	1.079	1.089	1.089	1.108	1.104	1.108
0.010	0.000	-0.005	0.000	0.000	0.015	0.034	1.768	1.074	1.079	1.084	1.104	1.099	1.104
0.000	0.000	-0.005	0.000	0.000	0.010	0.034	1.763	1.069	1.074	1.074	1.099	1.099	1.099
0.000	-0.005	0.000	0.000	-0.005	0.015	0.034	1.743	1.079	1.074	1.074	1.099	1.094	1.094
0.000	-0.015	0.000	0.005	0.005	0.015	0.034	1.768	1.079	1.069	1.074	1.094	1.094	1.094
0.010	-0.015	0.000	0.000	-0.005	0.005	0.029	1.772	1.089	1.074	1.074	1.094	1.094	1.094
0.000	-0.010	0.000	0.000	-0.005	0.010	0.034	1.748	1.089	1.084	1.079	1.099	1.094	1.094
-0.005	-0.005	0.000	0.000	-0.005	0.000	0.034	1.738	1.089	1.089	1.084	1.099	1.099	1.099
-0.010	0.010	-0.005	-0.005	0.000	0.005	0.034	1.782	1.094	1.094	1.089	1.104	1.099	1.099
-0.015	0.010	-0.005	0.005	-0.005	-0.005	0.034	1.738	1.094	1.104	1.094	1.108	1.104	1.099
-0.005	0.010	0.000	0.005	0.000	-0.005	0.034	1.772	1.104	1.104	1.099	1.113	1.108	1.104
-0.020	0.005	0.000	0.000	0.005	0.010	0.034	1.787	1.104	1.104	1.104	1.118	1.108	1.108
-0.005	0.000	-0.005	0.000	0.005	0.005	0.034	1.768	1.104	1.104	1.104	1.118	1.113	1.108
0.000	0.005	0.000	0.000	0.005	0.005	0.034	1.768	1.104	1.099	1.099	1.118	1.108	1.108
-0.005	-0.005	0.000	-0.005	0.005	-0.015	0.034	1.787	1.104	1.099	1.094	1.113	1.108	1.104
0.010	0.005	0.000	0.000	-0.005	0.000	0.034	1.758	1.099	1.099	1.094	1.113	1.108	1.104
0.010	-0.005	0.000	0.000	0.000	0.005	0.034	1.758	1.089	1.089	1.089	1.108	1.099	1.099
0.000	0.005	0.005	-0.005	0.000	0.005	0.034	1.787	1.084	1.084	1.084	1.104	1.099	1.099
0.005	-0.005	0.000	0.000	-0.005	0.000	0.034	1.724	1.074	1.079	1.079	1.099	1.094	1.094
-0.005	-0.005	-0.005	0.000	-0.010	-0.005	0.034	1.782	1.074	1.074	1.074	1.099	1.089	1.089
0.000	-0.005	0.000	0.000	0.000	0.005	0.034	1.758	1.079	1.074	1.074	1.099	1.094	1.094
0.000	-0.005	-0.005	0.000	-0.005	0.000	0.029	1.748	1.084	1.074	1.074	1.094	1.094	1.094
0.010	0.010	-0.005	0.005	0.005	-0.034	0.034	1.782	1.089	1.084	1.079	1.099	1.094	1.084
0.005	0.005	0.000	-0.005	0.000	0.000	0.029	1.763	1.094	1.089	1.084	1.099	1.099	1.099
0.000	-0.005	-0.005	0.000	0.000	0.015	0.034	1.758	1.094	1.094	1.089	1.104	1.104	1.104
-0.005	0.000	-0.005	0.000	0.000	0.015	0.034	1.777	1.099	1.094	1.094	1.108	1.104	1.108
0.000	0.000	0.000	-0.005	0.000	-0.010	0.034	1.787	1.108	1.099	1.094	1.113	1.104	1.099
-0.005	0.010	0.000	0.000	0.000	-0.010	0.029	1.748	1.108	1.108	1.099	1.118	1.108	1.104
-0.005	0.005	-0.005	0.005	0.000	-0.024	0.029	1.753	1.104	1.108	1.104	1.118	1.108	1.104
-0.005	0.000	-0.005	-0.005	0.000	-0.024	0.029	1.777	1.104	1.104	1.104	1.118	1.113	1.104
-0.005	0.005	-0.005	0.000	0.010	-0.005	0.029	1.704	1.094	1.104	1.104	1.118	1.113	1.113
0.005	0.010	0.000	0.000	0.010	0.024	0.034	1.777	1.094	1.099	1.099	1.118	1.113	1.118
0.015	-0.010	0.000	0.000	0.000	0.024	0.034	1.782	1.099	1.089	1.094	1.113	1.108	1.113
0.015	-0.005	0.005	0.000	-0.005	0.010	0.029	1.753	1.094	1.089	1.089	1.108	1.104	1.099
0.005	-0.005	-0.005	0.000	-0.020	0.015	0.034	1.748	1.084	1.084	1.084	1.104	1.094	1.104
0.005	0.005	0.005	0.000	-0.020	-0.010	0.034	1.777	1.084	1.079	1.079	1.099	1.094	1.089
-0.005	-0.005	0.000	0.000	0.000	-0.015	0.034	1.719	1.069	1.079	1.079	1.099	1.099	1.089
-0.020	-0.005	0.000	0.000	-0.005	0.005	0.029	1.787	1.074	1.069	1.079	1.094	1.094	1.094
-0.024	0.000	0.000	-0.005	-0.010	-0.020	0.034	1.724	1.074	1.074	1.074	1.099	1.094	1.089
-0.015	-0.005	-0.005	0.000	0.000	0.005	0.034	1.748	1.079	1.074	1.074	1.094	1.094	1.099
-0.024	0.000	0.000	0.000	0.010	0.020	0.039	1.782	1.094	1.084	1.079	1.104	1.099	1.104
-0.029	-0.005	0.000	0.000	0.010	0.015	0.034	1.719	1.094	1.089	1.084	1.104	1.104	1.108
-0.005	-0.010	-0.005	0.000	0.005	0.020	0.034	1.743	1.099	1.094	1.089	1.104	1.108	1.113
0.005	-0.005	0.000	0.000	-0.005	-0.010	0.034	1.787	1.113	1.104	1.099	1.108	1.099	1.104
0.000	-0.015	-0.005	0.005	-0.015	0.015	0.034	1.738	1.113	1.108	1.099	1.113	1.104	1.108
0.000	0.005	0.000	0.000	0.000	0.015	0.034	1.733	1.108	1.113	1.104	1.113	1.108	1.108
0.000	0.005	0.000	0.000	-0.005	0.010	0.029	1.782	1.104	1.108	1.104	1.118	1.108	1.108
0.005	0.000	0.000	0.000	0.000	0.000	0.034	1.772	1.104	1.104	1.104	1.118	1.113	1.104
0.010	0.010	-0.010	0.000	-0.005	-0.024	0.029	1.782	1.099	1.099	1.099	1.113	1.104	1.094
0.000	0.005	0.005	0.000	-0.005	0.010	0.034	1.777	1.094	1.094	1.094	1.113	1.104	1.104
0.000	0.000	0.000	0.000	0.005	-0.020	0.034	1.748	1.079	1.089	1.089	1.108	1.104	1.094
0.010	0.005	-0.005	-0.005	0.000	-0.015	0.029	1.753	1.074	1.079	1.084	1.104	1.099	1.094
0.000	0.010	0.000	-0.005	0.000	0.000	0.039	1.777	1.074	1.074	1.079	1.099	1.094	1.094
0.000	-0.020	0.000	-0.005	-0.010	0.005	0.034	1.768	1.079	1.064	1.074	1.099	1.094	1.099
0.005	-0.020	-0.005	-0.005	0.000	0.005	0.034	1.738	1.074	1.069	1.074	1.094	1.094	1.094
0.005	-0.015	0.000	-0.005	0.000	0.010	0.034	1.758	1.084	1.074	1.074	1.094	1.094	1.099
0.005	0.000	0.000	0.000	-0.005	-0.005	0.034	1.763	1.084	1.084	1.079	1.099	1.094	1.094
0.000	0.000	-0.005	-0.005	0.000	0.005	0.034	1.772	1.089	1.089	1.084	1.099	1.099	1.099
0.005	0.000	0.000	-0.005	0.000	0.010	0.034	1.768	1.099	1.099	1.089	1.104	1.099	1.104
0.010	-0.005	0.000	-0.005	-0.005	-0.010	0.034	1.738	1.099	1.099	1.094	1.108	1.104	1.104
0.010	-0.005	0.000	-0.005	0.000	0.000	0.034	1.772	1.108	1.104	1.099	1.113	1.108	1.108
-0.005	0.005	0.005	-0.005	0.000	0.005	0.034	1.782	1.108	1.104	1.104	1.113	1.108	1.108
-0.010	0.010	0.000	-0.005	-0.005	0.000	0.034	1.763	1.108	1.108	1.104	1.118	1.108	1.108
0.010	0.000	0.000	0.000	-0.005	0.000	0.034	1.753	1.104	1.104	1.104	1.118	1.108	1.108
-0.005	0.010	0.000	-0.005	0.000	-0.010	0.029	1.777	1.094	1.104	1.099	1.118	1.108	1.104
-0.005	-0.005	0.000	-0.005	-0.005	0.000	0.034	1.743	1.094	1.094	1.094	1.113	1.108	1.104
0.000	-0.005	-0.005	0.000	0.005	-0.005	0.034	1.704	1.079	1.084	1.089	1.108	1.108	1.104
0.005	0.005	-0.005	-0.005	0.005	-0.010	0.034	1.782	1.079	1.084	1.089	1.104	1.104	1.099
-0.010	-0.005	0.000	0.000	0.010	-0.024	0.034	1.782	1.079	1.074	1.079	1.104	1.099	1.094
-0.005	-0.005	0.000	0.005	0.010	-0.005	0.039	1.763	1.074	1.069	1.074	1.094	1.099	1.094
0.000	0.005	0.000	0.000	0.015	0.000	0.034	1.782	1.079	1.074	1.074	1.094	1.094	1.099
-0.005	-0.005	0.000	0.000	0.015	0.000	0.034	1.777	1.084	1.074	1.074	1.094	1.094	1.099
0.000	-0.005	-0.005	0.000	0.020	-0.010	0.034	1.768	1.089	1.084	1.074	1.094	1.094	1.094
0.000	0.010	0.000	-0.005	0.015	-0.010	0.034	1.743	1.094	1.089	1.084	1.094	1.094	1.099
0.000	0.000	0.000	0.000	0.015	-0.020	0.034	1.787	1.099	1.094	1.089	1.104	1.094	1.094
-0.005	-0.005	0.000	0.000	0.010	-0.024	0.034	1.733	1.094	1.099	1.094	1.108	1.104	1.099
-0.005	0.000	-0.005	0.000	0.024	-0.024	0.029	1.782	1.099	1.104	1.099	1.113	1.108	1.108
-0.010	0.005	0.000	0.000	0.015	-0.005	0.034	1.782	1.108	1.108	1.104	1.118	1.108	1.108
-0.005	0.000	0.005	0.000	0.015	-0.005	0.034	1.729	1.108	1.108	1.104	1.118	1.113	1.108
0.000	-0.005	0.005	0.005	0.005	-0.020	0.029	1.777	1.104	1.104	1.104	1.123	1.108	1.104
0.005	0.000	0.000	0.000	-0.005	0.005	0.034	1.743	1.104	1.104	1.104	1.123	1.113	1.108
0.000	-0.005	0.000	0.005	0.005	-0.010	0.034	1.768	1.099	1.099	1.099	1.118	1.108	1.104
0.005	0.000	0.000	0.000	0.000	-0.005	0.034	1.763	1.094	1.094	1.094	1.113	1.104	1.108
-0.005	-0.010	0.000	0.005	-0.010	0.005	0.034	1.753	1.084	1.084	1.089	1.108	1.104	1.108
-0.010	-0.010	0.000	0.005	-0.015	0.010	0.034	1.753	1.074	1.079	1.084	1.104	1.099	1.099
-0.010	0.000	0.000	0.000	-0.005	0.005	0.034	1.797	1.074	1.074	1.074	1.099	1.094	1.099
-0.020	-0.010	0.005	0.005	0.000	-0.010	0.034	1.768	1.079	1.074	1.069	1.094	1.094	1.089
0.000	0.000	0.000	0.005	-0.005	0.010	0.034	1.724	1.079	1.074	1.074	1.094	1.094	1.094
-0.005	-0.010	-0.005	0.005	-0.010	-0.005	0.034	1.797	1.084	1.074	1.074	1.094	1.089	1.089
0.000	-0.010	-0.005	0.010	-0.010	0.005	0.029	1.758	1.094	1.084	1.074	1.099	1.094	1.089
-0.005	-0.005	0.005	0.005	-0.020	0.020	0.034	1.763	1.094	1.089	1.084	1.099	1.094	1.099
0.005	-0.005	-0.005	0.005	-0.015	0.000	0.034	1.758	1.099	1.094	1.089	1.104	1.099	1.094
0.000	0.010	0.000	0.000	-0.015	-0.010	0.034	1.787	1.108	1.104	1.094	1.108	1.099	1.099
-0.005	0.010	0.005	-0.005	-0.015	0.000	0.034	1.763	1.108	1.108	1.104	1.113	1.104	1.104
0.000	0.000	0.000	0.000	-0.015	0.005	0.034	1.768	1.108	1.108	1.104	1.113	1.108	1.108
0.005	0.000	-0.005	-0.005	-0.010	0.010	0.034	1.782	1.108	1.108	1.104	1.123	1.113	1.108
0.005	0.000	0.000	0.000	-0.010	0.005	0.034	1.777	1.108	1.113	1.108	1.123	1.113	1.108
0.010	0.005	-0.005	-0.005	-0.010	-0.015	0.034	1.777	1.108	1.104	1.108	1.118	1.113	1.099
-0.010	-0.005	-0.005	-0.005	-0.010	0.010	0.034	1.777	1.099	1.099	1.104	1.118	1.108	1.108
0.005	-0.005	0.000	-0.005	-0.005	-0.005	0.034	1.768	1.094	1.094	1.094	1.113	1.108	1.099
0.005	0.005	0.000	-0.005	-0.005	0.005	0.034	1.729	1.079	1.089	1.094	1.108	1.104	1.104
0.000	0.015	0.000	-0.005	-0.005	-0.010	0.029	1.768	1.079	1.084	1.089	1.108	1.099	1.099
0.010	0.010	0.000	-0.005	-0.005	0.000	0.034	1.772	1.084	1.079	1.084	1.104	1.099	1.099
0.010	0.000	0.000	0.000	0.000	0.000	0.034	1.714	1.074	1.079	1.079	1.104	1.104	1.094
0.005	0.010	-0.005	-0.005	0.000	0.005	0.029	1.763	1.074	1.079	1.079	1.099	1.099	1.099
0.000	-0.020	0.000	-0.005	-0.005	0.020	0.034	1.777	1.089	1.069	1.079	1.099	1.099	1.104
0.000	-0.005	0.000	0.000	0.000	0.020	0.034	1.797	1.094	1.084	1.079	1.104	1.099	1.104
0.000	-0.005	-0.005	-0.005	0.000	0.015	0.034	1.724	1.094	1.089	1.089	1.104	1.104	1.108
0.000	-0.005	0.000	0.000	0.005	0.010	0.034	1.782	1.099	1.094	1.089	1.108	1.104	1.104
0.000	-0.010	-0.005	0.000	-0.005	0.000	0.034	1.733	1.104	1.099	1.094	1.113	1.108	1.104
-0.005	-0.010	0.000	0.000	-0.005	0.005	0.039	1.733	1.104	1.104	1.099	1.113	1.108	1.108
0.005	0.005	-0.005	-0.005	0.000	-0.010	0.034	1.729	1.104	1.104	1.104	1.113	1.113	1.108
0.000	-0.005	0.000	-0.005	0.000	0.005	0.034	1.782	1.104	1.104	1.104	1.118	1.108	1.113
0.005	0.000	0.000	0.000	0.000	-0.010	0.034	1.748	1.099	1.104	1.099	1.118	1.113	1.108
0.005	0.000	0.000	0.000	0.000	0.005	0.034	1.743	1.094	1.099	1.104	1.118	1.113	1.113
-0.005	-0.005	0.000	0.000	-0.005	0.000	0.034	1.782	1.094	1.094	1.099	1.113	1.108	1.108
0.005	0.000	0.005	0.005	-0.005	0.005	0.034	1.753	1.084	1.089	1.089	1.113	1.104	1.104
0.005	0.015	-0.005	0.000	0.005	-0.010	0.039	1.768	1.079	1.089	1.089	1.104	1.104	1.094
-0.010	0.005	0.000	0.000	0.005	-0.005	0.034	1.772	1.079	1.079	1.079	1.104	1.099	1.099
0.005	0.010	0.000	0.000	0.005	0.005	0.029	1.709	1.069	1.074	1.079	1.099	1.099	1.099
0.000	0.000	-0.005	0.000	0.000	-0.015	0.034	1.782	1.074	1.069	1.074	1.094	1.094	1.094
-0.005	0.005	-0.005	-0.005	0.005	0.005	0.029	1.758	1.079	1.069	1.074	1.094	1.094	1.094
-0.005	-0.010	0.000	0.000	0.005	-0.005	0.034	1.743	1.079	1.074	1.074	1.094	1.094	1.094
0.000	-0.010	0.000	-0.005	0.005	-0.010	0.034	1.768	1.094	1.079	1.079	1.099	1.094	1.099
-0.005	-0.005	0.000	0.005	0.000	0.010	0.034	1.787	1.099	1.089	1.084	1.104	1.099	1.104
0.000	0.000	-0.005	0.000	0.000	0.010	0.034	1.738	1.104	1.094	1.089	1.104	1.104	1.104
0.000	0.000	0.000	0.000	0.000	0.005	0.029	1.777	1.113	1.104	1.099	1.108	1.104	1.104
-0.005	-0.005	0.000	-0.005	0.000	-0.005	0.029	1.782	1.113	1.108	1.099	1.113	1.108	1.104
0.000	0.000	0.000	0.000	-0.005	-0.024	0.034	1.738	1.108	1.113	1.104	1.118	1.108	1.099
-0.005	0.010	0.000	0.000	0.005	-0.005	0.034	1.782	1.104	1.108	1.108	1.118	1.113	1.108
-0.010	-0.005	0.000	0.000	0.000	-0.005	0.034	1.787	1.104	1.104	1.104	1.123	1.108	1.108
0.005	-0.005	0.000	0.000	0.000	0.000	0.034	1.763	1.099	1.104	1.099	1.118	1.113	1.108
-0.005	-0.005	-0.005	-0.005	0.000	-0.005	0.034	1.748	1.089	1.094	1.094	1.113	1.108	1.108
-0.005	0.005	-0.005	0.000	0.000	0.005	0.034	1.777	1.084	1.089	1.094	1.113	1.104	1.104
-0.005	-0.005	0.000	0.000	0.000	0.005	0.034	1.743	1.079	1.084	1.089	1.108	1.104	1.104
-0.005	-0.005	0.000	0.000	0.000	-0.010	0.034	1.719	1.074	1.074	1.079	1.099	1.099	1.099
0.005	-0.005	0.005	0.000	0.000	0.005	0.034	1.777	1.079	1.074	1.074	1.099	1.094	1.094
0.005	-0.005	0.005	0.000	0.000	0.005	0.034	1.787	1.089	1.079	1.074	1.099	1.094	1.094
0.000	0.000	0.000	0.000	0.000	-0.015	0.034	1.724	1.084	1.079	1.079	1.099	1.099	1.094
0.000	0.005	0.000	0.000	0.000	-0.005	0.034	1.787	1.094	1.084	1.079	1.099	1.099	1.099
0.005	-0.005	0.005	-0.005	0.000	0.010	0.034	1.787	1.099	1.089	1.084	1.104	1.099	1.104
0.000	-0.005	-0.005	0.000	0.000	0.010	0.034	1.758	1.099	1.094	1.089	1.104	1.104	1.104
-0.005	0.010	0.000	0.000	0.000	0.005	0.034	1.777	1.104	1.104	1.094	1.108	1.104	1.108
-0.010	0.000	0.000	-0.005	0.000	0.005	0.034	1.792	1.113	1.104	1.099	1.113	1.108	1.108
-0.005	0.000	0.000	0.000	-0.005	0.000	0.034	1.738	1.108	1.113	1.104	1.118	1.113	1.113
-0.005	0.005	-0.005	0.000	0.010	-0.005	0.034	1.738	1.104	1.108	1.108	1.118	1.113	1.108
0.010	0.000	0.000	0.000	0.000	0.000	0.034	1.787	1.113	1.108	1.108	1.123	1.113	1.113
0.024	0.000	0.000	0.000	-0.005	-0.005	0.034	1.738	1.108	1.108	1.104	1.123	1.113	1.104
0.020	0.000	-0.005	0.000	0.005	0.005	0.034	1.733	1.094	1.099	1.099	1.118	1.113	1.113
0.000	-0.010	0.005	0.000	0.005	0.005	0.034	1.772	1.089	1.089	1.099	1.118	1.108	1.108
0.024	-0.020	0.000	-0.005	0.000	-0.005	0.034	1.772	1.089	1.084	1.089	1.108	1.104	1.099
0.010	-0.015	-0.005	0.000	-0.005	-0.015	0.029	1.758	1.079	1.079	1.084	1.104	1.099	1.099
-0.015	-0.010	0.005	0.000	0.000	0.015	0.034	1.763	1.069	1.074	1.079	1.099	1.099	1.104
-0.039	0.005	0.000	0.005	0.000	0.005	0.034	1.743	1.064	1.074	1.074	1.099	1.094	1.099
-0.024	0.010	0.000	0.000	0.005	0.000	0.034	1.782	1.079	1.074	1.074	1.099	1.094	1.099
-0.029	0.010	0.000	-0.005	0.000	-0.010	0.034	1.772	1.089	1.079	1.074	1.094	1.094	1.089
-0.029	0.010	0.000	0.000	0.000	0.015	0.039	1.753	1.089	1.089	1.079	1.099	1.094	1.104
-0.029	0.005	0.000	0.000	0.005	-0.010	0.034	1.768	1.094	1.089	1.089	1.099	1.094	1.094
-0.015	-0.005	0.000	0.000	0.000	0.015	0.034	1.782	1.104	1.094	1.089	1.108	1.104	1.104
-0.015	-0.005	0.000	0.000	0.005	0.015	0.034	1.729	1.104	1.099	1.094	1.108	1.104	1.108
-0.005	-0.005	-0.005	-0.005	0.000	-0.020	0.034	1.777	1.113	1.104	1.099	1.113	1.108	1.104
-0.015	-0.005	0.000	-0.005	-0.005	0.015	0.034	1.782	1.108	1.108	1.104	1.118	1.113	1.113
0.010	0.000	0.000	0.000	-0.005	0.000	0.034	1.704	1.108	1.113	1.108	1.118	1.113	1.108
-0.005	-0.010	0.000	-0.005	0.000	0.005	0.034	1.782	1.104	1.104	1.104	1.118	1.108	1.113
0.005	-0.020	-0.005	0.000	-0.005	0.000	0.034	1.772	1.099	1.094	1.099	1.118	1.113	1.108
0.015	0.000	-0.005	0.000	0.000	-0.005	0.034	1.699	1.089	1.094	1.099	1.113	1.108	1.104
0.010	0.005	0.005	0.000	-0.005	-0.005	0.034	1.772	1.084	1.089	1.094	1.108	1.104	1.099
0.005	0.000	0.000	0.000	-0.005	-0.034	0.034	1.753	1.089	1.084	1.084	1.108	1.099	1.089
0.020	-0.005	-0.005	0.005	-0.005	0.000	0.034	1.719	1.074	1.074	1.079	1.104	1.099	1.104
0.020	-0.005	0.000	0.000	-0.005	0.005	0.029	1.772	1.079	1.074	1.079	1.099	1.099	1.099
0.015	0.010	0.000	0.005	0.000	0.000	0.029	1.768	1.084	1.079	1.074	1.099	1.099	1.099
0.015	0.005	0.000	0.000	-0.005	-0.005	0.034	1.763	1.084	1.079	1.079	1.099	1.094	1.099
0.010	-0.005	-0.005	-0.005	-0.005	-0.005	0.034	1.758	1.084	1.074	1.074	1.099	1.099	1.094
0.000	0.000	0.005	0.000	0.000	0.005	0.034	1.753	1.084	1.084	1.079	1.099	1.099	1.099
-0.010	0.005	0.000	0.000	0.000	0.000	0.034	1.748	1.084	1.084	1.084	1.099	1.099	1.104
-0.005	0.000	-0.005	0.000	0.000	-0.024	0.034	1.758	1.094	1.094	1.089	1.104	1.099	1.099
0.005	-0.005	0.000	0.000	-0.005	0.000	0.029	1.768	1.108	1.094	1.089	1.108	1.108	1.104
-0.005	0.010	0.000	0.000	0.000	-0.005	0.034	1.772	1.108	1.104	1.099	1.113	1.108	1.108
-0.005	0.005	0.005	0.000	0.000	-0.005	0.034	1.787	1.113	1.108	1.104	1.118	1.113	1.108
0.005	0.010	0.000	0.005	0.005	0.010	0.034	1.729	1.104	1.104	1.099	1.118	1.113	1.113
0.005	0.000	0.000	0.000	0.005	0.000	0.034	1.772	1.104	1.104	1.104	1.118	1.108	1.108
-0.005	0.000	0.000	0.005	-0.005	0.015	0.034	1.787	1.099	1.099	1.099	1.118	1.108	1.108
0.005	-0.015	0.000	0.000	0.000	0.005	0.034	1.743	1.094	1.089	1.094	1.113	1.108	1.104
-0.005	0.000	-0.005	0.000	0.005	-0.005	0.029	1.768	1.084	1.089	1.089	1.104	1.104	1.099
-0.005	-0.005	-0.005	-0.005	-0.005	-0.005	0.029	1.772	1.084	1.079	1.084	1.104	1.094	1.094
0.000	-0.005	-0.010	0.000	-0.005	-0.010	0.034	1.753	1.079	1.079	1.074	1.099	1.094	1.094
0.005	0.000	-0.005	0.000	0.000	-0.005	0.034	1.772	1.084	1.079	1.079	1.094	1.094	1.094
0.005	-0.005	0.000	0.000	0.000	-0.005	0.034	1.787	1.084	1.079	1.074	1.099	1.094	1.089
-0.005	-0.010	0.000	0.000	0.000	0.000	0.029	1.733	1.084	1.074	1.074	1.094	1.094	1.094
0.000	0.000	-0.005	0.000	-0.005	-0.015	0.034	1.763	1.084	1.084	1.079	1.094	1.094	1.094
0.000	-0.005	0.000	-0.005	0.000	-0.015	0.034	1.763	1.094	1.084	1.084	1.099	1.094	1.099
-0.005	-0.005	0.005	0.000	-0.005	-0.005	0.029	1.738	1.094	1.089	1.089	1.104	1.099	1.104
-0.010	0.000	-0.005	0.000	-0.005	0.000	0.034	1.763	1.104	1.094	1.094	1.108	1.104	1.104
0.000	-0.005	0.000	0.000	0.000	0.005	0.034	1.782	1.104	1.099	1.099	1.113	1.108	1.108
-0.005	0.000	0.000	0.000	-0.005	0.000	0.034	1.724	1.104	1.108	1.104	1.118	1.113	1.108
0.000	0.000	0.000	-0.005	0.005	0.005	0.034	1.782	1.108	1.108	1.104	1.118	1.113	1.108
0.000	0.000	0.005	-0.005	0.000	-0.010	0.034	1.763	1.104	1.108	1.104	1.118	1.113	1.108
-0.005	0.000	-0.005	-0.005	-0.005	0.005	0.034	1.743	1.099	1.104	1.099	1.118	1.113	1.113
-0.005	0.000	-0.005	0.000	0.010	0.005	0.034	1.787	1.094	1.094	1.094	1.113	1.108	1.108
0.000	-0.015	0.000	-0.005	0.000	0.010	0.034	1.763	1.094	1.084	1.089	1.113	1.104	1.104
-0.010	-0.010	0.000	0.000	0.005	-0.005	0.034	1.787	1.089	1.084	1.084	1.108	1.104	1.099
-0.005	-0.005	0.000	0.000	0.000	0.010	0.034	1.724	1.084	1.079	1.079	1.099	1.099	1.099
0.010	0.000	0.000	0.005	0.000	-0.005	0.034	1.763	1.079	1.079	1.079	1.099	1.094	1.094
0.059	-0.010	0.000	0.005	0.000	0.000	0.029	1.758	1.089	1.079	1.074	1.099	1.094	1.094
0.049	-0.005	0.000	0.000	0.000	-0.015	0.034	1.753	1.084	1.079	1.079	1.099	1.094	1.094
0.024	0.015	-0.005	0.000	0.000	0.010	0.029	1.787	1.084	1.089	1.079	1.099	1.094	1.099
-0.010	0.005	0.000	0.000	0.000	0.000	0.034	1.753	1.079	1.084	1.079	1.099	1.099	1.094
-0.034	0.010	-0.005	-0.005	0.005	-0.010	0.029	1.753	1.079	1.084	1.084	1.099	1.099	1.099
-0.063	0.005	0.000	-0.005	0.005	0.015	0.029	1.787	1.084	1.084	1.089	1.108	1.104	1.108
-0.068	0.005	0.000	0.000	0.000	0.005	0.034	1.719	1.084	1.089	1.089	1.108	1.104	1.108
-0.059	0.010	0.005	0.000	0.005	-0.005	0.034	1.772	1.099	1.094	1.099	1.113	1.108	1.104
-0.034	0.000	0.005	-0.005	0.000	0.015	0.029	1.777	1.104	1.094	1.099	1.113	1.108	1.108
-0.024	0.010	0.000	0.000	0.005	0.010	0.034	1.763	1.104	1.099	1.099	1.118	1.113	1.108
0.005	-0.005	-0.005	0.000	-0.005	-0.005	0.034	1.748	1.108	1.099	1.099	1.113	1.108	1.108
0.024	-0.005	0.005	0.000	-0.010	-0.005	0.034	1.768	1.108	1.099	1.094	1.118	1.108	1.104
0.034	-0.024	0.005	0.000	-0.010	-0.010	0.034	1.729	1.099	1.094	1.089	1.108	1.104	1.099
0.020	-0.015	0.000	0.005	-0.005	-0.015	0.034	1.743	1.084	1.089	1.089	1.108	1.099	1.094
0.020	-0.005	-0.005	-0.005	-0.010	0.005	0.034	1.768	1.084	1.089	1.084	1.104	1.099	1.104
0.024	-0.005	0.000	-0.005	-0.005	0.005	0.034	1.763	1.084	1.079	1.079	1.099	1.099	1.094
0.034	-0.010	-0.005	0.000	0.010	-0.005	0.034	1.768	1.084	1.079	1.079	1.099	1.099	1.094
0.029	0.000	0.000	0.000	0.010	0.015	0.034	1.777	1.084	1.079	1.074	1.094	1.094	1.099
0.020	0.000	-0.005	0.000	0.005	-0.010	0.034	1.733	1.079	1.079	1.079	1.094	1.094	1.089
0.005	0.000	-0.005	-0.005	0.000	-0.005	0.034	1.772	1.084	1.084	1.079	1.099	1.094	1.094
0.000	0.000	-0.005	0.000	-0.005	0.005	0.034	1.733	1.089	1.089	1.084	1.099	1.099	1.099
-0.010	0.000	-0.005	0.000	0.000	-0.015	0.034	1.753	1.094	1.089	1.089	1.099	1.099	1.094
-0.005	0.020	0.000	0.000	-0.005	0.000	0.029	1.782	1.099	1.099	1.094	1.108	1.104	1.104
-0.010	0.010	0.000	0.000	0.005	-0.020	0.034	1.738	1.104	1.104	1.099	1.113	1.108	1.099
-0.010	0.010	0.005	0.000	-0.005	0.015	0.034	1.763	1.099	1.104	1.099	1.113	1.108	1.113
0.000	0.010	0.000	-0.005	0.000	0.010	0.034	1.787	1.113	1.108	1.104	1.118	1.113	1.113
0.005	0.000	0.000	0.005	0.005	0.005	0.034	1.763	1.104	1.104	1.104	1.118	1.113	1.113
0.000	-0.005	0.000	0.000	0.000	0.005	0.039	1.782	1.099	1.099	1.104	1.118	1.113	1.108
-0.015	0.000	0.000	-0.005	0.000	-0.029	0.034	1.768	1.094	1.094	1.094	1.113	1.108	1.099
-0.005	-0.005	0.000	0.000	-0.005	0.010	0.034	1.738	1.089	1.089	1.089	1.108	1.108	1.113
-0.010	-0.005	-0.005	0.000	-0.005	0.010	0.034	1.733	1.074	1.079	1.084	1.108	1.104	1.108
-0.005	0.000	-0.005	0.000	0.005	-0.010	0.034	1.753	1.074	1.074	1.079	1.104	1.099	1.094
0.000	-0.005	0.005	0.000	0.000	-0.020	0.029	1.758	1.079	1.069	1.074	1.099	1.094	1.094
0.005	-0.010	0.000	0.000	-0.005	0.010	0.034	1.729	1.079	1.074	1.069	1.094	1.094	1.099
0.005	0.005	0.000	0.000	0.000	-0.010	0.034	1.772	1.079	1.074	1.074	1.094	1.089	1.089
0.010	-0.005	0.000	0.000	0.000	0.015	0.029	1.768	1.084	1.074	1.074	1.094	1.094	1.099
0.010	0.005	0.000	0.000	0.005	0.010	0.034	1.748	1.089	1.084	1.079	1.094	1.094	1.099
0.000	-0.005	-0.005	0.000	-0.005	0.000	0.034	1.787	1.099	1.084	1.079	1.099	1.094	1.094
0.005	-0.005	0.005	0.000	-0.005	0.010	0.034	1.733	1.099	1.099	1.089	1.104	1.099	1.094
0.010	0.000	0.000	0.000	0.000	-0.015	0.034	1.729	1.099	1.099	1.094	1.108	1.099	1.099
0.005	0.000	0.000	0.000	0.000	0.005	0.034	1.777	1.099	1.099	1.094	1.113	1.104	1.104
0.000	0.000	0.000	0.005	-0.005	0.005	0.034	1.753	1.104	1.104	1.099	1.118	1.108	1.104
0.015	0.000	-0.005	0.000	-0.005	0.005	0.034	1.729	1.099	1.104	1.104	1.118	1.108	1.108
-0.010	0.000	0.000	-0.005	0.000	0.000	0.034	1.777	1.099	1.099	1.104	1.118	1.113	1.108
-0.005	0.000	0.005	-0.005	-0.005	0.000	0.034	1.719	1.094	1.099	1.099	1.118	1.108	1.104
-0.005	-0.005	-0.005	-0.005	0.000	-0.020	0.034	1.699	1.084	1.089	1.094	1.108	1.108	1.099
-0.005	0.000	0.000	-0.005	0.000	-0.010	0.029	1.777	1.079	1.084	1.089	1.108	1.104	1.104
-0.005	-0.005	0.000	0.000	-0.005	-0.005	0.034	1.743	1.074	1.074	1.079	1.104	1.099	1.099
-0.010	-0.005	0.000	-0.005	-0.005	0.010	0.034	1.733	1.069	1.069	1.074	1.094	1.094	1.099
-0.005	0.005	-0.005	-0.005	-0.005	-0.029	0.034	1.777	1.079	1.069	1.069	1.094	1.089	1.089
-0.005	-0.005	-0.005	-0.005	-0.005	0.005	0.034	1.777	1.079	1.074	1.069	1.094	1.094	1.094
0.010	-0.005	0.000	0.005	0.000	0.000	0.034	1.714	1.074	1.074	1.069	1.089	1.089	1.089
0.000	0.005	0.000	-0.005	-0.005	-0.005	0.034	1.763	1.079	1.069	1.069	1.089	1.089	1.089
0.000	0.000	0.000	-0.005	-0.005	-0.029	0.034	1.768	1.089	1.079	1.074	1.094	1.089	1.084
0.000	-0.005	0.000	0.005	0.000	0.000	0.034	1.777	1.094	1.084	1.079	1.094	1.094	1.099
0.000	-0.010	-0.005	0.000	0.000	0.015	0.034	1.777	1.099	1.089	1.084	1.099	1.099	1.104
0.000	0.000	0.005	0.000	0.000	0.000	0.034	1.772	1.104	1.099	1.094	1.108	1.104	1.099
-0.005	0.000	0.000	0.000	0.000	0.000	0.034	1.753	1.104	1.104	1.094	1.108	1.104	1.104
0.005	0.000	0.000	0.000	0.005	0.005	0.034	1.787	1.108	1.104	1.104	1.113	1.104	1.108
0.000	0.000	0.000	0.000	0.000	-0.005	0.034	1.772	1.104	1.104	1.099	1.118	1.108	1.104
-0.005	-0.005	0.000	0.000	0.000	0.000	0.034	1.724	1.099	1.104	1.099	1.118	1.108	1.108
-0.005	-0.005	-0.005	0.000	0.000	-0.015	0.029	1.777	1.099	1.094	1.094	1.113	1.104	1.104
-0.015	0.000	0.000	0.000	-0.005	0.010	0.034	1.787	1.094	1.094	1.094	1.113	1.104	1.104
-0.005	0.005	0.000	0.005	-0.005	0.005	0.034	1.733	1.079	1.089	1.089	1.108	1.099	1.099
-0.005	-0.005	0.000	0.000	-0.005	-0.024	0.034	1.777	1.079	1.079	1.084	1.104	1.099	1.089
-0.005	0.000	0.000	0.000	0.005	0.010	0.034	1.753	1.079	1.074	1.079	1.099	1.099	1.099
0.005	-0.010	0.000	0.005	0.000	-0.020	0.034	1.738	1.074	1.074	1.074	1.094	1.094	1.089
0.005	0.000	0.005	0.005	0.000	0.000	0.034	1.729	1.069	1.074	1.074	1.094	1.094	1.094
0.010	0.000	0.000	0.000	0.010	0.000	0.034	1.777	1.079	1.074	1.074	1.094	1.094	1.094
0.005	-0.005	0.000	0.000	0.010	0.000	0.034	1.733	1.079	1.074	1.074	1.094	1.094	1.094
0.000	-0.005	0.000	0.000	0.005	-0.020	0.034	1.709	1.074	1.074	1.074	1.094	1.094	1.094
-0.005	0.010	-0.005	0.000	0.005	0.000	0.034	1.782	1.084	1.079	1.079	1.099	1.094	1.099
0.000	-0.005	0.000	-0.005	-0.005	0.000	0.034	1.772	1.094	1.089	1.084	1.104	1.094	1.099
0.010	-0.005	0.000	0.000	0.005	-0.005	0.034	1.733	1.099	1.094	1.089	1.108	1.104	1.104
0.029	0.000	0.005	0.000	0.000	0.005	0.034	1.792	1.118	1.104	1.099	1.108	1.104	1.104
0.054	0.005	0.000	0.005	-0.005	0.005	0.034	1.743	1.118	1.108	1.099	1.113	1.108	1.104
0.029	0.000	-0.005	0.000	0.000	-0.024	0.034	1.733	1.099	1.104	1.099	1.113	1.104	1.099
0.005	-0.010	0.005	0.000	0.000	0.015	0.034	1.782	1.094	1.099	1.099	1.118	1.108	1.108
-0.024	-0.015	-0.005	0.000	-0.005	0.010	0.029	1.738	1.084	1.094	1.094	1.113	1.104	1.104
-0.039	0.000	0.000	0.000	0.005	0.005	0.034	1.733	1.074	1.084	1.089	1.108	1.104	1.104
-0.059	0.000	0.000	0.000	0.005	-0.015	0.029	1.787	1.069	1.074	1.084	1.104	1.099	1.094
-0.063	0.005	0.000	-0.005	-0.005	0.005	0.034	1.738	1.069	1.069	1.074	1.094	1.094	1.094
-0.049	-0.005	0.000	0.005	-0.005	-0.024	0.034	1.738	1.069	1.064	1.069	1.094	1.089	1.084
-0.029	0.005	-0.005	0.005	0.000	0.010	0.034	1.777	1.079	1.069	1.069	1.089	1.089	1.094
-0.020	0.000	0.000	0.000	0.000	0.000	0.034	1.777	1.084	1.069	1.069	1.089	1.089	1.084
0.000	-0.005	0.000	0.005	0.000	0.015	0.034	1.758	1.089	1.074	1.069	1.089	1.084	1.094
0.020	0.005	0.000	0.000	0.000	0.005	0.034	1.753	1.099	1.084	1.074	1.094	1.089	1.089
0.024	-0.005	0.000	0.000	-0.005	0.005	0.034	1.753	1.094	1.089	1.079	1.094	1.094	1.089
0.024	-0.005	0.005	0.000	0.000	0.000	0.034	1.772	1.099	1.094	1.089	1.099	1.094	1.094
0.029	-0.005	-0.005	0.000	0.000	0.010	0.034	1.777	1.108	1.099	1.094	1.104	1.099	1.099
0.029	-0.005	0.000	0.000	0.000	0.005	0.034	1.772	1.108	1.108	1.099	1.108	1.104	1.099
0.024	-0.010	0.000	0.000	0.000	-0.010	0.034	1.758	1.108	1.108	1.104	1.113	1.104	1.094
0.010	-0.005	-0.005	-0.005	0.000	0.010	0.029	1.768	1.099	1.104	1.104	1.118	1.108	1.104
0.010	-0.005	0.000	0.005	0.000	0.005	0.039	1.709	1.094	1.108	1.104	1.123	1.108	1.104
0.000	0.010	-0.005	0.000	0.000	0.005	0.034	1.758	1.089	1.104	1.104	1.118	1.108	1.108
0.015	0.010	0.000	-0.005	0.000	0.000	0.034	1.782	1.094	1.094	1.099	1.118	1.104	1.104
0.015	0.005	0.005	-0.005	-0.005	0.005	0.034	1.729	1.079	1.089	1.094	1.113	1.108	1.099
0.015	-0.010	0.000	0.005	0.000	-0.005	0.034	1.719	1.069	1.074	1.084	1.108	1.104	1.099
0.000	0.000	-0.005	0.000	0.000	-0.034	0.034	1.777	1.074	1.074	1.079	1.104	1.099	1.089
-0.005	0.000	0.005	0.000	0.000	0.000	0.034	1.768	1.064	1.064	1.074	1.099	1.099	1.094
-0.010	0.005	0.000	0.000	-0.005	-0.015	0.034	1.743	1.064	1.064	1.069	1.089	1.094	1.089
-0.015	0.005	0.000	0.000	0.005	0.005	0.034	1.772	1.074	1.069	1.069	1.089	1.094	1.094
-0.015	0.000	0.000	0.000	0.005	0.000	0.029	1.743	1.079	1.069	1.069	1.094	1.094	1.094
-0.015	0.000	-0.005	0.000	0.000	0.000	0.029	1.748	1.079	1.074	1.069	1.094	1.094	1.094
-0.015	0.005	0.000	-0.005	0.000	-0.010	0.029	1.782	1.094	1.079	1.079	1.094	1.094	1.094
-0.010	0.005	-0.005	-0.005	0.000	0.010	0.034	1.748	1.099	1.089	1.079	1.099	1.094	1.099
0.000	0.010	-0.005	-0.005	-0.005	-0.005	0.034	1.782	1.108	1.099	1.089	1.104	1.094	1.099
0.000	0.010	-0.005	-0.005	0.000	0.010	0.034	1.753	1.104	1.104	1.094	1.108	1.099	1.104
0.005	0.000	-0.005	0.000	-0.005	0.010	0.034	1.763	1.104	1.104	1.099	1.113	1.104	1.108
0.000	-0.005	0.000	0.000	0.000	0.000	0.034	1.792	1.104	1.099	1.099	1.113	1.104	1.104
-0.005	-0.005	0.000	0.000	-0.005	0.000	0.034	1.772	1.099	1.099	1.099	1.113	1.104	1.099
0.015	-0.010	-0.005	0.005	0.000	0.005	0.034	1.763	1.099	1.094	1.099	1.113	1.104	1.104
0.015	-0.005	-0.005	0.000	0.005	0.005	0.034	1.782	1.099	1.094	1.094	1.113	1.104	1.099
0.015	-0.005	-0.005	0.005	-0.005	0.005	0.034	1.743	1.094	1.089	1.089	1.104	1.099	1.094
-0.005	-0.010	-0.005	0.000	0.000	-0.005	0.034	1.753	1.079	1.079	1.084	1.099	1.099	1.094
-0.029	-0.020	0.000	-0.005	-0.005	-0.015	0.029	1.772	1.069	1.069	1.079	1.099	1.094	1.094
-0.015	-0.010	0.000	0.000	0.000	0.000	0.034	1.763	1.069	1.069	1.069	1.094	1.094	1.094
-0.015	-0.010	-0.005	0.000	0.000	0.015	0.034	1.748	1.074	1.069	1.069	1.094	1.094	1.094
-0.005	0.000	-0.005	-0.005	0.000	0.010	0.034	1.758	1.084	1.074	1.069	1.094	1.089	1.089
0.000	0.010	0.000	-0.005	-0.005	0.010	0.034	1.719	1.079	1.084	1.074	1.094	1.089	1.094
0.000	0.020	0.005	0.000	0.000	0.000	0.034	1.787	1.089	1.084	1.084	1.099	1.094	1.089
-0.005	0.000	0.005	-0.005	-0.005	0.005	0.029	1.719	1.089	1.084	1.084	1.099	1.094	1.089
-0.005	0.010	-0.005	0.000	0.000	0.015	0.034	1.748	1.094	1.094	1.089	1.104	1.099	1.104
-0.005	0.015	-0.005	0.005	0.005	0.010	0.034	1.787	1.104	1.094	1.094	1.108	1.104	1.104
-0.015	0.000	0.000	0.000	0.000	0.005	0.029	1.724	1.094	1.094	1.094	1.113	1.108	1.104
-0.010	0.000	0.000	0.000	0.000	0.005	0.034	1.748	1.099	1.099	1.099	1.113	1.108	1.108
-0.010	0.000	0.000	0.000	-0.005	0.000	0.034	1.782	1.104	1.099	1.099	1.113	1.108	1.104
0.000	-0.005	0.005	0.000	-0.005	-0.010	0.034	1.758	1.099	1.099	1.099	1.113	1.108	1.099
0.010	0.000	-0.005	0.000	-0.005	0.005	0.034	1.777	1.099	1.094	1.094	1.113	1.108	1.108
0.000	-0.010	0.000	0.000	-0.005	0.005	0.034	1.782	1.094	1.089	1.089	1.108	1.104	1.104
0.005	-0.005	-0.005	0.005	-0.005	0.000	0.034	1.733	1.089	1.084	1.084	1.104	1.104	1.099
0.010	0.005	-0.005	0.000	0.005	-0.005	0.039	1.782	1.084	1.084	1.084	1.099	1.099	1.094
0.024	0.000	0.000	0.000	0.000	0.005	0.034	1.768	1.084	1.079	1.074	1.094	1.094	1.094
0.024	0.005	0.000	0.000	0.000	0.005	0.034	1.743	1.079	1.079	1.079	1.094	1.089	1.094
0.015	0.005	0.000	0.000	0.000	0.005	0.029	1.772	1.079	1.074	1.074	1.094	1.094	1.094
0.005	0.005	0.005	-0.005	0.000	-0.015	0.034	1.787	1.084	1.074	1.074	1.094	1.089	1.089
-0.010	-0.005	0.000	0.000	0.000	0.010	0.034	1.768	1.079	1.079	1.074	1.094	1.094	1.094
-0.010	-0.010	-0.005	0.000	0.000	0.005	0.034	1.733	1.084	1.084	1.079	1.099	1.094	1.099
-0.020	0.000	0.005	-0.005	0.000	-0.010	0.034	1.787	1.094	1.089	1.084	1.104	1.099	1.094
-0.020	-0.005	0.000	0.000	0.000	0.005	0.034	1.763	1.094	1.089	1.089	1.104	1.099	1.099
-0.015	-0.005	-0.005	0.000	0.000	-0.005	0.034	1.777	1.099	1.094	1.094	1.113	1.104	1.104
-0.020	-0.005	0.000	0.000	0.005	-0.005	0.034	1.763	1.104	1.099	1.099	1.113	1.108	1.104
-0.015	0.000	0.000	0.005	0.005	0.005	0.034	1.738	1.113	1.104	1.099	1.113	1.108	1.104
0.000	0.000	-0.005	0.000	0.000	0.010	0.034	1.792	1.113	1.108	1.099	1.118	1.108	1.108
-0.005	-0.005	0.005	0.000	-0.005	0.005	0.034	1.743	1.104	1.104	1.099	1.118	1.108	1.104
0.010	0.005	-0.005	0.000	-0.005	-0.020	0.034	1.719	1.089	1.099	1.094	1.108	1.108	1.094
0.005	-0.010	0.000	0.000	-0.005	0.005	0.034	1.777	1.089	1.089	1.094	1.108	1.099	1.099
-0.005	-0.005	0.005	0.000	0.000	-0.005	0.034	1.763	1.084	1.084	1.089	1.108	1.099	1.094
0.005	0.000	-0.005	0.000	-0.005	0.000	0.034	1.748	1.074	1.079	1.084	1.104	1.099	1.094
0.000	-0.005	0.000	-0.005	0.000	0.000	0.034	1.772	1.074	1.074	1.079	1.099	1.094	1.094
0.015	-0.010	0.005	0.000	0.000	-0.005	0.029	1.753	1.084	1.069	1.074	1.094	1.094	1.089
0.039	0.000	0.000	0.005	-0.005	0.015	0.034	1.738	1.089	1.079	1.074	1.094	1.094	1.094
0.034	0.000	-0.010	-0.005	0.000	-0.005	0.034	1.772	1.089	1.084	1.074	1.094	1.094	1.094
0.024	-0.005	0.000	0.000	0.000	-0.020	0.039	1.777	1.094	1.084	1.084	1.099	1.094	1.089
0.015	0.000	0.000	0.005	0.000	0.005	0.034	1.763	1.099	1.094	1.089	1.104	1.099	1.099
0.005	-0.005	-0.005	0.000	0.000	0.005	0.034	1.782	1.099	1.094	1.094	1.108	1.099	1.104
-0.010	-0.010	-0.005	-0.005	0.000	0.005	0.034	1.777	1.099	1.099	1.094	1.108	1.108	1.104
-0.024	0.005	0.005	0.000	0.000	-0.005	0.034	1.733	1.099	1.108	1.099	1.113	1.108	1.104
-0.029	0.000	0.000	-0.005	0.000	-0.024	0.034	1.772	1.104	1.104	1.104	1.118	1.108	1.104
-0.020	0.000	0.000	0.005	0.000	0.010	0.034	1.797	1.104	1.104	1.104	1.123	1.113	1.113
-0.015	0.000	0.000	0.005	0.000	0.010	0.034	1.753	1.099	1.104	1.099	1.118	1.113	1.113
-0.010	0.005	-0.005	0.005	0.000	0.000	0.039	1.753	1.099	1.099	1.099	1.118	1.108	1.104
0.024	0.005	0.000	0.000	-0.005	0.000	0.034	1.733	1.104	1.099	1.094	1.113	1.108	1.108
0.024	-0.005	0.000	0.000	0.000	0.010	0.034	1.787	1.094	1.094	1.094	1.108	1.104	1.108
0.005	0.000	0.000	-0.005	-0.005	-0.010	0.034	1.763	1.084	1.084	1.089	1.108	1.099	1.094
-0.005	0.000	0.000	0.000	-0.005	-0.010	0.034	1.753	1.074	1.079	1.079	1.099	1.099	1.099
-0.010	0.005	0.000	0.000	0.000	-0.024	0.029	1.753	1.069	1.074	1.079	1.099	1.099	1.094
-0.029	0.000	0.000	0.000	0.000	0.010	0.034	1.753	1.069	1.069	1.074	1.094	1.094	1.099
-0.015	-0.005	0.005	0.000	-0.005	0.000	0.029	1.738	1.074	1.069	1.074	1.094	1.094	1.094
-0.010	-0.005	-0.005	0.000	0.005	0.010	0.034	1.782	1.084	1.074	1.074	1.094	1.094	1.094
-0.010	-0.005	0.000	0.000	0.005	0.010	0.034	1.758	1.094	1.084	1.074	1.099	1.094	1.099
-0.005	-0.005	0.000	0.005	0.005	0.015	0.034	1.768	1.099	1.094	1.084	1.099	1.099	1.104
0.005	-0.005	0.000	0.005	0.005	0.015	0.034	1.743	1.099	1.094	1.094	1.104	1.104	1.104
0.005	0.010	0.000	0.000	0.000	0.010	0.034	1.777	1.108	1.104	1.094	1.108	1.104	1.108
0.005	0.005	0.000	0.005	0.005	-0.010	0.034	1.719	1.108	1.108	1.099	1.113	1.108	1.104
0.005	0.010	-0.005	0.000	-0.005	-0.015	0.034	1.729	1.104	1.108	1.104	1.113	1.108	1.104
0.010	0.010	-0.005	0.000	0.000	0.000	0.034	1.772	1.104	1.104	1.104	1.118	1.108	1.104
0.005	0.000	0.000	0.000	0.000	0.010	0.034	1.714	1.094	1.099	1.104	1.118	1.113	1.108
0.005	0.000	0.000	0.000	0.000	0.000	0.034	1.748	1.084	1.094	1.094	1.113	1.108	1.108
-0.005	0.000	0.000	-0.005	0.000	0.000	0.034	1.792	1.084	1.084	1.089	1.108	1.104	1.104
0.000	-0.015	0.000	0.000	-0.005	0.000	0.034	1.738	1.079	1.079	1.084	1.108	1.099	1.099
-0.010	-0.005	0.000	0.000	0.000	-0.015	0.034	1.753	1.069	1.074	1.079	1.099	1.094	1.094
-0.024	-0.005	0.000	-0.005	0.000	0.000	0.034	1.792	1.074	1.069	1.074	1.094	1.094	1.094
-0.015	0.005	-0.005	0.000	-0.005	-0.010	0.034	1.748	1.074	1.069	1.069	1.094	1.089	1.089
-0.005	0.005	-0.005	0.005	0.000	-0.005	0.034	1.738	1.074	1.069	1.069	1.094	1.094	1.094
-0.005	-0.005	0.000	0.000	-0.005	-0.010	0.034	1.787	1.079	1.069	1.069	1.094	1.089	1.089
0.005	-0.005	0.000	0.000	-0.005	0.005	0.034	1.733	1.084	1.074	1.069	1.089	1.089	1.094
0.000	0.000	0.000	0.000	-0.005	-0.020	0.034	1.753	1.094	1.079	1.079	1.094	1.089	1.089
-0.005	0.005	0.000	0.000	-0.005	0.005	0.034	1.772	1.094	1.089	1.084	1.099	1.094	1.094
0.005	0.005	0.005	0.000	0.000	0.015	0.034	1.758	1.099	1.094	1.089	1.104	1.104	1.108
0.010	0.000	0.005	0.000	0.000	0.005	0.034	1.772	1.113	1.104	1.094	1.108	1.104	1.104
0.010	0.000	0.005	-0.005	0.000	0.010	0.034	1.714	1.108	1.108	1.099	1.113	1.108	1.104
0.015	-0.010	0.000	0.000	0.000	0.000	0.034	1.733	1.094	1.099	1.099	1.113	1.108	1.104
0.000	0.000	0.000	-0.005	-0.005	0.000	0.034	1.777	1.094	1.099	1.099	1.113	1.104	1.108
0.000	-0.005	0.000	0.000	0.000	0.010	0.034	1.719	1.094	1.099	1.094	1.113	1.108	1.104
-0.010	0.000	0.000	0.000	0.000	-0.010	0.034	1.772	1.084	1.089	1.094	1.113	1.104	1.099
-0.005	-0.005	-0.005	-0.005	0.005	-0.005	0.034	1.763	1.084	1.084	1.089	1.108	1.104	1.094
0.000	0.010	0.000	0.000	-0.005	-0.015	0.034	1.729	1.079	1.084	1.084	1.104	1.099	1.099
0.015	-0.005	0.005	0.005	0.005	-0.020	0.034	1.748	1.079	1.074	1.079	1.099	1.094	1.089
0.010	0.005	0.005	0.000	0.000	0.015	0.034	1.777	1.074	1.074	1.074	1.094	1.094	1.099
0.005	0.000	0.005	0.005	0.000	0.005	0.034	1.792	1.079	1.069	1.069	1.094	1.094	1.094
0.015	0.000	0.000	0.005	0.000	0.010	0.034	1.748	1.079	1.074	1.069	1.089	1.094	1.094
0.000	0.005	0.000	0.000	0.000	0.010	0.034	1.777	1.084	1.074	1.074	1.094	1.089	1.094
-0.020	-0.005	0.000	0.005	0.005	0.010	0.034	1.733	1.084	1.074	1.074	1.094	1.094	1.094
-0.015	-0.010	-0.005	0.000	0.000	0.000	0.034	1.733	1.084	1.079	1.079	1.094	1.094	1.094
-0.010	0.000	-0.005	0.000	0.000	-0.010	0.034	1.777	1.099	1.089	1.084	1.099	1.094	1.094
-0.010	-0.005	0.005	0.000	0.005	0.000	0.034	1.768	1.104	1.094	1.089	1.108	1.099	1.099
-0.005	0.000	0.005	0.000	0.000	0.010	0.034	1.753	1.104	1.104	1.094	1.108	1.104	1.104
0.000	-0.010	-0.005	-0.005	0.000	0.005	0.034	1.772	1.108	1.099	1.099	1.113	1.108	1.104
0.000	-0.010	0.000	0.000	0.000	0.005	0.034	1.772	1.104	1.104	1.099	1.113	1.108	1.108
0.015	-0.005	-0.010	0.000	0.000	0.000	0.034	1.753	1.104	1.104	1.099	1.113	1.108	1.108
0.005	0.005	0.000	0.000	0.005	0.005	0.034	1.758	1.099	1.104	1.099	1.113	1.108	1.104
0.024	0.000	-0.005	0.000	0.000	-0.015	0.034	1.729	1.094	1.099	1.094	1.108	1.104	1.094
0.029	0.005	0.000	-0.005	-0.005	0.005	0.034	1.772	1.089	1.089	1.094	1.108	1.104	1.099
0.015	0.005	-0.005	0.000	-0.005	-0.015	0.034	1.772	1.084	1.084	1.084	1.104	1.099	1.094
-0.005	0.000	0.000	-0.005	-0.005	-0.029	0.029	1.753	1.074	1.079	1.084	1.099	1.094	1.089
-0.010	0.015	-0.005	0.000	0.000	-0.010	0.029	1.768	1.069	1.074	1.079	1.099	1.094	1.089
-0.005	-0.005	0.000	-0.005	0.000	0.010	0.034	1.733	1.069	1.069	1.069	1.094	1.094	1.094
-0.029	-0.015	0.000	0.000	0.000	-0.005	0.034	1.733	1.064	1.064	1.069	1.094	1.089	1.089
-0.034	-0.005	-0.005	-0.005	-0.005	0.005	0.034	1.787	1.079	1.069	1.069	1.094	1.089	1.094
-0.034	-0.010	0.005	0.000	0.005	0.005	0.034	1.753	1.084	1.074	1.074	1.094	1.094	1.094
-0.024	-0.005	0.000	0.000	-0.005	0.000	0.029	1.719	1.094	1.084	1.079	1.094	1.094	1.094
-0.015	-0.005	-0.005	-0.005	0.000	-0.005	0.029	1.782	1.104	1.089	1.084	1.099	1.099	1.099
-0.005	-0.005	0.005	-0.005	0.000	0.010	0.034	1.772	1.113	1.104	1.089	1.104	1.104	1.104
-0.005	0.005	0.000	0.000	0.000	-0.005	0.034	1.733	1.113	1.108	1.099	1.108	1.104	1.104
0.005	0.005	0.000	0.000	0.000	0.000	0.029	1.787	1.113	1.108	1.104	1.118	1.108	1.104
0.005	0.000	0.000	0.000	0.000	-0.010	0.034	1.729	1.108	1.108	1.104	1.118	1.108	1.104
0.010	-0.010	-0.005	0.000	0.000	-0.020	0.034	1.777	1.108	1.104	1.104	1.118	1.108	1.099
0.029	0.005	-0.005	0.000	-0.005	0.000	0.034	1.768	1.108	1.104	1.104	1.118	1.108	1.104
0.054	0.000	0.000	0.005	0.000	-0.020	0.034	1.772	1.104	1.104	1.099	1.113	1.104	1.099
0.059	0.010	-0.005	0.000	-0.005	0.005	0.034	1.777	1.094	1.099	1.099	1.113	1.104	1.104
0.029	0.005	-0.005	0.000	-0.005	-0.015	0.034	1.763	1.079	1.084	1.089	1.108	1.099	1.094
0.020	0.010	0.000	0.000	-0.005	-0.020	0.034	1.763	1.069	1.079	1.084	1.104	1.099	1.094
-0.010	0.015	0.000	0.000	0.000	0.005	0.034	1.782	1.060	1.069	1.079	1.104	1.099	1.099
-0.039	0.000	0.000	0.000	-0.005	0.010	0.034	1.738	1.060	1.064	1.074	1.099	1.094	1.099
-0.039	0.000	-0.005	-0.005	0.000	0.015	0.034	1.733	1.060	1.060	1.069	1.094	1.099	1.099
-0.049	-0.005	0.000	0.000	0.000	0.005	0.034	1.772	1.074	1.064	1.069	1.094	1.099	1.099
-0.034	-0.010	0.000	0.000	0.000	-0.020	0.034	1.753	1.089	1.074	1.074	1.099	1.099	1.094
-0.020	-0.005	0.000	0.005	0.010	0.005	0.034	1.733	1.094	1.089	1.079	1.099	1.099	1.104
-0.034	0.005	0.000	0.000	0.000	0.005	0.034	1.782	1.099	1.089	1.084	1.104	1.099	1.104
-0.005	-0.005	0.005	0.000	0.005	-0.029	0.034	1.743	1.108	1.099	1.089	1.104	1.104	1.099
0.020	-0.005	0.005	0.000	0.000	0.010	0.029	1.733	1.108	1.104	1.094	1.108	1.108	1.113
0.015	0.000	-0.005	0.000	0.000	0.005	0.034	1.748	1.108	1.108	1.094	1.113	1.104	1.108
0.024	0.000	0.000	0.000	0.000	0.005	0.034	1.777	1.108	1.104	1.099	1.113	1.108	1.108
0.005	0.010	-0.005	0.000	0.000	-0.005	0.034	1.758	1.094	1.104	1.099	1.113	1.104	1.104
-0.005	0.005	0.000	0.000	0.000	-0.034	0.034	1.753	1.089	1.094	1.094	1.108	1.104	1.094
-0.015	0.010	0.000	0.000	-0.005	0.010	0.034	1.748	1.079	1.089	1.094	1.108	1.104	1.104
-0.015	-0.005	-0.005	0.000	-0.005	0.010	0.034	1.729	1.074	1.079	1.084	1.104	1.099	1.099
-0.015	-0.005	0.000	0.000	-0.005	0.010	0.034	1.753	1.069	1.069	1.079	1.099	1.094	1.094
-0.024	-0.010	0.000	0.000	-0.005	0.005	0.029	1.772	1.069	1.069	1.074	1.094	1.094	1.094
-0.010	-0.010	0.000	-0.005	-0.005	0.005	0.034	1.772	1.079	1.064	1.069	1.094	1.094	1.089
-0.020	-0.005	-0.005	0.000	-0.005	-0.029	0.034	1.772	1.084	1.074	1.069	1.094	1.089	1.084
0.000	-0.005	0.000	0.000	0.000	0.005	0.034	1.777	1.089	1.079	1.074	1.089	1.089	1.094
0.010	-0.010	0.000	0.000	-0.005	0.015	0.034	1.748	1.094	1.084	1.079	1.094	1.094	1.094
0.000	0.005	0.000	-0.005	0.000	0.005	0.034	1.782	1.104	1.094	1.084	1.099	1.094	1.099
0.005	0.015	0.000	0.000	0.000	0.010	0.034	1.792	1.108	1.104	1.089	1.104	1.099	1.099
0.015	0.010	-0.005	0.000	-0.005	-0.015	0.034	1.782	1.113	1.108	1.099	1.108	1.104	1.094
0.029	0.005	-0.005	-0.005	0.000	0.000	0.034	1.777	1.118	1.108	1.104	1.113	1.104	1.104
0.049	0.000	0.000	0.000	0.005	-0.015	0.034	1.797	1.123	1.113	1.104	1.118	1.108	1.099
0.034	0.000	0.000	0.005	0.000	-0.010	0.034	1.777	1.113	1.118	1.113	1.123	1.108	1.108
0.024	0.015	0.000	0.000	-0.005	0.015	0.034	1.758	1.104	1.118	1.113	1.128	1.113	1.113
0.005	-0.010	0.000	0.000	-0.005	0.005	0.034	1.772	1.094	1.099	1.108	1.123	1.118	1.108
0.000	-0.010	0.000	-0.005	-0.005	0.005	0.034	1.719	1.079	1.089	1.099	1.118	1.113	1.108
-0.029	0.000	0.000	-0.005	0.000	0.005	0.034	1.772	1.079	1.084	1.094	1.113	1.108	1.104
-0.015	0.000	0.000	0.000	-0.005	-0.024	0.034	1.782	1.079	1.079	1.089	1.108	1.104	1.094
-0.010	0.000	-0.005	-0.005	0.005	0.005	0.034	1.782	1.079	1.074	1.079	1.104	1.104	1.104
0.010	0.000	0.000	0.000	-0.005	0.005	0.034	1.743	1.079	1.074	1.074	1.099	1.099	1.099
0.005	0.005	-0.005	0.000	0.000	0.000	0.034	1.792	1.084	1.074	1.074	1.099	1.094	1.094
0.015	0.000	-0.005	0.000	0.000	-0.005	0.029	1.782	1.089	1.074	1.074	1.094	1.094	1.099
0.000	-0.015	0.000	0.005	-0.005	-0.005	0.034	1.704	1.074	1.074	1.074	1.094	1.094	1.094
-0.034	-0.005	0.000	0.000	0.000	-0.010	0.034	1.777	1.074	1.079	1.079	1.094	1.094	1.094
-0.054	-0.005	0.000	-0.005	0.000	0.005	0.034	1.787	1.079	1.084	1.084	1.099	1.099	1.104
-0.039	-0.010	-0.005	0.000	0.000	0.005	0.034	1.768	1.094	1.089	1.084	1.104	1.104	1.104
-0.024	-0.005	0.000	-0.005	0.000	-0.015	0.034	1.724	1.099	1.099	1.094	1.108	1.104	1.099
-0.010	-0.005	0.000	-0.005	-0.005	-0.005	0.029	1.792	1.108	1.104	1.099	1.113	1.108	1.108
-0.020	0.000	-0.005	0.005	-0.005	0.005	0.034	1.758	1.104	1.104	1.099	1.113	1.108	1.108
0.000	0.000	-0.005	0.000	-0.005	-0.029	0.034	1.758	1.108	1.104	1.099	1.113	1.108	1.099
0.005	-0.005	0.005	0.000	0.000	0.005	0.034	1.753	1.099	1.104	1.104	1.118	1.108	1.108
0.005	-0.005	-0.005	-0.005	0.000	-0.015	0.034	1.777	1.099	1.094	1.099	1.113	1.108	1.099
0.015	-0.005	0.000	0.000	0.000	-0.010	0.034	1.792	1.099	1.094	1.094	1.113	1.108	1.099
0.020	-0.010	0.000	0.000	0.000	0.015	0.029	1.768	1.094	1.089	1.089	1.108	1.104	1.108
0.024	-0.005	-0.005	-0.005	-0.005	0.015	0.034	1.777	1.089	1.084	1.084	1.104	1.099	1.099
0.029	0.000	0.000	0.000	-0.005	0.015	0.034	1.733	1.084	1.084	1.079	1.104	1.099	1.099
0.010	0.010	-0.005	-0.005	0.000	-0.020	0.034	1.772	1.079	1.079	1.079	1.099	1.094	1.089
-0.005	-0.010	0.000	0.000	0.000	-0.005	0.034	1.738	1.069	1.074	1.079	1.099	1.094	1.089
-0.010	-0.010	-0.005	0.000	-0.005	0.015	0.034	1.729	1.074	1.069	1.074	1.094	1.094	1.099
0.039	-0.005	0.000	-0.005	0.005	0.010	0.029	1.772	1.089	1.079	1.079	1.099	1.094	1.099
0.024	-0.010	0.000	0.000	0.000	0.010	0.034	1.753	1.089	1.084	1.079	1.099	1.099	1.099
0.005	-0.020	0.000	-0.005	0.000	0.005	0.034	1.738	1.089	1.084	1.084	1.104	1.099	1.099
-0.010	-0.010	-0.005	0.000	0.000	0.005	0.034	1.758	1.084	1.089	1.089	1.104	1.099	1.104
-0.020	-0.010	-0.005	-0.005	-0.005	-0.005	0.034	1.758	1.094	1.094	1.094	1.108	1.104	1.104
-0.024	0.000	-0.005	-0.005	0.005	-0.020	0.034	1.777	1.104	1.099	1.099	1.113	1.108	1.104
-0.034	0.000	-0.005	-0.005	0.000	0.010	0.029	1.772	1.104	1.099	1.099	1.113	1.108	1.113
-0.020	0.005	0.000	0.000	-0.005	0.015	0.034	1.748	1.104	1.099	1.099	1.113	1.108	1.108
-0.005	0.005	-0.005	0.000	0.000	0.000	0.029	1.753	1.099	1.099	1.099	1.113	1.108	1.104
-0.005	0.000	-0.005	0.000	-0.005	-0.015	0.034	1.753	1.094	1.099	1.094	1.113	1.104	1.099
-0.005	0.005	0.000	0.005	-0.005	0.000	0.034	1.748	1.089	1.089	1.094	1.108	1.099	1.099
0.005	-0.005	0.005	-0.005	-0.005	0.005	0.034	1.777	1.089	1.084	1.084	1.104	1.104	1.099
0.010	0.005	0.000	0.000	0.000	0.000	0.034	1.738	1.074	1.084	1.084	1.099	1.099	1.094
0.010	0.010	-0.005	0.000	-0.005	-0.005	0.034	1.782	1.084	1.079	1.079	1.094	1.094	1.094
0.005	0.020	-0.005	0.000	0.000	-0.005	0.034	1.748	1.074	1.079	1.074	1.094	1.094	1.089
0.000	0.015	0.000	0.000	0.000	-0.005	0.034	1.738	1.069	1.074	1.074	1.094	1.094	1.094
0.000	0.000	0.000	0.000	0.000	-0.015	0.029	1.753	1.079	1.074	1.074	1.094	1.094	1.089
0.010	0.000	0.000	0.000	0.000	-0.010	0.029	1.768	1.084	1.079	1.079	1.094	1.094	1.094
0.000	-0.005	-0.005	0.005	-0.010	-0.005	0.034	1.768	1.099	1.084	1.079	1.099	1.094	1.094
-0.010	0.000	-0.005	0.000	0.000	0.010	0.029	1.797	1.094	1.089	1.089	1.099	1.099	1.104
0.000	0.000	0.000	0.000	0.000	0.000	0.029	1.748	1.104	1.099	1.094	1.108	1.104	1.099
-0.005	0.000	-0.005	-0.005	-0.005	0.000	0.029	1.772	1.104	1.104	1.099	1.108	1.104	1.104
-0.005	0.000	0.000	-0.005	0.005	0.015	0.034	1.777	1.108	1.104	1.099	1.113	1.108	1.108
-0.010	-0.005	0.005	-0.005	-0.005	0.000	0.034	1.787	1.108	1.104	1.104	1.113	1.104	1.104
0.000	0.010	-0.005	0.000	0.000	0.000	0.034	1.777	1.108	1.104	1.104	1.118	1.108	1.104
0.000	-0.010	0.000	0.000	-0.005	0.005	0.034	1.738	1.094	1.099	1.099	1.113	1.108	1.108
0.005	-0.005	0.000	0.000	0.000	0.000	0.034	1.719	1.089	1.094	1.094	1.113	1.108	1.104
0.000	-0.020	0.000	0.000	0.000	0.005	0.034	1.689	1.079	1.084	1.089	1.108	1.104	1.104
0.005	-0.010	0.000	0.000	-0.005	0.005	0.034	1.753	1.074	1.079	1.084	1.104	1.094	1.099
0.000	-0.010	0.000	0.005	-0.005	0.000	0.034	1.733	1.069	1.074	1.079	1.099	1.099	1.094
0.000	-0.005	0.005	0.000	-0.005	-0.010	0.029	1.787	1.074	1.069	1.074	1.094	1.094	1.089
0.000	0.000	-0.005	-0.005	-0.005	-0.029	0.034	1.738	1.074	1.069	1.069	1.094	1.094	1.084
0.000	0.005	-0.005	0.000	-0.005	-0.005	0.034	1.729	1.074	1.074	1.069	1.094	1.089	1.089
-0.005	0.015	-0.005	-0.005	-0.005	-0.010	0.029	1.777	1.079	1.079	1.074	1.094	1.089	1.089
0.000	0.005	0.000	-0.005	0.000	-0.005	0.034	1.689	1.084	1.079	1.079	1.094	1.094	1.094
0.005	0.000	-0.005	-0.005	0.000	0.005	0.029	1.758	1.089	1.084	1.079	1.099	1.094	1.099
0.000	0.000	0.000	-0.005	0.000	-0.015	0.034	1.772	1.089	1.089	1.089	1.104	1.099	1.094
0.005	-0.005	0.000	0.005	0.000	0.005	0.029	1.743	1.094	1.094	1.089	1.108	1.104	1.104
-0.015	0.000	0.000	0.010	0.005	0.005	0.034	1.768	1.104	1.099	1.094	1.113	1.104	1.108
-0.010	-0.005	-0.005	0.010	0.000	0.005	0.034	1.782	1.108	1.099	1.099	1.113	1.108	1.108
-0.005	-0.005	-0.005	0.005	-0.005	0.005	0.034	1.738	1.104	1.099	1.099	1.113	1.108	1.108
0.000	0.010	0.000	0.000	0.000	0.005	0.034	1.748	1.104	1.108	1.099	1.113	1.108	1.108
-0.005	-0.005	0.000	-0.005	0.000	0.015	0.034	1.719	1.089	1.094	1.099	1.108	1.108	1.108
-0.010	-0.010	0.000	-0.005	-0.005	0.005	0.034	1.709	1.074	1.084	1.089	1.104	1.104	1.104
-0.005	-0.005	0.000	-0.010	-0.005	0.010	0.034	1.772	1.074	1.074	1.084	1.104	1.099	1.099
-0.005	-0.005	-0.005	-0.010	-0.005	0.000	0.034	1.758	1.074	1.074	1.074	1.094	1.094	1.094
-0.010	-0.010	0.000	-0.010	-0.005	0.005	0.034	1.792	1.074	1.069	1.074	1.094	1.089	1.089
-0.005	-0.005	0.005	-0.015	-0.005	-0.005	0.029	1.772	1.084	1.074	1.069	1.089	1.089	1.089
0.015	-0.010	0.000	-0.005	0.000	-0.015	0.029	1.777	1.084	1.074	1.069	1.089	1.089	1.084
0.010	0.005	0.000	-0.005	0.000	-0.005	0.029	1.748	1.084	1.079	1.074	1.089	1.089	1.089
-0.010	0.005	-0.005	0.000	0.005	-0.005	0.034	1.738	1.084	1.084	1.074	1.094	1.094	1.094
-0.005	0.000	-0.005	0.005	0.005	-0.005	0.034	1.748	1.084	1.084	1.079	1.099	1.094	1.094
-0.005	0.005	-0.005	0.010	0.000	0.000	0.034	1.719	1.084	1.089	1.089	1.099	1.099	1.094
-0.005	0.005	0.000	0.015	0.000	0.015	0.029	1.738	1.084	1.089	1.094	1.108	1.099	1.104
-0.005	-0.005	-0.005	0.000	-0.005	0.015	0.034	1.758	1.099	1.089	1.094	1.108	1.104	1.104
0.000	-0.005	0.000	-0.005	-0.005	0.000	0.034	1.782	1.104	1.094	1.099	1.113	1.104	1.099
0.000	0.000	0.000	0.000	-0.005	0.015	0.034	1.768	1.104	1.099	1.094	1.113	1.108	1.104
-0.005	-0.005	0.000	0.005	0.000	-0.005	0.034	1.777	1.104	1.099	1.099	1.113	1.108	1.104
-0.005	0.000	0.000	-0.005	0.000	-0.005	0.034	1.748	1.094	1.099	1.099	1.108	1.104	1.104
-0.005	-0.005	-0.005	-0.005	-0.005	-0.010	0.034	1.733	1.089	1.089	1.089	1.108	1.104	1.094
0.000	-0.010	0.000	-0.005	0.000	-0.010	0.034	1.743	1.084	1.084	1.084	1.104	1.104	1.099
0.000	0.005	-0.005	-0.005	0.000	-0.020	0.034	1.777	1.084	1.079	1.084	1.104	1.099	1.094
0.000	-0.005	0.000	0.000	0.000	-0.029	0.034	1.758	1.074	1.074	1.079	1.094	1.094	1.089
0.010	0.015	0.005	0.000	0.000	-0.005	0.034	1.787	1.074	1.074	1.074	1.094	1.089	1.094
0.005	0.020	0.000	0.005	0.000	-0.005	0.029	1.758	1.074	1.074	1.074	1.094	1.089	1.094
0.000	-0.015	-0.005	0.000	0.000	0.000	0.034	1.714	1.069	1.064	1.069	1.094	1.089	1.089
0.005	0.000	0.000	0.010	0.005	-0.010	0.034	1.753	1.079	1.074	1.074	1.094	1.094	1.094
0.010	-0.005	0.000	-0.005	0.000	0.000	0.034	1.787	1.089	1.074	1.074	1.094	1.094	1.094
0.024	-0.005	0.000	0.005	-0.005	0.015	0.034	1.748	1.094	1.089	1.079	1.099	1.094	1.099
0.020	-0.015	0.000	-0.005	0.000	0.020	0.034	1.738	1.099	1.089	1.084	1.099	1.099	1.104
0.034	-0.010	0.000	0.000	0.000	-0.010	0.029	1.777	1.104	1.094	1.089	1.108	1.099	1.094
0.015	-0.010	-0.005	-0.005	-0.005	0.015	0.029	1.753	1.104	1.099	1.094	1.108	1.104	1.108
0.000	-0.005	-0.005	-0.005	0.000	0.015	0.034	1.738	1.094	1.099	1.099	1.113	1.108	1.108
-0.015	-0.010	0.000	-0.005	0.000	-0.005	0.034	1.738	1.084	1.099	1.099	1.113	1.108	1.104
-0.024	-0.010	0.000	0.000	0.000	0.010	0.034	1.768	1.089	1.094	1.094	1.113	1.108	1.108
-0.044	-0.015	0.000	0.000	-0.005	0.010	0.034	1.763	1.084	1.084	1.089	1.113	1.104	1.104
-0.024	0.020	0.000	0.000	0.000	-0.010	0.034	1.709	1.079	1.094	1.089	1.108	1.104	1.094
-0.034	0.034	-0.005	0.000	0.010	0.005	0.034	1.772	1.074	1.084	1.084	1.104	1.104	1.099
-0.015	0.005	0.000	-0.005	-0.005	0.005	0.034	1.777	1.084	1.074	1.079	1.099	1.094	1.094
-0.005	-0.005	0.000	0.000	-0.005	-0.020	0.034	1.733	1.074	1.069	1.074	1.094	1.089	1.084
-0.005	-0.015	0.000	-0.005	-0.010	0.000	0.034	1.777	1.074	1.064	1.064	1.089	1.089	1.089
-0.005	-0.010	0.000	-0.010	0.000	0.010	0.029	1.758	1.074	1.064	1.064	1.089	1.089	1.089
0.000	-0.005	0.000	-0.005	0.000	-0.024	0.029	1.758	1.079	1.074	1.069	1.089	1.089	1.079
0.015	-0.010	-0.005	-0.005	0.000	-0.005	0.029	1.777	1.089	1.074	1.069	1.089	1.089	1.089
0.000	-0.010	-0.005	-0.010	0.000	-0.015	0.029	1.743	1.089	1.084	1.074	1.094	1.089	1.089
0.010	-0.005	-0.005	-0.005	0.000	0.000	0.029	1.743	1.094	1.089	1.084	1.094	1.094	1.094
0.015	0.010	0.000	0.000	0.000	0.005	0.034	1.748	1.104	1.099	1.089	1.104	1.094	1.094
0.010	0.015	0.000	0.000	0.005	-0.020	0.029	1.787	1.104	1.104	1.099	1.108	1.099	1.094
0.005	0.000	-0.005	0.005	-0.005	0.010	0.034	1.772	1.104	1.104	1.099	1.113	1.104	1.104
0.005	0.039	0.005	0.000	-0.005	-0.010	0.029	1.777	1.108	1.118	1.108	1.113	1.104	1.099
0.010	0.005	0.000	-0.005	0.000	0.010	0.034	1.772	1.104	1.104	1.104	1.118	1.108	1.108
0.010	-0.015	0.000	0.000	0.005	0.005	0.029	1.768	1.099	1.099	1.099	1.118	1.113	1.108
-0.005	-0.010	0.000	0.000	0.005	0.005	0.034	1.782	1.094	1.094	1.094	1.113	1.108	1.108
-0.010	0.000	0.000	-0.005	-0.005	0.000	0.034	1.748	1.084	1.094	1.089	1.108	1.104	1.104
-0.010	0.000	0.000	-0.005	0.000	0.000	0.034	1.748	1.084	1.084	1.089	1.104	1.104	1.099
-0.005	-0.005	-0.005	0.000	0.000	0.000	0.034	1.777	1.079	1.074	1.079	1.104	1.099	1.094
-0.005	0.005	-0.005	0.005	0.000	-0.005	0.039	1.777	1.074	1.079	1.079	1.099	1.094	1.094
-0.005	0.005	0.000	0.010	0.000	0.005	0.034	1.772	1.074	1.074	1.074	1.099	1.094	1.094
0.000	-0.005	-0.005	0.010	0.000	0.005	0.034	1.763	1.079	1.069	1.074	1.094	1.094	1.094
-0.005	0.010	0.000	0.010	0.000	0.005	0.034	1.782	1.084	1.074	1.079	1.094	1.094	1.094
0.005	-0.005	0.005	0.020	0.000	-0.005	0.034	1.787	1.094	1.079	1.079	1.099	1.094	1.089
0.005	-0.005	0.000	0.005	-0.005	0.000	0.029	1.777	1.094	1.084	1.084	1.099	1.094	1.099
-0.005	-0.005	-0.005	0.000	-0.005	-0.005	0.029	1.777	1.104	1.094	1.084	1.099	1.099	1.094
-0.005	0.005	0.000	0.000	-0.005	0.005	0.029	1.772	1.104	1.099	1.094	1.104	1.099	1.104
-0.005	-0.005	0.000	-0.005	0.000	0.000	0.029	1.753	1.108	1.104	1.094	1.108	1.104	1.099
0.000	-0.005	0.000	-0.005	-0.005	0.005	0.034	1.753	1.104	1.104	1.099	1.113	1.108	1.108
-0.005	-0.005	-0.005	-0.005	0.000	-0.015	0.034	1.777	1.108	1.104	1.099	1.113	1.108	1.099
-0.005	0.015	-0.005	0.000	0.000	0.005	0.034	1.704	1.099	1.113	1.104	1.118	1.113	1.113
0.000	0.020	0.000	-0.005	-0.005	0.005	0.034	1.709	1.089	1.104	1.104	1.118	1.108	1.104
0.000	0.005	0.000	-0.005	0.000	-0.005	0.034	1.733	1.084	1.094	1.099	1.113	1.108	1.108
0.005	0.010	0.000	-0.005	-0.005	0.010	0.034	1.782	1.084	1.089	1.089	1.113	1.104	1.104
-0.005	0.015	0.000	-0.005	-0.005	0.010	0.034	1.758	1.079	1.084	1.084	1.104	1.099	1.104
-0.005	-0.005	-0.005	-0.015	-0.005	0.000	0.034	1.743	1.069	1.069	1.074	1.099	1.094	1.094
-0.005	-0.015	-0.005	-0.010	0.000	0.000	0.034	1.738	1.069	1.064	1.074	1.094	1.094	1.094
0.000	-0.015	-0.005	-0.010	0.000	0.005	0.034	1.743	1.074	1.064	1.069	1.094	1.094	1.094
0.000	-0.020	0.000	-0.005	-0.010	-0.010	0.034	1.772	1.079	1.069	1.064	1.089	1.084	1.084
0.000	-0.010	0.000	-0.005	0.000	0.005	0.029	1.772	1.084	1.074	1.069	1.089	1.089	1.094
0.000	-0.010	0.005	0.000	-0.005	-0.010	0.029	1.743	1.089	1.079	1.074	1.094	1.089	1.089
0.000	-0.005	-0.005	0.005	0.000	0.000	0.029	1.748	1.094	1.089	1.079	1.099	1.094	1.094
-0.005	-0.010	0.000	0.010	-0.005	-0.005	0.034	1.733	1.094	1.094	1.084	1.104	1.099	1.094
-0.015	0.005	0.000	0.010	0.005	-0.010	0.034	1.724	1.094	1.099	1.094	1.108	1.104	1.099
-0.005	0.005	0.000	0.015	0.005	-0.024	0.034	1.753	1.104	1.104	1.094	1.113	1.108	1.099
0.005	0.000	-0.005	0.010	0.000	-0.010	0.034	1.763	1.108	1.104	1.099	1.113	1.104	1.104
0.000	-0.010	0.000	0.005	0.000	0.005	0.034	1.729	1.104	1.104	1.099	1.113	1.108	1.108
0.000	-0.005	0.000	0.000	-0.005	0.010	0.034	1.758	1.094	1.099	1.099	1.113	1.108	1.108
0.000	0.000	-0.005	0.000	0.000	0.010	0.034	1.758	1.089	1.099	1.099	1.113	1.108	1.108
0.005	-0.005	0.000	0.000	0.000	0.005	0.034	1.743	1.089	1.089	1.089	1.108	1.104	1.099
0.000	-0.005	-0.005	0.000	0.000	-0.010	0.029	1.782	1.079	1.079	1.089	1.104	1.099	1.094
0.000	0.000	0.000	0.005	-0.005	-0.024	0.034	1.743	1.074	1.079	1.079	1.099	1.094	1.089
-0.005	-0.015	0.005	0.000	-0.005	-0.010	0.029	1.772	1.069	1.069	1.079	1.099	1.094	1.094
0.000	0.005	0.000	-0.005	-0.005	0.000	0.029	1.748	1.074	1.069	1.069	1.094	1.094	1.094
-0.010	-0.005	0.000	-0.005	0.000	-0.020	0.034	1.772	1.079	1.064	1.069	1.094	1.089	1.089
0.000	-0.010	0.000	-0.005	0.000	0.005	0.029	1.758	1.079	1.074	1.064	1.089	1.089	1.094
-0.010	-0.005	0.000	-0.005	0.000	0.000	0.034	1.768	1.084	1.074	1.069	1.089	1.089	1.089
0.005	0.000	0.000	-0.005	0.000	0.005	0.034	1.758	1.089	1.084	1.079	1.089	1.089	1.094
-0.005	-0.010	0.005	-0.010	-0.005	0.000	0.029	1.733	1.089	1.089	1.079	1.094	1.094	1.094
0.000	0.005	-0.005	-0.005	0.005	-0.005	0.029	1.743	1.094	1.094	1.089	1.099	1.094	1.094
0.000	-0.010	0.005	-0.010	0.000	0.000	0.034	1.787	1.104	1.099	1.094	1.108	1.099	1.099
-0.005	-0.005	0.000	-0.005	0.000	0.005	0.034	1.787	1.104	1.099	1.099	1.113	1.104	1.104
0.000	0.000	0.000	0.000	0.000	-0.010	0.034	1.743	1.104	1.104	1.099	1.118	1.108	1.099
-0.005	0.005	0.000	0.000	0.000	0.005	0.034	1.772	1.104	1.104	1.099	1.118	1.108	1.108
0.000	0.005	0.000	-0.005	0.000	0.000	0.034	1.802	1.108	1.104	1.099	1.118	1.108	1.108
-0.005	0.000	0.000	0.000	-0.005	0.000	0.029	1.748	1.094	1.094	1.094	1.113	1.108	1.104
-0.005	-0.005	0.005	0.000	-0.005	0.000	0.034	1.724	1.084	1.089	1.094	1.108	1.108	1.104
-0.005	0.000	0.005	-0.005	0.000	0.005	0.034	1.763	1.084	1.084	1.089	1.104	1.104	1.099
0.005	-0.005	0.000	-0.005	-0.005	-0.005	0.034	1.738	1.079	1.079	1.079	1.099	1.099	1.094
0.005	-0.010	-0.005	-0.005	-0.005	0.005	0.034	1.777	1.079	1.074	1.079	1.099	1.094	1.094
0.000	-0.005	0.005	0.000	-0.005	0.000	0.034	1.753	1.079	1.074	1.074	1.094	1.094	1.094
-0.005	-0.010	0.000	-0.005	0.000	0.000	0.034	1.792	1.079	1.069	1.069	1.094	1.089	1.089
0.005	-0.005	-0.005	-0.005	0.000	-0.005	0.034	1.738	1.079	1.074	1.069	1.094	1.089	1.089
0.029	0.010	-0.005	-0.005	0.000	-0.005	0.029	1.748	1.089	1.084	1.079	1.094	1.094	1.089
0.024	-0.010	0.000	0.000	-0.005	0.000	0.034	1.733	1.089	1.084	1.084	1.099	1.094	1.094
0.010	-0.005	0.000	0.010	0.000	0.005	0.034	1.714	1.094	1.089	1.084	1.108	1.099	1.099
-0.005	0.005	-0.005	0.010	-0.005	-0.005	0.029	1.797	1.104	1.099	1.089	1.108	1.099	1.099
-0.024	0.005	0.000	-0.005	0.000	-0.024	0.034	1.792	1.099	1.099	1.094	1.108	1.104	1.099
-0.039	-0.005	-0.005	0.000	-0.005	-0.005	0.034	1.772	1.099	1.099	1.094	1.113	1.108	1.104
-0.034	-0.015	-0.005	0.000	-0.005	0.005	0.034	1.777	1.104	1.099	1.099	1.113	1.108	1.104
-0.015	-0.005	0.000	0.005	-0.005	0.005	0.029	1.729	1.104	1.104	1.099	1.113	1.108	1.108
-0.015	-0.010	0.005	-0.010	-0.005	0.015	0.029	1.797	1.104	1.099	1.099	1.113	1.108	1.108
-0.010	0.015	0.000	-0.010	-0.005	0.010	0.029	1.768	1.099	1.104	1.094	1.108	1.108	1.104
0.000	0.005	0.000	0.000	-0.005	-0.020	0.034	1.777	1.094	1.099	1.094	1.108	1.104	1.099
0.029	0.015	0.000	0.000	0.000	0.010	0.034	1.733	1.094	1.094	1.094	1.108	1.099	1.099
0.029	0.005	0.000	0.000	0.000	-0.020	0.029	1.777	1.089	1.084	1.089	1.104	1.094	1.089
0.034	-0.005	-0.005	0.010	-0.005	0.015	0.029	1.782	1.089	1.079	1.084	1.104	1.099	1.099
0.034	0.020	-0.005	0.015	-0.005	0.015	0.034	1.772	1.089	1.089	1.084	1.104	1.099	1.099
0.024	0.000	-0.005	0.015	-0.005	0.010	0.034	1.772	1.084	1.079	1.084	1.104	1.099	1.099
0.005	0.000	-0.005	0.010	-0.005	0.000	0.034	1.724	1.074	1.079	1.084	1.099	1.099	1.094
-0.020	-0.005	-0.005	-0.005	-0.005	-0.005	0.034	1.772	1.079	1.079	1.084	1.099	1.094	1.094
-0.029	-0.005	0.000	-0.005	0.000	0.000	0.034	1.768	1.074	1.079	1.084	1.099	1.099	1.099
-0.049	0.000	0.000	-0.010	0.000	0.000	0.034	1.768	1.079	1.084	1.084	1.099	1.104	1.104
-0.054	-0.005	-0.005	-0.005	0.000	0.005	0.034	1.777	1.089	1.089	1.089	1.108	1.104	1.104
-0.059	0.005	0.000	-0.005	0.000	0.015	0.029	1.743	1.094	1.094	1.094	1.113	1.108	1.108
-0.034	0.005	-0.005	-0.005	-0.005	0.010	0.029	1.748	1.099	1.104	1.099	1.113	1.108	1.104
0.010	0.010	-0.005	0.005	-0.005	-0.015	0.034	1.782	1.118	1.108	1.099	1.118	1.108	1.099
0.010	0.015	-0.005	0.010	0.000	0.000	0.034	1.768	1.108	1.108	1.104	1.118	1.113	1.108
0.005	0.005	0.005	0.010	-0.005	0.010	0.029	1.763	1.099	1.099	1.099	1.118	1.113	1.113
-0.015	-0.005	-0.005	0.010	0.000	0.005	0.034	1.763	1.084	1.094	1.094	1.113	1.108	1.108
-0.039	0.000	-0.005	0.000	-0.005	0.005	0.034	1.787	1.074	1.079	1.089	1.104	1.099	1.104
-0.034	-0.005	-0.005	0.000	0.000	-0.005	0.034	1.777	1.074	1.074	1.079	1.104	1.104	1.094
-0.034	-0.005	0.000	0.000	0.005	0.000	0.034	1.782	1.074	1.064	1.074	1.094	1.099	1.099
-0.005	-0.024	0.000	0.000	0.015	0.000	0.034	1.772	1.084	1.064	1.069	1.094	1.099	1.094
0.059	-0.020	-0.005	0.000	0.010	-0.005	0.034	1.787	1.104	1.079	1.069	1.094	1.094	1.094
0.063	-0.010	-0.005	-0.010	0.005	-0.010	0.034	1.743	1.099	1.084	1.074	1.089	1.089	1.089
0.049	-0.024	0.000	-0.010	0.015	-0.015	0.029	1.738	1.089	1.084	1.074	1.089	1.089	1.089
0.024	-0.015	0.000	-0.010	0.020	-0.015	0.029	1.777	1.089	1.089	1.084	1.094	1.094	1.094
0.015	0.000	-0.005	-0.015	0.020	-0.039	0.029	1.743	1.089	1.094	1.089	1.099	1.094	1.089
-0.010	0.010	-0.005	-0.015	0.010	-0.015	0.034	1.792	1.089	1.099	1.094	1.108	1.099	1.099
-0.020	0.020	-0.005	-0.010	0.010	-0.015	0.034	1.763	1.094	1.104	1.099	1.108	1.104	1.104
-0.034	0.010	-0.005	-0.015	0.010	-0.029	0.034	1.738	1.089	1.104	1.099	1.113	1.108	1.104
-0.024	-0.005	-0.005	-0.005	0.010	-0.005	0.029	1.748	1.094	1.094	1.099	1.118	1.108	1.108
-0.010	0.010	-0.005	0.000	0.005	-0.010	0.034	1.772	1.099	1.099	1.104	1.118	1.108	1.108
-0.015	0.020	0.000	0.000	0.005	-0.029	0.034	1.748	1.094	1.104	1.104	1.123	1.108	1.104
-0.010	0.044	-0.005	-0.005	0.005	-0.005	0.034	1.748	1.094	1.099	1.099	1.113	1.108	1.108
0.015	0.000	0.000	0.000	0.005	-0.005	0.034	1.772	1.094	1.089	1.094	1.113	1.108	1.108
0.010	-0.015	0.000	0.005	-0.005	0.000	0.034	1.802	1.094	1.079	1.089	1.113	1.099	1.104
0.015	-0.020	0.000	0.010	-0.010	0.000	0.034	1.787	1.094	1.079	1.084	1.108	1.099	1.099
0.010	0.000	-0.005	0.005	-0.005	0.000	0.034	1.777	1.089	1.079	1.079	1.099	1.099	1.099
0.024	-0.015	0.000	0.010	0.005	-0.010	0.034	1.787	1.089	1.074	1.079	1.099	1.099	1.094
0.020	-0.015	-0.005	0.015	0.000	-0.005	0.034	1.748	1.084	1.079	1.074	1.094	1.099	1.094
0.005	0.000	0.000	0.010	0.000	0.005	0.034	1.772	1.084	1.079	1.079	1.099	1.094	1.094
0.010	-0.010	0.005	0.005	-0.005	-0.010	0.034	1.748	1.089	1.079	1.079	1.099	1.094	1.089
0.010	0.005	0.000	0.005	-0.005	-0.020	0.034	1.777	1.094	1.089	1.084	1.099	1.094	1.094
0.010	0.000	-0.005	0.000	-0.010	0.015	0.034	1.777	1.099	1.094	1.089	1.104	1.099	1.104
0.020	-0.005	0.000	0.000	-0.005	0.000	0.034	1.753	1.108	1.099	1.094	1.108	1.104	1.099
0.000	-0.005	0.000	-0.005	-0.015	0.000	0.034	1.777	1.108	1.104	1.099	1.108	1.104	1.104
0.010	0.005	-0.005	-0.010	-0.020	0.015	0.034	1.797	1.113	1.113	1.104	1.113	1.108	1.108
0.000	0.000	0.000	-0.010	-0.005	0.020	0.034	1.777	1.108	1.108	1.108	1.118	1.108	1.113
0.005	0.000	0.000	-0.005	-0.015	0.020	0.034	1.758	1.104	1.108	1.104	1.118	1.108	1.108
-0.005	-0.005	0.000	0.000	-0.015	0.005	0.034	1.792	1.104	1.104	1.104	1.118	1.113	1.108
-0.010	-0.010	0.000	-0.005	-0.010	0.010	0.029	1.763	1.094	1.099	1.099	1.118	1.108	1.108
-0.005	0.000	0.005	-0.005	-0.020	-0.020	0.034	1.753	1.084	1.094	1.099	1.113	1.104	1.099
-0.015	0.005	-0.005	0.000	-0.010	-0.015	0.029	1.743	1.074	1.084	1.089	1.108	1.108	1.099
-0.005	-0.005	0.000	0.000	-0.010	0.005	0.034	1.738	1.074	1.074	1.079	1.104	1.104	1.099
0.000	-0.005	-0.005	-0.005	-0.005	-0.010	0.034	1.748	1.069	1.069	1.074	1.099	1.099	1.099
0.000	0.005	-0.005	-0.005	-0.005	0.015	0.034	1.753	1.074	1.069	1.069	1.094	1.094	1.099
-0.005	-0.005	0.005	0.005	-0.005	0.005	0.034	1.772	1.084	1.069	1.074	1.094	1.094	1.099
-0.005	0.015	0.000	0.000	-0.005	0.000	0.034	1.763	1.084	1.079	1.074	1.094	1.094	1.094
-0.010	-0.015	0.000	-0.005	-0.005	0.010	0.034	1.719	1.084	1.079	1.074	1.094	1.094	1.099
-0.010	-0.024	0.000	-0.005	-0.005	-0.005	0.034	1.733	1.084	1.079	1.079	1.099	1.099	1.094
0.005	-0.015	-0.005	-0.005	-0.010	0.000	0.029	1.753	1.094	1.089	1.084	1.099	1.099	1.099
-0.005	-0.010	-0.005	0.000	-0.005	-0.015	0.034	1.724	1.094	1.094	1.089	1.104	1.099	1.099
-0.005	0.000	-0.010	-0.005	-0.005	-0.024	0.034	1.694	1.089	1.099	1.094	1.108	1.104	1.099
0.000	0.010	-0.005	-0.005	0.000	0.000	0.029	1.753	1.094	1.104	1.099	1.113	1.108	1.108
-0.005	0.015	0.000	-0.005	0.000	0.000	0.029	1.753	1.099	1.104	1.099	1.118	1.108	1.108
0.000	0.010	-0.005	0.000	0.010	0.005	0.034	1.787	1.108	1.104	1.099	1.118	1.108	1.113
0.000	0.010	0.000	0.000	0.010	0.010	0.034	1.748	1.099	1.099	1.099	1.118	1.108	1.108
0.000	-0.005	0.000	0.000	0.000	-0.010	0.034	1.777	1.094	1.089	1.094	1.108	1.104	1.099
-0.005	-0.005	-0.005	0.005	-0.005	-0.005	0.034	1.714	1.084	1.084	1.089	1.108	1.099	1.099
0.000	0.000	0.000	-0.005	-0.005	-0.015	0.034	1.772	1.084	1.079	1.079	1.104	1.094	1.094
0.005	0.005	-0.005	0.005	-0.010	-0.005	0.034	1.782	1.084	1.079	1.079	1.099	1.094	1.094
-0.005	0.005	-0.005	0.005	-0.005	-0.010	0.034	1.763	1.079	1.074	1.074	1.094	1.094	1.094
-0.005	-0.020	-0.005	0.005	0.005	-0.020	0.034	1.772	1.079	1.064	1.074	1.094	1.089	1.089
-0.005	-0.020	-0.005	0.000	0.010	0.005	0.034	1.802	1.089	1.074	1.074	1.094	1.094	1.099
0.005	-0.015	0.000	0.000	0.000	0.015	0.034	1.733	1.084	1.079	1.074	1.094	1.089	1.094
0.005	-0.005	0.000	-0.005	0.005	-0.024	0.034	1.753	1.094	1.089	1.079	1.094	1.094	1.084
0.000	-0.005	0.000	-0.005	0.000	0.000	0.034	1.733	1.094	1.094	1.084	1.099	1.094	1.099
-0.010	0.000	0.005	0.000	-0.005	0.005	0.034	1.787	1.099	1.099	1.094	1.104	1.099	1.104
0.000	0.000	0.000	0.000	0.000	0.015	0.034	1.787	1.108	1.104	1.099	1.113	1.104	1.108
0.000	0.000	0.000	-0.005	0.005	0.010	0.034	1.777	1.113	1.104	1.104	1.113	1.108	1.108
0.000	-0.005	-0.005	-0.005	0.000	0.010	0.034	1.797	1.113	1.108	1.104	1.118	1.108	1.108
-0.005	0.000	0.005	-0.005	0.000	0.000	0.034	1.787	1.113	1.108	1.108	1.123	1.108	1.104
-0.005	0.000	-0.005	0.005	0.000	-0.010	0.034	1.768	1.104	1.108	1.104	1.123	1.113	1.108
0.000	0.010	0.000	0.005	0.000	0.000	0.034	1.733	1.094	1.108	1.104	1.118	1.113	1.108
0.000	0.015	0.000	0.000	0.000	0.000	0.034	1.787	1.089	1.099	1.099	1.118	1.108	1.108
0.005	0.015	0.000	0.005	0.005	0.010	0.034	1.758	1.084	1.094	1.094	1.113	1.108	1.104
-0.005	0.005	-0.005	0.010	0.000	-0.024	0.034	1.743	1.079	1.084	1.089	1.108	1.104	1.099
0.000	0.005	0.000	0.005	-0.005	0.010	0.034	1.782	1.079	1.079	1.079	1.108	1.099	1.104
0.005	-0.010	0.000	0.015	0.000	0.005	0.034	1.709	1.074	1.074	1.074	1.104	1.099	1.094
-0.010	-0.015	-0.005	0.005	0.005	-0.005	0.034	1.792	1.074	1.069	1.069	1.099	1.099	1.094
-0.005	-0.010	-0.005	0.000	0.000	-0.010	0.034	1.724	1.074	1.069	1.069	1.094	1.094	1.094
-0.005	-0.005	0.000	0.005	0.000	0.010	0.034	1.782	1.084	1.074	1.074	1.094	1.094	1.104
-0.005	-0.005	0.000	0.000	0.000	0.005	0.034	1.782	1.094	1.089	1.079	1.099	1.099	1.104
-0.015	0.005	0.000	0.005	-0.005	0.005	0.034	1.724	1.094	1.094	1.084	1.104	1.099	1.104
-0.005	0.078	0.000	0.010	0.000	0.010	0.034	1.738	1.094	1.118	1.099	1.113	1.104	1.104
-0.005	0.044	-0.005	0.010	-0.005	0.005	0.034	1.748	1.104	1.104	1.099	1.113	1.104	1.104
-0.005	0.000	0.000	0.005	-0.005	0.000	0.034	1.729	1.099	1.094	1.104	1.118	1.108	1.108
0.005	-0.010	-0.005	0.000	0.000	-0.020	0.029	1.733	1.104	1.094	1.099	1.113	1.108	1.104
0.005	-0.010	0.000	-0.005	0.000	0.005	0.034	1.733	1.099	1.094	1.099	1.113	1.108	1.113
0.005	-0.015	0.000	-0.010	0.005	0.000	0.034	1.758	1.094	1.094	1.094	1.108	1.113	1.108
0.010	-0.005	0.000	-0.010	0.005	-0.015	0.034	1.758	1.094	1.094	1.089	1.108	1.108	1.104
0.005	-0.010	0.000	-0.015	0.000	-0.005	0.034	1.748	1.089	1.084	1.089	1.104	1.099	1.099
0.000	-0.005	-0.005	-0.010	-0.005	0.000	0.034	1.812	1.089	1.084	1.084	1.104	1.094	1.099
0.000	0.015	0.000	-0.005	0.000	-0.005	0.034	1.748	1.084	1.084	1.079	1.099	1.099	1.099
-0.010	0.000	-0.005	-0.005	0.010	0.010	0.034	1.768	1.079	1.074	1.074	1.094	1.094	1.094
-0.005	-0.015	-0.005	-0.005	0.020	0.020	0.034	1.768	1.079	1.069	1.074	1.094	1.094	1.099
-0.005	-0.015	-0.010	0.000	0.029	0.000	0.034	1.738	1.084	1.074	1.074	1.094	1.094	1.094
0.000	-0.024	0.000	-0.005	0.024	0.005	0.034	1.797	1.089	1.074	1.074	1.094	1.094	1.094
0.000	-0.005	0.000	0.000	0.020	0.000	0.034	1.733	1.089	1.084	1.079	1.094	1.094	1.094
-0.005	0.000	0.000	0.000	0.005	-0.020	0.034	1.782	1.094	1.089	1.084	1.099	1.089	1.089
-0.005	0.010	0.000	0.000	0.000	-0.039	0.034	1.758	1.099	1.099	1.089	1.104	1.094	1.089
-0.005	0.029	0.000	0.000	-0.029	-0.034	0.034	1.753	1.099	1.108	1.094	1.108	1.094	1.089
0.005	0.005	-0.005	0.000	-0.063	-0.020	0.034	1.748	1.099	1.099	1.099	1.108	1.089	1.099
0.010	-0.005	0.000	-0.005	-0.103	-0.005	0.034	1.782	1.108	1.104	1.104	1.113	1.089	1.099
-0.005	-0.010	-0.005	0.000	-0.112	0.015	0.034	1.777	1.104	1.099	1.104	1.118	1.094	1.099
0.005	-0.005	0.005	0.005	-0.068	0.020	0.034	1.733	1.099	1.099	1.104	1.118	1.108	1.099
0.000	-0.010	0.000	0.005	-0.010	0.015	0.034	1.763	1.094	1.094	1.099	1.123	1.128	1.108
-0.005	-0.010	0.000	0.000	0.049	0.015	0.034	1.777	1.089	1.089	1.094	1.118	1.133	1.113
0.000	-0.010	-0.005	0.005	0.049	0.000	0.034	1.743	1.084	1.089	1.089	1.113	1.128	1.113
0.005	-0.010	0.000	-0.005	0.054	0.010	0.034	1.782	1.089	1.079	1.084	1.104	1.113	1.113
0.000	-0.010	0.000	-0.005	0.059	0.010	0.034	1.733	1.079	1.074	1.079	1.099	1.108	1.108
-0.005	0.005	-0.005	0.000	0.054	0.010	0.034	1.753	1.079	1.079	1.074	1.094	1.099	1.104
0.000	0.010	-0.005	-0.015	0.034	-0.020	0.029	1.777	1.079	1.074	1.074	1.089	1.089	1.094
0.000	0.005	0.000	-0.010	0.010	0.005	0.029	1.797	1.089	1.079	1.074	1.094	1.084	1.094
0.000	0.005	0.005	-0.005	0.005	-0.020	0.034	1.782	1.089	1.079	1.074	1.094	1.084	1.084
0.000	0.010	0.005	0.005	0.005	0.010	0.034	1.758	1.094	1.089	1.084	1.099	1.089	1.094
-0.005	0.000	0.000	0.005	0.000	-0.020	0.034	1.777	1.099	1.094	1.089	1.104	1.094	1.094
-0.015	0.000	0.000	0.010	0.000	0.020	0.034	1.763	1.099	1.094	1.094	1.113	1.099	1.108
-0.010	-0.015	0.000	0.010	0.000	0.015	0.034	1.763	1.099	1.099	1.094	1.113	1.104	1.104
0.000	0.000	-0.005	0.010	-0.005	0.010	0.034	1.797	1.108	1.108	1.099	1.113	1.108	1.108
0.000	0.000	-0.005	0.000	-0.010	0.005	0.034	1.777	1.113	1.108	1.104	1.113	1.108	1.104
0.005	-0.010	0.000	0.000	-0.010	0.000	0.034	1.733	1.099	1.104	1.104	1.118	1.108	1.104
0.000	-0.005	-0.005	0.000	0.000	-0.010	0.034	1.753	1.099	1.104	1.104	1.118	1.108	1.104
-0.005	0.000	0.000	0.000	-0.005	0.000	0.029	1.738	1.089	1.099	1.099	1.118	1.108	1.104
0.000	0.000	0.000	-0.005	-0.005	0.005	0.034	1.782	1.094	1.089	1.094	1.108	1.104	1.104
0.000	-0.005	-0.005	-0.010	-0.010	0.000	0.034	1.753	1.089	1.084	1.089	1.108	1.104	1.099
0.005	0.000	0.000	-0.005	-0.005	-0.005	0.034	1.787	1.084	1.079	1.084	1.104	1.099	1.099
0.000	0.000	0.000	0.000	0.000	-0.005	0.034	1.807	1.089	1.079	1.079	1.099	1.099	1.094
0.000	0.005	-0.005	0.000	0.005	0.000	0.034	1.729	1.079	1.079	1.079	1.094	1.099	1.099
0.000	0.005	0.000	0.000	0.000	0.005	0.034	1.758	1.079	1.079	1.079	1.094	1.094	1.099
-0.005	0.000	0.000	-0.005	-0.010	0.000	0.029	1.768	1.079	1.079	1.074	1.094	1.089	1.094
-0.005	0.005	0.000	-0.010	-0.010	0.000	0.034	1.753	1.084	1.079	1.079	1.094	1.094	1.094
-0.010	0.010	0.000	-0.010	-0.020	0.010	0.029	1.753	1.089	1.084	1.084	1.099	1.094	1.099
-0.010	0.000	0.000	-0.010	-0.010	0.000	0.034	1.792	1.094	1.089	1.089	1.099	1.099	1.094
-0.015	-0.029	0.000	-0.015	0.000	-0.029	0.034	1.777	1.099	1.089	1.089	1.104	1.104	1.094
-0.005	-0.020	-0.005	-0.010	-0.005	0.000	0.034	1.753	1.104	1.094	1.094	1.113	1.108	1.108
-0.005	0.000	-0.005	-0.010	0.000	-0.020	0.034	1.743	1.108	1.104	1.094	1.118	1.108	1.104
-0.010	0.010	0.000	0.000	0.000	0.010	0.034	1.763	1.104	1.113	1.104	1.123	1.113	1.113
-0.005	0.083	0.000	0.005	0.005	-0.005	0.034	1.763	1.104	1.128	1.108	1.123	1.113	1.108
0.000	0.029	0.005	0.010	0.010	-0.005	0.039	1.792	1.104	1.104	1.108	1.128	1.118	1.108
0.015	-0.039	-0.005	0.020	0.005	0.005	0.034	1.787	1.094	1.084	1.094	1.118	1.113	1.113
0.000	-0.039	0.000	0.010	0.000	-0.010	0.034	1.768	1.094	1.079	1.089	1.113	1.108	1.108
0.005	-0.034	0.000	0.010	0.000	0.000	0.034	1.768	1.084	1.079	1.084	1.108	1.108	1.108
0.000	-0.020	-0.005	0.010	0.000	0.010	0.034	1.729	1.079	1.079	1.079	1.099	1.104	1.104
-0.005	-0.015	0.000	0.010	-0.005	-0.015	0.034	1.733	1.074	1.079	1.079	1.099	1.094	1.094
0.005	0.000	-0.005	0.010	-0.005	0.000	0.034	1.729	1.074	1.079	1.079	1.094	1.094	1.099
0.000	0.000	-0.005	0.010	-0.005	-0.020	0.034	1.763	1.074	1.079	1.074	1.094	1.094	1.089
-0.005	0.020	0.000	0.000	0.000	-0.005	0.034	1.787	1.074	1.079	1.079	1.094	1.094	1.094
-0.005	0.010	0.000	-0.010	-0.005	0.000	0.034	1.724	1.079	1.084	1.079	1.094	1.094	1.094
-0.005	-0.005	0.000	-0.015	-0.005	0.000	0.034	1.699	1.079	1.079	1.079	1.094	1.094	1.099
0.000	-0.005	0.005	-0.010	-0.005	-0.005	0.034	1.714	1.084	1.084	1.089	1.104	1.099	1.099
-0.005	-0.010	0.000	-0.015	-0.005	-0.029	0.034	1.772	1.094	1.084	1.084	1.104	1.094	1.094
-0.010	-0.005	-0.005	-0.005	0.000	-0.024	0.029	1.729	1.099	1.094	1.094	1.108	1.104	1.099
0.000	0.015	0.000	0.005	0.005	0.000	0.034	1.787	1.104	1.104	1.094	1.113	1.108	1.108
0.000	0.020	0.000	0.015	0.005	0.000	0.034	1.714	1.099	1.104	1.094	1.118	1.108	1.108
0.005	0.010	0.000	0.010	-0.005	0.005	0.034	1.787	1.099	1.099	1.099	1.118	1.108	1.108
0.005	0.000	0.000	0.010	-0.015	-0.010	0.034	1.719	1.094	1.094	1.094	1.113	1.104	1.104
-0.005	-0.005	-0.005	0.000	-0.020	0.020	0.034	1.802	1.089	1.089	1.089	1.108	1.104	1.108
-0.005	0.005	0.000	0.005	-0.005	0.015	0.034	1.777	1.084	1.084	1.089	1.104	1.104	1.104
-0.005	-0.005	0.005	0.005	-0.005	0.015	0.034	1.807	1.084	1.079	1.079	1.104	1.099	1.099
-0.005	-0.005	0.000	0.005	0.005	-0.010	0.029	1.729	1.079	1.079	1.074	1.099	1.099	1.089
-0.005	0.000	0.005	0.005	0.005	-0.005	0.034	1.777	1.084	1.074	1.074	1.099	1.094	1.089
0.000	-0.005	0.005	0.000	0.005	0.000	0.034	1.792	1.084	1.074	1.069	1.094	1.094	1.094
0.005	-0.005	0.000	0.000	0.005	-0.005	0.034	1.772	1.089	1.079	1.069	1.089	1.089	1.089
0.010	0.010	-0.005	-0.005	0.000	-0.015	0.034	1.729	1.089	1.084	1.074	1.089	1.089	1.089
0.005	0.010	-0.005	0.005	0.010	-0.005	0.034	1.733	1.089	1.089	1.084	1.099	1.094	1.094
0.000	0.020	0.000	0.000	0.010	0.024	0.034	1.768	1.099	1.094	1.094	1.104	1.099	1.099
0.005	0.000	-0.005	0.000	0.010	0.000	0.034	1.729	1.104	1.094	1.094	1.104	1.104	1.099
0.000	-0.015	0.000	-0.005	0.010	0.015	0.034	1.758	1.108	1.094	1.099	1.108	1.104	1.104
-0.005	0.000	-0.005	0.000	0.010	-0.005	0.034	1.743	1.104	1.104	1.099	1.113	1.108	1.099
-0.005	-0.015	0.000	-0.005	-0.010	-0.020	0.034	1.729	1.099	1.099	1.099	1.113	1.104	1.094
0.000	-0.020	0.000	-0.005	-0.005	-0.020	0.034	1.743	1.094	1.099	1.104	1.118	1.108	1.099
-0.010	-0.024	0.000	-0.010	-0.020	-0.010	0.034	1.748	1.094	1.094	1.099	1.113	1.104	1.099
0.000	-0.005	0.000	-0.005	-0.024	-0.020	0.034	1.709	1.089	1.094	1.094	1.113	1.104	1.099
0.000	-0.020	-0.005	-0.010	-0.054	-0.010	0.029	1.782	1.084	1.084	1.084	1.108	1.094	1.094
-0.005	0.000	-0.005	-0.010	-0.063	-0.015	0.034	1.777	1.084	1.084	1.084	1.104	1.089	1.089
0.005	-0.010	0.000	-0.005	-0.044	0.015	0.034	1.792	1.084	1.079	1.079	1.099	1.094	1.099
0.010	-0.015	-0.005	-0.005	-0.020	0.024	0.034	1.797	1.084	1.074	1.074	1.099	1.099	1.094
0.010	0.000	-0.005	0.000	0.044	0.010	0.034	1.763	1.079	1.074	1.074	1.094	1.113	1.099
0.000	0.015	-0.005	-0.005	0.073	0.010	0.029	1.787	1.079	1.079	1.074	1.094	1.113	1.104
-0.010	0.010	0.000	-0.010	0.054	0.005	0.029	1.787	1.084	1.079	1.079	1.094	1.099	1.099
0.005	0.005	-0.005	-0.010	0.044	0.000	0.029	1.763	1.094	1.084	1.079	1.094	1.099	1.099
-0.005	0.005	0.000	-0.005	0.015	0.005	0.034	1.768	1.094	1.089	1.084	1.099	1.094	1.104
-0.010	-0.015	0.000	-0.005	0.000	0.015	0.034	1.758	1.094	1.089	1.089	1.104	1.094	1.099
0.000	-0.020	-0.005	0.000	-0.005	0.010	0.034	1.704	1.099	1.099	1.089	1.108	1.094	1.104
-0.005	-0.015	-0.005	0.000	-0.005	0.010	0.029	1.787	1.108	1.099	1.094	1.113	1.099	1.104
-0.005	-0.005	0.005	0.005	-0.010	0.005	0.034	1.748	1.108	1.108	1.104	1.118	1.104	1.104
0.000	0.000	0.000	0.005	-0.010	-0.020	0.034	1.772	1.104	1.108	1.104	1.118	1.108	1.099
-0.005	0.010	0.000	0.005	-0.005	0.015	0.034	1.777	1.104	1.108	1.108	1.123	1.108	1.108
-0.005	0.020	0.000	0.005	-0.005	-0.015	0.034	1.777	1.104	1.108	1.104	1.118	1.113	1.104
0.005	0.005	0.000	0.000	-0.005	0.005	0.034	1.748	1.099	1.099	1.099	1.118	1.113	1.104
0.005	0.015	0.005	0.000	0.010	0.000	0.034	1.758	1.089	1.094	1.099	1.113	1.113	1.108
0.005	0.029	0.000	0.000	0.010	0.010	0.034	1.758	1.089	1.089	1.094	1.108	1.108	1.104
0.000	-0.005	0.000	-0.005	0.000	0.000	0.029	1.729	1.079	1.074	1.084	1.104	1.099	1.099
-0.005	-0.005	0.005	-0.005	-0.005	0.000	0.034	1.763	1.074	1.074	1.079	1.099	1.094	1.099
-0.005	0.000	-0.005	-0.005	-0.015	0.005	0.034	1.777	1.079	1.074	1.074	1.094	1.089	1.094
0.000	0.000	0.000	-0.010	-0.024	0.000	0.034	1.787	1.084	1.074	1.074	1.094	1.089	1.094
0.010	0.010	0.000	-0.005	-0.015	-0.005	0.034	1.777	1.094	1.079	1.079	1.099	1.094	1.089
0.005	-0.005	0.000	0.000	-0.024	-0.039	0.034	1.768	1.094	1.084	1.079	1.099	1.094	1.084
0.000	0.015	-0.005	-0.005	-0.034	-0.044	0.034	1.768	1.094	1.094	1.089	1.099	1.094	1.089
-0.015	0.010	-0.005	-0.005	-0.034	-0.010	0.029	1.777	1.099	1.094	1.094	1.108	1.099	1.099
-0.010	0.000	0.005	-0.005	-0.015	-0.005	0.029	1.792	1.108	1.099	1.099	1.113	1.108	1.108
-0.005	-0.005	0.000	0.000	0.029	0.015	0.034	1.772	1.108	1.104	1.104	1.118	1.123	1.118
0.000	-0.010	-0.005	0.000	0.029	0.010	0.029	1.777	1.113	1.108	1.104	1.118	1.123	1.113
0.000	-0.015	0.000	0.000	0.005	0.020	0.034	1.724	1.108	1.108	1.108	1.118	1.113	1.118
-0.005	-0.020	-0.005	0.000	0.005	0.000	0.029	1.772	1.104	1.099	1.104	1.123	1.113	1.113
0.000	0.000	0.000	0.000	0.010	-0.010	0.034	1.763	1.099	1.104	1.104	1.118	1.113	1.113
-0.005	0.015	0.000	0.005	0.010	0.020	0.034	1.748	1.099	1.104	1.099	1.118	1.113	1.113
0.000	0.049	0.000	0.000	0.005	0.010	0.034	1.729	1.094	1.108	1.099	1.113	1.108	1.108
-0.010	0.034	0.000	0.005	-0.005	0.000	0.029	1.772	1.084	1.089	1.094	1.113	1.104	1.099
0.005	-0.005	-0.010	0.005	-0.020	-0.005	0.034	1.733	1.079	1.069	1.084	1.108	1.094	1.094
0.005	-0.015	-0.005	0.005	-0.015	0.005	0.034	1.729	1.069	1.064	1.074	1.099	1.099	1.099
-0.005	-0.005	0.000	0.000	-0.005	-0.010	0.034	1.792	1.074	1.074	1.074	1.099	1.099	1.094
0.000	-0.005	-0.005	0.000	0.005	0.010	0.034	1.797	1.084	1.069	1.074	1.099	1.099	1.104
0.000	-0.010	-0.005	-0.005	0.005	0.005	0.029	1.733	1.079	1.074	1.074	1.094	1.099	1.094
-0.010	-0.020	0.000	-0.005	0.015	0.010	0.029	1.758	1.084	1.079	1.079	1.099	1.104	1.104
0.000	-0.015	-0.005	-0.005	0.024	0.005	0.034	1.768	1.094	1.084	1.084	1.099	1.104	1.104
-0.005	-0.010	-0.005	-0.010	0.020	-0.020	0.034	1.772	1.104	1.094	1.084	1.104	1.104	1.094
0.000	0.000	0.000	-0.005	0.005	0.005	0.034	1.753	1.108	1.099	1.094	1.108	1.104	1.108
-0.005	0.005	0.000	-0.005	0.000	0.005	0.034	1.763	1.108	1.108	1.099	1.113	1.104	1.104
-0.005	-0.005	-0.005	-0.005	-0.010	0.005	0.034	1.792	1.108	1.104	1.104	1.118	1.104	1.108
0.000	0.020	-0.005	0.005	-0.010	-0.015	0.034	1.670	1.099	1.113	1.104	1.118	1.104	1.099
-0.005	0.000	0.000	0.000	-0.005	0.015	0.034	1.797	1.099	1.099	1.104	1.118	1.113	1.113
0.000	0.000	0.000	0.000	0.000	-0.005	0.029	1.729	1.094	1.099	1.099	1.118	1.108	1.104
-0.005	0.015	-0.005	0.000	-0.005	-0.005	0.029	1.772	1.089	1.094	1.094	1.113	1.108	1.099
-0.005	0.020	0.000	0.005	-0.015	-0.005	0.034	1.797	1.084	1.089	1.094	1.113	1.104	1.099
-0.010	-0.010	0.000	0.000	-0.015	-0.005	0.034	1.753	1.079	1.074	1.084	1.104	1.099	1.094
0.000	-0.044	0.005	-0.005	-0.010	-0.010	0.034	1.772	1.079	1.060	1.074	1.099	1.094	1.094
0.005	-0.049	0.000	0.000	-0.029	-0.020	0.034	1.733	1.079	1.064	1.064	1.094	1.089	1.089
0.005	-0.020	-0.005	0.000	-0.049	-0.029	0.029	1.782	1.079	1.074	1.069	1.094	1.079	1.084
-0.005	-0.005	-0.010	0.000	-0.078	-0.010	0.034	1.753	1.079	1.079	1.074	1.089	1.074	1.084
0.005	-0.010	0.000	0.000	-0.029	-0.015	0.034	1.772	1.089	1.079	1.079	1.094	1.099	1.089
-0.005	-0.005	0.000	-0.005	0.044	0.015	0.034	1.768	1.089	1.089	1.079	1.099	1.118	1.108
-0.005	0.005	0.005	-0.005	0.024	0.020	0.034	1.753	1.094	1.099	1.089	1.104	1.108	1.108
-0.010	0.005	0.000	-0.005	0.039	0.015	0.034	1.777	1.099	1.099	1.094	1.108	1.113	1.113
-0.010	0.029	0.000	0.005	0.073	0.015	0.029	1.768	1.104	1.108	1.099	1.118	1.123	1.118
0.000	0.000	0.000	0.005	0.054	-0.020	0.029	1.748	1.108	1.104	1.104	1.118	1.113	1.108
0.000	-0.010	0.000	0.010	0.015	0.005	0.029	1.777	1.108	1.104	1.104	1.118	1.108	1.113
-0.010	-0.010	0.000	-0.005	-0.005	0.015	0.034	1.787	1.108	1.104	1.104	1.118	1.099	1.113
0.000	-0.020	0.000	-0.005	-0.024	0.005	0.034	1.738	1.099	1.099	1.099	1.113	1.099	1.104
0.000	-0.015	0.000	-0.010	-0.020	-0.015	0.034	1.768	1.094	1.094	1.099	1.113	1.104	1.099
0.000	0.000	-0.005	-0.010	-0.005	0.000	0.034	1.704	1.084	1.094	1.094	1.108	1.104	1.104
-0.005	0.010	-0.005	-0.005	-0.005	-0.005	0.034	1.782	1.079	1.084	1.089	1.108	1.099	1.099
0.000	0.015	0.000	0.010	-0.005	-0.010	0.034	1.787	1.084	1.084	1.084	1.108	1.099	1.094
0.000	0.005	-0.010	0.020	-0.005	-0.015	0.039	1.782	1.074	1.074	1.079	1.104	1.099	1.094
0.000	0.010	-0.005	0.020	0.010	-0.020	0.034	1.758	1.089	1.079	1.079	1.104	1.104	1.089
0.000	0.005	0.000	0.010	0.024	-0.010	0.034	1.792	1.084	1.074	1.079	1.099	1.099	1.094
-0.005	0.000	0.000	0.000	-0.005	-0.024	0.029	1.792	1.089	1.084	1.079	1.094	1.089	1.089
0.000	-0.015	-0.005	-0.005	-0.020	-0.034	0.034	1.758	1.084	1.079	1.074	1.094	1.089	1.089
0.010	-0.005	0.000	-0.015	-0.015	-0.005	0.034	1.792	1.094	1.094	1.084	1.099	1.094	1.099
-0.005	0.010	0.000	-0.015	-0.039	-0.005	0.034	1.753	1.094	1.099	1.094	1.104	1.089	1.099
0.000	-0.005	0.005	-0.010	-0.049	-0.005	0.034	1.743	1.094	1.099	1.094	1.108	1.094	1.099
-0.005	-0.005	-0.005	-0.010	-0.039	-0.005	0.029	1.748	1.099	1.099	1.099	1.113	1.104	1.104
-0.010	0.000	0.000	-0.015	-0.034	-0.020	0.034	1.792	1.104	1.099	1.099	1.118	1.104	1.099
0.005	-0.010	0.000	-0.005	-0.024	0.005	0.029	1.699	1.094	1.099	1.099	1.118	1.113	1.108
0.005	0.000	0.000	0.000	-0.015	-0.024	0.034	1.772	1.099	1.104	1.099	1.123	1.118	1.108
0.005	0.020	0.000	0.005	0.078	-0.010	0.034	1.733	1.094	1.104	1.104	1.123	1.143	1.118
0.005	0.005	-0.005	0.005	0.083	0.034	0.039	1.753	1.089	1.094	1.099	1.118	1.133	1.133
-0.005	0.005	0.000	0.010	0.015	0.029	0.034	1.733	1.084	1.084	1.089	1.113	1.108	1.118
0.005	0.005	-0.005	0.005	0.015	0.029	0.034	1.792	1.089	1.084	1.084	1.108	1.104	1.108
-0.005	0.015	0.000	-0.005	0.020	0.010	0.034	1.748	1.079	1.079	1.079	1.099	1.099	1.104
0.005	0.000	0.000	0.000	0.015	0.010	0.034	1.792	1.084	1.074	1.074	1.094	1.094	1.099
-0.005	-0.005	-0.005	-0.005	0.029	0.000	0.034	1.763	1.079	1.069	1.069	1.094	1.094	1.094
0.000	-0.010	0.000	-0.005	0.039	0.000	0.029	1.772	1.089	1.074	1.074	1.094	1.094	1.094
-0.005	-0.010	-0.005	0.000	0.034	-0.015	0.034	1.748	1.084	1.074	1.074	1.094	1.094	1.094
