0.029	0.005	0.005	0.000	0.010	0.010	0.044	2.671	4.756	2.759	2.334	1.909	1.689	1.836
0.000	0.010	-0.005	0.000	0.020	0.000	0.039	2.705	4.023	3.130	2.549	2.085	1.797	1.821
-0.020	0.005	0.000	0.010	0.000	-0.005	0.044	2.695	3.481	3.247	2.739	2.271	1.914	1.841
-0.073	0.005	0.000	0.005	-0.010	-0.034	0.039	2.671	3.091	3.218	2.876	2.441	2.051	1.885
-0.078	0.010	0.000	0.000	0.000	-0.015	0.044	2.671	2.808	3.120	2.949	2.583	2.192	1.978
-0.039	0.000	0.005	0.005	-0.005	0.000	0.044	2.676	2.622	2.983	2.969	2.695	2.329	2.075
-0.010	0.000	0.005	0.005	-0.020	-0.005	0.044	2.671	2.490	2.852	2.939	2.773	2.446	2.168
-0.005	0.000	0.005	0.005	-0.010	0.015	0.044	2.686	2.388	2.729	2.886	2.808	2.549	2.280
0.015	0.000	0.005	0.005	-0.005	0.024	0.044	2.695	2.329	2.622	2.817	2.812	2.617	2.368
0.020	0.000	0.000	0.000	0.005	0.024	0.044	2.676	2.280	2.524	2.739	2.798	2.671	2.451
0.010	-0.005	0.000	-0.005	0.020	0.020	0.039	2.676	2.246	2.446	2.651	2.764	2.700	2.515
0.000	0.000	-0.005	0.000	0.049	0.015	0.044	2.686	2.231	2.383	2.578	2.720	2.710	2.568
-0.005	0.000	0.000	0.000	0.044	0.005	0.039	2.681	2.227	2.339	2.510	2.666	2.695	2.598
-0.010	0.005	0.000	0.005	0.015	0.000	0.039	2.661	2.222	2.310	2.456	2.612	2.661	2.612
0.000	-0.005	0.005	0.015	-0.005	-0.005	0.044	2.793	2.246	2.290	2.412	2.563	2.632	2.617
0.010	-0.015	0.005	0.005	-0.005	0.010	0.039	2.637	2.251	2.280	2.373	2.515	2.598	2.617
0.010	-0.015	0.000	0.000	-0.005	0.000	0.044	2.656	2.256	2.275	2.349	2.476	2.563	2.603
0.024	-0.005	0.000	0.010	-0.010	0.000	0.044	2.651	2.266	2.285	2.329	2.446	2.534	2.588
0.015	0.005	0.000	0.005	-0.005	0.000	0.044	2.695	2.271	2.290	2.324	2.417	2.505	2.568
-0.005	0.015	0.005	0.000	-0.005	0.000	0.039	2.715	2.275	2.290	2.319	2.397	2.476	2.544
-0.020	0.015	0.000	0.000	0.000	0.005	0.044	2.705	2.275	2.290	2.310	2.378	2.456	2.524
-0.010	0.010	0.005	0.000	-0.005	-0.015	0.044	2.725	2.275	2.290	2.305	2.363	2.427	2.495
-0.005	0.000	0.005	0.000	-0.010	-0.034	0.044	2.681	2.275	2.285	2.305	2.354	2.402	2.466
0.010	-0.005	0.005	0.000	0.000	0.000	0.039	2.646	2.266	2.280	2.295	2.344	2.388	2.451
0.015	-0.005	0.005	0.000	0.005	0.000	0.044	2.739	2.266	2.275	2.290	2.334	2.373	2.432
0.010	0.000	0.000	0.000	0.000	0.015	0.039	2.725	2.261	2.271	2.280	2.319	2.354	2.412
0.005	0.000	0.000	-0.005	-0.010	0.005	0.044	2.710	2.246	2.266	2.271	2.310	2.334	2.383
0.000	0.000	0.000	-0.005	0.010	0.000	0.044	2.720	2.236	2.251	2.266	2.300	2.324	2.368
-0.005	0.010	0.005	0.000	0.010	0.000	0.039	2.656	2.236	2.246	2.256	2.290	2.310	2.349
0.005	0.000	0.000	-0.005	0.005	0.005	0.044	2.661	2.227	2.236	2.246	2.280	2.300	2.334
0.015	0.005	0.000	0.000	-0.005	0.005	0.044	2.686	2.222	2.231	2.241	2.275	2.285	2.319
0.015	-0.010	0.005	-0.005	-0.024	-0.010	0.044	2.705	2.217	2.227	2.236	2.271	2.275	2.305
0.000	-0.010	0.000	-0.005	-0.010	0.015	0.044	2.700	2.212	2.222	2.231	2.266	2.275	2.305
0.005	-0.005	0.000	0.000	0.015	0.015	0.039	2.695	2.212	2.227	2.231	2.266	2.285	2.300
0.000	-0.005	0.000	0.005	0.024	-0.020	0.039	2.686	2.212	2.227	2.236	2.266	2.280	2.290
-0.005	0.000	0.000	0.005	-0.005	0.010	0.039	2.686	2.217	2.227	2.231	2.261	2.271	2.290
0.000	0.000	0.005	0.010	-0.015	0.015	0.044	2.695	2.217	2.231	2.236	2.266	2.266	2.290
0.000	0.000	0.000	0.000	-0.005	-0.010	0.039	2.695	2.212	2.231	2.236	2.261	2.266	2.275
-0.005	0.005	0.000	0.000	-0.005	0.005	0.044	2.681	2.202	2.227	2.231	2.256	2.266	2.280
0.000	0.020	0.000	-0.005	-0.005	0.010	0.044	2.666	2.197	2.222	2.227	2.256	2.261	2.280
-0.005	0.005	0.005	0.000	0.000	0.015	0.044	2.681	2.192	2.212	2.222	2.256	2.261	2.275
0.005	0.005	-0.005	0.005	0.029	-0.015	0.044	2.676	2.183	2.202	2.217	2.246	2.261	2.261
0.010	-0.015	0.000	0.005	0.054	0.000	0.044	2.700	2.178	2.187	2.202	2.241	2.256	2.266
0.005	-0.005	0.000	0.000	0.015	0.005	0.044	2.681	2.168	2.183	2.192	2.227	2.236	2.256
0.000	0.000	0.000	0.010	-0.005	0.015	0.044	2.686	2.158	2.173	2.187	2.222	2.227	2.246
-0.005	-0.005	0.000	0.005	-0.005	-0.015	0.039	2.671	2.153	2.158	2.178	2.212	2.217	2.227
0.034	0.005	0.000	0.010	0.005	0.010	0.044	2.695	2.158	2.163	2.168	2.202	2.212	2.227
0.020	-0.005	0.000	0.005	0.005	0.010	0.044	2.666	2.148	2.158	2.163	2.192	2.207	2.222
0.005	0.000	0.000	0.005	-0.010	-0.005	0.039	2.681	2.139	2.153	2.163	2.192	2.192	2.212
-0.024	0.005	0.000	0.005	-0.005	-0.010	0.044	2.676	2.129	2.148	2.158	2.187	2.192	2.202
-0.034	0.005	0.005	0.005	0.000	-0.015	0.039	2.686	2.134	2.148	2.158	2.187	2.192	2.202
-0.029	0.010	0.010	0.000	0.000	-0.020	0.039	2.686	2.139	2.148	2.158	2.187	2.192	2.202
-0.020	0.010	0.005	0.000	-0.005	0.010	0.044	2.690	2.144	2.148	2.158	2.187	2.192	2.207
-0.005	0.000	0.005	-0.005	-0.005	-0.015	0.044	2.671	2.153	2.153	2.158	2.183	2.192	2.197
0.010	0.015	0.000	-0.010	0.000	0.005	0.039	2.793	2.148	2.163	2.158	2.183	2.187	2.202
0.020	0.015	0.000	-0.005	-0.015	0.010	0.044	2.783	2.153	2.158	2.158	2.183	2.183	2.202
0.010	0.000	0.000	-0.005	-0.005	-0.005	0.039	2.656	2.139	2.148	2.153	2.178	2.183	2.187
0.005	0.005	0.005	-0.005	-0.005	0.010	0.039	2.642	2.129	2.148	2.153	2.178	2.178	2.187
0.005	-0.005	0.005	0.000	-0.010	0.005	0.044	2.690	2.124	2.134	2.144	2.173	2.178	2.187
0.015	-0.005	0.000	0.010	0.000	0.020	0.039	2.637	2.109	2.129	2.134	2.163	2.173	2.183
0.039	0.005	0.005	0.010	0.015	0.010	0.044	2.666	2.109	2.124	2.129	2.158	2.168	2.178
0.020	0.005	0.005	-0.005	-0.015	0.015	0.039	2.754	2.100	2.109	2.124	2.148	2.148	2.168
-0.005	0.000	0.005	0.000	0.000	0.015	0.039	2.690	2.085	2.100	2.109	2.139	2.148	2.163
-0.005	0.015	0.000	0.000	0.015	0.010	0.044	2.749	2.090	2.100	2.109	2.139	2.144	2.153
-0.020	0.005	0.000	0.005	0.015	0.005	0.044	2.754	2.090	2.095	2.104	2.134	2.139	2.148
-0.029	0.000	0.000	0.010	0.015	0.020	0.044	2.632	2.085	2.090	2.104	2.129	2.134	2.148
-0.034	0.000	0.005	0.010	-0.005	0.010	0.044	2.651	2.075	2.085	2.100	2.129	2.129	2.144
-0.034	-0.005	0.000	0.000	-0.020	0.000	0.044	2.715	2.085	2.090	2.095	2.124	2.129	2.139
-0.029	0.010	0.000	0.005	-0.029	-0.015	0.039	2.720	2.095	2.100	2.100	2.124	2.124	2.134
-0.010	0.000	0.005	0.010	-0.010	0.000	0.044	2.646	2.095	2.100	2.104	2.129	2.134	2.139
0.020	0.000	0.000	0.005	0.000	-0.015	0.039	2.666	2.100	2.104	2.104	2.124	2.134	2.139
0.054	0.024	0.000	0.005	0.010	-0.020	0.044	2.686	2.109	2.114	2.109	2.129	2.134	2.139
0.029	0.015	0.005	-0.005	0.015	-0.005	0.039	2.700	2.095	2.109	2.109	2.124	2.134	2.139
0.005	0.010	0.000	0.000	0.034	0.015	0.044	2.700	2.080	2.100	2.104	2.124	2.134	2.144
-0.020	0.005	0.000	0.000	0.034	0.005	0.039	2.671	2.070	2.085	2.100	2.124	2.134	2.134
-0.015	0.005	0.005	0.000	0.039	-0.005	0.044	2.695	2.061	2.075	2.090	2.114	2.124	2.129
0.015	0.010	0.005	-0.005	-0.005	-0.024	0.044	2.686	2.075	2.075	2.085	2.109	2.104	2.114
0.049	-0.015	0.005	0.005	-0.015	-0.024	0.044	2.690	2.075	2.065	2.075	2.100	2.095	2.109
0.068	-0.005	-0.005	0.010	-0.029	0.000	0.044	2.700	2.065	2.070	2.070	2.100	2.090	2.104
0.049	0.000	0.000	0.005	-0.015	0.005	0.044	2.666	2.046	2.056	2.065	2.090	2.095	2.104
0.010	0.000	0.000	0.005	0.020	0.005	0.044	2.686	2.031	2.051	2.061	2.085	2.100	2.100
-0.054	-0.005	0.000	0.000	0.029	0.000	0.039	2.705	2.021	2.036	2.056	2.080	2.095	2.100
-0.054	0.005	0.005	-0.005	0.015	0.015	0.044	2.681	2.026	2.041	2.046	2.080	2.090	2.100
-0.054	-0.005	0.005	0.000	-0.020	-0.015	0.044	2.676	2.026	2.036	2.046	2.075	2.075	2.085
-0.049	0.005	0.005	-0.005	-0.005	0.010	0.039	2.710	2.041	2.046	2.046	2.075	2.080	2.090
-0.059	-0.010	0.005	-0.005	0.020	0.005	0.039	2.700	2.046	2.046	2.046	2.075	2.090	2.090
-0.039	0.000	0.005	-0.005	0.010	0.015	0.044	2.681	2.056	2.051	2.051	2.075	2.085	2.095
-0.020	-0.005	0.005	0.000	0.020	-0.015	0.044	2.710	2.065	2.061	2.056	2.080	2.090	2.085
-0.010	-0.005	0.005	0.010	0.015	0.010	0.044	2.666	2.065	2.065	2.061	2.085	2.085	2.095
0.020	0.000	0.000	0.005	-0.005	0.005	0.039	2.681	2.061	2.061	2.061	2.080	2.075	2.085
0.029	-0.005	0.005	0.005	-0.034	0.015	0.044	2.695	2.056	2.061	2.061	2.080	2.065	2.085
0.039	0.005	-0.005	0.000	-0.015	-0.005	0.044	2.681	2.046	2.056	2.061	2.075	2.070	2.075
0.034	-0.005	0.000	-0.005	0.005	-0.010	0.039	2.700	2.036	2.046	2.051	2.070	2.070	2.070
0.024	-0.005	0.005	0.000	0.000	0.015	0.039	2.671	2.021	2.036	2.046	2.065	2.065	2.075
0.039	0.005	0.010	-0.005	0.024	0.005	0.039	2.793	2.026	2.031	2.036	2.061	2.065	2.070
0.024	0.000	-0.005	-0.005	0.010	-0.029	0.039	2.642	2.012	2.026	2.026	2.056	2.056	2.051
0.010	0.005	0.000	0.000	0.024	-0.005	0.039	2.651	2.002	2.017	2.026	2.051	2.056	2.061
0.005	0.000	0.000	0.000	0.005	0.010	0.044	2.637	1.997	2.007	2.017	2.046	2.046	2.061
-0.005	0.000	0.000	0.000	-0.010	-0.005	0.044	2.686	1.997	2.002	2.012	2.041	2.041	2.056
0.000	0.000	0.000	0.000	-0.005	0.015	0.044	2.715	2.012	2.007	2.012	2.041	2.041	2.051
-0.005	0.005	0.000	0.000	0.000	-0.010	0.039	2.666	2.012	2.012	2.012	2.041	2.046	2.046
0.005	-0.005	0.000	0.005	0.005	0.010	0.044	2.754	2.031	2.021	2.017	2.041	2.046	2.056
0.005	0.000	0.000	0.005	-0.005	-0.005	0.044	2.695	2.026	2.026	2.021	2.041	2.041	2.046
0.005	0.005	0.005	0.000	-0.010	0.005	0.044	2.632	2.026	2.031	2.026	2.046	2.046	2.051
0.010	-0.005	0.000	0.000	-0.015	-0.005	0.039	2.754	2.031	2.031	2.026	2.046	2.041	2.046
0.015	-0.005	0.005	0.005	-0.005	-0.010	0.044	2.632	2.021	2.031	2.026	2.051	2.046	2.051
-0.005	-0.005	0.000	-0.005	-0.005	-0.020	0.039	2.666	2.026	2.026	2.026	2.046	2.046	2.041
0.010	0.000	0.005	-0.005	-0.010	-0.015	0.044	2.715	2.021	2.026	2.026	2.041	2.041	2.046
0.005	0.005	0.005	-0.005	-0.005	-0.005	0.039	2.632	2.012	2.021	2.026	2.041	2.036	2.046
0.034	0.010	0.000	0.010	0.010	-0.015	0.044	2.651	2.017	2.017	2.021	2.046	2.036	2.036
0.039	0.005	0.000	0.005	0.015	0.024	0.039	2.671	2.002	2.007	2.017	2.036	2.036	2.051
0.024	0.000	0.000	0.015	0.000	0.020	0.044	2.720	1.992	1.997	2.007	2.036	2.026	2.036
-0.005	0.005	0.000	0.020	0.000	-0.005	0.044	2.666	1.973	1.992	1.997	2.026	2.026	2.026
-0.010	0.000	0.000	0.010	0.005	0.020	0.039	2.700	1.973	1.978	1.992	2.017	2.021	2.026
-0.024	0.010	0.000	0.005	0.015	0.020	0.044	2.705	1.973	1.978	1.987	2.017	2.021	2.026
-0.024	0.015	-0.005	0.000	0.015	0.005	0.039	2.671	1.978	1.982	1.987	2.012	2.017	2.026
-0.020	0.005	0.005	-0.005	0.000	0.000	0.044	2.710	1.987	1.982	1.987	2.012	2.012	2.021
-0.015	0.005	0.010	-0.005	-0.005	-0.024	0.039	2.681	1.992	1.982	1.987	2.012	2.007	2.007
0.015	0.005	0.010	-0.005	-0.010	-0.005	0.044	2.681	2.002	1.997	1.992	2.012	2.012	2.017
0.020	-0.005	0.000	-0.005	-0.010	0.000	0.044	2.671	2.002	1.997	1.992	2.012	2.012	2.021
0.020	-0.010	0.005	-0.005	0.000	0.015	0.044	2.676	2.002	2.007	2.002	2.021	2.021	2.026
0.000	-0.005	0.000	0.000	0.000	0.010	0.044	2.705	1.997	2.002	2.002	2.021	2.017	2.026
-0.005	-0.015	0.000	0.000	0.000	0.000	0.044	2.676	1.992	1.997	2.002	2.026	2.021	2.021
-0.020	0.000	0.005	-0.005	0.015	0.010	0.044	2.710	1.987	1.997	2.002	2.021	2.021	2.021
-0.044	0.000	0.005	-0.005	0.024	0.005	0.039	2.715	1.978	1.987	1.997	2.017	2.021	2.021
-0.015	-0.005	0.005	0.000	0.005	0.010	0.044	2.681	1.978	1.982	1.987	2.012	2.012	2.017
0.000	-0.005	0.005	0.005	0.000	0.005	0.044	2.700	1.978	1.978	1.982	2.007	2.007	2.012
0.010	0.005	0.000	0.000	0.020	0.005	0.044	2.690	1.978	1.978	1.978	2.002	2.007	2.007
0.005	0.005	0.000	0.000	0.049	-0.020	0.039	2.661	1.968	1.973	1.973	1.997	2.007	2.002
0.015	0.010	0.000	0.000	0.024	-0.020	0.044	2.700	1.968	1.968	1.968	1.987	1.987	1.992
0.005	0.010	0.005	0.000	-0.029	-0.010	0.044	2.676	1.963	1.968	1.968	1.987	1.978	1.987
0.005	-0.005	0.005	0.000	-0.010	-0.034	0.044	2.690	1.963	1.963	1.968	1.987	1.982	1.982
0.005	0.010	0.000	0.005	-0.015	0.010	0.039	2.695	1.963	1.968	1.968	1.987	1.982	1.997
0.005	0.005	0.000	-0.005	-0.020	0.005	0.039	2.676	1.968	1.968	1.963	1.987	1.982	1.992
0.010	0.000	0.000	0.000	-0.015	0.015	0.044	2.788	1.987	1.973	1.968	1.992	1.982	1.992
0.005	0.005	0.000	-0.005	-0.005	0.010	0.039	2.651	2.002	1.982	1.973	1.992	1.992	1.997
0.010	0.005	0.000	0.005	0.015	0.010	0.039	2.661	1.992	1.992	1.982	1.997	2.002	1.997
-0.024	-0.010	0.000	0.000	0.015	0.005	0.044	2.661	1.982	1.982	1.982	2.002	2.002	1.997
-0.010	-0.005	0.000	0.005	0.015	-0.005	0.039	2.690	1.987	1.992	1.987	2.002	2.002	1.997
-0.015	0.000	0.005	0.005	0.005	0.005	0.039	2.725	1.982	1.992	1.987	2.007	2.002	2.002
0.000	0.005	-0.005	0.005	0.005	0.000	0.044	2.676	1.978	1.987	1.987	2.007	1.997	2.002
0.015	0.005	0.000	-0.005	0.000	0.010	0.044	2.725	1.982	1.982	1.982	2.002	1.997	1.997
0.020	0.005	0.005	-0.005	0.000	-0.010	0.039	2.695	1.973	1.978	1.982	1.997	1.992	1.992
0.029	-0.005	0.000	-0.005	0.010	-0.010	0.044	2.651	1.958	1.968	1.973	1.992	1.992	1.992
0.044	0.005	0.005	0.005	-0.005	-0.024	0.044	2.754	1.968	1.968	1.968	1.992	1.982	1.982
0.020	0.000	0.005	-0.005	-0.005	0.005	0.044	2.632	1.943	1.958	1.963	1.982	1.982	1.987
0.010	0.005	-0.005	0.000	0.000	-0.005	0.044	2.749	1.943	1.948	1.958	1.978	1.982	1.978
0.000	0.000	0.000	0.010	0.015	-0.015	0.044	2.725	1.938	1.943	1.953	1.978	1.982	1.978
-0.020	0.000	-0.005	0.005	0.010	0.015	0.039	2.651	1.938	1.938	1.943	1.973	1.978	1.987
-0.029	0.010	0.000	0.005	0.010	0.015	0.039	2.671	1.943	1.943	1.948	1.973	1.973	1.982
-0.034	0.005	0.005	0.005	0.000	0.005	0.039	2.676	1.948	1.948	1.948	1.973	1.973	1.978
-0.020	0.005	0.000	0.010	-0.005	0.015	0.039	2.715	1.963	1.953	1.953	1.978	1.978	1.978
0.020	0.005	0.000	0.005	-0.010	0.020	0.044	2.705	1.978	1.968	1.958	1.978	1.978	1.982
0.029	0.000	0.000	0.005	0.000	0.005	0.039	2.705	1.978	1.968	1.963	1.982	1.978	1.978
0.005	0.015	0.000	0.010	0.000	0.015	0.044	2.671	1.973	1.978	1.968	1.987	1.982	1.987
0.024	0.010	0.000	0.005	-0.005	0.010	0.039	2.681	1.978	1.978	1.973	1.987	1.978	1.987
0.000	0.000	0.000	0.010	-0.005	0.010	0.044	2.671	1.958	1.968	1.973	1.992	1.982	1.982
-0.034	-0.015	0.000	0.005	0.000	0.005	0.039	2.700	1.948	1.953	1.963	1.987	1.982	1.982
-0.024	0.000	0.000	0.000	-0.010	0.020	0.039	2.666	1.943	1.948	1.958	1.982	1.978	1.982
-0.039	0.010	0.000	0.000	-0.005	0.005	0.044	2.695	1.938	1.948	1.953	1.978	1.973	1.973
-0.034	0.015	0.000	0.000	-0.005	-0.005	0.044	2.666	1.934	1.938	1.948	1.968	1.968	1.968
-0.024	0.005	0.000	0.000	0.000	-0.005	0.044	2.671	1.929	1.934	1.943	1.968	1.968	1.968
-0.024	0.005	0.000	0.000	0.005	-0.039	0.044	2.676	1.929	1.929	1.934	1.958	1.958	1.953
0.005	0.005	0.005	0.000	0.005	-0.010	0.044	2.705	1.938	1.929	1.934	1.953	1.958	1.958
0.010	0.000	0.005	-0.005	0.020	0.000	0.039	2.686	1.938	1.929	1.929	1.953	1.958	1.963
0.015	0.010	0.000	0.000	0.005	0.010	0.044	2.686	1.943	1.934	1.929	1.953	1.953	1.963
0.015	-0.005	0.005	-0.005	0.005	0.005	0.039	2.671	1.943	1.934	1.929	1.953	1.953	1.958
0.020	-0.005	0.005	0.000	0.010	0.010	0.044	2.700	1.948	1.938	1.938	1.958	1.958	1.958
0.029	0.005	0.000	0.000	0.005	-0.015	0.039	2.690	1.953	1.948	1.943	1.958	1.958	1.958
0.020	0.005	0.005	0.005	0.034	0.015	0.044	2.700	1.958	1.953	1.948	1.963	1.968	1.973
0.005	0.000	0.005	0.000	0.010	0.005	0.044	2.676	1.958	1.953	1.953	1.968	1.963	1.968
0.005	0.005	0.010	0.005	-0.029	-0.020	0.044	2.690	1.958	1.958	1.953	1.973	1.953	1.958
0.059	0.005	0.005	0.005	-0.039	-0.020	0.039	2.686	1.968	1.963	1.953	1.973	1.958	1.958
0.044	-0.005	0.005	0.010	-0.015	0.020	0.044	2.646	1.943	1.958	1.953	1.973	1.968	1.968
0.020	-0.005	0.000	-0.005	0.024	0.010	0.044	2.783	1.943	1.953	1.953	1.973	1.978	1.968
-0.010	0.000	0.000	0.000	0.034	-0.010	0.039	2.651	1.924	1.943	1.948	1.968	1.973	1.963
-0.024	0.000	0.005	0.000	0.020	0.000	0.044	2.642	1.914	1.929	1.938	1.963	1.963	1.963
-0.024	-0.005	0.000	0.000	0.015	0.024	0.044	2.642	1.909	1.919	1.929	1.953	1.953	1.968
-0.020	0.000	0.005	0.000	0.015	0.015	0.044	2.690	1.914	1.914	1.924	1.948	1.953	1.958
-0.005	0.000	0.000	0.000	0.000	0.005	0.044	2.651	1.919	1.909	1.914	1.943	1.938	1.948
0.000	-0.005	0.000	0.000	-0.020	0.015	0.044	2.700	1.924	1.914	1.914	1.938	1.934	1.943
0.005	0.000	0.000	0.000	-0.005	0.010	0.044	2.754	1.934	1.919	1.914	1.938	1.938	1.948
0.024	0.005	0.005	0.005	0.000	0.010	0.044	2.700	1.943	1.929	1.919	1.938	1.938	1.943
0.039	0.010	0.000	0.005	-0.005	0.010	0.039	2.739	1.948	1.934	1.924	1.943	1.943	1.943
0.020	0.015	-0.010	0.010	0.005	0.000	0.044	2.754	1.943	1.938	1.934	1.943	1.943	1.948
-0.005	0.005	0.000	0.000	-0.010	0.005	0.039	2.632	1.934	1.938	1.938	1.948	1.943	1.943
-0.020	-0.005	0.000	0.005	-0.005	-0.010	0.044	2.729	1.943	1.938	1.938	1.958	1.948	1.943
-0.034	0.000	0.005	0.005	0.000	-0.020	0.039	2.710	1.943	1.943	1.943	1.963	1.953	1.943
-0.034	0.020	0.000	0.000	-0.005	-0.034	0.039	2.637	1.953	1.948	1.943	1.963	1.953	1.948
0.000	0.000	0.000	0.005	-0.005	0.015	0.044	2.681	1.958	1.948	1.948	1.963	1.958	1.963
0.024	-0.005	0.000	0.005	0.000	-0.005	0.044	2.671	1.953	1.948	1.948	1.963	1.958	1.953
0.020	0.010	0.005	-0.005	0.000	0.015	0.044	2.705	1.948	1.953	1.943	1.958	1.958	1.963
0.015	-0.005	0.000	0.005	0.000	0.020	0.044	2.661	1.929	1.938	1.938	1.958	1.953	1.958
-0.005	0.010	0.005	0.005	0.005	0.015	0.039	2.705	1.919	1.929	1.934	1.958	1.953	1.953
-0.015	0.000	0.000	0.010	0.000	0.010	0.044	2.666	1.909	1.919	1.929	1.953	1.948	1.948
-0.024	0.000	0.005	0.015	0.005	0.005	0.039	2.695	1.904	1.909	1.919	1.943	1.943	1.943
-0.029	0.000	0.000	0.015	0.010	0.005	0.044	2.705	1.904	1.904	1.914	1.938	1.938	1.938
-0.015	-0.005	0.000	0.005	0.010	-0.015	0.039	2.661	1.904	1.904	1.909	1.929	1.938	1.934
-0.010	-0.005	0.000	-0.005	0.000	0.000	0.039	2.705	1.914	1.904	1.909	1.934	1.934	1.934
0.005	0.000	0.000	-0.005	0.000	-0.005	0.044	2.705	1.929	1.914	1.909	1.934	1.929	1.938
0.000	0.000	-0.005	-0.005	-0.005	0.000	0.044	2.666	1.929	1.919	1.914	1.934	1.929	1.938
0.010	-0.005	0.000	-0.005	0.005	-0.005	0.044	2.686	1.934	1.924	1.919	1.938	1.934	1.938
0.024	-0.005	0.005	-0.005	0.000	-0.005	0.044	2.695	1.938	1.934	1.924	1.943	1.938	1.938
0.034	0.000	0.005	-0.005	0.000	0.005	0.044	2.681	1.948	1.938	1.934	1.948	1.938	1.948
0.024	0.000	0.005	0.000	-0.005	0.005	0.044	2.686	1.943	1.943	1.938	1.953	1.948	1.943
0.020	0.005	0.000	-0.005	0.000	0.005	0.039	2.700	1.938	1.943	1.938	1.953	1.948	1.943
0.015	0.005	0.005	0.000	-0.005	0.005	0.044	2.686	1.934	1.938	1.938	1.958	1.948	1.948
0.000	-0.005	0.005	0.000	0.000	-0.010	0.044	2.700	1.929	1.934	1.934	1.953	1.948	1.943
0.005	0.005	0.005	0.000	0.010	0.005	0.044	2.676	1.919	1.929	1.934	1.953	1.948	1.948
-0.010	-0.005	0.000	-0.005	0.005	0.000	0.039	2.710	1.914	1.919	1.924	1.948	1.943	1.943
-0.010	-0.005	0.000	0.005	0.005	0.010	0.039	2.676	1.909	1.914	1.919	1.943	1.938	1.943
-0.015	0.000	0.000	0.005	0.000	-0.015	0.044	2.681	1.904	1.909	1.914	1.938	1.934	1.929
-0.010	0.005	0.000	0.000	0.000	0.015	0.044	2.695	1.904	1.899	1.904	1.929	1.929	1.934
0.005	-0.005	0.005	-0.005	0.000	-0.005	0.044	2.656	1.904	1.899	1.904	1.924	1.929	1.929
-0.010	0.000	0.000	-0.005	0.000	0.005	0.044	2.798	1.899	1.899	1.899	1.919	1.924	1.929
-0.005	0.000	0.000	0.000	0.005	0.005	0.039	2.637	1.914	1.899	1.904	1.924	1.924	1.929
0.000	0.005	0.000	0.000	0.000	0.010	0.044	2.656	1.919	1.904	1.904	1.924	1.924	1.924
-0.005	0.000	0.000	0.005	0.000	0.000	0.044	2.646	1.924	1.914	1.909	1.934	1.924	1.929
-0.029	0.005	0.000	0.010	0.005	0.000	0.039	2.695	1.924	1.919	1.914	1.934	1.929	1.929
-0.015	-0.005	0.000	0.005	-0.005	0.005	0.044	2.725	1.934	1.929	1.919	1.934	1.929	1.929
0.024	0.010	0.005	0.010	0.005	0.000	0.044	2.690	1.948	1.938	1.929	1.943	1.938	1.934
0.029	0.000	0.005	0.005	0.005	0.005	0.039	2.725	1.948	1.938	1.934	1.948	1.938	1.938
0.029	-0.005	0.010	0.015	0.005	0.005	0.044	2.710	1.948	1.943	1.934	1.953	1.943	1.943
0.039	-0.005	0.000	0.005	0.000	-0.029	0.039	2.622	1.938	1.938	1.934	1.948	1.938	1.934
0.034	0.010	0.000	0.010	0.005	0.010	0.044	2.720	1.934	1.938	1.934	1.953	1.948	1.943
0.015	-0.005	0.000	0.000	0.000	0.010	0.039	2.632	1.909	1.924	1.929	1.943	1.938	1.938
-0.010	-0.005	0.000	0.005	0.000	-0.015	0.044	2.749	1.904	1.914	1.924	1.938	1.934	1.929
-0.020	0.000	0.000	0.005	0.000	0.010	0.044	2.725	1.890	1.904	1.914	1.934	1.934	1.934
0.005	0.005	0.005	0.000	0.000	0.005	0.039	2.661	1.895	1.899	1.909	1.929	1.929	1.934
0.010	0.000	0.005	-0.005	0.005	-0.024	0.044	2.676	1.895	1.895	1.904	1.924	1.924	1.919
-0.005	0.000	0.000	-0.005	0.005	-0.015	0.039	2.705	1.890	1.890	1.895	1.919	1.919	1.919
-0.029	0.000	0.000	-0.005	0.005	0.015	0.044	2.720	1.895	1.890	1.895	1.919	1.919	1.929
-0.054	0.015	-0.005	0.000	-0.005	0.015	0.044	2.710	1.890	1.890	1.890	1.919	1.914	1.929
-0.059	0.000	0.005	0.000	0.000	0.010	0.044	2.720	1.904	1.899	1.895	1.919	1.919	1.924
-0.054	0.020	0.005	0.010	-0.005	0.005	0.044	2.686	1.914	1.909	1.899	1.924	1.919	1.924
-0.034	0.015	0.005	0.015	0.000	0.000	0.044	2.700	1.929	1.919	1.909	1.929	1.924	1.924
-0.010	0.015	0.005	0.015	0.005	0.005	0.044	2.666	1.934	1.924	1.914	1.934	1.929	1.929
0.010	0.005	0.000	0.005	0.005	0.000	0.044	2.690	1.943	1.929	1.919	1.934	1.929	1.929
0.024	0.005	0.000	0.010	0.005	0.005	0.039	2.695	1.938	1.934	1.924	1.938	1.934	1.934
0.034	0.000	0.000	0.010	0.005	0.010	0.044	2.686	1.938	1.934	1.924	1.943	1.934	1.934
0.029	0.005	0.000	0.005	0.000	0.010	0.039	2.681	1.934	1.934	1.924	1.938	1.934	1.934
0.049	0.000	0.000	-0.005	0.000	0.005	0.044	2.695	1.929	1.929	1.929	1.938	1.929	1.934
0.044	-0.005	0.005	-0.005	0.005	-0.020	0.044	2.705	1.919	1.924	1.924	1.934	1.929	1.919
0.068	-0.005	0.005	-0.010	-0.005	-0.010	0.039	2.681	1.919	1.919	1.919	1.929	1.924	1.919
0.044	0.005	0.000	-0.005	0.000	0.024	0.044	2.676	1.899	1.909	1.914	1.934	1.929	1.929
0.000	-0.005	-0.005	0.000	-0.005	0.024	0.044	2.700	1.880	1.895	1.904	1.924	1.919	1.924
-0.034	0.000	0.005	0.000	0.000	-0.005	0.044	2.710	1.880	1.890	1.899	1.924	1.919	1.914
-0.034	0.005	0.000	0.005	0.005	0.015	0.044	2.671	1.885	1.885	1.895	1.919	1.919	1.919
-0.034	0.000	-0.005	-0.005	0.005	0.005	0.039	2.686	1.890	1.885	1.890	1.914	1.914	1.909
0.000	0.005	0.000	0.005	0.000	0.000	0.044	2.671	1.904	1.895	1.895	1.919	1.914	1.919
-0.005	0.005	0.000	0.000	0.000	0.020	0.044	2.681	1.909	1.899	1.895	1.914	1.919	1.919
-0.015	0.010	0.000	0.000	0.010	0.015	0.044	2.695	1.909	1.904	1.904	1.924	1.924	1.924
-0.020	0.010	-0.005	0.000	0.005	0.010	0.039	2.700	1.914	1.909	1.904	1.924	1.924	1.924
-0.024	0.000	0.005	0.005	0.005	0.005	0.039	2.671	1.914	1.914	1.909	1.929	1.924	1.924
-0.020	-0.005	0.000	0.000	0.000	0.005	0.039	2.793	1.929	1.914	1.909	1.934	1.924	1.924
-0.015	0.000	0.000	0.005	0.005	-0.005	0.039	2.642	1.924	1.924	1.919	1.934	1.929	1.929
0.000	-0.005	0.000	0.000	0.005	0.015	0.044	2.656	1.924	1.924	1.919	1.934	1.929	1.929
0.010	0.005	0.010	-0.005	0.005	-0.015	0.039	2.651	1.919	1.919	1.919	1.934	1.929	1.919
0.015	-0.005	0.000	0.005	0.000	0.010	0.039	2.695	1.919	1.914	1.914	1.934	1.924	1.929
0.015	-0.010	0.000	0.000	-0.005	0.005	0.039	2.622	1.899	1.904	1.909	1.929	1.924	1.924
0.015	-0.010	0.000	0.005	0.000	0.010	0.044	2.661	1.895	1.899	1.904	1.924	1.924	1.924
0.024	0.000	0.000	0.005	0.000	-0.010	0.044	2.720	1.895	1.895	1.899	1.919	1.914	1.914
0.024	0.000	0.005	0.000	0.000	-0.010	0.039	2.695	1.899	1.895	1.895	1.914	1.914	1.909
0.015	-0.005	0.005	0.000	0.000	-0.029	0.044	2.754	1.899	1.890	1.890	1.914	1.909	1.904
0.015	-0.005	0.005	0.000	0.000	-0.029	0.039	2.734	1.904	1.890	1.890	1.904	1.909	1.899
0.015	0.000	0.005	0.000	0.000	0.010	0.044	2.729	1.909	1.899	1.890	1.909	1.909	1.914
-0.005	0.010	0.005	-0.005	0.000	0.010	0.039	2.666	1.914	1.904	1.899	1.914	1.909	1.914
-0.005	0.005	0.005	-0.005	0.005	-0.010	0.044	2.725	1.919	1.909	1.904	1.919	1.914	1.909
-0.005	0.005	0.000	0.000	0.005	0.010	0.044	2.632	1.914	1.919	1.904	1.924	1.919	1.924
0.000	0.015	0.005	0.000	0.000	-0.005	0.044	2.676	1.919	1.924	1.914	1.929	1.919	1.924
-0.005	0.000	0.005	-0.005	0.005	0.000	0.044	2.690	1.919	1.924	1.919	1.929	1.924	1.919
-0.029	0.005	-0.005	-0.015	0.005	0.015	0.039	2.710	1.919	1.919	1.919	1.934	1.929	1.929
-0.005	0.005	0.000	-0.005	0.000	0.010	0.039	2.705	1.929	1.924	1.919	1.934	1.929	1.924
0.010	0.000	0.005	0.005	0.005	0.015	0.044	2.700	1.924	1.924	1.924	1.938	1.934	1.934
-0.005	0.000	-0.005	0.015	0.005	0.005	0.039	2.695	1.914	1.919	1.919	1.943	1.934	1.929
0.005	0.005	0.000	0.020	0.005	0.015	0.039	2.671	1.909	1.914	1.914	1.938	1.929	1.929
-0.005	0.005	0.005	0.015	0.000	-0.010	0.039	2.676	1.899	1.909	1.909	1.934	1.924	1.914
0.010	0.005	0.010	0.015	0.000	0.005	0.039	2.686	1.895	1.899	1.904	1.924	1.924	1.919
0.005	0.005	0.000	0.000	0.005	0.005	0.044	2.700	1.895	1.895	1.899	1.914	1.919	1.919
0.010	0.005	-0.005	0.000	0.005	0.005	0.044	2.700	1.895	1.890	1.890	1.914	1.914	1.914
0.015	-0.005	0.000	0.005	0.000	0.005	0.039	2.671	1.895	1.890	1.890	1.909	1.914	1.914
0.005	0.000	0.000	0.000	0.005	-0.010	0.044	2.710	1.895	1.890	1.890	1.909	1.909	1.909
0.000	0.000	0.000	-0.005	0.000	-0.010	0.044	2.705	1.899	1.895	1.890	1.909	1.909	1.904
0.010	-0.005	0.000	-0.005	0.005	-0.015	0.044	2.700	1.904	1.895	1.890	1.909	1.909	1.914
0.000	0.000	0.000	0.000	-0.005	0.010	0.039	2.671	1.904	1.904	1.899	1.914	1.909	1.919
-0.005	-0.005	0.005	0.000	-0.005	0.000	0.044	2.715	1.909	1.909	1.904	1.919	1.914	1.914
0.005	0.000	0.000	-0.005	0.000	-0.024	0.039	2.700	1.919	1.914	1.909	1.919	1.914	1.909
0.010	0.005	0.000	-0.010	0.000	0.015	0.044	2.705	1.924	1.919	1.914	1.929	1.924	1.929
-0.005	0.005	0.005	-0.010	0.000	-0.005	0.044	2.705	1.929	1.924	1.914	1.934	1.924	1.924
0.005	0.005	0.005	0.000	0.000	0.020	0.044	2.690	1.924	1.924	1.919	1.934	1.924	1.929
0.005	0.005	0.000	0.005	0.000	-0.005	0.044	2.676	1.914	1.924	1.919	1.934	1.929	1.924
0.010	-0.020	0.000	0.005	0.000	0.015	0.044	2.686	1.909	1.909	1.914	1.934	1.924	1.929
0.005	-0.010	0.000	0.010	0.000	-0.005	0.044	2.681	1.904	1.909	1.909	1.929	1.924	1.919
-0.005	0.010	0.005	0.010	-0.005	0.005	0.044	2.637	1.890	1.904	1.904	1.924	1.919	1.919
-0.020	0.010	0.000	0.005	0.000	-0.005	0.044	2.788	1.880	1.890	1.895	1.919	1.914	1.909
-0.020	0.005	0.000	0.010	0.000	-0.005	0.039	2.778	1.890	1.885	1.890	1.914	1.914	1.914
-0.010	0.000	0.005	0.010	0.000	-0.020	0.044	2.656	1.890	1.880	1.885	1.909	1.909	1.904
0.000	-0.005	0.005	0.005	0.000	0.010	0.039	2.642	1.899	1.885	1.885	1.909	1.904	1.914
-0.015	0.000	0.000	0.000	0.000	-0.024	0.044	2.690	1.899	1.885	1.885	1.904	1.904	1.899
-0.005	0.000	0.005	-0.005	0.005	0.015	0.044	2.666	1.904	1.895	1.885	1.904	1.909	1.914
0.010	0.010	0.005	-0.005	0.000	-0.005	0.044	2.690	1.914	1.904	1.895	1.904	1.904	1.909
0.044	0.005	0.000	0.005	0.000	0.000	0.044	2.720	1.924	1.909	1.899	1.914	1.909	1.914
0.020	0.010	0.000	0.010	0.005	-0.010	0.039	2.690	1.919	1.919	1.909	1.924	1.914	1.914
-0.010	0.005	0.000	0.010	0.000	0.015	0.039	2.720	1.904	1.914	1.909	1.924	1.919	1.924
-0.005	0.015	0.000	0.005	0.000	0.010	0.039	2.754	1.919	1.919	1.914	1.929	1.924	1.924
-0.015	-0.005	0.000	0.000	0.000	0.010	0.044	2.622	1.904	1.914	1.914	1.929	1.924	1.924
-0.005	0.000	0.000	0.000	0.005	0.010	0.044	2.744	1.914	1.914	1.914	1.929	1.929	1.929
-0.015	0.000	0.000	0.000	0.000	0.000	0.044	2.734	1.914	1.914	1.914	1.929	1.924	1.919
-0.034	0.005	0.000	-0.005	0.005	0.000	0.039	2.720	1.909	1.909	1.909	1.924	1.924	1.919
-0.044	-0.005	0.005	-0.005	0.000	-0.015	0.044	2.661	1.895	1.899	1.904	1.924	1.919	1.914
-0.024	-0.010	0.005	0.000	-0.005	0.015	0.044	2.681	1.895	1.895	1.895	1.919	1.914	1.919
-0.029	0.005	0.000	0.005	0.005	0.000	0.044	2.681	1.899	1.899	1.890	1.914	1.914	1.909
0.029	0.010	0.000	0.005	0.000	-0.010	0.044	2.676	1.909	1.899	1.890	1.914	1.909	1.909
0.054	0.010	0.005	0.005	0.000	0.015	0.044	2.705	1.909	1.899	1.895	1.909	1.909	1.914
0.103	0.005	0.000	0.005	0.005	0.010	0.044	2.690	1.919	1.904	1.895	1.909	1.904	1.909
0.059	0.000	0.000	0.000	0.000	0.005	0.039	2.695	1.904	1.904	1.895	1.909	1.904	1.909
0.024	0.000	0.000	0.005	0.010	0.005	0.044	2.690	1.890	1.899	1.899	1.914	1.909	1.909
-0.010	0.000	0.000	0.000	0.005	-0.005	0.044	2.705	1.885	1.895	1.899	1.919	1.909	1.909
-0.039	0.005	0.000	0.000	0.000	0.010	0.039	2.681	1.885	1.899	1.899	1.919	1.914	1.914
-0.063	-0.005	0.000	0.005	0.000	-0.005	0.044	2.710	1.895	1.895	1.899	1.924	1.914	1.914
-0.073	0.000	0.000	0.005	0.000	-0.029	0.044	2.705	1.904	1.899	1.904	1.924	1.919	1.914
-0.054	0.000	0.000	0.000	0.000	0.010	0.039	2.676	1.914	1.904	1.904	1.924	1.924	1.929
-0.044	0.000	0.000	0.000	0.010	0.010	0.044	2.700	1.919	1.909	1.909	1.929	1.924	1.924
-0.010	-0.005	0.000	-0.005	0.000	-0.005	0.039	2.681	1.924	1.914	1.909	1.924	1.919	1.919
0.005	-0.005	0.000	0.000	0.000	0.005	0.039	2.710	1.924	1.914	1.909	1.924	1.919	1.924
0.015	0.000	0.000	0.000	0.000	0.000	0.039	2.710	1.919	1.914	1.904	1.924	1.914	1.914
0.015	0.000	0.005	0.005	0.000	0.005	0.044	2.686	1.914	1.909	1.904	1.924	1.914	1.914
0.029	0.000	0.005	0.005	0.000	0.000	0.044	2.666	1.909	1.904	1.904	1.919	1.914	1.909
0.034	-0.005	0.005	0.005	0.000	0.005	0.044	2.700	1.899	1.899	1.895	1.914	1.909	1.909
0.039	0.000	-0.005	0.005	0.005	-0.010	0.039	2.661	1.890	1.895	1.895	1.914	1.909	1.904
0.034	0.000	0.000	0.005	0.000	-0.020	0.044	2.700	1.890	1.890	1.890	1.909	1.904	1.904
0.024	0.000	0.000	0.005	0.005	0.010	0.044	2.686	1.890	1.895	1.895	1.909	1.904	1.909
0.020	0.000	0.005	0.000	0.000	-0.020	0.044	2.690	1.890	1.890	1.895	1.914	1.904	1.899
0.000	0.010	0.005	0.000	0.010	0.000	0.044	2.666	1.890	1.895	1.895	1.914	1.909	1.909
0.029	0.005	0.000	-0.005	0.000	0.005	0.039	2.793	1.919	1.899	1.895	1.914	1.909	1.914
0.083	-0.005	0.005	0.000	0.000	-0.020	0.044	2.656	1.929	1.909	1.904	1.924	1.914	1.909
0.049	0.000	0.005	0.000	-0.005	-0.010	0.039	2.671	1.919	1.919	1.909	1.924	1.919	1.914
0.034	0.005	0.000	0.010	0.000	0.024	0.039	2.642	1.909	1.919	1.914	1.934	1.924	1.934
0.000	0.000	0.000	0.010	0.010	0.010	0.039	2.695	1.904	1.914	1.919	1.934	1.924	1.929
-0.039	0.000	-0.005	0.010	0.005	0.005	0.044	2.671	1.895	1.904	1.914	1.934	1.924	1.929
-0.054	0.000	0.000	0.000	0.000	-0.010	0.039	2.695	1.899	1.904	1.909	1.929	1.924	1.919
-0.063	0.010	0.000	0.000	0.005	0.015	0.044	2.759	1.899	1.904	1.909	1.929	1.924	1.924
-0.054	-0.010	0.005	0.000	0.000	-0.010	0.044	2.671	1.895	1.890	1.899	1.924	1.919	1.914
-0.039	-0.020	0.000	-0.005	0.005	-0.005	0.044	2.739	1.899	1.885	1.895	1.914	1.914	1.919
-0.020	-0.005	0.000	0.000	-0.005	0.005	0.044	2.725	1.904	1.890	1.890	1.909	1.909	1.914
-0.010	0.005	-0.005	0.000	0.005	0.005	0.044	2.715	1.904	1.895	1.885	1.909	1.909	1.909
0.000	0.015	0.000	0.000	0.005	-0.010	0.039	2.661	1.895	1.895	1.885	1.904	1.899	1.904
0.015	-0.005	0.000	0.000	0.005	-0.024	0.044	2.720	1.904	1.895	1.885	1.904	1.899	1.899
0.029	-0.010	-0.005	0.000	0.005	0.005	0.039	2.637	1.895	1.890	1.885	1.904	1.904	1.909
0.010	0.005	0.000	-0.010	0.005	0.005	0.039	2.661	1.890	1.895	1.890	1.904	1.899	1.904
0.005	0.005	0.005	-0.015	0.000	0.005	0.039	2.671	1.890	1.895	1.890	1.909	1.904	1.909
0.005	0.005	0.005	-0.010	0.005	-0.005	0.044	2.715	1.904	1.899	1.899	1.914	1.909	1.909
-0.005	0.010	0.000	0.005	0.005	0.005	0.044	2.671	1.904	1.909	1.904	1.924	1.914	1.914
-0.005	0.005	0.005	0.015	0.005	0.005	0.044	2.700	1.914	1.914	1.909	1.929	1.919	1.919
0.005	0.005	0.000	0.024	0.000	0.005	0.039	2.705	1.914	1.914	1.914	1.934	1.924	1.919
0.015	0.005	0.005	0.024	0.005	-0.005	0.044	2.710	1.919	1.919	1.919	1.934	1.924	1.919
-0.005	0.010	0.005	0.015	0.000	0.000	0.039	2.676	1.914	1.914	1.914	1.934	1.924	1.924
0.000	-0.005	0.005	0.005	-0.005	0.010	0.039	2.695	1.914	1.909	1.909	1.929	1.924	1.924
-0.005	0.005	0.000	0.005	0.000	0.010	0.039	2.681	1.909	1.909	1.904	1.924	1.919	1.924
-0.005	0.010	0.005	-0.005	0.000	-0.020	0.044	2.690	1.904	1.904	1.904	1.919	1.914	1.904
-0.005	0.005	-0.005	0.000	0.000	0.000	0.044	2.666	1.895	1.899	1.895	1.914	1.914	1.914
0.010	-0.005	0.000	-0.005	-0.005	-0.010	0.044	2.661	1.885	1.890	1.895	1.914	1.909	1.909
0.005	-0.005	0.005	0.000	0.000	0.000	0.044	2.681	1.880	1.880	1.885	1.909	1.904	1.909
0.005	0.000	-0.005	0.000	0.005	-0.015	0.039	2.676	1.880	1.880	1.880	1.904	1.904	1.904
0.010	0.010	0.005	0.000	0.005	-0.005	0.044	2.695	1.885	1.885	1.880	1.904	1.904	1.904
0.005	0.010	0.000	-0.005	0.000	-0.020	0.044	2.710	1.895	1.890	1.880	1.899	1.899	1.899
0.010	0.005	0.000	-0.015	0.000	0.020	0.044	2.671	1.890	1.885	1.880	1.899	1.904	1.909
0.010	-0.005	0.000	-0.010	0.005	-0.010	0.044	2.676	1.895	1.890	1.890	1.904	1.904	1.904
0.015	0.000	-0.005	-0.005	0.000	-0.010	0.044	2.695	1.904	1.899	1.895	1.914	1.904	1.904
0.015	0.000	0.010	-0.010	0.000	0.020	0.039	2.681	1.909	1.904	1.899	1.914	1.909	1.914
0.010	-0.005	0.000	-0.010	0.005	0.029	0.039	2.671	1.909	1.909	1.899	1.919	1.914	1.919
0.005	0.000	0.005	-0.015	0.005	0.020	0.039	2.690	1.914	1.914	1.909	1.919	1.914	1.919
0.005	-0.005	0.000	-0.020	0.000	0.020	0.039	2.695	1.914	1.914	1.904	1.919	1.914	1.914
-0.010	0.000	0.000	-0.015	0.005	0.020	0.044	2.671	1.909	1.909	1.909	1.924	1.919	1.914
0.010	-0.005	0.000	-0.005	0.005	0.015	0.044	2.788	1.919	1.909	1.909	1.929	1.919	1.914
0.010	0.000	-0.005	0.000	0.005	0.005	0.044	2.642	1.904	1.904	1.904	1.924	1.914	1.914
-0.005	0.005	0.000	0.000	0.005	0.005	0.044	2.646	1.885	1.899	1.899	1.919	1.914	1.909
-0.024	-0.005	0.000	0.015	0.000	0.000	0.044	2.651	1.875	1.890	1.895	1.919	1.909	1.909
-0.049	0.010	0.000	0.029	-0.005	-0.029	0.044	2.686	1.870	1.880	1.890	1.919	1.904	1.895
-0.059	0.005	0.000	0.029	0.000	-0.010	0.039	2.715	1.870	1.875	1.880	1.914	1.909	1.904
-0.044	0.000	0.005	0.034	0.000	0.005	0.039	2.695	1.880	1.870	1.875	1.904	1.909	1.909
-0.020	0.005	0.000	0.034	0.005	0.000	0.044	2.632	1.895	1.875	1.875	1.904	1.904	1.904
0.015	0.000	0.005	0.029	0.000	0.000	0.039	2.700	1.904	1.885	1.875	1.899	1.904	1.904
0.034	0.010	0.000	0.020	0.000	-0.024	0.044	2.734	1.919	1.899	1.885	1.899	1.899	1.895
0.029	0.005	0.000	0.015	0.005	-0.010	0.039	2.715	1.919	1.904	1.895	1.904	1.904	1.909
0.029	-0.005	0.000	0.015	0.005	0.010	0.044	2.686	1.924	1.914	1.899	1.909	1.909	1.909
0.024	-0.005	0.005	0.005	0.000	0.015	0.044	2.651	1.919	1.919	1.904	1.914	1.909	1.914
0.034	0.005	0.010	0.005	0.005	0.000	0.044	2.729	1.929	1.924	1.914	1.924	1.914	1.914
0.020	0.000	0.005	-0.005	0.010	-0.015	0.044	2.637	1.909	1.919	1.914	1.924	1.914	1.914
0.005	0.005	0.000	-0.010	0.005	0.000	0.044	2.671	1.899	1.919	1.914	1.924	1.919	1.919
-0.005	0.000	-0.005	-0.010	0.005	0.010	0.044	2.671	1.899	1.909	1.909	1.924	1.919	1.924
-0.005	0.000	0.000	-0.005	0.005	0.000	0.044	2.710	1.899	1.904	1.909	1.929	1.919	1.919
-0.020	0.010	0.005	0.000	-0.005	0.010	0.039	2.666	1.890	1.899	1.904	1.924	1.914	1.914
-0.015	-0.005	0.000	0.000	-0.005	0.010	0.039	2.686	1.885	1.890	1.895	1.919	1.909	1.909
-0.015	0.005	0.005	0.000	0.005	0.010	0.044	2.705	1.890	1.885	1.890	1.914	1.909	1.909
0.000	0.000	-0.005	-0.005	0.000	0.015	0.039	2.695	1.890	1.885	1.880	1.904	1.904	1.904
-0.020	-0.005	0.000	-0.010	0.000	0.010	0.044	2.676	1.875	1.875	1.880	1.899	1.899	1.899
-0.020	-0.005	-0.005	-0.005	0.000	0.010	0.039	2.671	1.880	1.880	1.875	1.899	1.899	1.899
-0.005	0.005	0.005	-0.005	0.005	0.010	0.044	2.715	1.895	1.885	1.880	1.899	1.899	1.899
0.020	-0.005	0.000	-0.005	0.010	0.005	0.044	2.671	1.899	1.885	1.880	1.899	1.899	1.899
0.029	-0.005	0.000	-0.005	0.005	-0.010	0.044	2.671	1.909	1.890	1.885	1.904	1.899	1.899
0.015	0.015	0.000	0.010	0.000	0.024	0.044	2.715	1.909	1.904	1.895	1.909	1.904	1.909
0.005	0.015	0.000	0.010	0.000	0.015	0.039	2.705	1.909	1.909	1.904	1.914	1.909	1.914
0.015	-0.005	0.000	0.010	0.000	-0.005	0.044	2.690	1.914	1.909	1.904	1.924	1.909	1.909
0.000	-0.005	0.000	0.010	0.000	0.015	0.044	2.671	1.909	1.914	1.909	1.929	1.919	1.919
0.000	0.000	0.000	0.000	0.000	-0.005	0.044	2.715	1.914	1.914	1.909	1.924	1.919	1.909
0.005	0.000	0.000	-0.005	-0.005	0.000	0.039	2.661	1.909	1.909	1.909	1.924	1.919	1.919
0.005	0.000	0.005	0.000	0.005	-0.010	0.044	2.690	1.909	1.909	1.909	1.929	1.919	1.914
0.010	0.005	0.000	0.000	0.005	0.005	0.044	2.681	1.899	1.909	1.909	1.924	1.919	1.914
0.005	0.049	0.000	-0.005	0.000	0.010	0.039	2.676	1.899	1.909	1.904	1.924	1.914	1.914
0.005	0.005	0.005	0.000	0.000	0.005	0.039	2.676	1.890	1.890	1.899	1.919	1.914	1.909
0.000	-0.005	0.000	0.000	0.005	0.005	0.039	2.686	1.880	1.880	1.890	1.914	1.909	1.909
0.005	-0.015	0.005	0.000	0.005	-0.020	0.039	2.690	1.880	1.875	1.880	1.904	1.904	1.899
0.005	-0.010	0.005	0.005	-0.005	0.015	0.039	2.651	1.880	1.875	1.875	1.904	1.904	1.904
0.000	0.010	0.000	0.005	0.000	-0.015	0.044	2.798	1.895	1.880	1.875	1.904	1.899	1.895
0.015	0.005	-0.005	0.005	0.005	0.015	0.044	2.637	1.890	1.880	1.880	1.899	1.904	1.904
0.010	-0.020	0.000	-0.005	0.005	0.010	0.044	2.661	1.890	1.880	1.880	1.899	1.899	1.904
-0.005	-0.005	-0.005	0.000	0.000	-0.005	0.039	2.642	1.885	1.890	1.885	1.904	1.899	1.904
-0.010	-0.010	0.000	0.000	0.005	0.000	0.044	2.695	1.895	1.890	1.890	1.904	1.904	1.904
0.000	-0.005	0.000	-0.010	-0.005	0.005	0.044	2.651	1.904	1.899	1.890	1.909	1.904	1.909
0.000	0.005	0.005	0.000	0.010	0.005	0.039	2.651	1.904	1.904	1.899	1.914	1.914	1.914
0.000	0.005	0.000	0.000	0.010	0.005	0.039	2.744	1.914	1.909	1.899	1.919	1.914	1.914
-0.005	0.000	0.000	0.000	0.000	-0.020	0.039	2.705	1.919	1.909	1.904	1.919	1.914	1.904
0.000	0.000	0.000	-0.010	0.005	-0.005	0.039	2.744	1.919	1.914	1.904	1.919	1.914	1.909
0.000	0.010	0.005	-0.020	-0.005	0.010	0.044	2.710	1.909	1.914	1.909	1.914	1.909	1.914
-0.005	0.010	0.005	-0.020	0.005	0.010	0.044	2.627	1.895	1.904	1.904	1.919	1.909	1.909
0.000	-0.010	0.005	-0.005	-0.005	-0.010	0.044	2.744	1.899	1.899	1.899	1.919	1.909	1.904
-0.005	-0.005	0.000	0.015	0.000	0.010	0.044	2.720	1.895	1.895	1.895	1.924	1.909	1.909
-0.010	0.010	0.000	0.029	0.000	0.010	0.039	2.651	1.885	1.890	1.890	1.919	1.909	1.904
-0.005	0.015	0.000	0.024	0.000	0.010	0.044	2.681	1.885	1.885	1.890	1.909	1.904	1.899
-0.005	-0.005	0.000	0.015	0.000	-0.015	0.039	2.695	1.880	1.875	1.880	1.904	1.899	1.895
-0.005	-0.015	0.000	0.010	-0.005	0.020	0.044	2.720	1.885	1.875	1.880	1.899	1.899	1.904
-0.005	0.054	0.000	-0.010	0.000	-0.005	0.039	2.700	1.895	1.899	1.885	1.895	1.899	1.899
-0.010	0.049	0.005	-0.020	0.005	0.005	0.044	2.705	1.895	1.895	1.890	1.899	1.899	1.899
0.005	-0.010	0.000	-0.034	0.005	0.000	0.044	2.686	1.904	1.885	1.890	1.899	1.899	1.899
0.015	-0.010	0.005	-0.015	0.000	0.005	0.044	2.705	1.909	1.895	1.895	1.909	1.904	1.904
-0.005	0.000	0.005	-0.010	0.000	0.010	0.039	2.686	1.904	1.904	1.899	1.914	1.909	1.909
-0.015	0.020	0.005	0.015	0.005	0.010	0.039	2.710	1.909	1.914	1.904	1.934	1.914	1.914
-0.005	-0.024	0.005	0.034	0.005	0.005	0.044	2.690	1.914	1.899	1.909	1.934	1.919	1.919
0.005	-0.034	0.000	0.034	0.005	-0.005	0.039	2.700	1.914	1.899	1.904	1.934	1.919	1.914
0.010	-0.005	0.000	0.029	0.005	0.000	0.044	2.666	1.909	1.914	1.904	1.929	1.924	1.919
0.015	0.063	0.000	0.029	-0.005	0.000	0.044	2.681	1.904	1.929	1.914	1.929	1.919	1.914
0.005	0.000	0.005	0.024	0.000	0.000	0.044	2.705	1.899	1.899	1.904	1.924	1.919	1.909
0.024	-0.059	0.000	0.020	0.000	0.000	0.039	2.671	1.890	1.880	1.895	1.914	1.914	1.914
0.015	-0.029	0.000	0.024	0.000	0.010	0.044	2.676	1.890	1.885	1.890	1.914	1.909	1.909
0.010	0.005	0.005	0.020	0.000	0.005	0.044	2.661	1.880	1.890	1.885	1.904	1.909	1.909
0.000	0.005	0.000	0.005	0.000	0.010	0.044	2.705	1.880	1.880	1.880	1.895	1.899	1.904
-0.005	0.010	0.005	-0.010	0.005	0.000	0.044	2.681	1.880	1.880	1.880	1.895	1.895	1.895
0.000	0.010	0.000	-0.010	0.005	0.005	0.044	2.710	1.885	1.880	1.875	1.895	1.895	1.899
0.000	0.010	0.000	-0.029	0.005	0.000	0.044	2.710	1.890	1.885	1.880	1.890	1.890	1.899
-0.005	0.005	0.005	-0.063	0.005	0.005	0.044	2.686	1.895	1.885	1.885	1.885	1.890	1.899
0.029	-0.020	0.010	-0.073	0.005	0.005	0.044	2.690	1.909	1.890	1.885	1.890	1.895	1.899
0.034	-0.010	0.000	-0.054	0.000	0.000	0.039	2.690	1.904	1.899	1.895	1.904	1.895	1.899
0.000	0.005	0.005	-0.073	0.005	-0.010	0.044	2.666	1.899	1.904	1.895	1.904	1.899	1.895
-0.024	-0.010	0.000	-0.107	-0.005	-0.010	0.039	2.793	1.909	1.899	1.899	1.899	1.899	1.904
-0.039	-0.005	0.005	-0.059	0.000	0.000	0.039	2.656	1.895	1.904	1.904	1.924	1.904	1.904
-0.034	-0.005	-0.005	0.024	0.000	0.000	0.044	2.661	1.895	1.899	1.904	1.948	1.919	1.909
-0.020	0.015	-0.005	0.078	0.000	0.010	0.039	2.651	1.899	1.909	1.909	1.953	1.929	1.914
-0.020	0.103	0.000	0.098	-0.005	0.015	0.044	2.695	1.899	1.929	1.914	1.948	1.929	1.914
0.005	0.039	0.005	0.112	0.000	0.005	0.039	2.720	1.899	1.895	1.909	1.943	1.934	1.919
0.020	-0.010	0.000	0.103	0.000	-0.015	0.044	2.695	1.895	1.880	1.895	1.934	1.929	1.914
0.005	0.000	0.000	0.088	0.000	0.010	0.044	2.749	1.895	1.885	1.885	1.919	1.924	1.919
0.000	-0.015	0.000	0.054	0.000	-0.020	0.039	2.666	1.885	1.875	1.880	1.899	1.909	1.904
0.005	-0.029	0.000	0.054	0.005	0.005	0.044	2.744	1.890	1.870	1.875	1.895	1.909	1.909
0.020	-0.024	0.010	0.049	0.010	-0.005	0.044	2.744	1.899	1.880	1.875	1.895	1.904	1.909
0.015	-0.015	0.000	0.044	0.005	0.015	0.044	2.632	1.904	1.890	1.880	1.895	1.899	1.909
0.005	0.005	0.000	0.044	0.010	0.010	0.044	2.666	1.899	1.895	1.885	1.899	1.899	1.904
-0.005	0.015	0.000	0.029	0.000	-0.015	0.044	2.725	1.904	1.904	1.890	1.899	1.895	1.899
-0.010	0.073	0.000	0.015	0.000	0.020	0.044	2.622	1.899	1.919	1.899	1.904	1.904	1.909
0.010	0.010	0.000	-0.005	0.010	0.010	0.044	2.646	1.904	1.904	1.904	1.904	1.904	1.909
0.020	-0.005	0.000	-0.029	0.000	0.020	0.044	2.681	1.909	1.899	1.904	1.904	1.899	1.909
0.010	0.010	0.000	-0.054	0.000	0.015	0.039	2.710	1.909	1.909	1.904	1.904	1.904	1.909
-0.005	-0.015	0.005	-0.054	0.000	0.010	0.044	2.690	1.904	1.904	1.904	1.914	1.904	1.909
0.000	-0.029	0.005	-0.020	0.005	-0.005	0.044	2.705	1.904	1.899	1.909	1.924	1.909	1.899
0.010	0.024	-0.005	0.005	-0.005	0.010	0.044	2.671	1.904	1.914	1.909	1.929	1.909	1.904
0.000	-0.029	-0.005	-0.005	0.000	0.015	0.039	2.700	1.895	1.885	1.899	1.919	1.909	1.909
0.005	-0.039	0.005	0.000	0.000	0.005	0.044	2.671	1.885	1.885	1.895	1.919	1.909	1.909
-0.005	-0.015	0.000	0.010	0.005	-0.015	0.039	2.671	1.880	1.880	1.885	1.914	1.909	1.895
-0.005	-0.015	0.005	-0.005	0.005	0.015	0.044	2.715	1.890	1.880	1.875	1.904	1.904	1.904
0.010	-0.039	-0.005	-0.015	0.005	0.000	0.044	2.676	1.885	1.870	1.875	1.895	1.895	1.899
0.020	0.039	-0.005	-0.024	-0.005	-0.024	0.044	2.676	1.880	1.895	1.875	1.890	1.890	1.890
0.010	0.020	0.000	-0.029	0.005	0.015	0.044	2.715	1.885	1.885	1.880	1.895	1.895	1.899
0.005	-0.005	0.000	-0.029	-0.005	0.015	0.039	2.695	1.885	1.880	1.880	1.890	1.890	1.899
0.005	0.054	-0.005	-0.024	0.000	0.010	0.044	2.666	1.895	1.904	1.885	1.899	1.895	1.895
0.000	0.049	0.005	-0.005	0.000	0.005	0.044	2.705	1.899	1.899	1.895	1.909	1.899	1.899
0.000	-0.024	0.005	-0.010	0.000	0.000	0.044	2.700	1.899	1.885	1.895	1.909	1.904	1.899
0.000	-0.020	0.000	-0.010	0.005	0.010	0.044	2.705	1.909	1.895	1.899	1.914	1.909	1.904
0.005	-0.020	0.000	-0.005	0.000	0.005	0.039	2.720	1.919	1.899	1.899	1.919	1.914	1.904
-0.005	-0.063	0.000	0.005	-0.005	-0.015	0.044	2.681	1.909	1.895	1.899	1.919	1.914	1.904
-0.015	0.049	0.000	0.005	-0.005	-0.005	0.039	2.681	1.909	1.938	1.909	1.924	1.914	1.909
0.005	0.073	0.005	0.000	-0.005	-0.005	0.044	2.681	1.919	1.929	1.914	1.924	1.914	1.909
0.015	-0.020	0.000	-0.005	0.000	0.000	0.044	2.676	1.899	1.899	1.904	1.924	1.919	1.919
-0.005	0.098	0.000	-0.005	-0.005	0.005	0.044	2.686	1.895	1.929	1.914	1.924	1.914	1.909
-0.005	0.073	0.000	-0.005	0.000	0.015	0.039	2.661	1.885	1.899	1.904	1.919	1.914	1.909
0.005	-0.005	0.000	-0.005	0.000	0.010	0.044	2.793	1.895	1.875	1.895	1.919	1.914	1.909
0.000	-0.068	0.000	-0.005	0.005	0.010	0.044	2.646	1.880	1.855	1.875	1.909	1.909	1.909
0.005	-0.073	-0.005	-0.010	0.000	0.005	0.044	2.661	1.875	1.855	1.870	1.899	1.899	1.899
0.000	0.015	0.005	-0.010	0.000	0.010	0.044	2.646	1.875	1.885	1.875	1.895	1.895	1.904
0.000	0.020	0.005	-0.005	-0.005	0.010	0.044	2.695	1.880	1.880	1.875	1.895	1.895	1.899
0.005	-0.034	-0.005	-0.005	0.000	0.000	0.044	2.627	1.875	1.870	1.875	1.895	1.895	1.899
0.000	-0.015	0.010	-0.005	0.005	-0.015	0.039	2.700	1.890	1.880	1.880	1.899	1.899	1.895
0.000	-0.039	0.005	-0.005	0.005	0.015	0.044	2.749	1.899	1.880	1.880	1.899	1.899	1.909
0.005	-0.020	0.005	0.000	0.005	0.015	0.044	2.681	1.904	1.895	1.890	1.909	1.904	1.909
0.000	0.000	0.000	0.000	0.005	0.005	0.039	2.661	1.904	1.909	1.895	1.909	1.909	1.904
0.005	0.015	0.000	0.000	0.005	0.010	0.039	2.759	1.909	1.914	1.904	1.914	1.909	1.909
-0.010	0.034	0.005	0.000	0.010	-0.005	0.044	2.627	1.899	1.919	1.909	1.919	1.914	1.904
-0.005	-0.005	0.005	0.000	0.015	-0.005	0.044	2.666	1.895	1.899	1.904	1.919	1.914	1.909
-0.005	-0.020	0.005	0.000	0.020	-0.005	0.044	2.720	1.904	1.895	1.899	1.919	1.914	1.909
0.000	0.005	-0.005	0.005	0.020	-0.010	0.039	2.627	1.890	1.899	1.895	1.919	1.914	1.909
0.005	-0.005	0.005	0.005	0.010	-0.024	0.039	2.651	1.895	1.890	1.890	1.909	1.909	1.904
0.010	0.078	0.000	0.005	0.015	-0.024	0.044	2.695	1.899	1.914	1.895	1.909	1.904	1.899
0.005	0.029	0.000	0.000	0.010	-0.005	0.044	2.705	1.885	1.885	1.890	1.904	1.904	1.904
0.005	-0.054	0.000	-0.005	0.020	-0.010	0.044	2.705	1.880	1.855	1.875	1.899	1.899	1.899
0.000	-0.039	-0.005	0.000	0.015	-0.010	0.044	2.705	1.880	1.865	1.870	1.899	1.895	1.895
-0.005	-0.024	0.000	0.000	0.010	0.000	0.044	2.686	1.885	1.875	1.870	1.895	1.890	1.899
-0.015	0.083	0.000	0.010	0.000	-0.005	0.039	2.710	1.890	1.909	1.880	1.895	1.890	1.895
-0.005	0.015	0.005	0.000	0.000	-0.015	0.039	2.676	1.890	1.880	1.880	1.899	1.895	1.895
-0.005	-0.020	0.005	0.000	0.000	-0.015	0.039	2.725	1.899	1.885	1.885	1.899	1.895	1.895
0.000	0.015	0.010	0.005	0.005	0.005	0.044	2.705	1.909	1.899	1.895	1.904	1.899	1.909
0.005	0.034	0.000	0.000	0.005	0.010	0.039	2.676	1.914	1.909	1.899	1.909	1.904	1.909
0.005	0.015	0.000	0.000	0.000	0.005	0.044	2.676	1.914	1.909	1.904	1.914	1.904	1.909
0.005	-0.024	-0.005	-0.010	-0.005	0.010	0.044	2.690	1.914	1.904	1.904	1.914	1.909	1.909
0.010	-0.029	0.000	-0.010	-0.005	-0.010	0.044	2.690	1.914	1.909	1.904	1.919	1.909	1.909
-0.005	-0.010	0.000	0.000	0.000	-0.020	0.039	2.705	1.909	1.909	1.904	1.924	1.914	1.904
0.010	0.005	0.000	0.015	0.000	0.010	0.044	2.705	1.899	1.909	1.909	1.924	1.914	1.919
0.020	-0.005	0.000	0.020	-0.005	-0.005	0.044	2.681	1.895	1.899	1.904	1.924	1.914	1.909
0.005	0.020	0.000	0.024	-0.005	0.020	0.039	2.705	1.890	1.899	1.899	1.924	1.914	1.914
-0.005	0.020	0.000	0.020	-0.005	0.015	0.044	2.710	1.890	1.895	1.890	1.914	1.909	1.909
-0.005	0.020	0.000	0.015	-0.010	0.020	0.044	2.715	1.885	1.885	1.890	1.909	1.904	1.904
-0.005	0.000	0.000	0.015	-0.010	0.005	0.044	2.676	1.885	1.875	1.880	1.904	1.904	1.899
-0.005	0.005	0.000	0.010	-0.015	0.005	0.039	2.671	1.885	1.880	1.875	1.899	1.899	1.899
-0.005	0.020	0.000	0.005	-0.010	0.005	0.044	2.686	1.885	1.885	1.880	1.899	1.895	1.899
0.005	0.010	0.005	0.000	-0.010	0.000	0.044	2.690	1.890	1.880	1.880	1.895	1.895	1.895
0.010	-0.005	0.000	-0.010	-0.005	-0.015	0.039	2.642	1.885	1.880	1.880	1.895	1.899	1.895
0.005	0.000	0.000	-0.005	0.000	0.005	0.044	2.793	1.904	1.890	1.885	1.899	1.899	1.904
0.005	-0.005	-0.005	-0.005	-0.005	0.005	0.044	2.798	1.924	1.899	1.890	1.909	1.899	1.904
0.015	-0.015	0.000	0.000	-0.010	0.005	0.044	2.656	1.914	1.909	1.899	1.914	1.909	1.909
-0.010	0.005	0.000	0.005	-0.005	0.000	0.044	2.651	1.909	1.914	1.904	1.919	1.909	1.909
-0.015	-0.005	0.005	0.005	-0.005	0.005	0.044	2.695	1.909	1.914	1.909	1.924	1.914	1.909
-0.010	0.000	0.005	0.005	0.005	0.015	0.044	2.661	1.904	1.909	1.909	1.924	1.919	1.914
0.000	-0.010	0.000	0.000	0.000	-0.010	0.044	2.690	1.904	1.904	1.909	1.924	1.914	1.909
0.000	0.000	0.000	-0.005	0.000	0.005	0.039	2.759	1.909	1.909	1.904	1.919	1.914	1.914
0.010	0.000	0.005	-0.015	0.000	0.005	0.044	2.705	1.904	1.904	1.904	1.914	1.914	1.914
0.000	0.024	0.000	-0.005	0.000	0.015	0.044	2.632	1.885	1.899	1.899	1.914	1.909	1.909
0.010	0.020	0.000	0.010	0.000	0.000	0.044	2.749	1.890	1.890	1.895	1.914	1.909	1.904
0.000	0.000	-0.005	0.005	-0.005	-0.010	0.039	2.632	1.875	1.880	1.885	1.909	1.904	1.899
0.005	-0.024	0.000	0.005	0.005	0.010	0.039	2.754	1.885	1.870	1.880	1.904	1.904	1.904
-0.005	-0.010	0.005	0.000	0.000	0.005	0.039	2.632	1.880	1.875	1.880	1.904	1.899	1.899
0.010	0.005	0.000	-0.005	0.005	0.015	0.044	2.637	1.890	1.880	1.875	1.895	1.899	1.904
-0.005	0.005	0.005	-0.015	0.005	0.005	0.044	2.651	1.885	1.885	1.880	1.895	1.899	1.899
-0.005	0.024	0.000	-0.020	0.010	0.015	0.044	2.710	1.895	1.895	1.885	1.899	1.899	1.904
-0.010	-0.010	0.000	-0.015	0.005	0.005	0.039	2.690	1.899	1.890	1.885	1.904	1.899	1.899
-0.005	0.000	0.000	0.000	0.005	0.015	0.044	2.710	1.909	1.899	1.890	1.909	1.904	1.909
0.005	-0.020	0.005	0.005	0.005	0.000	0.044	2.715	1.919	1.899	1.895	1.919	1.909	1.909
0.005	-0.015	0.000	0.015	0.005	0.010	0.044	2.676	1.914	1.909	1.904	1.919	1.914	1.914
0.005	-0.015	-0.005	0.024	0.005	0.010	0.039	2.705	1.919	1.914	1.909	1.929	1.919	1.914
0.000	0.015	-0.005	0.010	0.005	-0.010	0.039	2.695	1.909	1.919	1.914	1.924	1.919	1.914
0.010	0.010	0.005	0.015	0.010	-0.020	0.039	2.666	1.904	1.914	1.914	1.924	1.919	1.914
0.000	0.039	0.000	0.020	0.010	0.005	0.044	2.671	1.899	1.919	1.914	1.929	1.914	1.914
0.000	0.054	0.000	0.024	0.005	0.010	0.039	2.671	1.885	1.904	1.909	1.924	1.914	1.914
0.005	-0.010	0.005	0.015	0.005	0.010	0.044	2.710	1.890	1.880	1.899	1.919	1.914	1.914
0.010	-0.015	0.005	0.010	0.000	0.000	0.039	2.681	1.885	1.875	1.885	1.909	1.909	1.904
0.005	-0.015	0.005	0.005	0.000	0.000	0.044	2.671	1.885	1.875	1.880	1.904	1.904	1.904
0.010	-0.024	0.000	0.010	-0.005	-0.005	0.039	2.705	1.880	1.870	1.875	1.899	1.899	1.899
0.010	-0.005	0.000	0.015	0.000	-0.024	0.044	2.700	1.890	1.880	1.875	1.899	1.899	1.890
0.010	0.049	0.000	0.015	-0.005	0.000	0.039	2.705	1.895	1.899	1.880	1.899	1.895	1.899
0.000	0.010	-0.005	0.010	0.005	-0.020	0.044	2.705	1.890	1.885	1.885	1.899	1.899	1.899
0.000	-0.005	0.005	-0.005	0.000	0.000	0.044	2.715	1.899	1.890	1.885	1.899	1.899	1.904
-0.005	-0.015	0.005	-0.010	-0.005	0.020	0.044	2.715	1.909	1.895	1.890	1.904	1.904	1.909
0.005	0.005	0.005	-0.005	-0.005	0.010	0.044	2.705	1.914	1.914	1.895	1.909	1.904	1.909
0.010	0.083	0.010	-0.005	-0.005	-0.005	0.039	2.700	1.919	1.934	1.909	1.919	1.909	1.904
0.015	-0.010	0.005	0.000	0.005	0.000	0.044	2.690	1.914	1.904	1.909	1.924	1.919	1.909
0.010	-0.044	0.000	0.005	0.005	-0.010	0.044	2.686	1.904	1.895	1.904	1.924	1.919	1.914
0.005	-0.015	0.000	0.000	0.010	0.010	0.044	2.671	1.904	1.909	1.904	1.929	1.919	1.919
0.000	0.005	0.005	0.000	0.005	-0.020	0.044	2.788	1.909	1.909	1.909	1.924	1.919	1.909
-0.010	0.015	0.005	-0.005	0.005	0.005	0.044	2.656	1.899	1.909	1.904	1.919	1.914	1.919
-0.010	0.059	0.005	-0.005	0.015	0.005	0.044	2.656	1.890	1.909	1.904	1.919	1.914	1.914
-0.005	0.015	0.000	-0.010	0.005	0.010	0.044	2.651	1.885	1.885	1.895	1.914	1.909	1.914
-0.010	-0.005	0.000	-0.005	0.005	0.010	0.039	2.690	1.880	1.875	1.885	1.909	1.904	1.904
0.010	-0.039	0.000	-0.015	0.000	0.005	0.039	2.695	1.885	1.870	1.875	1.899	1.899	1.904
0.005	-0.044	-0.005	-0.005	-0.010	-0.015	0.039	2.666	1.880	1.870	1.875	1.899	1.895	1.895
0.005	-0.010	0.000	0.000	-0.010	-0.005	0.039	2.656	1.880	1.880	1.875	1.899	1.890	1.895
0.005	0.034	0.005	0.000	-0.005	0.010	0.039	2.700	1.890	1.890	1.880	1.899	1.899	1.904
0.000	0.015	0.000	-0.005	0.000	0.000	0.039	2.666	1.890	1.890	1.885	1.899	1.899	1.899
-0.005	0.005	0.005	-0.034	0.000	0.005	0.044	2.656	1.890	1.890	1.885	1.895	1.899	1.904
0.010	-0.024	0.005	-0.039	0.029	0.010	0.039	2.720	1.904	1.885	1.890	1.899	1.904	1.904
0.015	-0.049	0.000	-0.015	0.010	0.010	0.044	2.764	1.904	1.890	1.890	1.914	1.909	1.909
0.000	0.010	0.000	0.015	0.005	0.000	0.044	2.627	1.899	1.914	1.899	1.924	1.909	1.909
0.000	0.015	0.000	0.039	0.010	0.005	0.039	2.651	1.899	1.909	1.904	1.934	1.914	1.914
0.000	0.015	0.005	0.029	0.010	-0.005	0.039	2.661	1.899	1.909	1.904	1.929	1.924	1.914
0.005	-0.029	0.000	0.020	0.005	0.015	0.044	2.695	1.895	1.890	1.899	1.919	1.919	1.919
0.005	-0.005	-0.005	0.020	0.005	0.005	0.039	2.710	1.899	1.895	1.895	1.919	1.914	1.919
-0.005	0.015	0.010	0.015	-0.005	0.024	0.044	2.695	1.899	1.899	1.895	1.914	1.909	1.919
0.005	-0.005	0.005	0.020	-0.005	0.044	0.044	2.695	1.895	1.885	1.890	1.909	1.904	1.919
0.015	0.010	0.000	0.015	-0.024	0.044	0.044	2.700	1.890	1.890	1.885	1.904	1.899	1.909
0.000	0.039	0.000	-0.005	-0.005	0.020	0.039	2.705	1.885	1.890	1.880	1.895	1.899	1.895
-0.005	0.010	0.000	-0.010	-0.020	0.005	0.039	2.671	1.875	1.875	1.880	1.890	1.885	1.885
-0.005	0.005	0.000	-0.015	-0.029	-0.020	0.039	2.700	1.880	1.875	1.875	1.890	1.885	1.880
-0.015	0.010	0.005	-0.024	-0.034	-0.063	0.044	2.676	1.880	1.880	1.875	1.890	1.880	1.870
-0.005	-0.010	0.010	-0.020	-0.044	-0.063	0.039	2.715	1.885	1.875	1.875	1.885	1.880	1.875
-0.010	-0.029	0.005	-0.010	0.015	-0.049	0.044	2.681	1.890	1.875	1.875	1.899	1.904	1.890
0.010	-0.044	-0.005	0.000	0.029	-0.034	0.044	2.710	1.904	1.885	1.880	1.899	1.909	1.899
0.005	0.005	-0.005	0.015	0.049	-0.034	0.039	2.715	1.904	1.904	1.890	1.914	1.914	1.909
-0.010	0.034	0.000	0.020	0.044	0.015	0.044	2.720	1.909	1.919	1.904	1.924	1.919	1.924
-0.005	0.020	-0.005	0.034	0.034	0.029	0.044	2.666	1.914	1.919	1.904	1.924	1.919	1.929
0.005	0.029	0.000	0.024	0.020	0.020	0.044	2.676	1.914	1.919	1.909	1.929	1.914	1.924
0.005	-0.005	0.000	0.020	0.015	0.020	0.044	2.681	1.909	1.904	1.909	1.924	1.914	1.919
0.010	-0.020	0.005	0.010	0.000	0.015	0.044	2.676	1.904	1.899	1.904	1.924	1.909	1.919
0.000	0.005	0.005	0.005	0.005	0.015	0.044	2.710	1.899	1.904	1.904	1.919	1.909	1.914
-0.005	0.015	0.010	0.000	0.010	0.000	0.044	2.710	1.890	1.899	1.899	1.914	1.909	1.904
0.000	0.000	-0.005	0.000	0.020	0.005	0.044	2.671	1.880	1.885	1.890	1.909	1.909	1.904
0.005	-0.010	0.000	0.010	0.015	0.005	0.044	2.681	1.880	1.880	1.885	1.909	1.904	1.904
0.010	-0.015	0.005	0.015	0.010	0.015	0.044	2.705	1.880	1.875	1.880	1.904	1.899	1.899
0.000	-0.010	0.000	0.010	-0.005	0.020	0.044	2.661	1.875	1.870	1.875	1.895	1.890	1.899
0.000	0.005	0.005	0.010	-0.010	0.015	0.039	2.778	1.890	1.880	1.875	1.895	1.890	1.895
0.005	0.024	0.000	0.005	-0.010	-0.005	0.044	2.651	1.890	1.885	1.880	1.895	1.890	1.890
0.000	0.015	0.005	0.000	-0.010	0.000	0.039	2.671	1.890	1.890	1.880	1.895	1.895	1.890
0.000	0.010	0.005	-0.005	-0.005	0.010	0.039	2.646	1.885	1.885	1.885	1.895	1.895	1.895
0.000	0.015	0.005	-0.005	0.000	0.005	0.039	2.695	1.895	1.895	1.890	1.899	1.899	1.895
0.005	0.020	0.005	-0.010	-0.010	0.010	0.039	2.729	1.909	1.904	1.890	1.904	1.904	1.899
0.005	0.039	0.005	-0.010	-0.005	-0.015	0.039	2.686	1.914	1.909	1.899	1.914	1.904	1.895
-0.010	-0.005	0.000	-0.010	0.000	-0.010	0.039	2.715	1.909	1.899	1.899	1.919	1.909	1.904
-0.005	-0.020	-0.010	-0.005	-0.005	0.015	0.044	2.705	1.909	1.899	1.899	1.919	1.909	1.914
0.000	0.000	0.000	-0.005	0.000	0.005	0.044	2.754	1.919	1.909	1.904	1.919	1.914	1.914
-0.010	0.000	0.000	-0.010	0.000	-0.010	0.044	2.729	1.914	1.909	1.904	1.914	1.909	1.904
0.005	0.010	0.000	-0.015	0.005	0.015	0.039	2.715	1.909	1.904	1.899	1.919	1.914	1.909
0.000	-0.020	0.005	-0.005	0.000	0.005	0.044	2.754	1.899	1.895	1.899	1.914	1.904	1.909
-0.005	-0.049	0.000	0.010	-0.005	0.000	0.039	2.710	1.895	1.880	1.890	1.914	1.904	1.904
-0.005	-0.024	0.000	0.010	-0.005	-0.005	0.044	2.666	1.890	1.885	1.885	1.909	1.899	1.899
0.010	-0.005	0.000	0.015	-0.005	0.000	0.039	2.651	1.885	1.890	1.885	1.904	1.899	1.895
0.000	0.098	0.000	0.010	-0.005	-0.005	0.039	2.695	1.880	1.914	1.890	1.904	1.899	1.899
-0.010	0.093	0.000	0.000	-0.010	-0.005	0.039	2.715	1.880	1.899	1.895	1.904	1.895	1.895
-0.010	0.039	0.000	0.000	-0.015	0.000	0.039	2.710	1.885	1.880	1.890	1.904	1.895	1.895
0.000	-0.039	0.005	0.000	-0.010	0.000	0.039	2.705	1.895	1.865	1.880	1.904	1.899	1.895
0.015	-0.049	0.005	0.015	-0.020	-0.005	0.044	2.690	1.899	1.880	1.885	1.909	1.899	1.899
0.034	-0.049	0.000	0.010	0.015	0.000	0.044	2.705	1.909	1.890	1.885	1.909	1.914	1.904
0.024	-0.034	0.000	0.005	0.005	0.005	0.044	2.686	1.914	1.904	1.895	1.909	1.914	1.914
0.005	0.000	0.000	0.010	-0.005	0.010	0.044	2.700	1.909	1.919	1.904	1.919	1.914	1.919
0.005	0.005	0.005	0.005	0.020	0.000	0.044	2.705	1.914	1.919	1.909	1.924	1.919	1.914
0.015	0.005	0.010	0.000	0.015	-0.005	0.039	2.710	1.914	1.919	1.909	1.924	1.919	1.914
0.000	-0.029	0.005	0.000	0.015	0.015	0.039	2.671	1.909	1.909	1.909	1.924	1.919	1.924
-0.010	0.000	0.005	0.005	0.010	0.015	0.039	2.720	1.904	1.909	1.904	1.924	1.919	1.924
0.000	-0.010	0.000	0.000	0.049	0.015	0.044	2.695	1.899	1.899	1.899	1.919	1.924	1.919
-0.005	0.029	0.005	0.005	0.034	0.015	0.039	2.700	1.895	1.904	1.904	1.919	1.914	1.914
0.000	0.034	0.005	0.005	-0.005	0.015	0.044	2.666	1.890	1.899	1.899	1.914	1.899	1.909
0.005	0.000	-0.005	0.010	0.000	0.005	0.044	2.705	1.890	1.885	1.890	1.914	1.899	1.899
-0.005	-0.005	0.000	0.015	0.000	0.015	0.044	2.705	1.880	1.875	1.880	1.904	1.899	1.899
0.000	0.000	0.000	0.010	-0.005	0.010	0.039	2.690	1.880	1.880	1.880	1.904	1.899	1.899
0.015	-0.005	0.000	0.010	0.000	0.005	0.044	2.710	1.890	1.880	1.880	1.899	1.899	1.899
0.005	0.000	0.005	0.000	-0.020	0.000	0.039	2.705	1.890	1.885	1.885	1.899	1.895	1.899
0.000	-0.010	0.005	0.000	-0.005	0.005	0.044	2.681	1.895	1.885	1.885	1.904	1.899	1.899
0.000	-0.005	0.000	-0.005	-0.005	-0.005	0.039	2.676	1.899	1.895	1.890	1.904	1.899	1.899
0.010	0.015	0.000	-0.010	0.005	0.005	0.039	2.700	1.909	1.904	1.895	1.909	1.904	1.904
-0.005	0.059	0.000	-0.015	0.000	-0.010	0.044	2.676	1.909	1.924	1.904	1.914	1.909	1.904
0.005	0.024	0.005	-0.015	0.005	0.005	0.044	2.788	1.919	1.909	1.909	1.919	1.914	1.909
-0.005	-0.020	0.005	-0.020	0.005	0.000	0.039	2.651	1.909	1.904	1.909	1.919	1.914	1.914
0.000	-0.059	0.005	-0.010	0.000	-0.005	0.044	2.661	1.904	1.890	1.904	1.924	1.914	1.914
-0.005	-0.024	0.000	-0.015	-0.005	-0.005	0.039	2.651	1.899	1.904	1.904	1.924	1.914	1.909
0.000	0.010	-0.005	-0.005	0.005	-0.020	0.044	2.690	1.895	1.904	1.899	1.919	1.914	1.909
0.000	-0.020	0.000	0.010	-0.005	-0.015	0.044	2.734	1.895	1.895	1.899	1.924	1.914	1.909
-0.005	0.078	0.000	0.029	-0.010	-0.005	0.044	2.695	1.895	1.914	1.904	1.924	1.909	1.909
-0.005	0.015	0.000	0.034	-0.005	-0.020	0.044	2.749	1.890	1.885	1.895	1.919	1.909	1.904
0.005	-0.005	0.000	0.020	0.000	-0.020	0.044	2.710	1.895	1.880	1.885	1.909	1.909	1.899
0.010	0.000	0.005	0.015	-0.015	-0.005	0.044	2.725	1.895	1.880	1.885	1.904	1.899	1.904
0.005	0.005	0.005	0.020	-0.020	0.000	0.044	2.729	1.890	1.885	1.880	1.904	1.899	1.904
0.000	-0.020	0.000	0.010	-0.010	0.005	0.044	2.642	1.885	1.880	1.880	1.899	1.899	1.904
0.005	-0.015	0.005	0.005	-0.034	0.000	0.044	2.729	1.895	1.885	1.880	1.899	1.890	1.895
0.005	-0.015	0.005	-0.005	-0.034	0.015	0.039	2.715	1.904	1.895	1.885	1.899	1.899	1.904
0.010	0.000	0.000	-0.020	0.015	-0.005	0.039	2.661	1.904	1.899	1.895	1.899	1.909	1.904
-0.010	0.073	0.000	-0.020	0.034	-0.010	0.044	2.661	1.909	1.934	1.909	1.909	1.914	1.909
0.000	0.054	0.000	-0.015	0.020	0.010	0.044	2.710	1.909	1.914	1.909	1.919	1.914	1.914
0.000	0.000	0.005	0.000	0.020	0.010	0.044	2.710	1.914	1.909	1.909	1.929	1.924	1.924
0.000	-0.010	-0.005	0.000	0.044	0.015	0.039	2.705	1.914	1.909	1.909	1.929	1.929	1.924
0.000	-0.029	0.010	0.000	0.020	0.010	0.044	2.710	1.914	1.904	1.904	1.929	1.919	1.919
0.000	-0.029	-0.005	-0.005	0.044	0.005	0.039	2.671	1.904	1.904	1.904	1.924	1.924	1.919
0.010	-0.005	0.000	-0.005	0.059	0.000	0.044	2.705	1.909	1.904	1.904	1.924	1.924	1.919
-0.015	0.015	0.000	-0.020	0.029	0.015	0.044	2.705	1.895	1.904	1.899	1.914	1.909	1.919
-0.005	0.020	0.010	-0.034	0.024	0.005	0.049	2.700	1.895	1.904	1.899	1.909	1.904	1.909
0.000	0.059	0.000	-0.039	-0.020	0.005	0.039	2.705	1.895	1.899	1.895	1.904	1.890	1.899
0.015	-0.078	0.000	-0.039	-0.020	-0.005	0.044	2.686	1.890	1.860	1.880	1.899	1.890	1.895
0.005	-0.063	-0.005	-0.010	-0.015	0.005	0.039	2.676	1.885	1.870	1.875	1.904	1.890	1.895
-0.005	-0.024	0.005	0.015	-0.010	-0.015	0.044	2.686	1.885	1.880	1.880	1.909	1.895	1.890
0.000	0.000	0.005	0.029	-0.010	0.015	0.044	2.710	1.890	1.890	1.885	1.909	1.904	1.899
0.015	-0.020	0.000	0.054	-0.015	0.005	0.044	2.695	1.895	1.890	1.885	1.919	1.904	1.899
0.010	0.054	0.010	0.054	-0.010	0.005	0.039	2.686	1.895	1.919	1.899	1.919	1.914	1.904
-0.005	0.020	0.000	0.044	-0.005	0.005	0.044	2.690	1.899	1.904	1.899	1.919	1.919	1.909
0.005	0.020	0.000	0.034	-0.005	0.010	0.039	2.705	1.909	1.909	1.909	1.924	1.919	1.919
-0.005	0.024	0.000	0.034	-0.010	0.005	0.039	2.715	1.909	1.909	1.909	1.924	1.919	1.919
-0.005	0.078	0.005	0.029	-0.005	0.010	0.044	2.705	1.914	1.934	1.919	1.929	1.924	1.919
-0.010	0.083	0.005	0.029	0.000	0.010	0.039	2.695	1.914	1.924	1.919	1.934	1.929	1.924
0.010	-0.015	0.000	0.029	0.000	0.020	0.044	2.676	1.904	1.890	1.909	1.929	1.924	1.929
0.005	-0.024	0.005	0.010	-0.005	0.010	0.039	2.695	1.904	1.890	1.899	1.919	1.919	1.919
0.000	-0.005	0.005	0.000	-0.005	0.015	0.044	2.686	1.899	1.895	1.895	1.914	1.914	1.919
0.005	-0.039	0.005	-0.010	0.005	-0.005	0.039	2.661	1.895	1.880	1.890	1.904	1.909	1.909
0.024	-0.073	0.005	-0.015	0.020	0.005	0.044	2.773	1.909	1.875	1.880	1.904	1.909	1.909
0.010	-0.068	-0.005	-0.020	0.020	0.000	0.039	2.661	1.890	1.875	1.875	1.895	1.899	1.904
-0.010	-0.020	0.000	-0.020	0.010	0.000	0.039	2.666	1.875	1.890	1.875	1.895	1.895	1.899
-0.010	0.073	0.000	-0.015	-0.005	-0.039	0.044	2.715	1.875	1.914	1.885	1.895	1.890	1.885
-0.024	0.156	0.000	-0.010	-0.015	0.000	0.039	2.686	1.880	1.914	1.899	1.899	1.890	1.899
0.015	-0.059	0.000	-0.005	-0.029	-0.005	0.044	2.744	1.890	1.855	1.880	1.904	1.890	1.890
0.020	-0.122	-0.005	-0.010	-0.029	-0.005	0.044	2.671	1.890	1.851	1.875	1.899	1.890	1.895
0.000	-0.044	0.000	-0.010	-0.020	-0.005	0.044	2.754	1.904	1.890	1.880	1.899	1.899	1.895
0.005	0.029	0.005	-0.010	-0.010	-0.005	0.039	2.710	1.909	1.924	1.895	1.909	1.904	1.899
0.005	0.068	0.005	0.000	-0.010	-0.005	0.044	2.627	1.904	1.924	1.909	1.919	1.909	1.904
0.000	0.000	0.005	0.005	0.024	0.010	0.044	2.725	1.904	1.904	1.909	1.929	1.924	1.919
-0.005	-0.015	-0.005	0.010	0.015	0.010	0.039	2.729	1.914	1.904	1.904	1.929	1.919	1.919
-0.005	0.005	0.005	0.005	0.010	0.010	0.044	2.671	1.909	1.909	1.909	1.924	1.924	1.919
-0.005	0.024	0.000	-0.005	0.078	-0.005	0.039	2.734	1.909	1.914	1.909	1.929	1.938	1.924
-0.005	0.005	0.005	-0.010	0.039	0.020	0.044	2.632	1.899	1.904	1.909	1.919	1.919	1.924
0.000	-0.024	0.005	-0.015	0.005	0.005	0.039	2.656	1.895	1.890	1.899	1.914	1.909	1.914
-0.005	0.020	0.005	-0.005	0.015	0.005	0.044	2.676	1.885	1.895	1.895	1.914	1.904	1.909
-0.015	0.029	0.000	0.000	0.039	-0.005	0.044	2.715	1.885	1.890	1.890	1.914	1.914	1.904
-0.005	0.000	0.000	-0.005	0.044	-0.005	0.039	2.705	1.880	1.875	1.880	1.904	1.909	1.904
0.000	0.010	-0.005	-0.005	-0.010	0.000	0.039	2.700	1.885	1.885	1.880	1.899	1.885	1.899
0.005	0.039	0.000	0.000	-0.034	0.005	0.039	2.676	1.885	1.885	1.880	1.899	1.885	1.895
0.010	0.005	0.005	0.015	-0.078	0.015	0.044	2.700	1.890	1.875	1.880	1.904	1.875	1.895
0.005	-0.020	0.005	0.015	-0.054	0.010	0.044	2.666	1.890	1.875	1.875	1.904	1.890	1.890
0.000	0.000	0.000	0.005	-0.024	0.015	0.044	2.681	1.899	1.890	1.885	1.904	1.904	1.895
0.000	-0.005	0.000	0.000	-0.010	-0.010	0.044	2.686	1.904	1.895	1.885	1.904	1.909	1.895
0.000	0.000	0.005	-0.005	-0.005	0.000	0.044	2.705	1.909	1.899	1.895	1.909	1.909	1.904
0.015	-0.005	0.000	0.005	-0.005	-0.024	0.044	2.676	1.914	1.904	1.899	1.914	1.909	1.904
0.005	-0.015	0.000	0.005	-0.015	-0.005	0.039	2.681	1.909	1.904	1.904	1.919	1.909	1.914
0.000	-0.010	0.005	0.010	-0.020	-0.010	0.044	2.705	1.909	1.909	1.904	1.924	1.914	1.914
-0.005	-0.034	0.000	-0.005	0.005	-0.020	0.039	2.676	1.904	1.899	1.904	1.914	1.919	1.914
-0.010	0.010	0.005	-0.010	0.059	0.020	0.039	2.686	1.904	1.919	1.909	1.919	1.934	1.929
0.000	0.137	0.005	0.005	0.049	0.005	0.039	2.686	1.904	1.948	1.919	1.924	1.924	1.919
-0.005	0.093	0.005	0.015	-0.020	-0.024	0.039	2.715	1.899	1.909	1.909	1.924	1.899	1.904
0.020	-0.068	0.005	0.015	-0.034	-0.024	0.044	2.666	1.890	1.865	1.890	1.919	1.899	1.899
0.015	-0.049	0.005	0.005	-0.015	-0.010	0.044	2.671	1.880	1.870	1.880	1.909	1.904	1.904
0.005	-0.005	0.000	-0.005	0.059	-0.005	0.039	2.671	1.875	1.880	1.880	1.899	1.919	1.904
0.005	0.000	0.010	0.005	0.088	0.015	0.044	2.676	1.880	1.875	1.880	1.904	1.919	1.919
-0.010	-0.005	0.005	0.010	0.034	-0.010	0.039	2.690	1.880	1.875	1.875	1.899	1.899	1.899
-0.005	0.029	0.000	0.005	0.029	0.000	0.044	2.695	1.885	1.885	1.880	1.899	1.895	1.904
0.010	-0.024	-0.005	0.005	0.005	-0.015	0.039	2.666	1.890	1.875	1.875	1.895	1.890	1.895
-0.005	-0.005	0.005	0.000	0.005	-0.015	0.039	2.793	1.909	1.895	1.885	1.904	1.895	1.899
0.005	0.015	0.000	0.000	0.020	-0.020	0.039	2.646	1.904	1.904	1.895	1.904	1.904	1.899
0.000	0.015	0.000	-0.005	0.005	-0.015	0.039	2.666	1.899	1.904	1.899	1.909	1.899	1.904
0.005	-0.015	0.000	-0.015	-0.005	-0.020	0.044	2.651	1.904	1.899	1.904	1.909	1.899	1.904
-0.005	-0.024	0.000	-0.015	-0.024	0.000	0.039	2.686	1.904	1.904	1.904	1.914	1.899	1.909
-0.005	-0.005	0.000	-0.005	-0.024	-0.015	0.039	2.637	1.904	1.904	1.904	1.919	1.904	1.909
0.020	-0.005	-0.005	0.005	-0.024	0.000	0.039	2.666	1.904	1.904	1.904	1.924	1.909	1.909
0.020	0.015	0.005	0.015	-0.029	-0.020	0.039	2.754	1.909	1.909	1.904	1.924	1.909	1.899
-0.005	0.010	0.005	0.020	-0.015	-0.020	0.039	2.695	1.895	1.899	1.904	1.919	1.909	1.904
0.005	0.005	0.010	0.005	-0.005	-0.005	0.044	2.759	1.899	1.895	1.899	1.914	1.914	1.914
0.000	0.000	0.005	-0.005	-0.015	0.039	0.039	2.739	1.895	1.885	1.890	1.909	1.909	1.919
-0.005	0.005	0.005	0.005	-0.039	0.029	0.044	2.627	1.880	1.880	1.885	1.904	1.899	1.909
-0.010	0.020	0.000	0.000	-0.020	0.015	0.039	2.734	1.880	1.885	1.880	1.899	1.899	1.899
-0.015	0.059	0.005	-0.005	0.015	0.020	0.044	2.729	1.890	1.895	1.885	1.899	1.909	1.899
-0.005	0.020	0.000	0.000	0.034	0.029	0.039	2.671	1.885	1.880	1.885	1.904	1.909	1.909
0.000	-0.010	0.000	-0.005	0.015	0.015	0.044	2.671	1.890	1.870	1.880	1.904	1.899	1.904
-0.015	-0.049	0.005	-0.005	0.034	0.015	0.044	2.690	1.890	1.870	1.875	1.904	1.909	1.909
0.005	-0.049	0.000	-0.010	0.015	-0.005	0.039	2.720	1.904	1.880	1.880	1.899	1.904	1.904
0.020	-0.039	-0.005	-0.010	-0.015	0.034	0.044	2.681	1.914	1.899	1.880	1.904	1.895	1.909
0.010	-0.015	0.000	-0.010	0.000	0.039	0.044	2.710	1.909	1.914	1.895	1.909	1.904	1.914
0.005	0.010	0.000	-0.005	0.049	0.034	0.044	2.676	1.914	1.924	1.904	1.919	1.924	1.919
0.005	0.005	0.000	0.005	0.059	0.024	0.039	2.695	1.909	1.919	1.909	1.924	1.924	1.919
0.005	0.024	0.000	0.000	0.068	0.029	0.044	2.671	1.904	1.919	1.914	1.929	1.924	1.924
0.000	0.034	0.000	0.000	0.029	0.015	0.039	2.676	1.899	1.914	1.914	1.929	1.909	1.914
0.005	0.000	0.000	0.000	-0.005	0.020	0.039	2.705	1.909	1.904	1.909	1.924	1.904	1.909
0.010	0.010	0.000	-0.005	-0.020	0.010	0.044	2.710	1.899	1.899	1.899	1.919	1.899	1.904
0.000	0.015	0.010	-0.010	-0.020	-0.010	0.044	2.690	1.890	1.895	1.899	1.914	1.899	1.895
0.000	0.005	0.000	0.005	-0.029	-0.015	0.044	2.671	1.875	1.880	1.890	1.914	1.899	1.890
0.000	-0.015	0.005	0.020	-0.020	-0.005	0.044	2.681	1.875	1.875	1.885	1.909	1.899	1.899
0.005	-0.015	0.005	0.029	-0.005	0.000	0.044	2.710	1.875	1.870	1.875	1.909	1.904	1.899
0.010	-0.005	0.000	0.024	-0.015	0.000	0.044	2.686	1.880	1.875	1.875	1.904	1.899	1.899
0.000	0.029	0.000	0.024	-0.029	-0.034	0.039	2.686	1.880	1.885	1.875	1.899	1.895	1.890
-0.010	0.029	0.000	0.015	-0.010	-0.005	0.044	2.671	1.880	1.880	1.880	1.899	1.899	1.899
-0.005	0.015	0.000	0.005	0.000	-0.029	0.044	2.705	1.895	1.885	1.880	1.895	1.904	1.895
0.015	-0.020	-0.005	0.005	-0.015	-0.029	0.039	2.686	1.899	1.885	1.880	1.899	1.899	1.899
0.005	-0.005	0.000	0.000	-0.005	-0.020	0.044	2.700	1.904	1.895	1.890	1.904	1.904	1.904
-0.005	0.010	-0.005	0.000	-0.005	0.010	0.039	2.686	1.909	1.904	1.899	1.909	1.909	1.919
-0.005	0.015	0.000	-0.005	0.000	0.010	0.039	2.695	1.909	1.909	1.904	1.914	1.909	1.914
0.000	0.015	0.005	-0.005	0.000	0.005	0.039	2.700	1.909	1.909	1.904	1.919	1.909	1.914
-0.015	0.015	0.000	0.000	-0.005	0.005	0.039	2.642	1.899	1.909	1.909	1.919	1.909	1.914
0.024	0.015	0.000	0.015	-0.015	0.000	0.044	2.803	1.924	1.914	1.904	1.924	1.909	1.914
0.059	0.005	0.005	0.020	-0.049	-0.020	0.044	2.798	1.934	1.914	1.904	1.919	1.899	1.899
0.029	-0.010	0.000	0.015	-0.015	0.010	0.044	2.666	1.909	1.904	1.899	1.919	1.914	1.909
0.010	-0.029	-0.005	0.005	0.005	0.015	0.039	2.651	1.885	1.885	1.890	1.909	1.914	1.909
-0.034	0.000	-0.005	0.000	-0.010	0.005	0.044	2.681	1.875	1.885	1.890	1.904	1.904	1.899
-0.059	-0.015	0.000	-0.015	-0.010	0.010	0.044	2.729	1.870	1.870	1.880	1.899	1.895	1.899
-0.034	0.000	0.010	-0.015	0.020	0.020	0.039	2.705	1.875	1.875	1.880	1.895	1.904	1.904
-0.024	0.010	0.015	-0.015	0.024	0.020	0.039	2.729	1.890	1.885	1.880	1.899	1.899	1.904
-0.015	0.010	0.005	-0.015	0.029	0.020	0.039	2.710	1.899	1.885	1.880	1.899	1.899	1.899
-0.015	0.020	0.000	-0.015	0.015	0.020	0.044	2.656	1.895	1.895	1.885	1.899	1.899	1.899
-0.005	0.000	0.000	-0.015	0.039	0.020	0.044	2.759	1.914	1.895	1.885	1.904	1.909	1.904
0.005	-0.015	0.005	-0.005	0.039	0.015	0.044	2.642	1.914	1.904	1.895	1.914	1.909	1.909
0.005	0.039	0.000	0.010	0.010	0.015	0.044	2.646	1.909	1.924	1.904	1.919	1.904	1.909
0.024	-0.039	-0.005	0.020	-0.005	0.024	0.044	2.710	1.919	1.899	1.904	1.929	1.909	1.909
0.015	-0.034	0.005	0.020	0.020	0.010	0.044	2.754	1.929	1.914	1.909	1.929	1.924	1.909
0.029	-0.044	0.000	0.015	0.034	-0.005	0.044	2.637	1.919	1.909	1.904	1.929	1.924	1.914
0.020	-0.024	0.000	0.000	0.005	0.010	0.044	2.720	1.919	1.914	1.909	1.924	1.914	1.919
-0.005	0.088	0.000	-0.005	-0.015	0.000	0.039	2.686	1.909	1.948	1.919	1.924	1.909	1.914
0.005	0.034	0.005	0.005	0.000	-0.005	0.039	2.676	1.895	1.909	1.914	1.929	1.914	1.909
0.000	-0.034	0.000	0.005	-0.005	-0.020	0.044	2.715	1.890	1.880	1.899	1.924	1.909	1.904
-0.005	-0.029	0.005	0.000	-0.020	-0.010	0.044	2.695	1.885	1.885	1.890	1.909	1.909	1.899
0.020	-0.010	0.000	-0.010	-0.010	-0.020	0.044	2.705	1.895	1.890	1.890	1.909	1.904	1.899
0.010	0.000	0.000	-0.005	-0.015	0.010	0.039	2.695	1.885	1.890	1.885	1.904	1.899	1.904
0.005	0.010	0.000	0.015	-0.024	0.005	0.039	2.686	1.885	1.890	1.885	1.909	1.899	1.904
0.005	0.044	0.000	0.029	-0.044	0.010	0.044	2.710	1.890	1.895	1.890	1.914	1.895	1.899
0.000	0.039	-0.005	0.029	-0.054	0.000	0.039	2.681	1.895	1.895	1.890	1.909	1.895	1.899
-0.010	0.068	-0.005	0.024	-0.044	0.005	0.044	2.710	1.895	1.899	1.895	1.909	1.904	1.904
-0.005	-0.005	0.005	0.000	-0.024	0.000	0.039	2.715	1.904	1.885	1.895	1.909	1.914	1.904
0.010	-0.034	0.010	-0.010	0.020	0.010	0.044	2.681	1.904	1.890	1.895	1.909	1.929	1.919
0.005	-0.039	0.000	-0.005	0.024	-0.010	0.039	2.710	1.914	1.899	1.899	1.919	1.924	1.914
0.000	-0.010	0.005	-0.015	0.020	-0.024	0.039	2.690	1.914	1.914	1.899	1.914	1.919	1.909
0.005	0.005	0.005	-0.020	0.015	-0.010	0.044	2.676	1.904	1.914	1.909	1.914	1.919	1.919
0.000	0.000	0.005	-0.020	0.024	-0.020	0.044	2.705	1.909	1.914	1.909	1.924	1.919	1.919
-0.015	0.029	0.000	-0.005	0.020	-0.024	0.044	2.686	1.904	1.919	1.909	1.929	1.919	1.919
0.000	0.000	0.000	-0.005	0.015	-0.015	0.039	2.705	1.909	1.899	1.904	1.924	1.919	1.919
0.000	-0.010	-0.005	0.005	0.034	0.000	0.044	2.690	1.899	1.895	1.899	1.924	1.924	1.924
-0.005	0.000	-0.005	0.010	0.049	0.000	0.044	2.705	1.895	1.895	1.895	1.919	1.924	1.924
-0.005	-0.005	-0.005	0.010	0.073	0.005	0.039	2.686	1.890	1.885	1.890	1.914	1.924	1.924
0.005	0.000	0.000	0.015	0.044	0.024	0.039	2.700	1.890	1.885	1.885	1.909	1.909	1.919
0.010	-0.010	0.000	0.015	-0.015	0.020	0.039	2.671	1.885	1.885	1.880	1.904	1.890	1.904
0.010	-0.005	0.005	0.010	-0.005	0.024	0.039	2.749	1.899	1.890	1.880	1.899	1.895	1.904
-0.005	0.010	0.005	0.015	0.020	0.000	0.044	2.661	1.890	1.890	1.885	1.904	1.899	1.899
-0.005	0.005	0.000	0.010	0.029	0.005	0.044	2.661	1.890	1.890	1.885	1.904	1.904	1.904
-0.005	0.005	0.005	0.000	0.068	0.010	0.039	2.720	1.890	1.895	1.890	1.909	1.914	1.909
-0.005	0.020	0.000	-0.005	0.054	0.010	0.044	2.690	1.899	1.904	1.895	1.909	1.909	1.909
-0.005	0.029	0.000	-0.010	0.024	0.015	0.039	2.725	1.914	1.914	1.904	1.914	1.904	1.914
0.005	0.000	0.000	-0.010	0.000	0.010	0.039	2.705	1.919	1.904	1.899	1.919	1.899	1.909
0.010	-0.039	0.005	-0.005	-0.024	-0.024	0.039	2.627	1.909	1.904	1.904	1.919	1.899	1.899
0.029	0.044	0.000	0.000	-0.044	0.010	0.039	2.676	1.914	1.929	1.909	1.929	1.904	1.909
0.010	-0.034	0.005	0.005	-0.024	0.005	0.044	2.749	1.914	1.899	1.909	1.929	1.919	1.909
0.000	0.010	0.005	0.000	0.000	0.005	0.044	2.637	1.904	1.914	1.909	1.929	1.924	1.914
0.000	-0.029	0.005	0.000	-0.010	0.000	0.039	2.617	1.885	1.895	1.899	1.919	1.914	1.909
-0.005	-0.005	0.005	0.000	-0.020	0.000	0.044	2.764	1.895	1.895	1.899	1.914	1.909	1.904
-0.005	-0.015	0.005	0.005	-0.034	-0.005	0.039	2.632	1.885	1.885	1.890	1.914	1.904	1.904
0.010	-0.020	0.000	0.010	-0.059	-0.015	0.044	2.720	1.875	1.880	1.885	1.909	1.895	1.899
0.005	0.024	0.000	0.000	-0.063	-0.020	0.044	2.642	1.870	1.885	1.880	1.899	1.890	1.890
0.015	0.015	0.000	-0.005	-0.059	-0.015	0.044	2.666	1.870	1.875	1.880	1.895	1.890	1.890
0.010	0.000	0.000	-0.005	-0.044	-0.059	0.039	2.715	1.875	1.870	1.875	1.895	1.895	1.880
0.000	0.010	0.000	0.010	-0.034	-0.024	0.044	2.676	1.875	1.875	1.875	1.899	1.899	1.890
0.000	0.000	0.000	0.000	-0.044	-0.010	0.044	2.710	1.880	1.875	1.875	1.895	1.895	1.899
0.005	-0.039	-0.005	-0.005	-0.024	-0.010	0.039	2.686	1.895	1.875	1.875	1.899	1.904	1.904
0.005	-0.034	0.000	0.005	-0.015	0.020	0.039	2.681	1.904	1.885	1.885	1.904	1.909	1.914
-0.005	-0.010	0.005	0.005	0.073	0.020	0.044	2.671	1.904	1.899	1.890	1.909	1.938	1.924
0.005	0.015	0.000	0.005	0.142	0.000	0.039	2.710	1.914	1.909	1.899	1.914	1.943	1.929
-0.005	0.024	0.005	0.005	0.112	0.010	0.044	2.686	1.914	1.919	1.904	1.919	1.934	1.929
-0.010	-0.015	0.000	-0.005	0.063	-0.010	0.044	2.695	1.914	1.909	1.904	1.914	1.914	1.919
-0.005	-0.005	0.000	-0.005	0.054	-0.005	0.044	2.676	1.909	1.909	1.904	1.919	1.909	1.919
-0.010	-0.005	0.000	0.000	0.034	0.000	0.044	2.700	1.904	1.904	1.904	1.919	1.899	1.914
-0.010	0.103	0.005	0.000	-0.010	0.015	0.044	2.681	1.899	1.938	1.909	1.919	1.895	1.909
0.010	0.093	0.005	0.010	-0.049	0.015	0.044	2.700	1.899	1.914	1.909	1.919	1.885	1.899
0.010	0.005	-0.005	0.005	-0.054	0.005	0.044	2.681	1.890	1.880	1.895	1.914	1.890	1.895
0.005	-0.063	0.000	0.010	-0.029	-0.010	0.039	2.676	1.875	1.855	1.880	1.909	1.899	1.885
0.005	-0.039	0.005	0.020	0.000	0.010	0.044	2.715	1.880	1.870	1.875	1.909	1.909	1.899
0.010	-0.015	-0.005	0.015	0.044	0.000	0.044	2.676	1.880	1.875	1.875	1.904	1.919	1.899
0.000	0.020	0.000	0.015	0.044	0.000	0.044	2.715	1.890	1.885	1.875	1.899	1.904	1.899
-0.005	-0.005	-0.005	0.010	0.010	0.015	0.044	2.686	1.890	1.880	1.875	1.899	1.895	1.904
0.005	0.000	0.005	0.005	0.000	0.010	0.044	2.686	1.895	1.890	1.880	1.899	1.895	1.899
0.015	0.000	0.000	0.000	-0.015	0.005	0.044	2.690	1.899	1.895	1.890	1.899	1.890	1.899
0.000	0.010	0.005	-0.005	-0.015	0.010	0.044	2.705	1.904	1.904	1.890	1.904	1.895	1.899
-0.010	0.000	0.000	-0.005	-0.010	0.010	0.044	2.681	1.904	1.899	1.899	1.909	1.904	1.904
-0.005	0.005	0.005	-0.005	-0.015	0.010	0.044	2.661	1.919	1.909	1.904	1.914	1.904	1.904
-0.010	0.015	0.005	-0.010	-0.010	0.005	0.039	2.676	1.909	1.914	1.909	1.919	1.909	1.904
0.000	0.015	0.000	-0.005	-0.015	0.005	0.044	2.661	1.914	1.914	1.909	1.919	1.909	1.909
-0.005	0.020	0.000	-0.005	-0.005	-0.005	0.044	2.749	1.904	1.914	1.909	1.924	1.914	1.904
0.000	0.015	0.000	0.000	0.000	-0.005	0.039	2.686	1.895	1.904	1.904	1.924	1.914	1.909
0.005	0.005	0.005	-0.010	-0.020	-0.015	0.044	2.632	1.895	1.895	1.899	1.919	1.909	1.899
-0.010	0.005	0.000	-0.005	-0.044	-0.015	0.044	2.671	1.880	1.885	1.895	1.914	1.899	1.899
0.005	0.005	0.000	0.005	-0.049	-0.020	0.039	2.744	1.890	1.880	1.890	1.909	1.895	1.895
0.010	-0.034	-0.005	0.005	-0.059	0.015	0.039	2.705	1.880	1.870	1.875	1.904	1.890	1.899
0.010	-0.010	0.000	0.005	-0.049	0.000	0.044	2.646	1.890	1.880	1.880	1.899	1.895	1.899
0.010	0.010	0.000	0.010	-0.020	0.005	0.039	2.729	1.895	1.885	1.875	1.899	1.904	1.895
0.000	0.020	0.010	0.010	0.015	-0.015	0.049	2.622	1.880	1.890	1.885	1.899	1.909	1.895
-0.005	0.010	0.005	0.010	0.010	-0.005	0.039	2.666	1.885	1.885	1.880	1.899	1.904	1.899
0.000	0.005	0.005	0.020	-0.010	-0.020	0.044	2.725	1.899	1.890	1.885	1.909	1.899	1.899
0.015	-0.010	0.005	0.015	-0.059	0.010	0.039	2.651	1.904	1.895	1.890	1.904	1.890	1.909
0.015	0.015	0.005	0.015	0.005	0.024	0.039	2.656	1.899	1.909	1.895	1.914	1.919	1.919
0.005	-0.015	0.000	0.010	0.146	0.034	0.044	2.705	1.904	1.899	1.904	1.919	1.958	1.934
-0.005	-0.010	0.000	-0.005	0.137	0.010	0.044	2.715	1.919	1.909	1.904	1.919	1.938	1.929
-0.005	-0.015	0.005	0.000	0.063	0.029	0.044	2.705	1.914	1.904	1.909	1.919	1.914	1.934
-0.005	-0.005	0.000	-0.005	0.024	0.029	0.039	2.710	1.914	1.914	1.904	1.919	1.904	1.924
0.000	-0.005	0.005	-0.005	0.024	0.010	0.044	2.666	1.909	1.909	1.904	1.919	1.909	1.914
0.000	-0.010	0.000	0.000	0.024	0.000	0.039	2.700	1.904	1.899	1.899	1.919	1.904	1.904
0.000	0.024	0.000	0.000	0.015	0.020	0.039	2.671	1.899	1.909	1.904	1.919	1.909	1.909
0.005	0.020	0.000	0.000	0.034	-0.034	0.039	2.666	1.885	1.895	1.899	1.914	1.904	1.895
0.005	-0.010	0.000	0.000	0.044	0.000	0.039	2.681	1.880	1.875	1.890	1.909	1.909	1.904
0.020	0.020	0.000	0.000	0.015	-0.015	0.039	2.695	1.885	1.885	1.885	1.904	1.895	1.895
-0.005	0.015	0.010	0.000	-0.024	0.010	0.039	2.666	1.875	1.880	1.885	1.904	1.885	1.895
-0.015	0.000	0.005	0.000	-0.049	0.010	0.044	2.710	1.875	1.875	1.880	1.899	1.880	1.895
0.000	-0.015	0.000	0.000	-0.044	-0.005	0.044	2.671	1.885	1.870	1.875	1.899	1.885	1.885
0.000	-0.029	-0.005	0.000	-0.029	0.015	0.044	2.676	1.885	1.870	1.875	1.899	1.895	1.895
0.005	-0.029	-0.005	0.005	-0.015	0.000	0.044	2.676	1.890	1.880	1.875	1.899	1.904	1.895
0.005	0.005	0.000	0.000	0.005	0.010	0.044	2.690	1.899	1.899	1.890	1.904	1.909	1.909
-0.005	0.015	-0.005	0.000	0.000	0.015	0.039	2.705	1.899	1.899	1.895	1.909	1.904	1.909
0.005	0.015	0.000	0.010	-0.015	0.010	0.044	2.715	1.914	1.914	1.904	1.914	1.909	1.909
-0.010	0.010	0.000	0.005	0.000	0.010	0.044	2.700	1.914	1.909	1.904	1.914	1.914	1.914
-0.005	0.010	0.005	0.000	0.000	0.010	0.044	2.710	1.909	1.909	1.909	1.924	1.914	1.914
0.005	-0.034	0.000	0.000	-0.005	0.000	0.039	2.681	1.904	1.895	1.904	1.919	1.914	1.909
0.005	0.005	0.005	0.005	0.000	0.005	0.039	2.681	1.899	1.909	1.904	1.919	1.914	1.914
0.015	-0.015	0.005	0.000	0.000	-0.020	0.039	2.690	1.895	1.890	1.895	1.914	1.909	1.904
0.010	-0.010	0.000	0.010	-0.010	-0.010	0.044	2.676	1.885	1.890	1.890	1.914	1.909	1.904
0.000	0.000	0.000	0.000	-0.020	-0.015	0.039	2.788	1.890	1.890	1.885	1.904	1.899	1.899
0.015	0.015	0.000	0.005	-0.010	-0.010	0.044	2.642	1.885	1.885	1.885	1.904	1.899	1.899
0.005	0.024	0.000	0.005	-0.005	0.015	0.039	2.651	1.875	1.890	1.880	1.899	1.899	1.904
0.000	0.049	0.000	0.010	0.000	0.015	0.044	2.651	1.870	1.885	1.880	1.899	1.899	1.904
0.005	-0.034	-0.005	0.000	0.000	0.015	0.044	2.681	1.880	1.860	1.875	1.895	1.895	1.899
-0.020	-0.005	0.005	-0.005	0.000	-0.005	0.044	2.759	1.890	1.875	1.875	1.895	1.895	1.890
-0.020	-0.020	0.000	-0.005	0.005	0.020	0.039	2.705	1.899	1.880	1.875	1.899	1.899	1.899
0.000	0.000	0.005	-0.005	0.005	0.005	0.044	2.729	1.909	1.899	1.885	1.899	1.904	1.899
0.005	0.005	0.005	0.000	0.020	0.000	0.039	2.676	1.909	1.904	1.895	1.904	1.904	1.904
-0.015	0.034	0.010	-0.005	0.015	-0.005	0.039	2.725	1.914	1.919	1.904	1.914	1.904	1.904
-0.015	0.000	0.000	-0.005	0.015	-0.015	0.039	2.749	1.919	1.909	1.904	1.919	1.909	1.904
0.005	-0.005	0.000	-0.005	0.005	-0.015	0.044	2.627	1.924	1.914	1.909	1.924	1.909	1.909
-0.005	0.024	0.005	0.000	-0.005	-0.024	0.044	2.749	1.924	1.929	1.914	1.924	1.909	1.904
0.010	0.000	0.000	0.010	0.000	-0.044	0.044	2.710	1.924	1.914	1.909	1.929	1.914	1.904
0.020	-0.029	0.005	0.020	0.000	-0.005	0.039	2.651	1.909	1.904	1.909	1.929	1.914	1.914
0.000	0.024	0.000	0.015	0.000	0.000	0.044	2.651	1.895	1.914	1.904	1.924	1.914	1.914
-0.005	0.010	0.000	0.005	-0.010	-0.029	0.039	2.671	1.885	1.899	1.899	1.919	1.909	1.899
-0.005	-0.005	0.000	0.000	0.000	0.020	0.039	2.705	1.885	1.885	1.895	1.914	1.914	1.914
-0.005	-0.034	0.000	0.000	0.024	0.005	0.044	2.715	1.885	1.870	1.885	1.909	1.914	1.909
0.024	-0.015	0.000	0.000	0.005	0.020	0.039	2.700	1.885	1.885	1.880	1.904	1.904	1.909
-0.010	-0.005	0.005	0.005	-0.034	0.020	0.039	2.695	1.880	1.885	1.880	1.899	1.890	1.904
-0.010	0.054	0.005	-0.005	-0.010	0.015	0.039	2.700	1.890	1.899	1.885	1.899	1.899	1.904
0.000	0.000	-0.005	-0.005	0.000	0.020	0.044	2.676	1.890	1.880	1.880	1.899	1.899	1.899
0.034	0.024	0.000	-0.010	0.010	0.020	0.039	2.681	1.904	1.899	1.890	1.904	1.909	1.909
0.000	0.005	-0.005	0.000	0.044	0.020	0.044	2.720	1.899	1.890	1.890	1.909	1.914	1.909
-0.005	-0.005	0.000	0.000	0.029	0.015	0.039	2.676	1.899	1.895	1.895	1.914	1.914	1.914
-0.010	0.005	0.000	-0.005	0.015	0.000	0.044	2.725	1.909	1.904	1.899	1.919	1.909	1.909
-0.015	0.020	0.000	0.005	0.005	0.024	0.039	2.661	1.904	1.909	1.904	1.924	1.914	1.919
0.000	0.020	0.005	0.005	0.010	0.000	0.044	2.695	1.909	1.914	1.909	1.924	1.919	1.914
-0.010	0.010	0.005	0.005	0.005	0.020	0.039	2.710	1.909	1.904	1.909	1.929	1.919	1.919
0.005	-0.020	0.010	0.010	0.000	0.015	0.044	2.681	1.904	1.899	1.904	1.924	1.914	1.914
0.005	-0.049	0.000	0.000	-0.005	0.010	0.039	2.705	1.899	1.885	1.895	1.919	1.914	1.909
0.005	-0.034	0.000	0.000	-0.005	-0.005	0.044	2.705	1.899	1.890	1.895	1.914	1.909	1.904
0.010	0.015	0.000	0.000	0.000	-0.024	0.044	2.700	1.895	1.904	1.890	1.909	1.904	1.899
0.015	0.000	0.005	-0.005	-0.024	-0.024	0.044	2.676	1.890	1.890	1.890	1.904	1.890	1.895
0.005	0.010	0.000	-0.005	-0.054	-0.068	0.044	2.700	1.885	1.890	1.885	1.899	1.880	1.880
0.010	0.083	-0.005	0.000	-0.044	-0.039	0.039	2.676	1.880	1.899	1.885	1.899	1.890	1.890
0.010	0.024	0.000	0.005	-0.005	-0.029	0.039	2.695	1.880	1.875	1.885	1.904	1.899	1.890
0.010	-0.029	0.000	0.000	-0.015	0.005	0.039	2.695	1.885	1.870	1.875	1.904	1.899	1.904
-0.010	0.000	0.005	0.005	-0.039	0.020	0.044	2.666	1.880	1.880	1.880	1.904	1.895	1.904
0.005	-0.005	0.000	0.010	-0.039	0.020	0.044	2.651	1.904	1.890	1.885	1.909	1.899	1.909
-0.005	0.005	0.000	0.020	-0.063	0.020	0.039	2.734	1.899	1.890	1.890	1.909	1.895	1.904
-0.020	0.029	0.005	0.020	-0.054	0.015	0.044	2.661	1.899	1.909	1.899	1.914	1.904	1.909
0.000	0.103	0.005	0.005	0.020	0.010	0.039	2.739	1.914	1.934	1.909	1.919	1.934	1.914
0.020	-0.024	0.000	-0.005	0.044	0.005	0.039	2.686	1.909	1.890	1.904	1.919	1.934	1.919
0.005	-0.117	-0.005	-0.005	0.059	0.005	0.039	2.612	1.895	1.870	1.895	1.919	1.934	1.924
0.005	-0.015	-0.005	0.000	0.039	-0.010	0.044	2.661	1.904	1.909	1.895	1.919	1.919	1.919
0.000	0.059	0.000	0.010	0.098	0.010	0.049	2.710	1.904	1.919	1.909	1.924	1.938	1.934
-0.005	-0.005	0.010	0.010	0.132	0.034	0.039	2.671	1.885	1.890	1.899	1.919	1.938	1.938
0.005	-0.044	0.015	0.005	0.181	0.039	0.039	2.725	1.895	1.880	1.890	1.914	1.943	1.938
0.005	-0.039	0.010	0.000	0.122	0.024	0.044	2.725	1.899	1.880	1.880	1.904	1.909	1.924
0.010	-0.020	0.000	-0.005	0.054	-0.005	0.044	2.642	1.890	1.885	1.875	1.899	1.885	1.904
0.000	-0.020	-0.010	-0.005	0.000	-0.015	0.039	2.632	1.875	1.880	1.870	1.890	1.870	1.890
-0.005	0.054	-0.005	-0.005	-0.059	0.000	0.039	2.695	1.880	1.899	1.880	1.895	1.860	1.880
-0.005	0.024	0.005	-0.005	-0.093	-0.005	0.039	2.681	1.875	1.885	1.880	1.890	1.855	1.870
-0.010	-0.005	0.005	-0.005	-0.073	-0.020	0.044	2.651	1.875	1.875	1.880	1.895	1.875	1.870
0.000	-0.010	0.000	-0.005	-0.020	0.000	0.039	2.715	1.880	1.875	1.880	1.899	1.895	1.880
0.005	-0.015	0.005	0.000	-0.034	0.000	0.044	2.710	1.895	1.885	1.880	1.899	1.895	1.885
-0.005	-0.010	0.005	0.000	-0.029	0.015	0.044	2.666	1.895	1.895	1.890	1.904	1.899	1.899
0.000	0.010	0.000	0.000	-0.029	0.010	0.044	2.690	1.904	1.904	1.895	1.909	1.899	1.904
0.000	0.020	0.005	0.000	0.015	0.010	0.044	2.686	1.909	1.909	1.899	1.919	1.919	1.909
0.000	0.010	0.005	0.000	0.073	0.010	0.039	2.710	1.909	1.909	1.904	1.924	1.943	1.919
-0.005	0.005	0.000	-0.005	0.122	-0.005	0.044	2.671	1.909	1.904	1.899	1.919	1.943	1.924
0.000	0.005	0.000	0.000	0.034	0.005	0.044	2.695	1.909	1.904	1.904	1.919	1.909	1.919
0.005	0.015	0.000	0.005	-0.029	0.000	0.044	2.690	1.904	1.904	1.899	1.914	1.890	1.904
0.005	0.000	0.000	0.005	-0.073	-0.010	0.039	2.671	1.890	1.895	1.895	1.914	1.880	1.895
0.005	0.000	0.000	0.010	-0.078	-0.005	0.044	2.695	1.885	1.885	1.890	1.909	1.885	1.895
-0.005	-0.005	0.000	0.015	-0.068	-0.020	0.039	2.705	1.885	1.880	1.885	1.909	1.895	1.885
-0.005	0.000	0.005	0.015	-0.015	-0.010	0.039	2.671	1.875	1.875	1.880	1.904	1.909	1.890
-0.005	0.024	0.005	0.010	0.024	0.010	0.044	2.676	1.875	1.885	1.875	1.899	1.914	1.899
0.000	0.034	0.005	0.005	0.015	0.000	0.044	2.700	1.880	1.880	1.875	1.895	1.899	1.899
-0.005	-0.034	0.000	0.000	-0.005	0.005	0.049	2.681	1.880	1.860	1.870	1.890	1.890	1.899
0.010	-0.034	0.000	-0.005	-0.005	0.010	0.044	2.661	1.880	1.870	1.870	1.890	1.895	1.899
0.005	-0.015	0.005	0.000	0.000	0.005	0.039	2.700	1.890	1.885	1.875	1.895	1.895	1.899
0.010	0.005	0.000	-0.010	-0.010	0.005	0.039	2.681	1.899	1.899	1.885	1.899	1.895	1.895
-0.005	0.015	0.005	-0.005	-0.005	0.000	0.044	2.720	1.904	1.904	1.895	1.904	1.899	1.899
-0.005	0.010	0.000	0.005	-0.010	0.010	0.039	2.686	1.904	1.904	1.895	1.914	1.904	1.904
0.005	0.000	0.010	0.010	-0.010	0.000	0.044	2.690	1.909	1.909	1.904	1.914	1.904	1.904
0.015	0.000	0.005	0.000	0.000	0.005	0.039	2.686	1.909	1.909	1.904	1.919	1.914	1.909
0.024	0.000	0.005	-0.005	-0.005	-0.015	0.044	2.661	1.909	1.909	1.904	1.919	1.909	1.904
0.054	-0.005	-0.005	-0.010	-0.010	-0.010	0.039	2.686	1.919	1.909	1.904	1.914	1.909	1.909
0.044	0.000	0.005	0.000	-0.015	-0.015	0.039	2.666	1.899	1.904	1.899	1.919	1.904	1.904
-0.005	-0.005	-0.005	0.015	-0.024	-0.010	0.039	2.656	1.875	1.895	1.895	1.919	1.904	1.904
-0.029	-0.005	-0.005	0.005	-0.034	-0.005	0.044	2.734	1.865	1.875	1.890	1.909	1.899	1.899
-0.034	0.005	-0.005	0.010	-0.020	-0.005	0.044	2.690	1.870	1.875	1.880	1.904	1.899	1.899
-0.044	0.015	0.000	0.010	-0.034	-0.010	0.044	2.612	1.855	1.870	1.875	1.899	1.895	1.895
-0.034	0.024	0.000	0.000	-0.020	-0.005	0.039	2.661	1.865	1.865	1.875	1.895	1.895	1.895
-0.029	0.010	0.005	-0.010	0.000	0.005	0.044	2.749	1.880	1.865	1.870	1.890	1.895	1.895
-0.005	0.005	0.000	-0.010	0.015	0.010	0.044	2.666	1.885	1.870	1.870	1.890	1.899	1.899
0.000	0.010	0.000	0.005	0.029	0.020	0.039	2.651	1.890	1.875	1.870	1.895	1.899	1.909
0.015	0.005	0.000	0.029	0.063	0.015	0.039	2.744	1.904	1.890	1.880	1.904	1.914	1.909
0.015	-0.005	0.000	0.029	0.083	0.034	0.044	2.622	1.899	1.890	1.885	1.909	1.914	1.919
0.010	0.010	0.000	0.024	0.015	0.024	0.044	2.666	1.904	1.904	1.890	1.909	1.895	1.909
0.010	0.010	0.000	0.010	-0.020	0.005	0.044	2.715	1.909	1.904	1.895	1.904	1.890	1.899
-0.005	0.005	0.005	-0.015	-0.029	-0.024	0.039	2.661	1.899	1.904	1.899	1.904	1.890	1.890
0.000	-0.015	-0.005	-0.005	-0.034	-0.010	0.049	2.646	1.895	1.899	1.899	1.909	1.895	1.895
0.015	-0.010	0.005	-0.015	0.029	-0.020	0.039	2.700	1.904	1.899	1.899	1.914	1.914	1.899
0.005	-0.010	0.000	-0.015	0.083	-0.015	0.039	2.705	1.899	1.895	1.899	1.914	1.929	1.904
0.010	-0.034	0.005	-0.010	0.049	-0.005	0.039	2.671	1.895	1.890	1.890	1.909	1.909	1.909
0.010	-0.005	0.005	-0.005	0.020	-0.015	0.044	2.695	1.885	1.890	1.890	1.904	1.899	1.899
0.015	-0.049	0.000	-0.010	0.005	0.010	0.039	2.676	1.880	1.870	1.875	1.899	1.890	1.899
0.010	0.083	0.000	-0.010	0.015	0.015	0.044	2.710	1.885	1.914	1.890	1.899	1.895	1.895
0.015	0.059	0.005	-0.005	0.010	0.010	0.039	2.671	1.875	1.885	1.885	1.899	1.890	1.895
0.015	-0.024	0.000	0.005	-0.005	0.015	0.044	2.695	1.875	1.860	1.875	1.899	1.885	1.890
0.005	-0.034	0.005	0.010	0.010	0.015	0.044	2.676	1.875	1.865	1.870	1.899	1.890	1.890
0.005	-0.010	0.005	0.010	0.000	0.000	0.044	2.695	1.880	1.875	1.870	1.895	1.890	1.885
0.000	-0.005	0.005	0.015	0.024	0.010	0.044	2.710	1.890	1.880	1.875	1.899	1.899	1.895
-0.005	0.024	0.005	0.010	-0.005	0.000	0.044	2.681	1.895	1.890	1.880	1.899	1.890	1.890
0.000	0.005	-0.005	0.020	-0.010	0.015	0.044	2.695	1.899	1.895	1.890	1.899	1.895	1.899
0.000	-0.005	0.005	0.015	-0.005	0.029	0.044	2.676	1.904	1.899	1.895	1.909	1.904	1.909
0.000	-0.020	0.000	0.010	-0.010	0.015	0.039	2.710	1.904	1.895	1.895	1.909	1.904	1.904
0.010	-0.024	0.000	0.005	-0.020	0.010	0.044	2.676	1.909	1.904	1.895	1.909	1.904	1.899
0.010	0.005	0.005	0.000	-0.015	0.015	0.044	2.676	1.904	1.909	1.899	1.909	1.904	1.904
0.015	0.059	0.000	0.010	-0.029	-0.010	0.039	2.695	1.904	1.924	1.909	1.914	1.904	1.899
-0.010	0.034	0.000	-0.010	-0.015	-0.010	0.044	2.710	1.895	1.899	1.899	1.909	1.904	1.895
-0.005	-0.010	-0.005	-0.020	-0.020	-0.024	0.044	2.700	1.885	1.880	1.895	1.904	1.899	1.895
-0.005	-0.024	-0.005	-0.024	-0.020	-0.010	0.039	2.681	1.880	1.875	1.885	1.904	1.895	1.899
-0.010	0.000	0.005	-0.010	-0.034	-0.010	0.039	2.666	1.875	1.875	1.880	1.899	1.890	1.895
0.000	-0.005	-0.005	-0.005	-0.059	0.000	0.039	2.686	1.875	1.875	1.875	1.899	1.880	1.890
-0.005	0.015	0.000	-0.005	-0.024	0.000	0.039	2.632	1.870	1.875	1.875	1.895	1.895	1.885
-0.005	0.015	0.005	-0.005	0.000	0.005	0.044	2.788	1.885	1.875	1.875	1.895	1.899	1.890
0.000	-0.005	0.005	-0.005	0.020	-0.010	0.039	2.798	1.895	1.875	1.875	1.895	1.904	1.895
-0.010	0.010	0.000	0.005	0.103	0.020	0.044	2.651	1.885	1.880	1.875	1.899	1.924	1.909
0.000	-0.005	0.005	0.010	0.112	0.010	0.039	2.642	1.890	1.885	1.880	1.904	1.919	1.914
0.005	-0.005	0.005	0.015	0.107	0.005	0.044	2.700	1.904	1.895	1.885	1.909	1.919	1.914
0.010	0.000	0.000	0.015	0.088	0.029	0.044	2.715	1.904	1.899	1.890	1.909	1.909	1.919
0.005	0.005	0.005	0.010	0.020	0.020	0.039	2.695	1.909	1.909	1.899	1.909	1.890	1.914
0.005	-0.010	0.005	0.005	-0.059	0.010	0.039	2.725	1.914	1.909	1.899	1.909	1.875	1.899
-0.015	0.005	0.005	0.005	-0.083	0.024	0.044	2.686	1.909	1.914	1.904	1.914	1.885	1.899
-0.010	0.000	-0.005	0.000	-0.068	0.005	0.044	2.637	1.899	1.909	1.904	1.914	1.890	1.890
-0.010	0.015	0.005	0.005	-0.059	0.020	0.044	2.720	1.895	1.909	1.909	1.919	1.899	1.895
-0.020	0.000	-0.005	0.020	-0.039	0.005	0.044	2.627	1.899	1.899	1.899	1.919	1.909	1.890
-0.020	0.005	0.005	0.029	-0.029	0.000	0.039	2.729	1.899	1.895	1.899	1.919	1.909	1.895
-0.005	0.015	0.010	0.020	0.024	-0.015	0.039	2.622	1.890	1.895	1.895	1.914	1.924	1.899
0.010	-0.005	0.000	0.010	0.054	-0.034	0.044	2.729	1.890	1.880	1.885	1.909	1.919	1.899
0.010	0.000	0.000	-0.005	0.034	0.000	0.039	2.646	1.875	1.880	1.880	1.899	1.904	1.904
0.000	0.054	0.005	-0.015	0.000	0.000	0.039	2.715	1.880	1.890	1.880	1.895	1.890	1.899
0.005	0.034	0.005	-0.005	-0.039	-0.024	0.044	2.681	1.880	1.880	1.880	1.895	1.880	1.885
0.000	-0.049	0.000	-0.010	-0.059	-0.029	0.044	2.676	1.875	1.860	1.870	1.890	1.875	1.885
-0.005	0.005	0.005	-0.005	-0.078	0.024	0.044	2.710	1.885	1.885	1.880	1.895	1.875	1.899
0.005	0.034	0.005	0.005	-0.059	0.010	0.044	2.676	1.895	1.895	1.885	1.904	1.895	1.895
0.005	0.005	0.005	0.005	-0.010	0.010	0.044	2.720	1.899	1.890	1.890	1.909	1.914	1.899
0.005	-0.020	0.000	0.005	0.073	-0.015	0.044	2.681	1.899	1.890	1.890	1.909	1.934	1.909
0.015	-0.010	0.005	0.005	0.093	-0.020	0.044	2.705	1.909	1.904	1.899	1.914	1.934	1.919
0.005	0.000	0.000	-0.005	0.005	-0.005	0.039	2.681	1.909	1.909	1.904	1.919	1.904	1.919
0.015	-0.020	0.005	0.000	0.029	0.005	0.039	2.715	1.909	1.904	1.904	1.919	1.919	1.924
0.015	-0.020	0.005	0.000	0.039	0.039	0.044	2.681	1.909	1.904	1.904	1.919	1.924	1.929
0.000	-0.024	-0.005	-0.005	0.049	0.039	0.044	2.705	1.904	1.899	1.899	1.919	1.919	1.924
0.010	-0.029	-0.005	0.005	0.063	0.005	0.039	2.705	1.904	1.899	1.895	1.919	1.924	1.914
0.010	0.005	-0.005	0.010	0.137	0.020	0.044	2.700	1.899	1.904	1.895	1.919	1.934	1.924
0.010	0.010	0.000	0.015	0.073	0.000	0.044	2.700	1.895	1.899	1.890	1.914	1.904	1.909
0.000	0.020	0.005	0.005	0.034	0.010	0.044	2.700	1.890	1.895	1.890	1.904	1.895	1.904
0.005	0.015	0.005	-0.005	0.059	0.005	0.044	2.686	1.885	1.885	1.885	1.904	1.899	1.899
0.010	-0.024	0.005	-0.005	0.039	0.005	0.039	2.715	1.885	1.875	1.875	1.899	1.890	1.895
0.000	0.024	-0.005	-0.005	-0.020	0.000	0.039	2.710	1.885	1.890	1.880	1.899	1.875	1.885
0.000	-0.010	0.000	0.000	-0.044	0.000	0.039	2.710	1.890	1.880	1.880	1.899	1.875	1.885
-0.010	0.010	-0.005	0.020	-0.039	0.005	0.044	2.715	1.895	1.895	1.885	1.904	1.890	1.885
0.000	0.059	0.000	0.015	-0.029	0.005	0.039	2.695	1.899	1.904	1.895	1.909	1.899	1.890
0.000	0.010	0.005	0.005	-0.034	0.010	0.039	2.695	1.899	1.895	1.895	1.909	1.899	1.899
0.005	-0.005	0.005	-0.005	-0.034	0.005	0.044	2.671	1.904	1.899	1.899	1.909	1.904	1.899
-0.010	0.005	0.005	-0.005	-0.039	0.000	0.039	2.651	1.914	1.909	1.904	1.914	1.904	1.899
-0.015	0.015	0.000	-0.005	-0.039	0.000	0.039	2.769	1.909	1.909	1.909	1.919	1.909	1.909
0.000	0.010	0.000	-0.010	-0.034	0.000	0.039	2.656	1.904	1.909	1.909	1.919	1.909	1.909
0.010	0.000	0.005	-0.005	-0.020	-0.010	0.044	2.739	1.909	1.904	1.904	1.924	1.914	1.904
0.000	-0.005	0.000	-0.005	-0.015	0.000	0.039	2.690	1.899	1.899	1.899	1.919	1.919	1.909
0.005	-0.020	0.000	-0.015	-0.010	-0.015	0.044	2.676	1.895	1.890	1.895	1.914	1.909	1.904
-0.005	-0.029	-0.005	-0.015	-0.015	-0.010	0.039	2.700	1.890	1.880	1.890	1.909	1.909	1.904
0.005	-0.029	0.000	0.000	-0.005	0.000	0.044	2.651	1.880	1.880	1.885	1.909	1.909	1.909
-0.005	0.015	0.000	0.010	-0.015	0.010	0.039	2.656	1.875	1.895	1.885	1.909	1.899	1.904
0.005	0.088	0.005	0.020	-0.029	0.015	0.039	2.759	1.890	1.904	1.890	1.904	1.899	1.899
0.005	0.010	0.005	0.010	-0.005	0.020	0.044	2.627	1.875	1.875	1.880	1.904	1.904	1.904
0.010	0.039	0.010	0.005	-0.020	0.034	0.044	2.637	1.875	1.880	1.880	1.899	1.899	1.904
0.000	-0.005	0.005	0.005	-0.039	0.024	0.039	2.646	1.875	1.870	1.880	1.899	1.890	1.899
-0.005	-0.015	0.000	0.005	-0.049	0.000	0.044	2.715	1.885	1.875	1.880	1.899	1.895	1.895
-0.010	-0.005	0.000	0.020	-0.039	-0.020	0.044	2.729	1.895	1.880	1.880	1.904	1.899	1.890
0.015	-0.005	0.000	0.010	-0.024	-0.063	0.044	2.661	1.904	1.895	1.885	1.909	1.904	1.885
0.034	0.000	0.010	0.005	-0.039	-0.063	0.044	2.700	1.914	1.904	1.895	1.909	1.904	1.890
0.020	-0.010	0.000	0.005	-0.063	-0.078	0.039	2.715	1.909	1.904	1.895	1.914	1.899	1.890
0.010	-0.020	0.000	0.015	-0.063	-0.059	0.044	2.671	1.899	1.904	1.899	1.914	1.904	1.904
0.020	-0.005	0.000	0.010	-0.063	-0.068	0.039	2.700	1.904	1.909	1.904	1.914	1.904	1.899
0.010	0.000	0.000	0.010	-0.015	0.015	0.039	2.710	1.904	1.904	1.904	1.919	1.924	1.929
-0.015	0.010	0.000	0.000	0.029	0.044	0.044	2.671	1.890	1.904	1.899	1.914	1.934	1.934
-0.020	0.024	0.000	0.000	0.088	0.034	0.044	2.676	1.885	1.899	1.895	1.914	1.938	1.934
-0.020	0.020	0.000	-0.005	0.117	0.063	0.039	2.690	1.885	1.890	1.890	1.909	1.934	1.938
-0.039	0.020	0.005	-0.005	0.151	0.059	0.044	2.705	1.880	1.885	1.885	1.904	1.934	1.934
-0.034	0.005	0.000	-0.010	0.161	0.049	0.039	2.690	1.885	1.870	1.880	1.895	1.919	1.929
-0.010	0.010	0.005	-0.020	0.107	0.029	0.039	2.715	1.895	1.880	1.875	1.895	1.895	1.909
0.005	0.000	0.000	-0.015	0.098	0.034	0.044	2.715	1.895	1.880	1.875	1.895	1.890	1.904
0.010	0.000	0.005	0.000	0.083	0.029	0.039	2.671	1.895	1.890	1.880	1.899	1.890	1.899
0.005	0.000	0.010	0.015	0.063	0.024	0.044	2.681	1.899	1.890	1.885	1.904	1.885	1.895
0.005	-0.005	0.005	0.024	0.005	0.020	0.039	2.715	1.904	1.895	1.890	1.909	1.880	1.890
-0.010	0.000	0.000	0.020	-0.044	0.010	0.039	2.666	1.895	1.899	1.895	1.909	1.875	1.885
-0.015	0.005	-0.005	0.000	-0.044	-0.010	0.044	2.725	1.904	1.904	1.899	1.909	1.885	1.885
-0.010	0.000	0.000	-0.005	-0.049	-0.005	0.044	2.686	1.909	1.904	1.899	1.909	1.890	1.885
-0.005	0.000	-0.005	-0.015	-0.044	0.000	0.044	2.705	1.909	1.909	1.909	1.909	1.899	1.895
-0.005	0.034	0.005	-0.029	-0.029	-0.005	0.039	2.710	1.909	1.919	1.909	1.914	1.904	1.895
0.020	-0.020	0.010	-0.024	-0.024	-0.015	0.044	2.676	1.914	1.899	1.909	1.919	1.909	1.890
0.029	-0.073	-0.005	-0.029	-0.024	-0.034	0.039	2.681	1.904	1.885	1.895	1.914	1.909	1.890
0.020	-0.039	0.000	-0.024	-0.020	-0.010	0.044	2.695	1.895	1.895	1.895	1.914	1.909	1.904
0.020	0.005	0.005	-0.020	-0.020	-0.010	0.039	2.671	1.885	1.904	1.895	1.909	1.909	1.899
0.015	0.039	0.005	-0.005	-0.005	-0.044	0.039	2.646	1.875	1.904	1.895	1.914	1.909	1.895
-0.010	0.029	0.005	0.010	0.000	-0.015	0.044	2.788	1.865	1.880	1.890	1.914	1.909	1.899
-0.015	-0.020	0.005	0.015	-0.005	-0.020	0.039	2.651	1.860	1.860	1.875	1.909	1.904	1.899
0.000	-0.010	0.000	0.020	-0.005	-0.010	0.044	2.739	1.880	1.870	1.875	1.904	1.904	1.899
-0.005	0.005	0.000	0.020	-0.005	-0.010	0.044	2.690	1.885	1.880	1.875	1.899	1.899	1.899
0.000	0.063	0.005	0.024	-0.010	-0.034	0.044	2.646	1.885	1.890	1.880	1.904	1.895	1.895
0.015	0.000	0.005	0.029	-0.005	-0.005	0.039	2.676	1.895	1.875	1.880	1.904	1.904	1.909
0.015	-0.063	0.000	0.024	0.000	-0.010	0.044	2.754	1.899	1.870	1.875	1.904	1.904	1.909
0.024	-0.093	0.000	0.039	-0.010	-0.015	0.044	2.715	1.914	1.875	1.880	1.909	1.899	1.904
0.005	-0.029	0.005	0.005	-0.044	-0.010	0.039	2.754	1.909	1.904	1.885	1.899	1.895	1.909
0.005	-0.020	-0.005	0.000	-0.010	-0.015	0.034	2.715	1.914	1.914	1.895	1.904	1.909	1.909
0.000	0.010	0.005	0.000	0.015	0.020	0.039	2.671	1.904	1.919	1.904	1.909	1.914	1.919
0.005	0.020	0.000	0.005	0.005	0.015	0.044	2.651	1.904	1.924	1.909	1.914	1.909	1.914
-0.010	0.020	0.005	0.000	0.015	0.020	0.044	2.734	1.904	1.914	1.909	1.914	1.914	1.919
-0.005	0.010	0.000	-0.005	0.000	-0.010	0.044	2.749	1.899	1.904	1.904	1.914	1.909	1.909
-0.005	0.020	-0.005	-0.010	0.059	-0.005	0.039	2.637	1.885	1.895	1.899	1.914	1.924	1.914
-0.010	0.005	-0.005	-0.005	0.059	0.024	0.039	2.671	1.885	1.890	1.895	1.909	1.914	1.914
-0.010	0.020	-0.005	0.000	0.005	0.000	0.044	2.705	1.890	1.885	1.890	1.909	1.895	1.899
0.000	0.010	0.005	-0.005	-0.010	-0.005	0.044	2.676	1.885	1.880	1.885	1.899	1.885	1.890
-0.005	0.005	0.005	0.000	-0.005	0.000	0.044	2.710	1.880	1.875	1.875	1.899	1.890	1.895
0.000	0.000	0.005	0.000	0.005	0.024	0.044	2.676	1.880	1.875	1.875	1.899	1.895	1.899
0.000	0.015	0.005	0.005	0.005	0.000	0.039	2.715	1.885	1.880	1.875	1.899	1.899	1.895
0.015	0.010	0.000	0.000	-0.005	0.024	0.044	2.681	1.885	1.885	1.875	1.895	1.890	1.895
0.005	0.015	0.010	0.005	-0.010	-0.005	0.044	2.676	1.890	1.890	1.880	1.899	1.895	1.890
0.010	0.020	0.000	0.015	-0.010	0.010	0.039	2.676	1.895	1.895	1.890	1.909	1.899	1.899
0.005	0.010	0.005	0.020	-0.015	0.024	0.044	2.681	1.904	1.895	1.895	1.914	1.899	1.909
0.015	-0.005	0.005	0.015	-0.010	0.024	0.044	2.686	1.914	1.899	1.895	1.914	1.909	1.909
0.029	-0.020	0.000	0.005	0.000	0.024	0.044	2.715	1.919	1.904	1.899	1.914	1.914	1.909
0.024	-0.005	0.000	-0.010	0.000	0.020	0.039	2.715	1.919	1.914	1.904	1.914	1.914	1.909
0.000	0.005	0.005	-0.015	0.000	0.010	0.044	2.681	1.904	1.914	1.904	1.914	1.909	1.904
0.000	-0.005	0.000	-0.005	-0.005	-0.024	0.039	2.705	1.899	1.909	1.904	1.919	1.909	1.899
-0.010	-0.005	0.005	0.000	0.000	0.010	0.044	2.710	1.885	1.899	1.899	1.919	1.914	1.909
-0.024	-0.020	0.000	0.010	0.000	-0.005	0.044	2.710	1.880	1.885	1.895	1.914	1.909	1.904
-0.024	0.039	-0.005	0.010	0.010	0.005	0.044	2.681	1.885	1.904	1.895	1.914	1.909	1.904
-0.024	0.059	-0.005	-0.005	0.015	0.000	0.039	2.676	1.880	1.890	1.890	1.904	1.904	1.904
-0.010	-0.020	0.000	-0.005	-0.005	0.000	0.044	2.710	1.880	1.865	1.880	1.899	1.895	1.899
-0.005	-0.015	0.000	-0.010	-0.029	-0.010	0.049	2.710	1.880	1.870	1.875	1.895	1.890	1.890
-0.005	-0.005	0.000	-0.005	-0.024	-0.049	0.044	2.695	1.875	1.875	1.870	1.890	1.885	1.880
-0.010	0.000	0.000	0.000	-0.020	0.000	0.039	2.681	1.880	1.875	1.875	1.895	1.890	1.899
0.000	0.010	0.000	-0.005	-0.010	-0.005	0.044	2.676	1.890	1.885	1.880	1.899	1.895	1.895
0.000	0.029	0.005	-0.005	-0.020	0.005	0.039	2.769	1.909	1.895	1.885	1.899	1.895	1.899
-0.010	0.020	0.000	-0.005	-0.020	-0.005	0.044	2.661	1.904	1.895	1.890	1.904	1.899	1.904
-0.020	0.005	0.005	0.005	-0.039	-0.015	0.039	2.671	1.899	1.899	1.895	1.909	1.895	1.895
-0.005	-0.005	0.005	0.010	-0.083	0.015	0.039	2.681	1.904	1.899	1.899	1.914	1.890	1.904
0.005	-0.015	0.005	0.010	-0.059	-0.034	0.039	2.690	1.909	1.904	1.904	1.919	1.904	1.895
0.020	-0.010	0.005	0.010	0.024	-0.005	0.039	2.627	1.909	1.909	1.904	1.924	1.934	1.914
0.005	0.005	0.000	0.010	0.034	-0.024	0.044	2.700	1.899	1.909	1.904	1.919	1.924	1.914
0.020	-0.015	-0.005	0.005	0.024	0.015	0.049	2.744	1.904	1.904	1.899	1.919	1.924	1.929
0.010	-0.015	-0.005	0.000	0.000	0.024	0.039	2.676	1.895	1.895	1.895	1.914	1.909	1.919
0.015	-0.010	0.000	-0.005	0.078	0.000	0.044	2.627	1.890	1.890	1.890	1.914	1.934	1.914
0.005	-0.015	0.000	-0.015	0.093	0.034	0.039	2.754	1.890	1.890	1.890	1.904	1.924	1.929
0.010	0.015	0.005	-0.010	0.117	0.024	0.044	2.642	1.880	1.890	1.885	1.904	1.924	1.919
0.005	0.034	0.000	-0.010	0.151	0.020	0.039	2.622	1.870	1.885	1.885	1.899	1.919	1.914
0.010	0.015	0.000	-0.010	0.093	0.020	0.044	2.729	1.885	1.880	1.880	1.899	1.895	1.909
0.005	0.000	0.005	0.000	0.000	-0.005	0.044	2.642	1.875	1.870	1.875	1.895	1.870	1.890
0.010	-0.005	0.000	0.010	-0.020	0.005	0.039	2.646	1.875	1.870	1.875	1.899	1.875	1.890
-0.005	-0.015	0.005	0.015	0.005	0.005	0.039	2.676	1.880	1.875	1.875	1.904	1.890	1.890
0.000	-0.010	0.005	0.015	0.010	0.005	0.039	2.710	1.895	1.885	1.880	1.904	1.895	1.890
-0.005	0.029	0.000	0.024	0.010	0.005	0.044	2.681	1.895	1.899	1.885	1.909	1.899	1.895
0.010	-0.015	0.010	0.020	-0.005	0.010	0.039	2.705	1.904	1.890	1.890	1.909	1.899	1.899
0.005	-0.034	0.005	0.020	-0.020	0.015	0.044	2.715	1.909	1.899	1.895	1.914	1.899	1.904
0.000	0.010	0.000	0.015	-0.029	-0.005	0.044	2.681	1.909	1.914	1.895	1.914	1.899	1.895
0.000	0.020	0.010	0.005	-0.039	0.000	0.044	2.690	1.904	1.914	1.904	1.909	1.899	1.899
-0.015	0.020	0.005	-0.005	-0.044	0.005	0.044	2.661	1.890	1.909	1.904	1.914	1.899	1.904
0.000	0.010	-0.005	-0.005	-0.039	0.000	0.044	2.686	1.895	1.895	1.899	1.909	1.899	1.899
-0.010	-0.034	-0.005	-0.005	-0.039	-0.029	0.039	2.676	1.885	1.875	1.890	1.904	1.899	1.890
0.000	-0.005	0.000	-0.005	-0.024	0.000	0.039	2.720	1.890	1.885	1.885	1.909	1.904	1.899
0.015	-0.005	-0.005	0.005	-0.010	0.000	0.044	2.686	1.890	1.880	1.880	1.904	1.899	1.899
0.015	-0.044	0.000	0.005	-0.015	0.005	0.044	2.690	1.880	1.870	1.875	1.899	1.895	1.895
0.010	0.015	0.005	-0.005	-0.029	0.000	0.039	2.710	1.880	1.885	1.875	1.890	1.890	1.890
0.000	0.044	0.005	0.000	-0.024	0.000	0.044	2.715	1.885	1.890	1.875	1.895	1.890	1.885
-0.005	0.024	0.005	0.000	-0.020	-0.005	0.044	2.671	1.880	1.880	1.880	1.895	1.890	1.895
0.010	-0.010	0.005	0.000	-0.010	0.005	0.039	2.671	1.885	1.875	1.875	1.895	1.895	1.899
0.005	0.010	0.000	-0.005	-0.015	-0.015	0.044	2.681	1.890	1.885	1.880	1.895	1.895	1.890
0.000	0.010	0.000	-0.010	-0.049	0.000	0.044	2.676	1.890	1.885	1.885	1.899	1.885	1.895
0.000	-0.005	0.000	-0.015	-0.068	-0.020	0.044	2.686	1.899	1.890	1.885	1.899	1.890	1.890
0.000	-0.005	0.000	-0.010	-0.049	0.005	0.039	2.686	1.899	1.899	1.890	1.909	1.899	1.904
-0.005	0.005	0.005	-0.010	-0.005	-0.015	0.039	2.690	1.904	1.904	1.895	1.914	1.914	1.899
0.005	0.000	0.010	-0.005	0.015	0.010	0.044	2.690	1.914	1.909	1.904	1.914	1.924	1.919
0.010	0.000	0.000	0.000	0.049	-0.005	0.044	2.646	1.904	1.904	1.904	1.919	1.929	1.914
0.010	-0.005	0.000	0.015	0.063	0.010	0.044	2.656	1.899	1.899	1.899	1.924	1.934	1.924
0.000	-0.010	0.000	0.005	0.063	0.005	0.044	2.778	1.890	1.895	1.895	1.919	1.924	1.919
-0.005	0.000	0.005	0.005	0.088	-0.010	0.044	2.666	1.880	1.890	1.895	1.914	1.924	1.914
-0.010	0.000	0.005	0.000	0.093	0.000	0.044	2.739	1.885	1.885	1.890	1.909	1.914	1.914
-0.005	0.005	0.000	0.000	0.078	-0.005	0.044	2.695	1.880	1.880	1.880	1.904	1.909	1.909
-0.005	-0.005	0.000	0.005	0.059	0.000	0.039	2.720	1.885	1.875	1.875	1.899	1.895	1.904
-0.010	0.010	0.000	0.015	0.000	0.005	0.039	2.681	1.880	1.880	1.875	1.895	1.875	1.895
-0.005	0.005	0.000	0.020	-0.029	0.010	0.044	2.759	1.890	1.880	1.875	1.899	1.875	1.890
0.000	0.010	0.000	0.024	-0.024	0.024	0.039	2.671	1.890	1.885	1.875	1.899	1.880	1.890
0.000	0.024	0.000	0.020	-0.005	0.024	0.044	2.754	1.899	1.895	1.880	1.895	1.890	1.890
-0.010	0.010	0.005	0.010	-0.020	0.020	0.039	2.754	1.904	1.895	1.885	1.899	1.890	1.890
0.000	0.005	0.015	-0.005	-0.020	0.015	0.044	2.651	1.904	1.895	1.890	1.904	1.895	1.895
0.029	-0.029	0.000	-0.005	-0.020	0.000	0.039	2.690	1.919	1.895	1.895	1.904	1.899	1.895
0.015	-0.005	0.000	-0.005	-0.049	-0.005	0.044	2.720	1.914	1.909	1.899	1.909	1.890	1.895
0.000	-0.015	0.000	0.000	-0.117	-0.015	0.044	2.725	1.899	1.904	1.899	1.914	1.880	1.885
-0.010	-0.029	0.000	0.010	-0.107	-0.005	0.049	2.656	1.895	1.899	1.904	1.924	1.895	1.895
0.005	0.054	0.000	0.000	-0.083	-0.010	0.039	2.710	1.904	1.924	1.909	1.924	1.909	1.890
0.005	0.034	0.005	0.005	-0.098	-0.015	0.044	2.705	1.899	1.909	1.909	1.919	1.904	1.895
0.010	-0.010	0.000	0.005	-0.122	-0.010	0.039	2.661	1.890	1.890	1.895	1.919	1.899	1.890
0.015	-0.015	0.000	0.005	-0.098	-0.029	0.044	2.705	1.885	1.880	1.890	1.919	1.909	1.890
0.005	-0.020	0.000	0.010	-0.005	-0.034	0.044	2.681	1.875	1.875	1.885	1.909	1.934	1.904
0.010	-0.020	0.005	0.015	0.059	-0.020	0.044	2.695	1.875	1.875	1.880	1.909	1.938	1.914
0.005	0.000	0.000	0.005	0.166	-0.010	0.044	2.681	1.880	1.875	1.875	1.904	1.958	1.929
0.015	0.005	0.000	-0.010	0.283	0.000	0.044	2.676	1.880	1.875	1.875	1.899	1.968	1.943
-0.005	0.015	0.005	-0.005	0.332	0.029	0.044	2.686	1.880	1.880	1.875	1.899	1.963	1.958
-0.005	0.024	-0.005	-0.005	0.264	0.044	0.044	2.681	1.890	1.885	1.880	1.895	1.919	1.953
0.005	0.010	-0.005	-0.005	0.132	0.049	0.044	2.690	1.904	1.885	1.880	1.895	1.880	1.934
0.000	-0.005	0.000	-0.005	0.044	0.029	0.039	2.725	1.909	1.895	1.885	1.899	1.865	1.909
0.000	0.000	0.000	0.000	-0.020	0.029	0.044	2.710	1.909	1.904	1.890	1.904	1.860	1.895
0.000	0.005	0.005	-0.005	-0.059	0.015	0.044	2.686	1.914	1.909	1.895	1.904	1.865	1.880
-0.005	0.000	0.000	-0.010	-0.073	0.015	0.044	2.705	1.914	1.914	1.904	1.914	1.875	1.885
-0.010	0.005	0.010	-0.005	-0.068	0.000	0.044	2.681	1.909	1.914	1.909	1.914	1.885	1.880
0.000	0.010	0.005	-0.010	-0.059	0.005	0.039	2.681	1.909	1.914	1.909	1.924	1.899	1.885
0.000	0.020	0.010	-0.005	-0.054	-0.010	0.044	2.700	1.909	1.914	1.909	1.924	1.904	1.890
-0.015	0.005	0.000	0.005	-0.059	0.010	0.044	2.690	1.895	1.904	1.904	1.924	1.904	1.895
-0.005	0.010	0.005	-0.005	-0.059	-0.005	0.044	2.686	1.890	1.895	1.899	1.919	1.909	1.895
0.005	-0.029	-0.005	-0.005	-0.049	-0.029	0.039	2.705	1.880	1.875	1.890	1.914	1.904	1.890
-0.005	-0.010	-0.005	0.005	-0.039	0.000	0.044	2.695	1.880	1.880	1.880	1.914	1.909	1.899
0.000	0.015	0.000	0.020	-0.034	0.000	0.039	2.700	1.880	1.880	1.880	1.909	1.904	1.899
0.005	-0.005	0.010	0.024	-0.034	-0.005	0.039	2.666	1.875	1.875	1.875	1.904	1.904	1.899
0.015	-0.015	0.005	0.029	-0.029	-0.005	0.044	2.651	1.899	1.875	1.875	1.904	1.899	1.899
0.015	-0.005	0.000	0.034	-0.029	0.000	0.039	2.783	1.890	1.875	1.875	1.899	1.899	1.899
-0.010	0.015	0.010	0.029	-0.024	-0.029	0.039	2.666	1.885	1.890	1.880	1.899	1.899	1.895
-0.005	0.020	0.000	0.015	-0.020	0.010	0.044	2.734	1.895	1.895	1.885	1.899	1.904	1.909
0.000	-0.005	-0.005	0.000	-0.024	0.015	0.044	2.690	1.899	1.890	1.885	1.899	1.899	1.909
0.000	-0.005	0.000	-0.005	-0.044	-0.010	0.044	2.729	1.909	1.895	1.890	1.904	1.895	1.899
-0.005	0.015	0.005	-0.010	-0.054	-0.015	0.044	2.720	1.914	1.914	1.899	1.904	1.899	1.899
0.000	0.024	0.005	-0.010	-0.039	-0.044	0.044	2.715	1.914	1.919	1.904	1.914	1.909	1.899
0.005	0.000	0.000	-0.015	0.005	-0.034	0.039	2.676	1.909	1.909	1.909	1.919	1.919	1.904
0.010	-0.024	-0.005	-0.010	0.015	-0.020	0.044	2.744	1.904	1.904	1.904	1.919	1.924	1.914
0.000	-0.010	0.000	0.005	0.024	0.015	0.039	2.749	1.904	1.909	1.909	1.924	1.929	1.929
0.005	0.010	0.000	0.005	0.059	0.029	0.039	2.715	1.909	1.909	1.904	1.924	1.934	1.929
0.000	0.010	0.005	0.000	0.059	0.010	0.039	2.749	1.909	1.904	1.904	1.919	1.929	1.919
0.005	-0.005	0.000	-0.005	0.088	0.024	0.044	2.729	1.904	1.895	1.895	1.914	1.924	1.924
-0.005	-0.005	0.000	0.000	0.063	0.020	0.044	2.725	1.885	1.890	1.895	1.914	1.914	1.919
0.015	0.015	0.000	0.005	0.034	-0.005	0.044	2.642	1.885	1.890	1.890	1.909	1.899	1.904
0.005	0.000	0.000	0.010	0.005	0.005	0.039	2.700	1.875	1.880	1.880	1.909	1.890	1.904
0.005	0.000	0.005	0.015	0.005	0.000	0.044	2.710	1.890	1.880	1.880	1.909	1.895	1.899
0.000	0.020	0.005	0.005	0.015	-0.015	0.044	2.700	1.885	1.890	1.885	1.904	1.899	1.895
-0.005	0.015	0.000	0.005	0.005	0.024	0.044	2.705	1.890	1.885	1.885	1.904	1.899	1.904
0.005	0.000	0.000	0.000	0.005	0.029	0.044	2.710	1.904	1.890	1.890	1.904	1.899	1.909
-0.005	0.034	0.010	-0.005	-0.005	0.024	0.044	2.715	1.909	1.909	1.899	1.909	1.904	1.904
-0.005	0.000	0.000	-0.005	-0.015	0.010	0.039	2.686	1.909	1.899	1.899	1.909	1.899	1.904
0.000	0.000	0.005	0.000	-0.010	0.020	0.039	2.676	1.914	1.909	1.904	1.919	1.909	1.914
0.010	0.005	0.005	-0.005	-0.015	0.015	0.039	2.681	1.919	1.914	1.909	1.924	1.909	1.909
-0.005	-0.005	0.010	-0.010	-0.024	0.005	0.039	2.705	1.909	1.914	1.909	1.919	1.909	1.904
0.005	-0.039	-0.005	-0.015	-0.024	-0.010	0.044	2.700	1.909	1.895	1.904	1.919	1.909	1.904
0.000	-0.054	-0.005	-0.010	-0.049	-0.029	0.044	2.710	1.904	1.895	1.895	1.919	1.904	1.895
0.015	-0.054	-0.005	0.005	-0.063	-0.020	0.044	2.705	1.899	1.895	1.895	1.919	1.899	1.899
0.000	0.000	-0.005	0.010	-0.083	0.000	0.044	2.715	1.895	1.909	1.895	1.914	1.895	1.899
0.000	0.073	-0.005	0.010	-0.093	-0.024	0.039	2.686	1.890	1.914	1.899	1.914	1.895	1.890
0.005	0.049	0.000	0.010	-0.093	-0.049	0.039	2.710	1.885	1.904	1.895	1.909	1.895	1.880
0.005	0.034	0.005	0.015	-0.103	-0.049	0.044	2.715	1.875	1.880	1.890	1.909	1.890	1.885
0.020	-0.020	0.000	0.005	-0.054	-0.034	0.039	2.681	1.880	1.870	1.880	1.904	1.909	1.895
0.010	-0.010	0.005	0.005	0.049	-0.010	0.044	2.671	1.875	1.875	1.875	1.904	1.938	1.914
-0.005	0.020	0.005	-0.005	0.181	0.000	0.039	2.686	1.880	1.880	1.880	1.904	1.958	1.934
-0.015	-0.005	0.000	-0.005	0.190	0.000	0.044	2.695	1.890	1.875	1.880	1.904	1.948	1.943
0.000	-0.029	0.005	0.005	0.205	0.044	0.044	2.686	1.899	1.880	1.880	1.909	1.943	1.953
-0.005	0.015	-0.005	0.010	0.161	0.049	0.039	2.695	1.909	1.904	1.890	1.909	1.924	1.953
-0.015	0.039	-0.005	0.005	0.117	0.068	0.044	2.642	1.909	1.914	1.899	1.909	1.909	1.943
-0.005	0.015	0.005	0.000	-0.005	0.039	0.044	2.793	1.929	1.914	1.904	1.914	1.875	1.919
0.015	-0.010	-0.005	0.005	-0.088	0.005	0.044	2.803	1.943	1.914	1.904	1.914	1.865	1.895
0.020	-0.088	-0.005	0.010	-0.068	0.020	0.044	2.651	1.919	1.899	1.904	1.919	1.890	1.895
0.000	-0.049	0.000	0.000	-0.029	0.015	0.039	2.734	1.914	1.914	1.909	1.919	1.904	1.899
0.000	0.005	0.000	0.000	0.039	0.005	0.044	2.686	1.914	1.929	1.914	1.919	1.924	1.904
-0.005	0.010	0.000	0.000	0.073	-0.010	0.044	2.710	1.904	1.919	1.909	1.924	1.929	1.904
0.000	-0.005	0.005	0.000	0.093	-0.034	0.044	2.695	1.895	1.904	1.904	1.919	1.924	1.899
-0.005	0.024	0.010	0.000	0.073	0.010	0.044	2.715	1.895	1.904	1.904	1.919	1.914	1.914
-0.005	0.015	0.005	-0.005	0.005	-0.015	0.044	2.681	1.890	1.890	1.895	1.909	1.890	1.899
0.010	-0.005	0.005	0.000	-0.044	0.010	0.044	2.651	1.885	1.885	1.890	1.909	1.880	1.899
0.015	0.005	0.005	0.000	-0.059	0.010	0.039	2.729	1.895	1.890	1.885	1.909	1.885	1.895
0.005	0.005	0.000	0.005	-0.015	0.020	0.044	2.642	1.880	1.890	1.885	1.909	1.904	1.899
0.005	0.020	0.000	0.005	0.010	-0.005	0.044	2.720	1.885	1.890	1.890	1.909	1.909	1.895
0.015	0.015	0.000	0.005	-0.020	0.015	0.044	2.627	1.885	1.890	1.890	1.909	1.899	1.904
-0.010	0.005	0.005	0.000	-0.044	0.015	0.039	2.661	1.890	1.890	1.890	1.909	1.899	1.904
-0.005	-0.015	0.005	0.000	-0.044	0.010	0.039	2.666	1.895	1.890	1.890	1.914	1.904	1.904
-0.010	0.010	0.000	-0.005	-0.039	-0.005	0.039	2.715	1.904	1.904	1.899	1.914	1.909	1.904
0.000	0.034	0.000	0.000	-0.039	0.000	0.039	2.686	1.909	1.914	1.904	1.919	1.909	1.909
-0.020	0.029	0.000	-0.005	-0.034	-0.015	0.044	2.720	1.909	1.909	1.904	1.924	1.919	1.909
-0.005	0.015	0.000	0.005	-0.034	-0.005	0.044	2.700	1.914	1.909	1.904	1.924	1.914	1.914
-0.005	-0.020	0.000	0.000	-0.024	-0.005	0.039	2.681	1.904	1.895	1.904	1.924	1.919	1.909
0.010	-0.029	0.005	0.005	-0.029	-0.024	0.044	2.695	1.899	1.895	1.895	1.919	1.914	1.909
0.005	-0.005	0.005	0.000	-0.020	-0.005	0.039	2.681	1.895	1.899	1.895	1.914	1.914	1.914
0.005	-0.005	0.005	0.000	0.000	-0.005	0.044	2.710	1.890	1.890	1.895	1.909	1.914	1.909
0.010	-0.039	0.000	0.000	0.010	-0.005	0.044	2.671	1.890	1.875	1.885	1.904	1.914	1.909
0.005	-0.024	0.000	-0.005	-0.015	-0.034	0.044	2.705	1.885	1.880	1.875	1.899	1.895	1.895
0.010	0.005	0.005	0.005	-0.010	0.010	0.044	2.686	1.880	1.885	1.880	1.899	1.899	1.904
0.010	0.005	0.005	0.005	-0.005	-0.005	0.039	2.686	1.880	1.885	1.880	1.899	1.895	1.899
0.005	0.015	0.000	0.005	0.000	0.005	0.044	2.695	1.885	1.885	1.880	1.899	1.899	1.899
-0.005	0.020	0.000	0.010	0.005	0.005	0.039	2.686	1.885	1.890	1.885	1.904	1.899	1.904
0.005	0.000	0.000	0.010	0.005	0.010	0.039	2.686	1.899	1.890	1.890	1.904	1.904	1.909
0.000	0.020	0.005	0.010	0.015	0.010	0.044	2.705	1.904	1.899	1.895	1.909	1.909	1.909
0.000	0.015	0.000	0.005	0.020	-0.005	0.039	2.690	1.909	1.904	1.895	1.909	1.909	1.909
-0.005	0.049	0.000	0.005	0.010	0.000	0.044	2.705	1.914	1.924	1.904	1.914	1.914	1.914
-0.010	0.044	0.000	0.000	0.005	0.015	0.039	2.705	1.914	1.914	1.909	1.919	1.914	1.919
-0.015	-0.044	0.005	0.000	0.020	0.010	0.044	2.690	1.909	1.885	1.904	1.919	1.919	1.919
0.005	-0.112	0.000	0.000	0.015	-0.015	0.039	2.705	1.909	1.880	1.895	1.919	1.914	1.909
0.000	-0.029	0.000	0.000	0.005	-0.015	0.039	2.681	1.904	1.909	1.899	1.919	1.909	1.909
0.000	0.010	0.005	0.000	0.000	0.000	0.039	2.686	1.899	1.914	1.899	1.919	1.909	1.909
0.000	0.107	0.000	-0.005	0.000	-0.020	0.044	2.642	1.899	1.929	1.904	1.914	1.904	1.899
0.010	0.024	0.000	-0.010	-0.005	0.000	0.039	2.646	1.885	1.890	1.899	1.909	1.904	1.909
0.010	-0.029	-0.005	-0.010	0.000	-0.005	0.039	2.788	1.880	1.870	1.885	1.904	1.899	1.899
-0.005	-0.015	0.000	-0.005	0.000	-0.015	0.044	2.661	1.875	1.870	1.880	1.904	1.899	1.899
-0.005	0.000	0.010	-0.005	0.005	0.005	0.039	2.734	1.885	1.875	1.880	1.899	1.899	1.899
-0.005	0.010	0.000	0.005	0.005	0.010	0.044	2.666	1.880	1.880	1.880	1.899	1.899	1.899
0.010	0.000	0.005	0.010	0.005	0.010	0.044	2.729	1.895	1.885	1.880	1.904	1.899	1.899
0.005	0.020	0.005	0.015	0.005	-0.015	0.039	2.671	1.890	1.890	1.885	1.904	1.899	1.895
0.000	-0.024	0.000	0.034	0.010	0.020	0.044	2.642	1.890	1.880	1.885	1.909	1.904	1.909
0.005	-0.015	0.000	0.034	0.010	0.005	0.039	2.700	1.899	1.890	1.890	1.914	1.909	1.909
0.000	0.044	0.000	0.010	0.010	0.024	0.044	2.764	1.919	1.919	1.899	1.914	1.909	1.919
0.015	-0.005	-0.005	0.005	0.000	0.020	0.044	2.646	1.914	1.899	1.899	1.909	1.909	1.914
0.005	-0.034	0.005	-0.010	-0.005	0.000	0.044	2.632	1.899	1.895	1.899	1.914	1.904	1.909
0.000	-0.015	0.000	-0.015	-0.029	0.010	0.039	2.759	1.909	1.904	1.899	1.914	1.899	1.904
0.005	0.039	0.010	-0.020	-0.059	0.020	0.044	2.632	1.904	1.924	1.909	1.919	1.895	1.909
0.010	0.020	0.010	-0.015	-0.078	0.015	0.044	2.725	1.904	1.909	1.904	1.914	1.895	1.899
0.000	0.015	-0.005	0.000	-0.103	-0.049	0.039	2.656	1.890	1.899	1.899	1.919	1.885	1.880
0.010	0.034	0.000	0.010	-0.107	-0.029	0.044	2.671	1.885	1.895	1.895	1.914	1.890	1.885
0.005	0.010	0.000	-0.005	-0.078	-0.039	0.044	2.710	1.880	1.880	1.890	1.909	1.899	1.880
0.005	-0.010	0.000	-0.005	-0.068	-0.063	0.044	2.700	1.880	1.870	1.880	1.904	1.899	1.880
-0.005	-0.024	0.000	-0.005	-0.029	-0.083	0.039	2.700	1.875	1.865	1.875	1.899	1.909	1.885
-0.005	-0.010	-0.005	-0.005	0.034	-0.034	0.044	2.676	1.875	1.870	1.870	1.895	1.919	1.904
0.000	-0.005	0.005	0.005	0.083	-0.020	0.044	2.710	1.880	1.870	1.870	1.899	1.929	1.919
0.000	-0.015	0.005	0.000	0.156	0.020	0.044	2.676	1.885	1.880	1.875	1.899	1.943	1.938
-0.010	0.020	0.000	0.005	0.273	0.039	0.039	2.676	1.895	1.890	1.880	1.904	1.968	1.958
-0.010	0.000	0.000	0.015	0.342	0.044	0.044	2.681	1.904	1.895	1.890	1.909	1.968	1.963
0.005	-0.010	0.005	0.010	0.244	0.054	0.039	2.705	1.914	1.899	1.895	1.909	1.924	1.953
-0.005	0.034	0.005	0.005	0.088	0.063	0.039	2.705	1.919	1.919	1.899	1.909	1.875	1.934
0.005	0.005	0.005	0.000	0.015	0.063	0.039	2.715	1.929	1.914	1.904	1.914	1.875	1.919
0.005	0.000	0.005	-0.005	-0.010	0.054	0.044	2.690	1.924	1.919	1.909	1.914	1.875	1.904
0.005	-0.020	0.000	-0.010	-0.024	0.010	0.044	2.710	1.919	1.909	1.909	1.919	1.880	1.885
0.024	-0.088	0.000	-0.005	-0.039	0.024	0.039	2.686	1.914	1.895	1.904	1.919	1.885	1.885
0.015	-0.010	0.000	-0.005	-0.059	0.015	0.044	2.695	1.904	1.919	1.904	1.914	1.885	1.885
0.005	0.015	0.000	0.000	-0.078	0.000	0.039	2.700	1.890	1.909	1.904	1.914	1.885	1.880
0.000	0.015	0.000	0.005	-0.073	0.000	0.044	2.661	1.885	1.899	1.899	1.914	1.890	1.880
0.005	0.034	-0.005	0.005	-0.063	-0.010	0.044	2.710	1.880	1.890	1.895	1.914	1.895	1.875
-0.005	0.054	0.000	0.000	-0.063	-0.005	0.044	2.710	1.880	1.890	1.895	1.909	1.895	1.885
0.000	0.020	0.005	0.010	-0.054	0.000	0.044	2.690	1.875	1.875	1.885	1.909	1.899	1.890
0.005	-0.010	0.000	0.010	-0.049	-0.005	0.039	2.686	1.875	1.870	1.875	1.904	1.899	1.890
0.000	0.020	0.000	0.005	-0.044	-0.015	0.039	2.690	1.875	1.880	1.875	1.904	1.899	1.890
0.000	-0.034	0.005	0.010	-0.029	0.005	0.044	2.642	1.885	1.865	1.875	1.904	1.904	1.899
0.000	-0.034	0.000	0.005	-0.020	-0.010	0.044	2.651	1.890	1.875	1.875	1.904	1.909	1.904
0.000	0.024	0.010	0.010	-0.020	0.010	0.044	2.793	1.904	1.904	1.885	1.904	1.909	1.909
-0.015	0.010	-0.005	0.010	-0.020	-0.005	0.039	2.666	1.904	1.899	1.890	1.909	1.909	1.914
0.010	0.010	0.000	0.005	-0.010	0.000	0.044	2.749	1.919	1.909	1.899	1.909	1.914	1.914
-0.005	0.044	0.000	0.010	-0.005	0.000	0.039	2.671	1.914	1.919	1.909	1.919	1.919	1.914
0.000	0.000	0.000	0.010	0.005	-0.005	0.039	2.651	1.909	1.904	1.909	1.924	1.919	1.914
0.000	-0.005	0.005	0.005	-0.020	0.000	0.039	2.700	1.899	1.904	1.904	1.919	1.909	1.914
0.005	-0.015	-0.005	0.000	-0.034	-0.005	0.039	2.705	1.899	1.899	1.899	1.914	1.909	1.909
0.000	-0.015	0.000	0.000	-0.039	0.000	0.039	2.705	1.895	1.895	1.895	1.914	1.904	1.909
-0.005	-0.015	0.005	0.000	-0.020	-0.020	0.039	2.729	1.890	1.895	1.890	1.909	1.904	1.904
-0.010	0.078	0.000	-0.005	-0.010	-0.020	0.039	2.720	1.890	1.909	1.895	1.909	1.904	1.899
-0.005	0.010	0.000	0.000	-0.010	-0.005	0.044	2.632	1.880	1.875	1.885	1.904	1.904	1.904
0.010	-0.015	0.010	0.000	-0.020	0.000	0.044	2.769	1.890	1.875	1.880	1.899	1.895	1.899
0.015	0.049	0.000	0.000	-0.005	-0.015	0.044	2.622	1.885	1.890	1.880	1.899	1.899	1.895
0.010	-0.005	0.000	0.000	0.034	0.010	0.044	2.764	1.890	1.875	1.875	1.899	1.909	1.904
0.010	-0.010	-0.005	0.005	0.073	0.010	0.039	2.642	1.885	1.875	1.875	1.899	1.919	1.914
0.000	-0.010	-0.005	0.000	0.107	0.020	0.039	2.695	1.890	1.880	1.880	1.899	1.924	1.919
-0.005	-0.034	0.005	0.005	0.078	0.015	0.044	2.705	1.895	1.880	1.885	1.904	1.909	1.914
-0.005	-0.010	0.005	0.005	0.049	0.024	0.044	2.710	1.904	1.895	1.890	1.904	1.904	1.914
-0.005	-0.049	0.000	-0.005	0.024	0.010	0.039	2.705	1.909	1.890	1.890	1.904	1.899	1.904
0.000	-0.020	0.005	0.000	-0.010	-0.010	0.044	2.686	1.919	1.914	1.895	1.909	1.895	1.895
0.000	0.020	0.005	0.000	-0.024	0.024	0.044	2.705	1.919	1.924	1.909	1.914	1.899	1.909
0.005	0.020	0.000	0.005	-0.015	0.015	0.039	2.681	1.909	1.919	1.909	1.919	1.904	1.909
0.000	0.015	0.005	-0.005	-0.010	0.000	0.044	2.705	1.909	1.914	1.909	1.919	1.904	1.899
0.005	-0.015	0.000	-0.010	-0.010	0.010	0.044	2.676	1.904	1.899	1.904	1.919	1.909	1.904
0.015	-0.044	0.000	-0.010	-0.010	0.000	0.044	2.700	1.895	1.885	1.899	1.914	1.904	1.899
0.000	-0.020	-0.005	0.000	-0.005	-0.010	0.044	2.686	1.890	1.890	1.895	1.919	1.904	1.899
0.005	0.010	0.000	0.000	-0.010	-0.024	0.044	2.715	1.890	1.895	1.890	1.914	1.904	1.895
0.005	0.000	-0.005	0.005	-0.005	-0.010	0.044	2.671	1.885	1.885	1.880	1.904	1.899	1.895
0.010	-0.010	0.000	0.000	0.000	-0.005	0.039	2.695	1.880	1.875	1.880	1.899	1.899	1.895
0.010	-0.005	0.000	0.010	0.000	0.005	0.044	2.695	1.880	1.880	1.880	1.904	1.899	1.899
0.049	-0.015	0.000	0.015	0.000	-0.005	0.039	2.671	1.890	1.880	1.880	1.899	1.899	1.899
-0.010	0.020	0.000	0.000	0.000	0.005	0.044	2.671	1.875	1.885	1.880	1.899	1.899	1.899
-0.015	0.005	0.000	-0.005	-0.010	-0.015	0.039	2.676	1.880	1.880	1.885	1.899	1.895	1.895
0.000	-0.005	0.000	0.005	0.005	0.024	0.044	2.705	1.895	1.885	1.885	1.909	1.904	1.909
0.000	0.024	0.005	0.000	0.005	-0.005	0.044	2.715	1.909	1.904	1.895	1.909	1.909	1.904
-0.010	0.049	0.005	0.000	0.005	0.020	0.044	2.720	1.914	1.914	1.899	1.914	1.909	1.914
-0.010	0.000	0.005	0.000	0.000	0.020	0.039	2.695	1.914	1.904	1.899	1.914	1.909	1.914
0.000	-0.020	0.000	-0.005	0.005	0.005	0.044	2.695	1.914	1.904	1.904	1.919	1.914	1.909
0.005	-0.010	-0.005	-0.005	0.005	0.010	0.044	2.671	1.914	1.909	1.904	1.919	1.914	1.909
-0.010	0.015	0.000	0.005	0.000	0.000	0.044	2.651	1.914	1.914	1.904	1.919	1.909	1.909
-0.005	-0.005	0.005	0.010	-0.005	-0.015	0.039	2.769	1.899	1.904	1.904	1.924	1.914	1.904
-0.005	0.005	0.005	0.020	0.005	-0.005	0.044	2.671	1.890	1.899	1.899	1.919	1.914	1.909
0.010	0.000	-0.005	0.029	0.005	0.015	0.039	2.744	1.885	1.895	1.895	1.919	1.914	1.914
0.005	0.015	0.005	0.015	0.000	0.015	0.039	2.661	1.875	1.890	1.890	1.909	1.909	1.909
0.005	0.029	0.005	0.010	0.010	0.010	0.044	2.715	1.875	1.885	1.885	1.904	1.904	1.904
