0.010	0.010	-0.005	-0.005	-0.010	0.010	0.029	1.768	1.704	1.333	1.240	1.152	1.094	1.143
0.039	0.024	-0.005	0.000	0.000	0.015	0.029	1.758	1.553	1.401	1.274	1.187	1.113	1.133
0.015	-0.005	-0.010	0.005	0.010	0.010	0.034	1.709	1.421	1.401	1.304	1.221	1.143	1.128
-0.005	-0.034	0.000	0.000	0.020	-0.005	0.034	1.782	1.333	1.372	1.323	1.250	1.167	1.133
-0.029	-0.044	0.000	0.000	0.010	-0.010	0.029	1.758	1.265	1.338	1.328	1.274	1.191	1.143
-0.039	0.020	0.005	-0.005	0.015	-0.029	0.034	1.729	1.226	1.328	1.328	1.294	1.216	1.157
-0.020	0.063	0.000	0.000	0.015	-0.024	0.034	1.729	1.201	1.304	1.323	1.309	1.240	1.182
0.000	0.054	0.000	0.000	0.015	-0.010	0.034	1.733	1.196	1.274	1.309	1.313	1.265	1.206
0.024	-0.005	-0.005	-0.005	0.000	-0.015	0.034	1.738	1.191	1.235	1.294	1.318	1.274	1.226
0.024	-0.044	-0.005	-0.005	-0.005	-0.015	0.034	1.758	1.187	1.216	1.274	1.313	1.284	1.245
0.010	-0.005	0.005	0.000	-0.024	0.005	0.029	1.787	1.187	1.226	1.265	1.309	1.289	1.260
-0.010	-0.010	0.000	0.000	-0.029	0.000	0.034	1.738	1.182	1.211	1.255	1.299	1.294	1.270
-0.010	-0.054	0.000	0.000	-0.010	-0.005	0.034	1.763	1.187	1.196	1.240	1.289	1.299	1.279
-0.024	-0.005	0.000	-0.005	0.000	-0.020	0.034	1.753	1.182	1.211	1.230	1.284	1.299	1.279
-0.044	-0.020	0.000	-0.005	-0.005	0.005	0.034	1.777	1.177	1.191	1.221	1.270	1.289	1.289
0.000	-0.024	-0.005	0.000	-0.005	0.010	0.034	1.763	1.196	1.191	1.211	1.260	1.279	1.284
0.020	0.020	-0.010	-0.005	0.005	-0.005	0.029	1.777	1.196	1.201	1.206	1.245	1.270	1.274
0.015	0.010	-0.010	0.000	0.005	0.010	0.034	1.768	1.182	1.191	1.201	1.235	1.255	1.274
-0.005	0.000	-0.005	0.005	0.000	0.005	0.029	1.729	1.167	1.177	1.191	1.226	1.245	1.265
-0.020	0.005	-0.010	0.000	-0.010	-0.005	0.034	1.772	1.162	1.172	1.182	1.216	1.230	1.245
-0.015	0.000	0.005	0.000	-0.020	0.000	0.034	1.724	1.167	1.167	1.177	1.211	1.221	1.235
0.015	-0.010	0.005	0.000	-0.005	0.010	0.034	1.777	1.177	1.162	1.172	1.206	1.216	1.235
0.093	-0.005	-0.005	0.005	0.005	0.000	0.034	1.694	1.187	1.177	1.172	1.201	1.211	1.226
0.083	0.015	0.000	-0.005	0.015	-0.034	0.034	1.787	1.187	1.182	1.172	1.196	1.206	1.216
0.083	-0.020	-0.005	0.000	0.010	-0.015	0.034	1.733	1.182	1.177	1.177	1.196	1.206	1.216
0.024	-0.020	-0.005	0.000	0.015	-0.010	0.034	1.772	1.162	1.172	1.177	1.201	1.206	1.216
-0.059	-0.015	0.000	0.000	-0.005	-0.010	0.034	1.704	1.138	1.172	1.177	1.201	1.201	1.216
-0.127	-0.010	0.000	0.000	-0.024	0.010	0.034	1.758	1.128	1.162	1.177	1.201	1.196	1.216
-0.137	0.005	0.000	0.000	0.000	0.015	0.034	1.738	1.143	1.162	1.177	1.201	1.206	1.216
-0.127	0.010	0.005	0.000	0.000	0.024	0.034	1.729	1.157	1.167	1.177	1.201	1.206	1.216
-0.078	0.015	0.000	0.000	0.005	0.010	0.034	1.729	1.172	1.172	1.172	1.201	1.206	1.206
-0.039	0.000	0.000	-0.005	0.005	0.024	0.029	1.782	1.187	1.172	1.172	1.196	1.201	1.211
0.000	0.000	-0.005	-0.005	0.005	0.010	0.029	1.753	1.187	1.177	1.172	1.191	1.196	1.201
0.015	0.015	0.000	-0.005	0.005	0.015	0.034	1.787	1.187	1.177	1.172	1.191	1.191	1.196
0.049	0.005	-0.005	0.000	-0.010	0.005	0.034	1.719	1.177	1.172	1.167	1.187	1.182	1.187
0.078	0.010	0.000	0.000	-0.010	-0.010	0.034	1.787	1.177	1.177	1.172	1.187	1.177	1.177
0.059	0.010	-0.005	-0.005	-0.010	-0.029	0.034	1.748	1.162	1.162	1.162	1.182	1.172	1.172
0.044	-0.010	0.005	0.000	0.000	-0.020	0.034	1.777	1.152	1.152	1.157	1.177	1.172	1.172
0.020	-0.005	0.000	0.000	-0.005	-0.010	0.034	1.797	1.143	1.143	1.152	1.177	1.172	1.172
0.029	-0.059	0.000	0.005	0.000	-0.015	0.034	1.738	1.143	1.128	1.147	1.172	1.172	1.172
0.029	-0.020	-0.005	0.000	0.000	0.015	0.034	1.748	1.143	1.147	1.147	1.172	1.172	1.182
0.010	0.112	0.010	-0.005	0.010	0.005	0.034	1.792	1.157	1.187	1.167	1.177	1.177	1.177
0.000	0.020	0.005	0.000	0.020	0.010	0.029	1.777	1.152	1.147	1.162	1.177	1.182	1.177
-0.020	-0.063	-0.005	-0.005	0.010	0.005	0.029	1.753	1.147	1.128	1.152	1.177	1.182	1.177
-0.020	-0.059	-0.005	0.000	0.000	-0.020	0.029	1.772	1.152	1.143	1.152	1.177	1.172	1.172
-0.029	-0.010	-0.010	-0.005	-0.005	-0.039	0.029	1.729	1.152	1.162	1.157	1.182	1.177	1.172
-0.034	0.005	0.000	0.000	-0.005	-0.005	0.034	1.738	1.157	1.162	1.162	1.182	1.182	1.182
-0.020	-0.005	-0.005	0.005	0.005	0.000	0.034	1.733	1.152	1.157	1.157	1.182	1.182	1.182
-0.015	0.000	-0.010	0.005	0.000	0.000	0.034	1.758	1.157	1.157	1.162	1.182	1.182	1.182
-0.010	-0.005	-0.005	0.000	0.005	-0.005	0.034	1.763	1.157	1.152	1.157	1.177	1.177	1.177
-0.005	0.015	-0.005	0.005	0.000	-0.010	0.029	1.733	1.147	1.157	1.152	1.172	1.172	1.172
0.005	0.103	0.000	0.000	-0.005	0.020	0.034	1.772	1.147	1.172	1.157	1.172	1.167	1.172
0.010	0.020	0.000	0.000	-0.005	0.029	0.034	1.743	1.133	1.133	1.147	1.167	1.162	1.172
0.024	-0.034	-0.005	0.000	0.000	0.010	0.034	1.797	1.138	1.113	1.133	1.162	1.162	1.162
0.039	0.000	0.000	0.000	0.000	-0.010	0.034	1.782	1.143	1.133	1.133	1.157	1.157	1.152
0.020	0.020	-0.005	0.000	-0.005	0.005	0.034	1.729	1.123	1.133	1.133	1.152	1.152	1.157
-0.005	0.010	-0.005	-0.005	-0.005	0.005	0.029	1.787	1.128	1.128	1.128	1.152	1.152	1.152
0.000	0.005	-0.005	0.000	-0.010	0.000	0.034	1.724	1.128	1.128	1.128	1.152	1.152	1.152
0.005	-0.039	0.000	-0.005	-0.005	-0.005	0.034	1.787	1.133	1.118	1.128	1.152	1.152	1.152
0.000	-0.078	0.005	-0.005	0.000	-0.020	0.034	1.782	1.138	1.118	1.128	1.152	1.152	1.152
-0.015	-0.063	0.010	0.000	0.005	0.005	0.034	1.768	1.143	1.133	1.133	1.157	1.157	1.162
-0.015	0.029	0.005	0.000	0.000	0.010	0.034	1.758	1.147	1.167	1.143	1.162	1.157	1.162
0.005	0.078	0.000	-0.005	0.000	0.005	0.034	1.709	1.152	1.182	1.152	1.162	1.162	1.162
0.000	0.000	-0.005	-0.005	-0.015	0.005	0.029	1.753	1.138	1.143	1.147	1.167	1.157	1.162
0.015	-0.054	-0.005	-0.005	-0.020	-0.015	0.034	1.733	1.138	1.128	1.143	1.167	1.152	1.152
0.024	-0.020	0.000	0.000	0.000	-0.005	0.034	1.777	1.143	1.143	1.143	1.167	1.162	1.157
0.015	0.005	-0.005	0.000	0.005	-0.020	0.034	1.792	1.133	1.143	1.143	1.162	1.162	1.152
0.000	0.029	0.000	0.000	-0.005	-0.005	0.034	1.758	1.128	1.143	1.138	1.157	1.152	1.152
-0.015	0.005	-0.005	-0.005	0.000	-0.010	0.034	1.782	1.113	1.123	1.128	1.152	1.147	1.152
-0.015	-0.015	-0.010	0.000	-0.005	0.024	0.034	1.714	1.104	1.108	1.118	1.143	1.147	1.152
-0.005	-0.029	0.000	0.000	-0.010	0.024	0.029	1.743	1.108	1.099	1.113	1.143	1.138	1.147
0.005	0.015	-0.005	0.000	-0.005	0.015	0.029	1.772	1.118	1.118	1.113	1.138	1.138	1.138
0.005	0.073	0.005	0.000	-0.005	0.020	0.029	1.792	1.123	1.133	1.118	1.138	1.138	1.138
-0.010	0.029	0.000	0.005	0.005	-0.015	0.034	1.738	1.113	1.113	1.118	1.138	1.138	1.128
0.000	-0.020	0.005	0.000	0.010	0.000	0.034	1.787	1.123	1.104	1.113	1.138	1.143	1.138
0.039	-0.005	0.005	0.000	0.015	-0.005	0.034	1.680	1.133	1.118	1.113	1.138	1.143	1.138
0.024	0.000	0.000	-0.005	0.015	-0.029	0.034	1.792	1.133	1.128	1.123	1.143	1.143	1.138
-0.010	-0.010	-0.010	0.000	-0.010	-0.020	0.034	1.768	1.123	1.128	1.123	1.143	1.138	1.143
-0.044	0.020	-0.010	-0.005	-0.010	-0.015	0.034	1.777	1.123	1.138	1.128	1.147	1.143	1.143
-0.049	0.005	-0.005	-0.005	0.000	-0.005	0.034	1.758	1.123	1.128	1.133	1.152	1.147	1.147
-0.054	0.000	-0.005	0.000	0.005	-0.010	0.034	1.729	1.118	1.128	1.133	1.147	1.147	1.143
-0.039	-0.024	-0.005	-0.005	0.005	-0.005	0.034	1.787	1.123	1.113	1.128	1.147	1.147	1.147
-0.020	-0.088	-0.005	0.000	0.005	-0.005	0.034	1.782	1.128	1.104	1.118	1.143	1.147	1.147
0.005	-0.039	0.005	0.000	-0.015	-0.015	0.034	1.782	1.128	1.123	1.118	1.138	1.133	1.133
0.005	0.005	0.000	-0.005	-0.034	0.010	0.034	1.782	1.123	1.133	1.118	1.133	1.123	1.138
0.020	0.029	-0.005	0.000	0.005	0.010	0.029	1.714	1.113	1.133	1.118	1.133	1.138	1.133
0.029	0.015	0.005	-0.005	0.029	0.015	0.034	1.729	1.108	1.118	1.118	1.133	1.138	1.133
0.029	-0.020	-0.005	-0.005	0.015	0.015	0.034	1.724	1.104	1.099	1.108	1.128	1.128	1.128
0.073	0.005	0.000	-0.005	-0.005	0.000	0.034	1.753	1.118	1.113	1.108	1.123	1.118	1.123
0.039	0.034	-0.005	0.000	-0.020	0.005	0.034	1.768	1.104	1.113	1.108	1.128	1.118	1.123
0.034	-0.005	0.005	-0.005	-0.005	0.015	0.034	1.729	1.108	1.104	1.113	1.128	1.123	1.123
0.020	0.005	0.000	0.000	-0.005	0.010	0.034	1.753	1.104	1.104	1.108	1.128	1.123	1.123
-0.010	-0.020	0.005	-0.005	-0.005	0.010	0.034	1.768	1.099	1.099	1.108	1.133	1.128	1.128
-0.039	-0.020	0.005	-0.005	-0.029	-0.020	0.034	1.743	1.104	1.104	1.108	1.133	1.123	1.123
-0.034	0.005	-0.005	-0.005	-0.029	0.000	0.034	1.758	1.118	1.118	1.113	1.138	1.128	1.128
0.044	0.005	0.000	-0.005	-0.005	-0.020	0.029	1.758	1.143	1.128	1.123	1.138	1.138	1.128
0.010	0.000	-0.005	0.000	0.034	0.015	0.034	1.782	1.123	1.128	1.123	1.143	1.152	1.147
-0.005	0.010	-0.010	-0.005	0.020	0.010	0.034	1.777	1.123	1.128	1.123	1.143	1.138	1.143
-0.029	0.020	-0.010	0.000	0.005	0.000	0.034	1.777	1.113	1.123	1.123	1.143	1.138	1.138
-0.063	0.059	-0.005	0.000	-0.010	-0.020	0.029	1.787	1.104	1.123	1.123	1.138	1.133	1.128
-0.073	0.000	0.000	0.000	-0.005	-0.034	0.034	1.709	1.089	1.094	1.108	1.133	1.128	1.123
-0.068	0.005	0.000	0.000	0.005	-0.005	0.029	1.792	1.094	1.099	1.104	1.128	1.128	1.128
-0.059	0.083	0.000	0.000	0.005	0.005	0.034	1.763	1.099	1.113	1.104	1.128	1.128	1.128
-0.049	-0.063	0.000	0.000	0.015	0.000	0.034	1.763	1.089	1.060	1.084	1.118	1.123	1.123
0.020	-0.088	0.005	0.000	0.000	0.005	0.034	1.782	1.113	1.069	1.079	1.108	1.113	1.118
0.054	-0.034	0.000	0.005	0.010	-0.015	0.034	1.733	1.118	1.099	1.084	1.104	1.113	1.113
0.039	0.000	-0.005	0.005	0.015	-0.029	0.034	1.792	1.118	1.113	1.089	1.108	1.108	1.108
0.010	0.000	0.000	0.000	0.024	-0.024	0.034	1.758	1.099	1.108	1.099	1.113	1.113	1.113
-0.010	0.005	-0.010	0.000	0.020	-0.005	0.034	1.772	1.099	1.108	1.104	1.113	1.113	1.118
-0.024	-0.010	0.000	0.000	0.015	-0.015	0.034	1.782	1.104	1.104	1.108	1.118	1.113	1.113
-0.024	0.024	0.005	0.005	0.015	-0.039	0.034	1.753	1.108	1.118	1.113	1.123	1.118	1.108
-0.015	0.000	0.000	0.005	0.010	-0.005	0.034	1.768	1.113	1.113	1.118	1.133	1.123	1.128
-0.015	-0.020	-0.005	0.000	0.005	-0.010	0.034	1.758	1.113	1.108	1.113	1.133	1.123	1.123
0.000	-0.005	-0.005	0.000	-0.010	0.005	0.034	1.782	1.123	1.118	1.118	1.133	1.123	1.133
0.010	0.000	0.000	0.000	-0.005	0.010	0.034	1.772	1.123	1.118	1.118	1.133	1.123	1.133
0.034	-0.039	0.000	0.000	0.005	0.005	0.034	1.777	1.123	1.108	1.118	1.138	1.128	1.123
0.029	-0.039	0.005	0.000	0.005	-0.005	0.034	1.758	1.113	1.108	1.113	1.133	1.123	1.123
0.020	-0.024	0.000	0.000	-0.010	-0.034	0.034	1.792	1.108	1.108	1.108	1.128	1.118	1.113
0.034	0.015	0.000	0.005	-0.005	0.000	0.034	1.763	1.108	1.113	1.104	1.123	1.118	1.123
0.039	0.024	0.000	0.000	0.010	0.000	0.034	1.768	1.104	1.108	1.104	1.123	1.118	1.118
0.020	0.010	-0.005	0.005	-0.010	-0.005	0.029	1.782	1.094	1.094	1.099	1.118	1.108	1.108
0.024	0.000	-0.005	0.000	-0.015	0.005	0.034	1.724	1.089	1.094	1.094	1.113	1.108	1.113
-0.005	0.020	-0.005	0.005	-0.015	-0.024	0.034	1.758	1.079	1.089	1.094	1.113	1.104	1.099
0.000	-0.024	-0.005	-0.005	-0.010	0.015	0.034	1.748	1.084	1.069	1.089	1.108	1.108	1.113
0.000	-0.039	0.000	0.000	-0.005	0.005	0.034	1.758	1.089	1.079	1.089	1.108	1.108	1.108
-0.010	-0.005	0.005	0.000	0.005	0.015	0.034	1.812	1.099	1.094	1.094	1.113	1.113	1.118
-0.005	-0.024	0.005	0.000	-0.005	0.015	0.034	1.787	1.113	1.094	1.094	1.118	1.113	1.118
-0.005	0.063	0.000	0.000	-0.005	0.029	0.034	1.748	1.118	1.138	1.108	1.123	1.118	1.128
0.005	0.073	0.000	-0.005	0.005	0.015	0.034	1.792	1.128	1.133	1.118	1.128	1.123	1.123
0.015	0.010	0.000	0.000	-0.005	-0.024	0.034	1.699	1.113	1.113	1.118	1.128	1.118	1.108
-0.005	-0.039	0.000	-0.005	-0.010	0.000	0.034	1.763	1.108	1.104	1.108	1.133	1.118	1.118
-0.010	-0.020	0.000	-0.005	-0.029	-0.020	0.034	1.772	1.104	1.104	1.108	1.128	1.118	1.113
-0.024	-0.059	-0.005	-0.005	-0.024	0.020	0.034	1.777	1.099	1.089	1.104	1.123	1.123	1.123
-0.010	0.039	-0.005	-0.005	-0.010	0.020	0.034	1.743	1.099	1.118	1.104	1.123	1.123	1.123
-0.020	0.107	-0.005	-0.005	-0.010	0.005	0.034	1.743	1.094	1.128	1.108	1.123	1.118	1.113
-0.010	0.020	-0.005	-0.005	-0.005	0.010	0.034	1.777	1.094	1.084	1.094	1.118	1.118	1.113
0.015	-0.005	0.000	-0.005	-0.005	0.029	0.034	1.753	1.094	1.074	1.089	1.113	1.113	1.113
0.015	-0.015	-0.005	0.000	0.005	0.020	0.034	1.743	1.089	1.074	1.084	1.104	1.108	1.108
0.000	-0.039	0.000	-0.005	0.020	0.024	0.034	1.797	1.089	1.069	1.079	1.104	1.113	1.113
-0.005	-0.020	-0.005	0.005	0.005	0.000	0.034	1.777	1.089	1.084	1.079	1.104	1.104	1.099
-0.015	0.000	0.000	-0.005	0.000	-0.029	0.034	1.768	1.089	1.084	1.084	1.099	1.099	1.094
-0.024	0.020	-0.005	0.000	-0.010	-0.024	0.034	1.724	1.089	1.099	1.084	1.104	1.099	1.094
-0.024	-0.020	-0.005	0.000	-0.010	-0.039	0.034	1.772	1.094	1.084	1.089	1.108	1.099	1.099
-0.020	-0.054	0.000	-0.005	-0.015	-0.020	0.034	1.753	1.099	1.084	1.094	1.108	1.104	1.104
-0.005	-0.010	-0.005	0.000	-0.005	0.010	0.034	1.782	1.113	1.108	1.099	1.113	1.113	1.113
-0.005	0.049	0.000	0.000	0.010	0.015	0.034	1.729	1.108	1.128	1.108	1.118	1.118	1.123
-0.015	0.015	0.005	-0.005	0.010	0.005	0.034	1.782	1.108	1.113	1.108	1.123	1.118	1.118
-0.015	0.015	0.005	-0.005	0.015	0.000	0.034	1.733	1.104	1.113	1.113	1.128	1.123	1.118
0.005	0.034	0.000	0.005	0.020	0.005	0.034	1.758	1.108	1.113	1.113	1.128	1.123	1.118
0.020	0.000	-0.005	0.000	0.010	0.015	0.034	1.772	1.099	1.094	1.104	1.123	1.118	1.118
0.044	-0.088	-0.005	0.000	-0.010	0.005	0.034	1.763	1.104	1.069	1.089	1.118	1.108	1.108
0.068	-0.044	0.000	0.000	-0.010	0.010	0.034	1.704	1.099	1.089	1.089	1.108	1.108	1.108
0.044	-0.039	0.000	0.000	-0.010	0.015	0.034	1.768	1.084	1.079	1.084	1.104	1.104	1.104
0.020	-0.020	-0.005	0.000	0.000	0.015	0.029	1.724	1.069	1.089	1.079	1.104	1.104	1.099
-0.029	0.132	0.000	0.000	0.000	-0.010	0.029	1.743	1.064	1.118	1.094	1.104	1.099	1.094
-0.054	0.073	-0.005	-0.005	-0.005	-0.020	0.029	1.777	1.064	1.079	1.084	1.099	1.094	1.089
-0.054	-0.024	-0.005	-0.005	-0.005	-0.010	0.029	1.758	1.060	1.050	1.074	1.099	1.099	1.094
-0.054	-0.068	0.000	-0.005	0.000	-0.020	0.029	1.787	1.074	1.040	1.069	1.094	1.099	1.094
-0.039	-0.049	-0.005	0.000	0.000	-0.020	0.034	1.787	1.094	1.064	1.069	1.099	1.099	1.094
-0.024	-0.024	0.000	0.005	-0.005	-0.039	0.034	1.729	1.104	1.089	1.074	1.099	1.094	1.094
-0.005	0.039	0.000	0.000	-0.005	-0.024	0.034	1.772	1.113	1.113	1.089	1.104	1.099	1.099
0.005	0.020	-0.005	0.000	0.000	0.015	0.034	1.787	1.113	1.108	1.094	1.108	1.108	1.113
0.010	-0.010	0.000	0.000	0.000	0.010	0.034	1.768	1.108	1.108	1.099	1.113	1.108	1.113
0.015	-0.010	-0.005	0.000	0.010	0.015	0.034	1.758	1.108	1.104	1.104	1.118	1.108	1.113
0.024	-0.020	0.000	-0.005	-0.005	0.015	0.034	1.787	1.118	1.108	1.104	1.118	1.108	1.108
0.024	-0.010	0.010	0.000	0.000	0.010	0.034	1.768	1.108	1.108	1.108	1.118	1.108	1.108
0.015	0.073	0.005	0.000	-0.010	-0.005	0.034	1.792	1.104	1.128	1.113	1.123	1.108	1.099
0.010	-0.005	-0.005	-0.005	-0.010	-0.015	0.034	1.768	1.089	1.084	1.099	1.113	1.104	1.099
0.005	-0.034	-0.005	0.000	0.000	-0.015	0.029	1.743	1.074	1.074	1.089	1.113	1.108	1.099
0.005	-0.039	0.000	0.000	0.020	-0.024	0.034	1.748	1.064	1.069	1.079	1.104	1.104	1.099
-0.005	-0.029	-0.005	0.000	0.015	0.000	0.029	1.777	1.069	1.064	1.074	1.099	1.099	1.104
-0.015	0.000	0.000	0.000	0.010	0.000	0.034	1.753	1.069	1.074	1.074	1.094	1.099	1.094
-0.010	0.005	-0.005	-0.005	0.000	0.010	0.034	1.768	1.074	1.074	1.069	1.094	1.094	1.104
-0.005	0.039	-0.005	-0.005	-0.015	-0.005	0.034	1.792	1.084	1.084	1.074	1.094	1.089	1.094
0.010	0.034	0.000	-0.005	-0.039	-0.039	0.029	1.777	1.094	1.089	1.084	1.094	1.084	1.079
0.015	0.010	-0.005	0.000	-0.029	-0.020	0.034	1.782	1.099	1.089	1.084	1.099	1.089	1.089
0.000	-0.029	-0.005	0.005	-0.005	-0.020	0.034	1.777	1.094	1.084	1.089	1.104	1.104	1.099
0.000	-0.024	0.005	0.000	-0.005	-0.020	0.029	1.748	1.099	1.089	1.089	1.108	1.104	1.099
0.000	-0.020	-0.005	-0.005	0.005	0.005	0.034	1.743	1.099	1.099	1.094	1.108	1.113	1.108
-0.010	-0.010	-0.005	0.000	0.010	0.005	0.034	1.777	1.099	1.099	1.099	1.113	1.113	1.113
-0.020	-0.005	0.000	-0.005	0.024	0.000	0.034	1.768	1.094	1.099	1.099	1.113	1.118	1.113
-0.024	-0.010	0.000	-0.005	0.020	0.010	0.034	1.768	1.094	1.094	1.099	1.118	1.113	1.113
-0.005	-0.010	0.005	0.000	0.005	0.000	0.034	1.763	1.099	1.094	1.094	1.113	1.108	1.108
0.059	-0.024	-0.005	0.005	0.000	0.005	0.029	1.782	1.113	1.094	1.094	1.108	1.104	1.108
0.034	0.000	-0.005	-0.005	0.000	-0.005	0.034	1.743	1.094	1.104	1.089	1.104	1.099	1.099
-0.010	0.117	0.000	-0.005	0.000	0.010	0.034	1.763	1.079	1.118	1.099	1.108	1.099	1.099
-0.049	0.039	0.000	-0.005	0.000	-0.015	0.034	1.777	1.064	1.074	1.089	1.104	1.094	1.089
-0.054	-0.024	0.000	-0.005	-0.005	0.000	0.034	1.709	1.055	1.050	1.074	1.099	1.094	1.094
-0.049	-0.015	0.005	0.000	-0.010	-0.005	0.034	1.729	1.060	1.050	1.069	1.094	1.089	1.089
-0.039	-0.005	0.000	0.000	0.000	0.010	0.034	1.777	1.074	1.060	1.064	1.094	1.094	1.094
-0.010	0.000	0.000	0.000	0.005	0.015	0.034	1.738	1.089	1.069	1.064	1.094	1.094	1.094
0.000	0.005	-0.005	0.000	0.000	-0.005	0.034	1.777	1.099	1.084	1.074	1.094	1.094	1.089
0.005	0.024	-0.005	0.005	-0.005	-0.020	0.034	1.792	1.108	1.099	1.084	1.094	1.094	1.084
0.073	0.015	0.000	0.000	-0.005	0.000	0.029	1.758	1.128	1.104	1.089	1.104	1.099	1.099
0.049	-0.005	0.000	-0.005	0.010	0.010	0.034	1.782	1.113	1.104	1.094	1.108	1.104	1.104
0.024	0.005	0.000	-0.005	0.000	0.015	0.034	1.792	1.108	1.108	1.104	1.113	1.104	1.108
-0.020	-0.049	-0.005	0.000	0.010	0.015	0.029	1.753	1.089	1.089	1.094	1.113	1.108	1.108
-0.039	-0.010	-0.005	-0.005	0.015	0.015	0.034	1.782	1.089	1.104	1.099	1.113	1.108	1.108
-0.039	-0.015	-0.010	0.000	0.015	0.005	0.034	1.714	1.079	1.094	1.094	1.113	1.108	1.104
-0.029	-0.015	-0.005	0.000	0.029	-0.005	0.029	1.792	1.084	1.089	1.094	1.113	1.113	1.104
-0.024	-0.005	-0.010	0.000	0.005	-0.024	0.034	1.753	1.084	1.084	1.089	1.108	1.099	1.094
-0.005	-0.015	0.000	0.000	-0.010	-0.010	0.034	1.758	1.084	1.084	1.084	1.104	1.094	1.094
0.010	0.000	0.000	0.000	-0.005	-0.015	0.034	1.782	1.079	1.079	1.079	1.099	1.094	1.094
0.015	-0.005	-0.005	0.000	-0.010	-0.010	0.034	1.777	1.079	1.074	1.074	1.094	1.089	1.089
0.024	0.000	0.000	-0.005	0.005	-0.024	0.034	1.797	1.084	1.074	1.074	1.094	1.094	1.084
0.054	0.020	-0.005	-0.005	0.015	0.024	0.034	1.797	1.094	1.084	1.074	1.089	1.094	1.099
0.044	0.005	-0.005	-0.005	-0.054	-0.005	0.034	1.787	1.084	1.079	1.074	1.089	1.069	1.084
0.015	-0.010	-0.005	-0.005	-0.063	0.010	0.034	1.748	1.079	1.079	1.074	1.094	1.074	1.084
-0.015	-0.034	0.000	-0.005	-0.034	0.015	0.034	1.782	1.079	1.069	1.079	1.094	1.089	1.089
-0.034	-0.010	0.005	-0.005	0.005	0.015	0.029	1.777	1.084	1.084	1.084	1.099	1.104	1.094
-0.024	-0.005	-0.005	-0.005	0.039	0.000	0.034	1.777	1.094	1.089	1.089	1.104	1.113	1.099
-0.005	0.044	0.000	0.005	0.029	0.000	0.034	1.758	1.113	1.113	1.094	1.113	1.113	1.104
0.005	-0.015	0.000	0.005	0.015	0.029	0.034	1.748	1.108	1.094	1.099	1.113	1.108	1.113
0.000	-0.039	0.000	0.000	0.000	0.010	0.034	1.768	1.099	1.094	1.094	1.113	1.104	1.104
-0.015	0.024	0.005	0.000	-0.010	-0.024	0.029	1.758	1.099	1.113	1.104	1.118	1.104	1.094
-0.024	0.059	0.000	0.000	-0.024	-0.039	0.034	1.758	1.094	1.113	1.104	1.113	1.099	1.094
-0.034	0.000	-0.005	0.005	-0.005	-0.034	0.029	1.733	1.079	1.084	1.094	1.113	1.108	1.094
-0.024	-0.029	0.000	-0.005	0.010	-0.024	0.034	1.787	1.084	1.069	1.084	1.108	1.108	1.099
-0.015	-0.005	-0.005	0.000	0.020	-0.005	0.034	1.782	1.084	1.074	1.079	1.104	1.108	1.104
-0.005	-0.020	-0.005	-0.005	0.029	0.005	0.034	1.787	1.084	1.069	1.074	1.099	1.104	1.104
0.000	0.000	-0.005	0.005	0.010	0.000	0.029	1.782	1.084	1.079	1.074	1.094	1.094	1.099
0.005	0.024	0.000	-0.005	0.000	0.010	0.034	1.753	1.079	1.084	1.074	1.094	1.089	1.094
-0.005	0.039	-0.005	0.000	-0.015	-0.020	0.034	1.777	1.079	1.084	1.074	1.094	1.084	1.079
0.015	0.010	0.000	0.000	-0.015	-0.020	0.034	1.772	1.084	1.079	1.074	1.094	1.089	1.084
0.010	0.010	0.000	0.000	0.000	-0.005	0.034	1.738	1.084	1.084	1.079	1.094	1.094	1.094
0.010	0.015	0.000	-0.005	0.000	0.024	0.034	1.758	1.089	1.084	1.084	1.099	1.094	1.104
0.000	-0.010	0.005	0.000	0.000	0.029	0.034	1.763	1.084	1.084	1.084	1.104	1.099	1.104
0.015	-0.024	0.000	0.000	0.005	0.000	0.034	1.743	1.089	1.084	1.084	1.104	1.104	1.094
-0.005	-0.044	0.000	0.000	0.000	-0.005	0.034	1.724	1.084	1.079	1.089	1.108	1.104	1.099
0.000	-0.020	0.000	-0.005	-0.024	-0.005	0.034	1.768	1.094	1.089	1.089	1.108	1.099	1.104
0.000	0.010	0.000	-0.005	-0.010	-0.005	0.029	1.787	1.094	1.104	1.094	1.108	1.104	1.104
0.000	-0.005	0.000	0.000	0.005	0.010	0.034	1.758	1.094	1.094	1.094	1.113	1.108	1.108
-0.005	0.020	-0.005	0.000	0.005	0.010	0.034	1.758	1.099	1.099	1.094	1.108	1.104	1.104
-0.005	-0.005	0.000	0.000	0.000	0.010	0.034	1.758	1.084	1.089	1.089	1.104	1.099	1.099
0.005	-0.005	0.000	0.000	0.000	0.005	0.034	1.694	1.074	1.079	1.084	1.104	1.099	1.094
0.000	-0.005	-0.005	0.000	-0.010	0.005	0.034	1.777	1.074	1.074	1.079	1.099	1.094	1.094
0.015	-0.005	0.000	0.000	-0.010	-0.005	0.034	1.738	1.074	1.069	1.074	1.094	1.089	1.084
0.015	0.005	-0.005	0.000	-0.005	0.000	0.034	1.772	1.074	1.069	1.069	1.089	1.089	1.089
0.020	0.000	0.000	0.000	0.000	0.000	0.034	1.758	1.069	1.069	1.069	1.084	1.089	1.089
0.005	0.010	-0.005	-0.005	0.005	0.005	0.034	1.748	1.069	1.069	1.069	1.089	1.089	1.089
-0.010	0.010	0.000	-0.005	-0.005	0.010	0.034	1.787	1.074	1.069	1.069	1.089	1.089	1.089
-0.010	-0.005	-0.005	0.005	-0.010	-0.005	0.034	1.758	1.079	1.074	1.074	1.094	1.089	1.084
-0.010	-0.005	0.000	-0.005	-0.015	-0.005	0.034	1.802	1.089	1.074	1.074	1.094	1.089	1.084
-0.015	-0.024	-0.005	-0.005	-0.024	-0.005	0.034	1.782	1.094	1.079	1.074	1.094	1.089	1.089
-0.010	-0.029	0.000	-0.005	0.015	-0.005	0.029	1.753	1.089	1.084	1.084	1.099	1.104	1.094
0.020	-0.044	0.000	-0.005	0.039	-0.010	0.034	1.758	1.099	1.089	1.084	1.104	1.108	1.099
0.020	0.029	-0.005	0.000	0.015	-0.020	0.034	1.719	1.094	1.113	1.094	1.108	1.104	1.099
0.005	0.083	-0.005	0.000	0.020	-0.005	0.034	1.777	1.104	1.123	1.104	1.108	1.104	1.104
-0.015	0.059	-0.005	0.000	0.010	-0.020	0.034	1.753	1.089	1.104	1.104	1.113	1.099	1.099
-0.034	0.029	0.000	0.000	-0.010	-0.005	0.034	1.704	1.069	1.084	1.094	1.113	1.099	1.099
-0.024	-0.015	0.005	0.000	-0.034	-0.015	0.034	1.777	1.060	1.064	1.084	1.104	1.089	1.094
-0.034	-0.005	0.000	0.000	-0.029	0.020	0.029	1.738	1.055	1.060	1.074	1.099	1.094	1.099
-0.024	-0.020	-0.005	0.000	-0.015	0.010	0.034	1.777	1.064	1.055	1.064	1.094	1.094	1.094
-0.015	-0.039	0.000	0.005	-0.010	0.024	0.034	1.768	1.064	1.045	1.055	1.084	1.089	1.089
-0.020	-0.039	0.005	0.000	-0.005	0.015	0.034	1.694	1.060	1.050	1.055	1.079	1.084	1.089
-0.015	-0.024	0.000	0.000	0.000	0.000	0.034	1.787	1.064	1.055	1.055	1.074	1.084	1.079
-0.005	-0.034	0.000	0.000	0.000	-0.010	0.034	1.753	1.074	1.060	1.055	1.074	1.079	1.079
0.010	-0.020	-0.005	0.000	0.005	0.010	0.029	1.738	1.079	1.069	1.055	1.074	1.084	1.084
0.015	-0.024	-0.005	-0.005	0.010	-0.015	0.034	1.782	1.089	1.079	1.064	1.079	1.084	1.079
0.015	-0.015	-0.005	0.000	0.005	0.010	0.034	1.777	1.094	1.089	1.074	1.089	1.084	1.089
0.020	0.010	0.000	0.000	-0.015	-0.005	0.034	1.748	1.099	1.099	1.084	1.089	1.079	1.079
0.000	0.029	0.000	0.000	0.000	-0.010	0.034	1.777	1.094	1.108	1.094	1.099	1.089	1.084
0.005	0.024	0.000	-0.005	0.034	-0.010	0.034	1.738	1.094	1.104	1.099	1.104	1.104	1.094
0.010	0.034	-0.005	0.000	0.029	-0.010	0.034	1.733	1.089	1.099	1.099	1.108	1.104	1.099
0.000	-0.024	-0.005	-0.005	0.020	0.000	0.034	1.729	1.084	1.079	1.094	1.108	1.099	1.099
0.005	-0.054	-0.010	0.000	0.000	-0.005	0.034	1.748	1.084	1.079	1.084	1.108	1.099	1.094
0.005	0.010	-0.005	0.000	-0.005	-0.010	0.029	1.753	1.084	1.089	1.089	1.104	1.094	1.094
0.010	0.024	0.000	0.000	0.000	-0.010	0.034	1.787	1.084	1.089	1.084	1.099	1.094	1.089
0.000	0.010	0.000	0.000	0.010	-0.010	0.034	1.753	1.074	1.074	1.079	1.099	1.094	1.089
0.000	0.020	0.000	0.000	-0.005	0.005	0.034	1.782	1.069	1.069	1.074	1.094	1.084	1.089
0.000	0.010	0.000	0.000	-0.010	-0.015	0.034	1.694	1.064	1.064	1.069	1.089	1.084	1.084
0.020	0.010	0.000	0.000	0.000	0.020	0.034	1.748	1.064	1.064	1.064	1.084	1.084	1.094
0.015	0.000	-0.005	0.000	-0.005	0.015	0.034	1.709	1.074	1.064	1.060	1.084	1.084	1.089
0.020	0.000	0.000	-0.005	-0.005	0.005	0.034	1.753	1.074	1.064	1.064	1.084	1.084	1.084
0.000	0.000	0.000	0.000	-0.010	-0.015	0.034	1.777	1.079	1.069	1.069	1.084	1.079	1.074
0.005	0.015	0.000	0.000	-0.010	0.010	0.034	1.758	1.074	1.084	1.074	1.089	1.084	1.089
-0.015	0.020	0.005	0.000	-0.005	0.010	0.034	1.797	1.084	1.084	1.079	1.094	1.089	1.089
-0.024	0.044	0.000	-0.005	0.005	-0.005	0.039	1.719	1.084	1.089	1.084	1.099	1.094	1.089
-0.020	0.010	-0.005	0.000	0.005	0.005	0.034	1.777	1.089	1.084	1.089	1.104	1.099	1.099
-0.024	0.020	-0.005	-0.005	-0.005	0.010	0.034	1.758	1.094	1.089	1.089	1.104	1.094	1.094
-0.024	-0.039	-0.005	0.000	0.000	0.005	0.034	1.753	1.089	1.074	1.084	1.104	1.099	1.094
-0.015	-0.044	-0.010	0.000	0.000	0.024	0.034	1.772	1.094	1.079	1.079	1.099	1.099	1.099
-0.005	-0.034	0.005	0.000	0.000	0.020	0.034	1.768	1.094	1.079	1.084	1.099	1.099	1.099
-0.005	-0.010	0.000	-0.005	0.000	0.000	0.034	1.753	1.084	1.089	1.079	1.094	1.094	1.089
0.010	-0.015	-0.005	0.000	-0.005	0.000	0.029	1.768	1.084	1.079	1.079	1.094	1.089	1.089
0.000	-0.024	0.000	0.000	-0.010	-0.015	0.034	1.777	1.079	1.069	1.074	1.089	1.084	1.079
0.010	-0.049	0.000	-0.005	-0.005	-0.029	0.034	1.733	1.069	1.064	1.069	1.084	1.084	1.074
0.000	0.068	0.000	-0.005	-0.010	-0.034	0.029	1.768	1.069	1.089	1.074	1.089	1.074	1.069
0.005	0.034	0.000	0.000	-0.015	-0.015	0.029	1.797	1.069	1.074	1.069	1.089	1.079	1.079
0.005	-0.044	-0.005	0.000	0.000	-0.015	0.029	1.709	1.060	1.050	1.064	1.084	1.084	1.079
0.010	-0.020	0.000	-0.005	0.010	0.015	0.034	1.772	1.069	1.060	1.064	1.084	1.084	1.089
0.010	-0.005	0.000	0.000	0.005	0.015	0.034	1.792	1.079	1.074	1.069	1.089	1.089	1.089
0.000	-0.010	0.000	0.005	0.005	-0.024	0.029	1.768	1.079	1.074	1.074	1.089	1.089	1.079
0.000	-0.005	0.000	0.000	0.010	0.015	0.034	1.787	1.089	1.084	1.079	1.094	1.094	1.094
0.000	0.015	0.000	0.000	-0.010	-0.015	0.034	1.729	1.089	1.094	1.084	1.099	1.089	1.089
0.000	0.010	-0.005	0.000	0.000	0.015	0.034	1.743	1.089	1.094	1.089	1.104	1.099	1.099
-0.005	0.029	0.000	0.000	0.015	0.010	0.034	1.782	1.094	1.099	1.094	1.104	1.104	1.104
-0.010	0.010	0.005	0.000	-0.024	-0.005	0.034	1.753	1.094	1.089	1.094	1.108	1.094	1.094
0.000	-0.015	0.000	0.000	-0.039	0.020	0.029	1.758	1.089	1.089	1.089	1.104	1.094	1.099
0.000	0.000	-0.005	0.000	-0.010	0.015	0.029	1.743	1.084	1.084	1.084	1.104	1.099	1.094
0.010	0.000	-0.005	0.000	-0.020	0.010	0.034	1.758	1.074	1.079	1.079	1.099	1.094	1.094
0.000	0.000	-0.005	-0.005	-0.010	-0.024	0.034	1.772	1.074	1.069	1.074	1.094	1.094	1.079
-0.010	0.000	0.000	-0.005	-0.005	0.005	0.034	1.777	1.069	1.069	1.074	1.094	1.094	1.089
-0.005	0.000	-0.005	0.000	0.005	-0.039	0.029	1.743	1.035	1.055	1.064	1.089	1.089	1.074
-0.005	-0.010	-0.005	0.000	0.015	-0.005	0.034	1.772	1.045	1.045	1.060	1.084	1.089	1.084
-0.005	0.000	0.000	-0.005	0.015	-0.010	0.029	1.772	1.055	1.050	1.055	1.079	1.084	1.084
0.000	0.010	-0.005	0.000	0.005	-0.010	0.034	1.777	1.069	1.055	1.055	1.079	1.079	1.079
0.010	0.000	-0.005	-0.005	0.000	-0.015	0.034	1.733	1.079	1.060	1.055	1.079	1.079	1.079
0.005	-0.005	-0.005	0.000	0.015	-0.020	0.029	1.772	1.079	1.064	1.064	1.084	1.084	1.084
0.029	0.005	-0.005	0.000	0.020	0.005	0.034	1.768	1.094	1.079	1.069	1.084	1.084	1.094
0.034	0.010	-0.005	0.000	0.010	0.005	0.034	1.772	1.099	1.089	1.079	1.094	1.084	1.089
0.015	-0.010	0.000	0.000	0.000	0.010	0.034	1.787	1.094	1.084	1.084	1.099	1.089	1.094
-0.005	-0.005	0.000	0.000	0.005	0.000	0.034	1.748	1.084	1.089	1.084	1.099	1.094	1.089
-0.029	-0.015	0.005	0.000	0.000	0.005	0.029	1.738	1.079	1.084	1.089	1.099	1.094	1.094
-0.054	-0.015	0.000	0.000	-0.010	-0.020	0.029	1.768	1.074	1.079	1.084	1.099	1.089	1.084
-0.044	-0.010	-0.005	0.000	0.000	0.010	0.029	1.743	1.074	1.074	1.079	1.099	1.094	1.094
-0.039	-0.005	0.000	0.005	-0.010	0.015	0.029	1.719	1.064	1.074	1.079	1.094	1.089	1.094
-0.034	0.000	0.005	0.000	0.000	0.010	0.034	1.777	1.074	1.069	1.074	1.094	1.089	1.089
-0.024	-0.010	0.000	0.000	0.000	0.010	0.034	1.772	1.074	1.064	1.064	1.089	1.089	1.084
-0.005	0.015	0.000	0.000	0.005	-0.010	0.034	1.733	1.074	1.074	1.069	1.084	1.084	1.079
0.000	0.029	0.000	0.000	0.005	0.005	0.034	1.772	1.069	1.069	1.064	1.084	1.079	1.079
0.015	0.010	0.000	0.005	0.005	-0.005	0.029	1.733	1.074	1.064	1.060	1.079	1.079	1.074
0.005	-0.010	-0.005	0.000	0.000	-0.005	0.034	1.748	1.069	1.060	1.060	1.079	1.074	1.069
0.015	0.000	-0.005	0.000	-0.024	0.000	0.034	1.797	1.079	1.069	1.060	1.079	1.069	1.069
0.015	0.000	0.000	0.000	-0.034	0.005	0.034	1.733	1.074	1.064	1.064	1.079	1.069	1.074
0.015	0.020	0.000	-0.005	-0.020	-0.010	0.034	1.782	1.084	1.079	1.074	1.084	1.079	1.074
0.005	-0.024	-0.005	0.000	-0.010	0.000	0.034	1.777	1.084	1.069	1.074	1.094	1.089	1.079
0.000	-0.044	0.005	0.000	0.015	0.010	0.034	1.782	1.089	1.074	1.074	1.094	1.094	1.094
0.005	0.034	0.000	0.000	0.020	0.000	0.034	1.724	1.094	1.104	1.089	1.099	1.099	1.094
0.015	-0.005	-0.005	0.005	0.015	-0.020	0.034	1.768	1.094	1.089	1.089	1.104	1.094	1.089
0.010	-0.024	0.010	0.000	-0.005	-0.010	0.029	1.787	1.099	1.084	1.089	1.104	1.094	1.089
0.020	-0.015	0.010	0.005	-0.005	0.000	0.034	1.733	1.094	1.089	1.089	1.104	1.094	1.094
0.015	-0.015	0.000	0.000	-0.005	0.005	0.034	1.777	1.089	1.089	1.089	1.104	1.099	1.094
0.049	0.005	0.000	-0.005	0.005	-0.010	0.029	1.772	1.094	1.089	1.084	1.099	1.099	1.094
0.132	0.010	-0.005	0.000	0.000	0.005	0.029	1.753	1.108	1.094	1.084	1.099	1.094	1.089
0.093	0.000	-0.005	0.000	-0.010	0.010	0.034	1.733	1.074	1.084	1.079	1.094	1.089	1.094
0.005	0.010	-0.005	0.000	-0.005	0.005	0.034	1.777	1.045	1.069	1.074	1.094	1.084	1.084
-0.063	0.005	-0.005	0.000	-0.010	-0.005	0.029	1.753	1.025	1.050	1.064	1.089	1.084	1.079
-0.103	0.000	0.000	0.000	-0.020	0.000	0.029	1.768	1.025	1.040	1.055	1.084	1.079	1.079
-0.112	-0.005	0.000	-0.005	0.000	0.000	0.034	1.777	1.040	1.040	1.055	1.079	1.084	1.079
-0.103	0.000	-0.005	0.000	-0.005	-0.020	0.034	1.709	1.045	1.040	1.045	1.074	1.079	1.074
-0.083	0.005	0.000	0.000	-0.010	0.005	0.034	1.777	1.055	1.050	1.050	1.074	1.079	1.084
-0.059	0.005	-0.005	0.005	0.024	0.015	0.034	1.748	1.074	1.060	1.055	1.079	1.089	1.089
-0.024	0.000	-0.005	-0.005	0.044	0.005	0.034	1.777	1.094	1.074	1.060	1.079	1.094	1.094
0.005	0.000	0.005	0.000	0.029	0.000	0.034	1.787	1.104	1.089	1.074	1.089	1.084	1.084
0.015	0.000	0.000	0.000	0.010	-0.010	0.034	1.753	1.084	1.089	1.079	1.089	1.084	1.089
0.020	0.010	0.000	0.000	-0.029	-0.015	0.034	1.792	1.094	1.094	1.089	1.094	1.079	1.079
0.029	0.000	0.000	0.000	-0.029	-0.020	0.034	1.758	1.089	1.094	1.084	1.094	1.084	1.084
0.044	0.005	-0.005	-0.005	-0.024	-0.005	0.029	1.777	1.094	1.094	1.089	1.094	1.084	1.084
0.112	-0.010	0.000	-0.005	-0.005	-0.005	0.029	1.758	1.113	1.094	1.089	1.099	1.094	1.084
0.146	-0.010	-0.005	0.000	0.010	-0.010	0.034	1.792	1.104	1.094	1.084	1.094	1.094	1.084
0.078	-0.005	0.000	-0.005	0.010	-0.005	0.034	1.768	1.069	1.079	1.079	1.094	1.094	1.084
0.034	0.000	0.000	0.000	0.015	0.024	0.029	1.777	1.060	1.069	1.074	1.094	1.089	1.094
-0.005	-0.005	-0.005	-0.005	-0.005	0.020	0.034	1.748	1.050	1.060	1.069	1.089	1.079	1.084
-0.049	-0.005	0.000	0.005	0.000	-0.005	0.034	1.772	1.035	1.050	1.064	1.084	1.079	1.079
-0.078	-0.005	0.000	0.005	-0.005	0.005	0.034	1.753	1.040	1.045	1.055	1.084	1.079	1.074
-0.088	-0.005	0.000	0.000	-0.015	0.000	0.034	1.777	1.045	1.045	1.055	1.079	1.074	1.074
-0.078	-0.005	0.005	0.000	0.005	-0.005	0.034	1.729	1.055	1.045	1.050	1.079	1.079	1.074
-0.068	0.005	0.000	0.000	0.015	0.005	0.034	1.772	1.069	1.055	1.055	1.079	1.084	1.084
-0.059	0.020	0.000	0.000	0.005	-0.010	0.034	1.772	1.084	1.069	1.060	1.084	1.084	1.074
-0.034	-0.010	-0.005	0.000	0.000	0.005	0.034	1.729	1.089	1.074	1.064	1.084	1.084	1.084
-0.015	-0.020	0.005	0.000	0.005	-0.005	0.034	1.772	1.094	1.079	1.074	1.089	1.084	1.089
0.000	-0.005	0.000	0.000	0.005	0.020	0.034	1.777	1.108	1.094	1.079	1.094	1.089	1.099
0.010	0.000	0.000	0.000	0.010	-0.005	0.034	1.753	1.104	1.094	1.084	1.099	1.089	1.089
0.024	-0.010	0.000	0.000	0.005	0.005	0.034	1.782	1.104	1.094	1.089	1.099	1.094	1.089
0.029	0.000	-0.005	-0.005	-0.010	0.010	0.034	1.758	1.099	1.099	1.089	1.099	1.089	1.089
0.034	0.005	0.000	0.005	-0.015	-0.005	0.034	1.777	1.089	1.094	1.089	1.104	1.089	1.084
0.015	0.015	-0.005	0.000	0.000	0.000	0.034	1.777	1.079	1.089	1.089	1.099	1.089	1.084
0.034	-0.005	-0.005	0.000	0.005	-0.010	0.034	1.733	1.074	1.074	1.079	1.094	1.089	1.079
0.029	0.005	-0.005	0.000	0.015	0.000	0.034	1.777	1.064	1.074	1.079	1.094	1.094	1.084
0.049	-0.005	0.000	-0.005	0.010	0.005	0.034	1.758	1.074	1.064	1.069	1.089	1.089	1.084
0.034	-0.024	0.000	0.000	0.010	0.000	0.034	1.709	1.060	1.055	1.064	1.089	1.084	1.084
0.015	-0.024	0.000	0.005	-0.005	-0.005	0.034	1.772	1.055	1.050	1.060	1.084	1.079	1.079
0.000	-0.005	-0.005	0.000	-0.029	-0.005	0.034	1.777	1.060	1.060	1.060	1.084	1.074	1.079
-0.020	0.005	-0.005	0.000	-0.044	0.000	0.034	1.792	1.069	1.064	1.064	1.084	1.074	1.079
-0.024	0.000	-0.005	0.000	-0.034	0.005	0.034	1.743	1.069	1.069	1.064	1.089	1.084	1.084
-0.015	0.010	0.000	0.005	-0.020	0.015	0.034	1.714	1.069	1.074	1.074	1.089	1.089	1.089
-0.024	0.020	0.000	0.000	0.005	0.020	0.034	1.753	1.079	1.084	1.079	1.094	1.099	1.094
-0.015	0.020	0.000	0.000	0.015	0.010	0.029	1.792	1.089	1.084	1.079	1.099	1.099	1.094
0.005	0.010	-0.005	0.000	0.010	0.005	0.034	1.768	1.099	1.089	1.084	1.099	1.099	1.094
0.029	0.000	-0.005	0.000	0.015	0.005	0.034	1.772	1.099	1.094	1.089	1.104	1.099	1.099
0.024	0.000	-0.005	0.005	0.005	0.005	0.029	1.743	1.094	1.089	1.084	1.104	1.094	1.094
0.015	0.015	0.005	-0.005	0.000	-0.005	0.034	1.758	1.089	1.094	1.084	1.099	1.094	1.094
0.015	0.015	0.005	0.000	0.010	-0.034	0.034	1.782	1.084	1.084	1.084	1.099	1.094	1.079
-0.010	0.010	0.000	0.000	0.005	-0.020	0.039	1.772	1.069	1.074	1.074	1.099	1.089	1.084
-0.010	0.010	0.000	0.000	0.000	0.010	0.029	1.758	1.064	1.064	1.069	1.094	1.084	1.094
-0.015	0.005	0.000	0.000	-0.010	0.005	0.034	1.724	1.060	1.060	1.064	1.089	1.079	1.084
-0.029	-0.005	-0.005	0.000	-0.010	-0.020	0.029	1.743	1.050	1.055	1.055	1.079	1.079	1.074
-0.015	0.005	-0.005	0.000	-0.015	0.015	0.034	1.753	1.055	1.055	1.060	1.079	1.074	1.079
-0.020	0.000	-0.005	0.000	-0.005	-0.029	0.034	1.768	1.060	1.055	1.060	1.074	1.074	1.074
-0.010	0.005	-0.005	0.000	0.000	-0.005	0.029	1.772	1.064	1.055	1.055	1.074	1.074	1.079
-0.015	0.005	0.000	-0.005	0.000	0.005	0.034	1.772	1.079	1.064	1.064	1.079	1.079	1.079
-0.005	0.000	0.000	-0.005	-0.010	0.000	0.034	1.743	1.084	1.074	1.064	1.084	1.079	1.079
0.005	0.000	0.000	-0.005	0.005	-0.015	0.029	1.724	1.084	1.079	1.074	1.089	1.084	1.079
-0.005	0.010	0.005	-0.005	0.029	-0.015	0.034	1.782	1.089	1.079	1.079	1.094	1.094	1.089
0.000	-0.015	-0.005	0.005	0.005	-0.015	0.034	1.782	1.094	1.089	1.084	1.099	1.089	1.089
0.000	0.000	0.005	0.005	-0.005	0.015	0.034	1.729	1.084	1.094	1.084	1.099	1.089	1.094
-0.005	-0.005	-0.005	0.000	-0.010	0.024	0.034	1.748	1.084	1.089	1.089	1.099	1.094	1.094
0.010	-0.005	0.000	0.000	-0.015	0.015	0.034	1.772	1.089	1.084	1.084	1.099	1.089	1.094
0.000	-0.024	0.000	0.000	0.000	0.015	0.034	1.768	1.084	1.079	1.079	1.099	1.094	1.089
0.015	-0.024	0.000	0.000	0.010	0.005	0.034	1.743	1.079	1.074	1.074	1.094	1.094	1.084
0.010	-0.020	-0.005	0.000	0.015	-0.010	0.034	1.787	1.074	1.074	1.074	1.094	1.089	1.084
0.000	-0.029	0.000	0.000	0.015	-0.015	0.034	1.753	1.064	1.064	1.069	1.089	1.084	1.079
0.000	0.000	0.000	0.000	0.005	-0.020	0.034	1.733	1.060	1.069	1.069	1.089	1.079	1.074
0.000	0.078	0.000	0.000	0.005	0.000	0.034	1.748	1.060	1.079	1.069	1.084	1.079	1.079
0.005	0.020	-0.005	0.005	0.000	-0.005	0.034	1.763	1.060	1.060	1.064	1.084	1.074	1.079
0.005	-0.024	0.000	-0.005	-0.024	-0.010	0.039	1.768	1.060	1.045	1.060	1.079	1.069	1.069
-0.005	0.000	0.000	0.000	-0.049	0.005	0.034	1.777	1.064	1.060	1.060	1.084	1.064	1.074
0.005	0.000	0.000	0.005	-0.010	-0.020	0.034	1.777	1.074	1.069	1.064	1.084	1.084	1.074
0.005	0.000	0.000	0.000	0.000	0.020	0.034	1.787	1.089	1.074	1.069	1.084	1.089	1.089
-0.005	0.000	0.000	0.000	-0.005	0.005	0.029	1.777	1.084	1.079	1.079	1.094	1.089	1.089
0.000	-0.010	0.000	0.005	0.000	0.010	0.034	1.748	1.089	1.084	1.079	1.094	1.094	1.094
-0.005	-0.024	0.000	0.000	0.020	0.000	0.034	1.787	1.089	1.084	1.084	1.099	1.099	1.094
-0.005	-0.015	0.000	-0.005	0.029	0.010	0.029	1.782	1.089	1.089	1.089	1.104	1.099	1.094
-0.005	-0.005	0.000	0.000	0.005	0.015	0.034	1.792	1.094	1.094	1.089	1.104	1.094	1.099
0.000	0.005	0.000	0.000	-0.015	0.015	0.034	1.782	1.089	1.094	1.089	1.104	1.089	1.094
-0.005	0.005	0.000	0.000	-0.010	0.005	0.034	1.777	1.084	1.089	1.089	1.099	1.089	1.089
0.005	-0.010	0.000	-0.005	0.015	-0.020	0.034	1.777	1.079	1.079	1.079	1.099	1.094	1.079
0.005	-0.005	0.000	0.000	0.015	-0.020	0.029	1.670	1.060	1.074	1.074	1.094	1.089	1.079
0.000	0.000	0.000	0.000	0.010	-0.010	0.034	1.758	1.060	1.064	1.069	1.089	1.089	1.084
0.000	0.000	0.000	-0.005	0.010	-0.010	0.034	1.772	1.060	1.060	1.064	1.084	1.084	1.079
0.005	0.010	-0.005	0.000	0.000	-0.010	0.034	1.777	1.064	1.060	1.060	1.079	1.079	1.074
-0.010	-0.005	0.000	-0.005	0.020	-0.005	0.034	1.782	1.060	1.055	1.060	1.079	1.084	1.079
-0.005	-0.005	-0.005	0.000	0.000	0.010	0.034	1.733	1.045	1.055	1.055	1.079	1.079	1.084
-0.015	0.005	-0.005	0.000	0.020	0.029	0.034	1.777	1.055	1.055	1.060	1.079	1.084	1.089
-0.005	-0.005	0.000	0.000	-0.010	-0.010	0.034	1.753	1.069	1.060	1.064	1.084	1.074	1.079
0.010	-0.010	0.000	0.000	-0.054	0.015	0.034	1.772	1.074	1.069	1.064	1.084	1.064	1.079
-0.005	-0.005	0.000	0.000	-0.049	0.024	0.029	1.782	1.084	1.074	1.069	1.084	1.074	1.084
-0.010	-0.005	0.005	0.000	-0.015	-0.015	0.029	1.733	1.089	1.079	1.074	1.094	1.089	1.074
-0.010	0.015	0.000	0.000	-0.005	-0.015	0.029	1.772	1.084	1.089	1.079	1.094	1.094	1.084
-0.005	0.034	0.000	-0.005	0.015	-0.010	0.034	1.787	1.094	1.094	1.084	1.099	1.099	1.089
-0.005	0.024	0.000	0.000	0.015	-0.010	0.039	1.753	1.089	1.094	1.089	1.099	1.099	1.094
-0.005	-0.010	0.000	-0.005	0.010	-0.039	0.034	1.772	1.094	1.079	1.084	1.099	1.094	1.079
0.000	-0.029	-0.010	-0.005	0.010	-0.020	0.034	1.758	1.084	1.074	1.074	1.094	1.094	1.089
0.000	0.015	0.000	-0.005	0.029	0.000	0.034	1.748	1.079	1.084	1.079	1.094	1.094	1.089
0.000	0.010	0.000	-0.005	0.015	0.015	0.029	1.758	1.064	1.074	1.074	1.089	1.084	1.094
0.000	0.000	0.000	0.000	-0.020	0.015	0.034	1.792	1.069	1.060	1.064	1.084	1.074	1.084
-0.005	-0.015	-0.005	0.000	-0.034	0.000	0.034	1.782	1.064	1.055	1.060	1.079	1.069	1.069
0.010	-0.005	-0.005	0.000	-0.015	-0.005	0.034	1.719	1.060	1.055	1.060	1.079	1.074	1.069
0.024	-0.020	-0.005	0.000	0.015	-0.005	0.034	1.772	1.069	1.050	1.055	1.079	1.079	1.069
0.015	-0.015	-0.005	0.005	0.015	-0.010	0.034	1.763	1.074	1.060	1.055	1.079	1.079	1.074
0.020	0.000	-0.005	0.005	0.015	0.015	0.034	1.743	1.074	1.069	1.064	1.079	1.079	1.084
0.039	-0.005	0.000	0.000	0.005	-0.005	0.034	1.777	1.084	1.079	1.069	1.084	1.079	1.079
0.005	0.010	0.000	0.000	-0.010	0.015	0.034	1.787	1.084	1.084	1.074	1.089	1.079	1.084
-0.005	0.010	0.000	0.005	0.000	0.010	0.034	1.777	1.084	1.089	1.079	1.094	1.094	1.089
-0.024	0.010	-0.005	0.000	0.010	0.000	0.034	1.772	1.084	1.089	1.084	1.099	1.094	1.089
-0.039	0.005	0.000	0.000	0.010	-0.005	0.029	1.772	1.084	1.089	1.084	1.104	1.094	1.084
-0.039	0.005	0.000	-0.005	0.000	0.000	0.034	1.714	1.084	1.089	1.089	1.104	1.099	1.094
-0.044	-0.010	0.005	0.005	0.000	-0.005	0.034	1.792	1.079	1.079	1.089	1.104	1.094	1.094
-0.029	0.005	0.000	0.000	-0.005	-0.015	0.034	1.763	1.084	1.079	1.079	1.099	1.094	1.089
-0.015	-0.005	-0.005	0.000	-0.010	-0.005	0.034	1.748	1.074	1.074	1.079	1.094	1.089	1.089
-0.010	0.000	-0.005	0.000	0.000	-0.005	0.034	1.772	1.074	1.069	1.074	1.089	1.089	1.084
-0.005	0.000	0.000	-0.005	-0.005	-0.010	0.034	1.772	1.074	1.064	1.069	1.089	1.084	1.079
0.005	0.005	-0.005	0.000	-0.010	0.010	0.034	1.768	1.074	1.064	1.060	1.084	1.079	1.079
0.020	0.005	-0.005	0.000	-0.005	0.010	0.034	1.738	1.069	1.064	1.060	1.079	1.079	1.084
0.015	-0.015	0.000	-0.005	-0.005	0.010	0.034	1.768	1.069	1.060	1.064	1.079	1.079	1.079
0.010	0.000	0.000	-0.005	-0.005	-0.005	0.029	1.738	1.069	1.064	1.060	1.079	1.079	1.074
0.020	-0.010	0.005	0.000	0.005	-0.015	0.029	1.753	1.074	1.069	1.064	1.084	1.079	1.074
0.010	-0.020	0.005	0.000	-0.010	0.005	0.034	1.719	1.069	1.069	1.069	1.084	1.079	1.084
0.010	-0.020	0.005	0.000	-0.015	-0.005	0.034	1.743	1.079	1.074	1.069	1.089	1.079	1.084
0.005	0.000	-0.005	0.000	0.005	-0.020	0.034	1.768	1.084	1.084	1.074	1.094	1.089	1.079
0.000	0.000	0.000	-0.005	-0.010	-0.034	0.034	1.772	1.094	1.089	1.084	1.094	1.089	1.084
0.005	-0.005	-0.005	0.000	-0.015	-0.005	0.034	1.777	1.089	1.089	1.084	1.099	1.089	1.089
0.015	-0.010	-0.005	0.000	-0.005	-0.005	0.034	1.733	1.084	1.089	1.089	1.104	1.099	1.094
0.000	0.005	-0.005	0.000	0.005	-0.010	0.034	1.729	1.079	1.094	1.089	1.104	1.099	1.094
-0.005	0.005	0.000	0.000	-0.005	0.005	0.034	1.768	1.079	1.084	1.089	1.104	1.099	1.099
0.000	-0.010	0.000	0.000	0.000	0.010	0.034	1.777	1.079	1.074	1.084	1.099	1.094	1.099
-0.005	-0.020	-0.005	0.000	0.005	0.015	0.029	1.782	1.074	1.069	1.074	1.094	1.094	1.094
0.000	-0.010	0.000	0.000	0.024	0.015	0.034	1.787	1.074	1.069	1.069	1.094	1.094	1.094
-0.005	0.000	-0.005	0.000	0.034	0.010	0.034	1.758	1.069	1.064	1.064	1.084	1.089	1.089
0.000	0.010	0.000	0.000	0.000	0.000	0.029	1.758	1.069	1.069	1.064	1.084	1.074	1.084
-0.010	0.005	0.000	-0.005	-0.015	0.005	0.029	1.807	1.069	1.060	1.060	1.079	1.069	1.074
0.000	0.005	0.000	0.000	-0.015	-0.005	0.029	1.733	1.069	1.064	1.060	1.079	1.069	1.069
-0.005	0.010	0.005	-0.005	-0.005	-0.005	0.029	1.753	1.074	1.069	1.064	1.079	1.074	1.074
0.005	0.010	-0.005	0.000	-0.005	-0.005	0.029	1.772	1.079	1.074	1.069	1.084	1.079	1.074
-0.005	0.005	0.000	-0.005	-0.005	-0.020	0.034	1.772	1.084	1.074	1.069	1.089	1.079	1.079
-0.005	0.000	0.005	0.000	-0.005	0.000	0.034	1.753	1.079	1.084	1.079	1.094	1.089	1.084
-0.005	0.020	-0.005	0.005	0.000	0.000	0.034	1.733	1.084	1.089	1.084	1.099	1.094	1.089
0.005	0.015	0.000	0.000	0.000	0.010	0.034	1.777	1.089	1.089	1.084	1.104	1.094	1.094
0.000	0.000	0.000	0.000	0.005	0.010	0.034	1.753	1.089	1.089	1.089	1.108	1.099	1.094
0.010	0.000	0.000	0.000	-0.005	0.005	0.034	1.748	1.084	1.089	1.089	1.104	1.099	1.094
-0.010	0.005	0.000	0.000	0.000	0.000	0.034	1.782	1.089	1.089	1.089	1.104	1.099	1.094
0.005	0.000	-0.005	0.000	-0.010	0.000	0.034	1.738	1.084	1.084	1.084	1.104	1.094	1.094
0.000	0.005	-0.005	0.000	0.005	0.015	0.034	1.758	1.074	1.079	1.084	1.099	1.099	1.094
-0.005	0.024	0.000	0.000	0.005	0.005	0.029	1.758	1.069	1.074	1.079	1.094	1.094	1.089
-0.005	-0.005	0.005	0.000	0.005	0.005	0.034	1.777	1.069	1.060	1.069	1.094	1.089	1.089
0.005	-0.010	0.005	-0.005	0.005	-0.010	0.029	1.768	1.064	1.055	1.064	1.084	1.084	1.079
0.000	-0.015	0.000	-0.005	-0.005	-0.015	0.034	1.748	1.060	1.050	1.055	1.084	1.079	1.074
-0.005	-0.020	0.000	-0.005	0.000	-0.015	0.034	1.753	1.064	1.055	1.055	1.079	1.074	1.074
-0.005	-0.010	0.005	0.000	-0.015	-0.005	0.034	1.733	1.064	1.060	1.055	1.074	1.074	1.074
-0.005	-0.005	0.000	0.000	-0.015	-0.010	0.034	1.768	1.064	1.060	1.055	1.079	1.074	1.074
-0.015	0.015	0.000	-0.005	-0.010	-0.015	0.034	1.758	1.069	1.069	1.060	1.079	1.079	1.074
-0.005	0.000	0.000	0.000	0.005	-0.015	0.029	1.729	1.074	1.069	1.064	1.084	1.084	1.079
-0.010	0.005	0.000	0.000	0.000	-0.015	0.034	1.748	1.074	1.079	1.069	1.089	1.084	1.089
-0.005	-0.010	0.005	0.000	0.000	0.015	0.029	1.772	1.084	1.074	1.074	1.094	1.089	1.094
0.005	0.000	0.005	0.005	0.000	0.020	0.034	1.782	1.099	1.089	1.079	1.099	1.094	1.094
0.034	-0.005	-0.005	0.000	0.000	0.010	0.034	1.694	1.104	1.094	1.084	1.099	1.094	1.094
0.020	0.005	0.000	0.000	0.010	0.015	0.034	1.787	1.094	1.094	1.089	1.099	1.094	1.094
0.020	-0.020	0.000	0.000	0.005	-0.005	0.034	1.792	1.099	1.089	1.089	1.104	1.094	1.084
0.005	-0.010	-0.005	0.000	0.005	-0.029	0.034	1.777	1.084	1.089	1.084	1.099	1.094	1.084
-0.010	-0.010	-0.005	0.000	0.010	0.020	0.034	1.763	1.079	1.079	1.079	1.099	1.094	1.094
-0.029	-0.010	0.000	0.000	0.000	0.010	0.029	1.768	1.069	1.074	1.079	1.094	1.084	1.089
-0.039	0.024	0.000	0.000	-0.010	0.010	0.029	1.753	1.064	1.074	1.074	1.089	1.079	1.079
-0.024	0.015	0.000	-0.005	-0.020	0.010	0.034	1.772	1.064	1.064	1.069	1.089	1.079	1.079
-0.015	0.015	-0.005	0.000	-0.010	0.005	0.034	1.782	1.069	1.064	1.064	1.084	1.079	1.079
-0.020	0.000	0.000	0.000	-0.010	0.005	0.029	1.763	1.089	1.064	1.060	1.084	1.079	1.074
-0.005	-0.010	0.000	0.000	0.000	0.000	0.034	1.782	1.089	1.064	1.064	1.084	1.079	1.074
0.000	-0.020	-0.005	0.000	0.015	-0.005	0.034	1.777	1.089	1.069	1.069	1.084	1.084	1.079
0.010	-0.020	0.000	0.000	0.015	-0.005	0.034	1.748	1.089	1.079	1.074	1.089	1.089	1.079
-0.010	-0.010	-0.005	0.000	0.010	-0.005	0.034	1.763	1.089	1.089	1.079	1.094	1.089	1.084
-0.005	0.000	0.000	0.000	0.000	-0.010	0.034	1.729	1.089	1.094	1.084	1.099	1.089	1.089
-0.005	-0.005	0.000	0.000	0.005	0.000	0.034	1.733	1.099	1.094	1.094	1.104	1.094	1.094
0.000	0.000	0.005	-0.005	-0.005	0.010	0.034	1.787	1.104	1.099	1.099	1.108	1.099	1.094
-0.005	-0.010	0.000	-0.005	-0.010	0.005	0.034	1.777	1.099	1.099	1.094	1.108	1.099	1.099
0.010	0.000	0.000	0.000	-0.010	-0.010	0.034	1.772	1.104	1.099	1.094	1.113	1.099	1.094
0.015	0.000	-0.005	0.000	-0.015	-0.010	0.034	1.753	1.094	1.099	1.094	1.108	1.099	1.094
0.010	0.024	0.000	0.000	-0.015	0.005	0.034	1.768	1.089	1.099	1.094	1.108	1.104	1.099
0.005	0.020	-0.005	0.000	0.010	-0.015	0.034	1.719	1.074	1.089	1.094	1.108	1.104	1.094
0.010	0.015	-0.005	0.000	0.005	0.005	0.034	1.768	1.074	1.079	1.084	1.104	1.099	1.099
0.015	0.000	-0.005	0.000	0.000	-0.020	0.034	1.733	1.069	1.069	1.074	1.099	1.094	1.089
0.093	-0.005	-0.005	0.005	0.000	0.005	0.034	1.772	1.089	1.069	1.074	1.094	1.094	1.094
0.151	0.005	0.000	-0.005	0.005	-0.015	0.034	1.787	1.104	1.079	1.074	1.094	1.089	1.084
0.098	-0.010	-0.005	0.005	0.000	-0.010	0.034	1.719	1.069	1.069	1.074	1.089	1.089	1.089
-0.005	-0.005	0.000	0.000	0.000	0.010	0.034	1.748	1.045	1.064	1.069	1.094	1.089	1.094
-0.088	0.000	0.005	0.000	0.000	-0.020	0.029	1.753	1.025	1.055	1.069	1.089	1.089	1.084
-0.132	-0.005	0.000	0.000	0.005	0.020	0.029	1.772	1.035	1.045	1.064	1.089	1.094	1.099
-0.127	-0.020	-0.005	0.000	0.010	0.020	0.034	1.768	1.060	1.050	1.060	1.094	1.094	1.099
-0.107	-0.024	0.000	0.000	0.000	0.015	0.034	1.753	1.074	1.060	1.064	1.094	1.094	1.094
-0.083	-0.015	0.000	0.000	0.000	0.000	0.034	1.743	1.089	1.074	1.069	1.094	1.094	1.094
-0.059	-0.020	0.000	0.000	0.000	-0.005	0.034	1.733	1.099	1.084	1.074	1.094	1.094	1.094
-0.039	-0.005	0.000	0.000	0.000	-0.005	0.034	1.758	1.104	1.094	1.079	1.099	1.094	1.094
0.005	-0.005	0.000	-0.005	-0.005	0.005	0.034	1.787	1.113	1.094	1.084	1.094	1.094	1.094
0.024	0.010	0.000	-0.005	-0.010	0.000	0.034	1.758	1.108	1.104	1.089	1.099	1.089	1.089
0.034	0.000	-0.005	0.000	-0.010	0.020	0.034	1.719	1.089	1.094	1.089	1.094	1.089	1.094
0.034	0.000	0.000	0.000	-0.005	-0.005	0.034	1.777	1.094	1.089	1.084	1.094	1.084	1.084
0.059	-0.005	0.000	0.000	-0.005	0.024	0.034	1.689	1.079	1.084	1.084	1.094	1.089	1.089
0.044	0.000	0.000	-0.005	0.000	0.015	0.034	1.787	1.069	1.074	1.079	1.094	1.089	1.084
0.054	0.005	-0.005	0.000	0.005	0.005	0.034	1.768	1.069	1.069	1.074	1.089	1.084	1.074
0.029	-0.005	0.005	0.000	0.005	-0.024	0.034	1.782	1.069	1.064	1.069	1.089	1.084	1.069
0.020	-0.010	0.000	-0.005	0.000	-0.054	0.034	1.738	1.060	1.060	1.064	1.089	1.079	1.064
0.010	0.000	-0.005	0.000	0.000	-0.010	0.029	1.748	1.055	1.060	1.064	1.089	1.084	1.079
0.000	0.029	-0.005	0.000	0.000	0.005	0.034	1.758	1.069	1.074	1.069	1.089	1.089	1.089
-0.010	0.015	0.000	0.000	0.000	-0.005	0.034	1.704	1.069	1.074	1.069	1.094	1.089	1.089
-0.005	0.015	0.000	-0.005	0.000	-0.020	0.034	1.777	1.084	1.074	1.074	1.094	1.089	1.089
0.000	0.005	0.005	-0.005	0.000	-0.015	0.034	1.763	1.084	1.079	1.079	1.099	1.094	1.089
-0.005	-0.015	0.000	0.005	0.005	0.020	0.034	1.782	1.089	1.079	1.079	1.099	1.099	1.104
-0.005	-0.010	-0.005	0.000	0.000	0.024	0.034	1.802	1.099	1.084	1.084	1.104	1.099	1.104
0.000	-0.005	0.000	0.005	0.000	0.005	0.034	1.738	1.094	1.089	1.084	1.099	1.099	1.099
-0.010	0.000	0.000	0.000	0.000	-0.020	0.034	1.772	1.094	1.089	1.089	1.099	1.094	1.089
-0.005	-0.005	-0.005	0.000	-0.010	-0.029	0.034	1.743	1.084	1.084	1.079	1.099	1.094	1.089
0.000	0.000	0.000	0.000	-0.010	0.010	0.034	1.768	1.079	1.079	1.079	1.094	1.089	1.094
0.005	0.015	-0.005	0.000	-0.005	0.015	0.034	1.758	1.079	1.079	1.074	1.094	1.089	1.094
0.024	-0.005	-0.005	-0.005	0.000	0.010	0.034	1.768	1.079	1.069	1.069	1.089	1.089	1.089
0.000	0.000	0.000	0.000	-0.005	0.010	0.034	1.782	1.069	1.064	1.069	1.089	1.084	1.084
-0.005	0.000	0.000	-0.005	0.000	0.000	0.034	1.782	1.069	1.060	1.064	1.084	1.079	1.079
-0.005	0.020	0.000	-0.005	-0.005	-0.020	0.034	1.787	1.069	1.064	1.064	1.084	1.079	1.074
-0.005	0.010	0.000	0.000	0.000	-0.010	0.034	1.802	1.074	1.069	1.060	1.084	1.079	1.074
-0.005	0.010	-0.005	0.000	0.005	0.010	0.029	1.772	1.084	1.069	1.064	1.084	1.084	1.084
-0.020	0.000	0.000	-0.005	0.005	0.000	0.029	1.782	1.089	1.074	1.069	1.089	1.084	1.084
-0.015	-0.005	0.000	0.000	0.000	-0.010	0.029	1.748	1.089	1.079	1.074	1.094	1.089	1.084
-0.015	0.000	0.000	-0.005	-0.005	0.015	0.034	1.782	1.094	1.089	1.084	1.094	1.089	1.089
0.000	0.000	-0.005	0.000	0.000	0.010	0.034	1.782	1.099	1.094	1.089	1.099	1.094	1.094
-0.010	-0.010	0.000	0.000	-0.005	0.000	0.034	1.733	1.099	1.094	1.089	1.104	1.094	1.089
0.005	-0.005	-0.005	-0.005	0.005	-0.005	0.034	1.772	1.094	1.099	1.094	1.108	1.099	1.094
0.005	0.010	0.000	0.000	0.005	0.005	0.034	1.772	1.099	1.099	1.094	1.108	1.099	1.099
0.010	0.010	0.000	0.000	0.000	0.000	0.029	1.714	1.084	1.094	1.094	1.108	1.099	1.094
0.005	0.005	-0.005	0.000	-0.005	-0.015	0.034	1.743	1.084	1.089	1.089	1.108	1.099	1.094
0.000	0.005	-0.005	0.000	0.000	0.000	0.034	1.729	1.074	1.084	1.089	1.104	1.099	1.099
0.005	0.010	0.000	-0.005	0.000	0.000	0.034	1.782	1.074	1.074	1.079	1.099	1.094	1.089
0.000	0.000	0.000	0.005	-0.005	-0.005	0.034	1.704	1.060	1.064	1.074	1.094	1.089	1.089
-0.005	-0.005	0.000	0.000	0.000	-0.005	0.034	1.743	1.055	1.055	1.064	1.089	1.089	1.089
-0.005	-0.005	0.000	-0.005	0.015	-0.015	0.034	1.768	1.064	1.055	1.064	1.089	1.089	1.084
-0.005	-0.010	0.005	0.000	0.000	0.000	0.034	1.709	1.055	1.055	1.060	1.084	1.084	1.089
0.005	0.000	0.000	0.000	0.000	0.000	0.029	1.768	1.069	1.060	1.060	1.084	1.079	1.084
0.005	-0.024	0.000	-0.005	-0.005	0.005	0.034	1.787	1.074	1.060	1.060	1.084	1.079	1.084
-0.005	-0.005	-0.005	0.000	0.000	-0.005	0.034	1.782	1.079	1.069	1.064	1.084	1.084	1.084
0.005	-0.015	0.000	0.005	-0.005	0.015	0.034	1.782	1.089	1.079	1.069	1.089	1.089	1.089
0.000	0.005	0.000	-0.005	-0.005	-0.020	0.034	1.768	1.094	1.089	1.079	1.094	1.089	1.084
-0.005	0.000	-0.005	0.000	0.000	0.000	0.034	1.787	1.099	1.094	1.084	1.099	1.094	1.089
-0.005	0.000	-0.005	0.005	-0.005	0.000	0.034	1.768	1.099	1.094	1.089	1.099	1.094	1.094
0.000	0.000	-0.005	0.000	-0.005	-0.005	0.034	1.758	1.094	1.094	1.094	1.104	1.094	1.094
0.005	0.005	-0.005	0.000	0.000	0.005	0.034	1.763	1.094	1.094	1.094	1.108	1.099	1.099
0.000	0.000	-0.005	-0.005	-0.005	-0.024	0.034	1.758	1.089	1.094	1.089	1.104	1.094	1.089
0.015	-0.005	-0.005	0.000	-0.005	-0.029	0.034	1.689	1.084	1.084	1.089	1.104	1.094	1.084
0.015	-0.005	0.000	0.000	0.000	0.005	0.034	1.772	1.079	1.079	1.084	1.099	1.094	1.094
0.010	0.000	0.005	-0.005	-0.005	-0.010	0.034	1.772	1.074	1.074	1.079	1.094	1.089	1.084
0.000	0.000	0.000	0.005	0.005	-0.005	0.029	1.772	1.069	1.069	1.074	1.094	1.089	1.089
-0.005	0.000	0.005	-0.005	-0.005	0.010	0.029	1.782	1.069	1.069	1.069	1.089	1.084	1.089
-0.010	0.000	0.005	-0.005	0.005	-0.020	0.034	1.777	1.069	1.064	1.069	1.089	1.084	1.074
-0.010	0.005	0.000	0.000	0.005	-0.020	0.034	1.729	1.069	1.064	1.064	1.084	1.084	1.084
-0.020	0.000	-0.005	-0.010	0.000	0.020	0.034	1.777	1.069	1.064	1.064	1.084	1.084	1.089
-0.020	-0.005	-0.005	0.000	-0.005	0.010	0.034	1.772	1.055	1.064	1.064	1.089	1.084	1.089
-0.024	-0.010	0.000	0.000	-0.005	0.010	0.029	1.768	1.064	1.064	1.069	1.089	1.084	1.089
-0.015	-0.005	0.000	0.000	0.005	-0.015	0.034	1.768	1.079	1.074	1.074	1.094	1.089	1.084
-0.005	-0.005	0.000	-0.005	0.000	0.010	0.034	1.748	1.084	1.079	1.079	1.099	1.094	1.094
-0.005	0.000	0.000	-0.005	0.000	0.015	0.034	1.777	1.099	1.089	1.084	1.099	1.094	1.099
0.005	-0.005	0.000	-0.005	0.000	0.005	0.029	1.768	1.104	1.094	1.084	1.104	1.099	1.094
0.010	0.000	0.000	0.000	0.005	0.010	0.029	1.714	1.089	1.094	1.089	1.104	1.099	1.094
0.015	0.005	0.000	-0.005	0.000	-0.015	0.029	1.743	1.089	1.094	1.089	1.104	1.099	1.089
0.005	0.010	0.005	0.005	0.000	0.000	0.034	1.797	1.089	1.089	1.089	1.104	1.094	1.089
0.010	0.000	0.000	0.000	-0.005	-0.015	0.034	1.768	1.084	1.079	1.084	1.099	1.094	1.089
0.005	-0.005	-0.005	0.000	0.000	-0.020	0.034	1.753	1.074	1.074	1.079	1.094	1.089	1.089
0.005	-0.005	0.005	0.000	0.005	0.010	0.034	1.729	1.069	1.069	1.069	1.094	1.089	1.094
-0.005	-0.005	-0.005	0.000	0.000	0.000	0.034	1.792	1.064	1.060	1.064	1.089	1.079	1.084
-0.005	-0.005	0.000	0.000	-0.005	-0.005	0.034	1.797	1.069	1.060	1.060	1.084	1.079	1.079
0.015	-0.005	0.005	0.000	0.000	-0.024	0.034	1.699	1.069	1.064	1.060	1.084	1.084	1.074
0.010	0.005	-0.005	0.000	0.000	0.005	0.034	1.782	1.079	1.064	1.060	1.084	1.079	1.084
0.000	0.000	-0.005	0.000	0.000	-0.010	0.034	1.758	1.074	1.069	1.064	1.084	1.079	1.079
0.005	0.010	-0.005	0.000	0.000	-0.005	0.034	1.792	1.084	1.074	1.074	1.089	1.084	1.084
0.000	0.005	-0.005	0.000	0.000	0.005	0.034	1.714	1.079	1.079	1.074	1.089	1.089	1.089
-0.005	-0.005	0.000	0.000	0.000	0.005	0.034	1.753	1.084	1.079	1.079	1.094	1.089	1.089
-0.005	0.015	-0.005	0.000	0.000	0.005	0.029	1.777	1.094	1.089	1.084	1.099	1.089	1.094
0.005	0.000	0.005	0.005	-0.005	0.000	0.029	1.733	1.089	1.089	1.089	1.104	1.094	1.094
0.010	0.005	0.000	-0.005	0.000	-0.024	0.034	1.768	1.094	1.094	1.094	1.104	1.099	1.089
0.005	-0.010	0.000	-0.005	0.000	0.010	0.034	1.792	1.094	1.094	1.089	1.104	1.099	1.099
-0.005	0.000	-0.005	0.000	0.000	0.005	0.034	1.787	1.089	1.089	1.089	1.108	1.099	1.099
0.000	-0.005	0.000	-0.005	0.000	0.005	0.034	1.748	1.084	1.084	1.084	1.104	1.099	1.094
-0.005	-0.010	0.000	0.005	0.000	0.000	0.034	1.709	1.064	1.079	1.079	1.099	1.094	1.094
-0.005	-0.005	-0.005	0.000	0.000	0.005	0.034	1.777	1.069	1.069	1.074	1.094	1.089	1.094
-0.005	0.000	0.000	-0.005	0.000	-0.005	0.034	1.772	1.069	1.069	1.069	1.089	1.084	1.084
-0.005	0.000	-0.010	0.000	-0.005	-0.010	0.034	1.782	1.069	1.060	1.060	1.084	1.084	1.084
0.000	0.005	-0.005	0.000	0.000	0.005	0.034	1.758	1.064	1.060	1.060	1.084	1.079	1.084
-0.005	-0.005	-0.005	0.000	-0.005	0.005	0.034	1.763	1.069	1.060	1.060	1.079	1.079	1.079
-0.015	0.000	-0.005	-0.005	0.000	0.005	0.034	1.782	1.074	1.064	1.064	1.084	1.079	1.084
0.005	-0.005	-0.005	0.000	0.000	-0.010	0.034	1.763	1.079	1.069	1.064	1.079	1.079	1.079
0.010	0.005	-0.005	0.000	0.000	-0.034	0.034	1.768	1.089	1.079	1.074	1.089	1.079	1.074
-0.005	0.005	-0.005	0.000	0.005	-0.005	0.034	1.787	1.094	1.084	1.079	1.094	1.084	1.089
-0.010	0.005	-0.005	-0.005	0.000	0.000	0.034	1.777	1.099	1.089	1.084	1.094	1.089	1.089
-0.005	0.005	0.005	0.000	0.005	-0.005	0.034	1.748	1.099	1.099	1.089	1.104	1.094	1.089
0.005	0.000	0.000	0.000	0.005	0.000	0.034	1.758	1.099	1.099	1.094	1.108	1.099	1.094
-0.005	-0.005	0.000	0.000	0.000	0.010	0.034	1.772	1.094	1.099	1.094	1.108	1.099	1.099
-0.005	-0.010	-0.005	-0.005	-0.010	-0.010	0.034	1.797	1.089	1.094	1.094	1.108	1.099	1.094
-0.010	-0.010	0.000	0.000	0.000	0.024	0.034	1.689	1.074	1.089	1.089	1.108	1.104	1.104
0.000	-0.005	-0.005	0.000	0.010	0.015	0.034	1.802	1.074	1.079	1.084	1.104	1.104	1.094
0.000	0.020	-0.005	0.000	0.000	0.005	0.029	1.724	1.064	1.079	1.084	1.099	1.094	1.094
-0.010	-0.010	0.000	0.000	-0.005	0.005	0.029	1.748	1.060	1.060	1.069	1.099	1.094	1.089
0.005	-0.005	0.000	0.000	0.000	0.000	0.034	1.733	1.060	1.060	1.064	1.089	1.089	1.084
0.005	0.000	0.000	0.005	0.000	-0.010	0.034	1.753	1.055	1.060	1.060	1.084	1.084	1.079
0.000	0.005	0.000	0.000	-0.010	-0.010	0.034	1.748	1.060	1.060	1.055	1.084	1.079	1.084
0.000	-0.005	-0.005	0.005	-0.005	-0.020	0.034	1.719	1.060	1.060	1.055	1.079	1.079	1.079
-0.010	0.005	0.000	-0.005	-0.005	-0.029	0.034	1.777	1.064	1.060	1.055	1.079	1.074	1.074
0.000	-0.005	0.005	-0.005	-0.005	0.000	0.029	1.772	1.074	1.064	1.060	1.079	1.079	1.084
0.005	0.000	0.005	-0.005	0.000	0.000	0.034	1.772	1.084	1.074	1.064	1.084	1.084	1.089
0.000	-0.005	-0.005	0.000	0.005	0.010	0.034	1.733	1.089	1.079	1.069	1.089	1.089	1.094
0.005	0.010	-0.005	-0.005	0.000	0.005	0.034	1.782	1.094	1.089	1.079	1.089	1.089	1.089
0.005	0.000	-0.005	-0.005	0.000	0.005	0.029	1.704	1.094	1.094	1.084	1.094	1.089	1.094
-0.005	0.005	0.000	0.000	0.000	0.005	0.034	1.733	1.089	1.094	1.089	1.104	1.094	1.094
0.000	0.000	0.005	-0.005	0.000	0.005	0.034	1.782	1.089	1.089	1.089	1.104	1.094	1.094
-0.005	0.000	0.005	0.000	0.000	-0.005	0.034	1.753	1.084	1.089	1.089	1.104	1.099	1.094
-0.010	-0.010	0.000	0.000	0.000	-0.005	0.029	1.709	1.069	1.079	1.084	1.099	1.094	1.089
-0.005	-0.005	0.000	0.000	0.000	0.005	0.029	1.772	1.069	1.074	1.079	1.099	1.089	1.089
0.000	0.005	0.000	-0.005	0.000	0.000	0.034	1.782	1.074	1.069	1.069	1.094	1.089	1.084
0.005	-0.005	0.000	0.000	-0.005	-0.005	0.034	1.763	1.074	1.064	1.069	1.089	1.084	1.079
0.000	0.005	-0.005	0.000	0.000	-0.020	0.034	1.777	1.069	1.064	1.064	1.084	1.079	1.079
-0.010	-0.005	0.000	0.000	-0.005	0.015	0.034	1.743	1.064	1.060	1.060	1.079	1.079	1.084
0.015	-0.005	0.000	0.000	-0.005	0.005	0.034	1.738	1.069	1.055	1.060	1.079	1.074	1.079
-0.005	-0.005	0.000	0.000	-0.005	0.010	0.034	1.748	1.064	1.060	1.060	1.084	1.074	1.079
-0.010	-0.010	0.000	-0.005	-0.005	0.010	0.034	1.787	1.069	1.060	1.060	1.079	1.079	1.079
-0.005	0.005	-0.005	0.000	0.000	-0.020	0.029	1.719	1.074	1.069	1.064	1.079	1.084	1.074
0.000	-0.005	0.000	0.000	0.005	0.010	0.034	1.768	1.084	1.074	1.074	1.089	1.084	1.084
0.010	-0.005	-0.005	0.000	0.000	0.010	0.029	1.724	1.089	1.079	1.079	1.089	1.084	1.084
0.010	-0.015	-0.005	-0.005	0.005	0.005	0.034	1.792	1.094	1.084	1.079	1.094	1.089	1.084
0.000	0.000	-0.005	0.000	0.000	-0.005	0.034	1.777	1.094	1.094	1.084	1.099	1.094	1.084
-0.005	-0.005	0.000	0.000	0.000	-0.005	0.034	1.768	1.094	1.094	1.089	1.104	1.094	1.089
-0.005	-0.015	-0.005	-0.005	0.005	-0.010	0.034	1.792	1.094	1.089	1.089	1.104	1.099	1.089
-0.005	0.000	0.000	-0.005	0.010	-0.020	0.034	1.787	1.089	1.094	1.089	1.104	1.099	1.084
-0.010	-0.010	0.000	-0.005	0.000	-0.005	0.034	1.763	1.079	1.084	1.084	1.099	1.094	1.094
-0.005	0.000	0.000	0.000	-0.010	-0.005	0.034	1.733	1.074	1.079	1.079	1.099	1.089	1.089
0.000	0.015	0.005	0.000	-0.005	0.005	0.034	1.758	1.079	1.079	1.079	1.094	1.089	1.089
-0.015	0.005	0.000	0.000	0.000	-0.024	0.034	1.768	1.069	1.069	1.074	1.094	1.089	1.079
-0.005	0.005	0.000	0.010	0.000	-0.005	0.034	1.763	1.064	1.064	1.069	1.089	1.084	1.079
0.000	0.000	-0.005	-0.005	0.000	0.005	0.034	1.782	1.069	1.060	1.060	1.084	1.084	1.084
-0.010	0.000	-0.005	0.000	0.000	-0.020	0.034	1.787	1.074	1.060	1.064	1.084	1.079	1.069
0.010	-0.010	0.000	0.000	-0.005	0.005	0.034	1.743	1.069	1.064	1.064	1.084	1.079	1.084
0.005	0.000	0.000	-0.005	0.000	0.005	0.034	1.748	1.069	1.064	1.064	1.084	1.084	1.084
-0.005	0.000	-0.005	0.000	-0.010	0.015	0.029	1.777	1.079	1.069	1.069	1.084	1.084	1.084
0.000	-0.015	0.005	0.000	-0.005	0.015	0.029	1.748	1.089	1.074	1.074	1.089	1.084	1.084
0.005	-0.005	0.000	0.000	-0.005	0.010	0.029	1.763	1.094	1.084	1.079	1.094	1.089	1.089
0.005	-0.005	0.005	0.000	0.005	-0.005	0.034	1.772	1.094	1.089	1.084	1.099	1.094	1.089
0.010	0.010	0.000	-0.005	0.000	-0.005	0.034	1.792	1.104	1.099	1.089	1.104	1.099	1.089
0.005	0.000	-0.005	0.000	-0.005	0.020	0.034	1.709	1.089	1.094	1.089	1.104	1.099	1.099
0.000	0.005	0.000	0.000	-0.005	0.010	0.029	1.777	1.094	1.094	1.094	1.108	1.099	1.094
-0.010	0.000	0.000	0.005	-0.005	0.010	0.034	1.777	1.079	1.089	1.089	1.104	1.099	1.094
-0.005	-0.005	-0.005	0.005	0.005	0.000	0.034	1.738	1.074	1.079	1.084	1.104	1.094	1.089
-0.010	-0.005	-0.005	0.000	0.005	-0.005	0.034	1.748	1.064	1.074	1.079	1.099	1.094	1.089
-0.015	-0.005	0.000	0.000	0.005	-0.015	0.034	1.772	1.064	1.064	1.069	1.094	1.094	1.084
0.020	0.005	0.000	0.005	0.000	-0.029	0.034	1.733	1.074	1.069	1.069	1.089	1.089	1.079
0.029	-0.005	0.005	0.005	0.000	0.005	0.034	1.763	1.069	1.060	1.064	1.084	1.084	1.084
0.015	0.005	0.005	0.000	0.000	0.010	0.034	1.758	1.069	1.064	1.064	1.084	1.079	1.084
-0.005	0.005	-0.005	0.000	-0.005	0.005	0.034	1.738	1.060	1.060	1.060	1.079	1.079	1.079
-0.010	-0.005	0.000	0.000	-0.005	0.000	0.034	1.758	1.060	1.060	1.060	1.079	1.079	1.079
-0.029	0.010	0.000	0.000	-0.005	-0.029	0.029	1.743	1.060	1.064	1.064	1.084	1.079	1.069
-0.029	-0.005	-0.005	0.000	-0.005	0.005	0.034	1.772	1.079	1.064	1.064	1.084	1.079	1.089
-0.024	0.005	0.005	0.000	-0.005	-0.005	0.034	1.782	1.089	1.074	1.069	1.089	1.084	1.084
-0.015	0.005	0.005	0.000	0.000	0.010	0.034	1.743	1.089	1.084	1.079	1.094	1.089	1.094
-0.005	-0.005	-0.005	0.000	0.000	0.010	0.034	1.753	1.094	1.089	1.079	1.094	1.094	1.094
-0.005	0.000	-0.010	0.000	0.000	-0.010	0.034	1.787	1.099	1.094	1.084	1.099	1.094	1.084
0.005	0.000	0.000	0.000	-0.005	0.015	0.034	1.758	1.099	1.094	1.089	1.099	1.094	1.094
0.015	0.000	-0.005	0.000	0.005	0.015	0.034	1.733	1.094	1.094	1.089	1.104	1.094	1.094
0.029	0.000	0.000	0.000	-0.005	0.000	0.029	1.738	1.084	1.089	1.089	1.099	1.089	1.089
0.029	0.010	0.000	-0.005	-0.010	0.010	0.029	1.777	1.079	1.084	1.084	1.099	1.089	1.089
0.020	0.005	0.000	0.000	-0.005	0.000	0.034	1.768	1.079	1.079	1.079	1.094	1.089	1.084
0.010	-0.005	0.000	0.000	-0.005	0.000	0.034	1.777	1.069	1.069	1.069	1.094	1.089	1.079
0.005	-0.005	0.000	-0.005	0.005	-0.005	0.034	1.733	1.060	1.064	1.064	1.084	1.084	1.079
-0.005	0.000	-0.005	-0.005	0.000	-0.020	0.034	1.763	1.055	1.060	1.064	1.084	1.079	1.074
-0.020	0.000	0.000	-0.005	0.000	-0.020	0.034	1.772	1.060	1.060	1.060	1.084	1.079	1.074
-0.010	-0.005	0.000	-0.005	-0.005	-0.010	0.034	1.689	1.055	1.055	1.060	1.079	1.079	1.074
-0.010	0.000	-0.005	-0.005	0.000	-0.015	0.034	1.772	1.064	1.060	1.060	1.084	1.079	1.079
-0.010	-0.005	0.000	0.000	-0.005	-0.015	0.034	1.763	1.069	1.064	1.064	1.084	1.079	1.074
-0.010	0.000	-0.005	-0.005	-0.005	0.005	0.034	1.753	1.074	1.074	1.069	1.084	1.084	1.084
-0.010	-0.005	-0.005	-0.005	0.000	0.010	0.034	1.733	1.074	1.074	1.074	1.089	1.089	1.094
-0.005	-0.005	0.000	0.000	0.000	0.010	0.034	1.763	1.084	1.079	1.079	1.094	1.089	1.089
-0.005	0.000	0.005	-0.005	0.000	-0.010	0.034	1.777	1.089	1.084	1.084	1.099	1.094	1.089
-0.005	0.000	0.000	0.000	-0.005	-0.024	0.034	1.743	1.094	1.084	1.084	1.099	1.094	1.084
0.000	0.005	0.000	-0.005	-0.005	-0.015	0.029	1.738	1.089	1.089	1.084	1.099	1.094	1.089
0.005	0.000	0.000	0.000	0.005	0.015	0.034	1.772	1.089	1.084	1.084	1.099	1.099	1.099
0.010	-0.005	0.005	0.000	0.005	0.010	0.034	1.704	1.074	1.079	1.079	1.099	1.094	1.094
0.005	-0.015	-0.005	0.000	0.010	0.005	0.034	1.787	1.064	1.069	1.074	1.094	1.089	1.089
0.005	-0.010	-0.005	0.000	0.005	0.005	0.029	1.782	1.069	1.064	1.064	1.089	1.089	1.084
0.005	0.000	-0.005	0.000	0.010	-0.010	0.034	1.753	1.060	1.064	1.060	1.084	1.084	1.079
0.005	0.005	0.000	0.005	0.010	-0.005	0.034	1.782	1.064	1.060	1.060	1.084	1.079	1.079
-0.005	0.010	0.000	0.000	0.010	-0.010	0.034	1.787	1.064	1.060	1.060	1.079	1.079	1.074
0.000	0.005	-0.005	0.005	0.015	-0.039	0.034	1.768	1.069	1.055	1.060	1.079	1.074	1.069
0.010	-0.005	0.000	0.005	0.024	-0.020	0.034	1.772	1.069	1.060	1.060	1.079	1.079	1.074
-0.005	-0.010	0.000	0.005	0.029	0.000	0.034	1.768	1.069	1.060	1.060	1.079	1.079	1.079
-0.005	-0.010	-0.005	0.000	0.015	-0.010	0.034	1.758	1.079	1.069	1.064	1.079	1.079	1.079
-0.010	0.000	0.005	0.000	0.015	0.000	0.034	1.782	1.084	1.079	1.074	1.089	1.079	1.084
-0.020	0.000	0.005	0.000	0.010	-0.010	0.034	1.758	1.084	1.084	1.079	1.094	1.084	1.084
-0.020	0.005	-0.005	0.005	0.005	-0.010	0.034	1.792	1.094	1.089	1.084	1.094	1.089	1.084
-0.010	-0.005	0.005	0.000	0.000	-0.024	0.034	1.772	1.099	1.089	1.084	1.099	1.089	1.089
-0.005	-0.005	0.000	0.000	0.000	0.000	0.029	1.772	1.094	1.094	1.089	1.104	1.094	1.094
0.005	-0.005	-0.005	0.005	-0.005	-0.005	0.029	1.777	1.089	1.089	1.089	1.099	1.094	1.089
0.010	0.005	0.000	0.005	-0.010	0.010	0.034	1.763	1.089	1.094	1.089	1.104	1.094	1.094
0.005	-0.005	0.000	0.005	-0.015	-0.020	0.034	1.743	1.079	1.084	1.089	1.099	1.089	1.084
0.000	-0.010	-0.005	0.005	-0.010	0.010	0.034	1.792	1.069	1.074	1.079	1.099	1.089	1.089
0.005	0.000	0.000	0.000	-0.010	-0.015	0.034	1.738	1.064	1.074	1.074	1.094	1.089	1.074
0.010	0.000	-0.005	0.005	-0.010	0.000	0.034	1.729	1.064	1.064	1.069	1.089	1.084	1.079
0.000	0.005	0.000	0.005	-0.005	0.010	0.034	1.782	1.060	1.060	1.064	1.084	1.084	1.084
0.000	0.010	0.005	0.000	0.000	0.010	0.034	1.792	1.069	1.060	1.064	1.084	1.084	1.084
0.010	-0.005	-0.005	0.000	-0.005	-0.020	0.034	1.738	1.064	1.055	1.060	1.079	1.079	1.074
0.005	-0.005	0.005	0.005	-0.010	0.015	0.034	1.797	1.074	1.060	1.060	1.079	1.079	1.079
0.000	0.000	-0.005	0.000	-0.010	0.015	0.034	1.763	1.079	1.069	1.064	1.084	1.084	1.079
0.000	-0.005	0.000	0.000	-0.010	0.010	0.029	1.782	1.084	1.074	1.069	1.089	1.084	1.084
-0.005	0.005	0.000	0.000	-0.010	0.005	0.034	1.772	1.079	1.084	1.074	1.089	1.089	1.084
0.005	0.000	-0.005	0.000	-0.010	0.000	0.034	1.753	1.089	1.084	1.079	1.094	1.089	1.089
0.000	0.005	0.000	0.000	-0.010	0.000	0.029	1.768	1.089	1.089	1.084	1.099	1.094	1.089
0.000	0.000	0.000	-0.005	-0.005	0.005	0.034	1.763	1.089	1.089	1.089	1.099	1.099	1.099
0.005	0.000	0.000	-0.010	0.000	0.015	0.034	1.782	1.094	1.089	1.089	1.104	1.099	1.099
-0.005	-0.005	0.000	-0.005	-0.005	-0.020	0.034	1.758	1.084	1.089	1.089	1.104	1.094	1.089
0.000	0.000	0.005	0.000	-0.005	0.005	0.034	1.768	1.084	1.084	1.084	1.104	1.094	1.094
-0.005	0.000	-0.005	-0.005	0.000	-0.005	0.034	1.782	1.079	1.079	1.079	1.094	1.094	1.084
-0.010	0.005	-0.005	-0.005	-0.010	-0.020	0.034	1.792	1.074	1.074	1.069	1.094	1.089	1.084
-0.005	0.005	-0.005	0.000	-0.005	-0.005	0.034	1.758	1.064	1.069	1.069	1.089	1.084	1.084
0.005	0.000	0.000	-0.005	-0.005	0.000	0.034	1.763	1.064	1.060	1.064	1.084	1.079	1.079
-0.005	-0.005	-0.005	0.000	-0.010	0.015	0.034	1.733	1.060	1.060	1.060	1.084	1.079	1.084
-0.010	0.000	0.000	0.000	0.005	0.010	0.034	1.777	1.064	1.055	1.060	1.079	1.084	1.079
-0.005	-0.005	0.000	0.000	-0.005	-0.005	0.034	1.753	1.069	1.060	1.060	1.079	1.079	1.074
0.005	-0.005	0.005	0.000	-0.005	-0.020	0.034	1.719	1.069	1.064	1.060	1.079	1.079	1.074
-0.010	0.000	-0.005	0.000	0.005	-0.010	0.034	1.748	1.069	1.069	1.064	1.084	1.079	1.079
-0.005	0.010	0.000	-0.005	0.005	-0.005	0.034	1.787	1.089	1.079	1.069	1.089	1.084	1.084
0.000	-0.005	0.005	0.000	0.005	0.015	0.034	1.714	1.079	1.079	1.079	1.089	1.089	1.094
0.010	-0.005	0.000	-0.005	0.000	0.005	0.034	1.772	1.089	1.079	1.079	1.099	1.089	1.089
0.005	-0.005	-0.005	-0.005	-0.005	-0.005	0.034	1.782	1.094	1.089	1.084	1.099	1.094	1.089
-0.005	0.000	0.000	0.000	-0.005	-0.024	0.034	1.777	1.089	1.089	1.084	1.099	1.094	1.084
-0.005	-0.015	-0.005	0.000	0.000	0.005	0.034	1.772	1.084	1.084	1.089	1.099	1.094	1.094
0.005	-0.005	0.000	0.000	-0.005	0.000	0.034	1.777	1.094	1.084	1.084	1.104	1.094	1.094
-0.010	-0.005	0.000	-0.005	-0.005	0.000	0.034	1.777	1.089	1.084	1.079	1.099	1.094	1.089
-0.005	-0.005	0.000	0.005	0.000	-0.005	0.034	1.777	1.079	1.079	1.079	1.094	1.094	1.084
0.005	-0.010	0.005	0.000	0.000	0.005	0.034	1.787	1.074	1.074	1.074	1.094	1.089	1.089
0.000	-0.005	0.005	0.000	0.000	0.010	0.034	1.748	1.069	1.074	1.069	1.089	1.089	1.084
-0.010	-0.005	0.000	0.000	0.000	-0.005	0.034	1.768	1.064	1.064	1.064	1.084	1.084	1.079
-0.010	0.000	0.000	0.000	0.005	0.010	0.034	1.772	1.064	1.060	1.060	1.084	1.084	1.084
-0.010	-0.005	-0.005	0.000	0.005	-0.015	0.034	1.772	1.064	1.060	1.060	1.079	1.079	1.074
-0.010	0.000	0.000	-0.005	0.000	0.015	0.034	1.763	1.069	1.064	1.060	1.079	1.079	1.084
-0.010	0.000	-0.005	-0.005	0.000	0.005	0.034	1.768	1.074	1.069	1.064	1.079	1.079	1.079
0.005	0.005	-0.010	-0.005	0.005	-0.010	0.034	1.787	1.084	1.074	1.069	1.084	1.084	1.074
0.005	0.015	0.000	0.000	0.005	0.010	0.034	1.738	1.084	1.084	1.079	1.094	1.089	1.089
0.010	0.029	-0.005	0.000	0.005	0.005	0.034	1.797	1.094	1.089	1.084	1.094	1.089	1.094
-0.005	0.005	0.000	-0.005	0.005	-0.010	0.034	1.768	1.094	1.089	1.089	1.099	1.094	1.084
-0.005	0.010	0.000	0.000	-0.005	0.000	0.034	1.768	1.094	1.094	1.089	1.104	1.094	1.094
0.005	0.005	0.005	-0.005	0.000	-0.005	0.034	1.753	1.094	1.094	1.094	1.104	1.099	1.094
0.000	0.000	0.000	-0.005	0.005	-0.015	0.034	1.753	1.089	1.089	1.089	1.108	1.099	1.094
-0.010	0.000	-0.005	0.000	0.000	-0.005	0.029	1.729	1.074	1.084	1.089	1.104	1.099	1.094
-0.005	0.000	0.005	0.000	0.005	-0.005	0.029	1.792	1.079	1.079	1.084	1.104	1.094	1.094
0.000	-0.005	0.000	0.005	0.000	-0.005	0.029	1.768	1.069	1.074	1.079	1.099	1.094	1.089
0.005	-0.005	0.000	0.000	0.000	0.005	0.034	1.772	1.074	1.069	1.074	1.094	1.089	1.089
0.005	-0.005	0.000	0.000	-0.005	0.010	0.034	1.772	1.074	1.064	1.069	1.089	1.084	1.089
0.020	-0.005	0.000	0.005	0.000	0.015	0.034	1.758	1.069	1.064	1.064	1.084	1.084	1.084
0.005	0.010	0.010	0.000	0.005	0.015	0.034	1.748	1.064	1.064	1.064	1.084	1.084	1.084
0.010	0.000	0.000	-0.005	0.005	0.015	0.034	1.787	1.074	1.060	1.060	1.084	1.079	1.079
-0.005	-0.005	-0.005	0.000	-0.005	-0.020	0.034	1.763	1.064	1.060	1.060	1.079	1.079	1.074
-0.015	0.005	0.000	-0.005	0.000	0.005	0.034	1.768	1.069	1.064	1.064	1.084	1.079	1.084
-0.015	-0.005	-0.005	0.000	0.005	-0.010	0.034	1.753	1.074	1.069	1.064	1.089	1.084	1.079
-0.020	-0.005	0.000	0.000	-0.005	-0.005	0.034	1.729	1.079	1.074	1.074	1.089	1.084	1.084
-0.020	-0.005	0.000	0.005	0.000	-0.010	0.034	1.782	1.089	1.084	1.079	1.094	1.089	1.084
-0.015	-0.010	0.000	0.000	-0.005	-0.010	0.034	1.782	1.094	1.084	1.079	1.099	1.094	1.089
-0.010	-0.010	-0.005	0.000	0.000	-0.005	0.034	1.758	1.094	1.094	1.084	1.099	1.094	1.089
-0.005	-0.015	0.000	-0.005	0.005	-0.010	0.029	1.758	1.089	1.089	1.084	1.099	1.094	1.094
-0.005	0.000	-0.005	0.000	-0.005	-0.020	0.034	1.777	1.089	1.089	1.089	1.104	1.094	1.089
0.005	-0.015	-0.005	0.000	-0.005	-0.010	0.029	1.729	1.084	1.084	1.084	1.099	1.094	1.089
0.034	0.000	0.000	0.000	-0.005	0.005	0.029	1.777	1.089	1.089	1.084	1.094	1.089	1.094
0.044	-0.005	0.000	0.000	0.000	0.000	0.034	1.758	1.084	1.084	1.079	1.099	1.094	1.089
0.034	0.000	-0.005	0.000	0.000	0.005	0.034	1.792	1.074	1.074	1.074	1.089	1.084	1.089
-0.005	-0.005	0.000	0.000	-0.005	-0.005	0.034	1.782	1.060	1.064	1.069	1.089	1.084	1.079
-0.015	-0.005	-0.005	0.000	-0.010	0.020	0.034	1.743	1.060	1.060	1.064	1.084	1.079	1.084
-0.029	0.000	-0.005	0.000	-0.005	0.005	0.034	1.763	1.055	1.060	1.064	1.084	1.079	1.079
-0.034	0.005	0.000	0.000	-0.005	-0.029	0.029	1.782	1.064	1.060	1.060	1.084	1.079	1.064
-0.039	0.010	0.005	0.000	0.000	0.005	0.034	1.743	1.069	1.060	1.064	1.084	1.079	1.079
-0.029	-0.005	0.000	0.000	0.000	0.000	0.029	1.729	1.074	1.064	1.064	1.084	1.084	1.079
-0.005	0.020	-0.005	-0.005	0.010	-0.015	0.034	1.748	1.089	1.079	1.074	1.089	1.084	1.079
-0.005	0.015	0.000	0.000	0.015	0.005	0.034	1.738	1.084	1.084	1.079	1.094	1.089	1.084
0.005	0.020	0.000	-0.005	0.005	0.005	0.034	1.748	1.094	1.089	1.084	1.099	1.094	1.089
0.010	0.010	-0.005	0.000	0.010	0.005	0.029	1.753	1.099	1.089	1.089	1.104	1.099	1.094
0.005	0.005	0.000	0.000	0.005	0.015	0.034	1.772	1.099	1.089	1.089	1.104	1.094	1.099
0.010	0.005	0.005	0.000	0.000	-0.015	0.034	1.753	1.094	1.094	1.089	1.104	1.094	1.089
0.005	0.005	-0.005	0.000	0.000	0.015	0.034	1.772	1.094	1.089	1.089	1.104	1.099	1.099
0.010	0.005	0.000	0.000	0.005	0.015	0.034	1.768	1.089	1.084	1.084	1.104	1.094	1.089
0.010	-0.010	-0.005	0.000	-0.010	0.000	0.034	1.719	1.074	1.079	1.079	1.099	1.094	1.089
0.005	-0.005	-0.005	0.000	-0.005	-0.015	0.034	1.782	1.069	1.069	1.074	1.094	1.089	1.084
-0.005	-0.015	-0.005	-0.005	-0.005	0.000	0.034	1.792	1.060	1.060	1.069	1.089	1.084	1.084
0.000	-0.020	-0.005	-0.005	-0.005	0.005	0.034	1.748	1.060	1.055	1.060	1.084	1.084	1.084
-0.005	-0.020	-0.005	-0.005	0.000	0.000	0.034	1.772	1.060	1.055	1.060	1.079	1.079	1.079
0.000	-0.010	0.000	0.000	0.005	0.000	0.034	1.768	1.064	1.060	1.060	1.079	1.079	1.079
-0.005	-0.005	0.005	0.000	0.005	0.000	0.034	1.738	1.064	1.064	1.060	1.079	1.079	1.079
0.000	0.015	0.000	0.000	-0.005	-0.020	0.034	1.753	1.069	1.074	1.064	1.084	1.074	1.074
0.010	0.010	0.000	0.000	-0.010	-0.015	0.034	1.768	1.084	1.074	1.069	1.089	1.074	1.074
0.000	0.005	0.000	0.000	-0.005	-0.005	0.034	1.738	1.084	1.079	1.074	1.089	1.084	1.084
-0.010	0.000	0.000	-0.005	0.005	0.015	0.029	1.777	1.084	1.084	1.074	1.094	1.089	1.094
0.000	0.010	-0.005	0.000	0.005	0.005	0.039	1.758	1.089	1.089	1.084	1.094	1.094	1.094
0.005	0.005	0.000	0.000	0.000	0.015	0.034	1.772	1.094	1.089	1.089	1.104	1.094	1.094
-0.005	0.000	-0.005	0.000	-0.010	0.005	0.034	1.753	1.089	1.089	1.089	1.104	1.094	1.099
-0.005	0.000	-0.005	0.000	-0.005	0.015	0.034	1.768	1.089	1.089	1.084	1.104	1.094	1.094
0.000	-0.005	0.000	0.000	0.000	0.015	0.034	1.763	1.084	1.084	1.089	1.104	1.094	1.094
0.000	0.005	-0.005	0.000	-0.005	0.000	0.034	1.768	1.079	1.084	1.079	1.104	1.094	1.089
-0.005	0.000	0.000	-0.005	0.000	0.005	0.034	1.787	1.079	1.074	1.079	1.094	1.094	1.089
-0.015	-0.005	-0.005	-0.005	0.005	-0.005	0.029	1.772	1.074	1.069	1.074	1.089	1.089	1.084
0.000	-0.005	0.000	0.000	0.000	-0.015	0.034	1.797	1.074	1.064	1.064	1.089	1.084	1.074
-0.005	-0.015	0.000	-0.005	-0.005	-0.015	0.034	1.724	1.060	1.064	1.064	1.084	1.079	1.074
-0.005	-0.005	0.000	0.000	-0.005	0.000	0.029	1.777	1.069	1.060	1.064	1.084	1.079	1.079
-0.010	-0.005	0.000	0.000	-0.005	-0.005	0.034	1.777	1.069	1.064	1.060	1.079	1.079	1.074
0.005	-0.010	-0.005	0.000	-0.005	-0.020	0.034	1.758	1.069	1.064	1.064	1.079	1.079	1.079
0.005	0.005	-0.005	0.000	-0.005	0.020	0.034	1.763	1.074	1.074	1.064	1.084	1.079	1.089
0.005	-0.005	0.000	-0.005	0.000	-0.010	0.029	1.768	1.084	1.074	1.069	1.089	1.084	1.079
-0.005	-0.010	0.000	0.000	0.000	0.015	0.034	1.748	1.084	1.079	1.074	1.094	1.084	1.089
0.005	-0.005	0.000	0.000	0.005	-0.020	0.034	1.782	1.094	1.089	1.079	1.094	1.089	1.084
0.000	0.000	0.000	0.005	-0.005	0.005	0.034	1.729	1.089	1.094	1.084	1.104	1.094	1.094
0.015	-0.005	-0.005	0.000	0.005	-0.005	0.034	1.763	1.094	1.094	1.089	1.104	1.099	1.094
0.000	0.000	0.000	0.000	0.005	-0.010	0.034	1.782	1.094	1.094	1.089	1.108	1.099	1.094
-0.005	0.005	0.000	0.000	0.005	-0.010	0.034	1.719	1.079	1.089	1.089	1.104	1.099	1.099
-0.020	0.000	0.000	0.000	-0.005	0.010	0.034	1.729	1.064	1.079	1.089	1.104	1.099	1.099
-0.010	0.000	-0.005	-0.005	-0.005	0.020	0.029	1.782	1.074	1.074	1.079	1.099	1.094	1.099
-0.015	-0.005	0.005	0.000	-0.005	0.015	0.034	1.782	1.074	1.069	1.074	1.094	1.089	1.089
-0.020	0.000	-0.005	0.005	0.000	0.000	0.034	1.772	1.064	1.064	1.064	1.089	1.084	1.084
-0.010	0.000	0.005	-0.005	-0.005	0.005	0.029	1.787	1.069	1.060	1.064	1.084	1.084	1.079
-0.005	-0.020	0.000	0.000	-0.005	-0.044	0.029	1.729	1.064	1.055	1.060	1.079	1.079	1.069
-0.010	-0.020	0.000	0.000	0.010	-0.010	0.034	1.772	1.069	1.060	1.060	1.079	1.084	1.079
-0.005	-0.010	0.000	-0.005	0.000	-0.005	0.034	1.724	1.064	1.060	1.060	1.079	1.079	1.074
-0.005	-0.005	-0.005	0.000	-0.005	0.000	0.034	1.738	1.069	1.064	1.055	1.079	1.074	1.079
0.005	-0.005	0.000	0.005	0.010	0.015	0.034	1.772	1.084	1.069	1.064	1.084	1.084	1.084
-0.005	0.000	0.000	-0.005	0.005	0.005	0.029	1.733	1.084	1.079	1.069	1.084	1.084	1.084
0.000	0.005	-0.005	-0.005	0.005	-0.010	0.034	1.729	1.084	1.089	1.074	1.089	1.084	1.079
0.015	0.000	-0.005	0.000	0.000	-0.015	0.029	1.782	1.094	1.089	1.084	1.094	1.089	1.084
0.005	0.005	0.000	0.000	0.000	-0.010	0.034	1.777	1.089	1.094	1.089	1.099	1.094	1.089
0.005	0.000	-0.005	0.000	0.000	0.010	0.034	1.729	1.089	1.094	1.089	1.104	1.094	1.094
0.000	0.020	0.000	-0.005	-0.015	0.020	0.034	1.787	1.094	1.099	1.094	1.104	1.094	1.094
0.005	0.024	0.000	0.000	-0.005	0.015	0.034	1.748	1.084	1.094	1.094	1.108	1.094	1.094
0.010	0.005	-0.005	0.005	-0.015	0.015	0.034	1.763	1.084	1.084	1.084	1.104	1.094	1.094
0.005	0.010	-0.005	-0.005	0.000	0.000	0.034	1.782	1.074	1.079	1.079	1.099	1.094	1.089
-0.005	0.010	-0.005	0.000	0.000	-0.005	0.034	1.782	1.074	1.069	1.074	1.099	1.094	1.084
0.000	0.005	-0.005	0.000	0.000	-0.024	0.029	1.782	1.069	1.064	1.069	1.094	1.089	1.079
-0.005	0.005	-0.005	0.000	0.015	-0.005	0.029	1.733	1.055	1.060	1.064	1.089	1.089	1.084
-0.005	-0.010	0.005	0.000	0.015	-0.010	0.029	1.729	1.060	1.055	1.060	1.084	1.084	1.079
-0.005	0.000	0.000	-0.005	0.000	-0.044	0.034	1.777	1.064	1.055	1.060	1.084	1.079	1.069
0.000	-0.005	0.000	0.000	0.000	-0.010	0.029	1.699	1.060	1.055	1.060	1.079	1.079	1.084
0.000	0.000	0.000	-0.005	-0.020	-0.005	0.029	1.763	1.069	1.060	1.060	1.079	1.074	1.079
0.005	0.005	0.000	0.000	-0.039	-0.005	0.034	1.772	1.079	1.069	1.064	1.084	1.074	1.079
0.005	0.000	-0.005	0.000	-0.029	0.029	0.034	1.772	1.089	1.079	1.069	1.089	1.079	1.089
0.015	0.000	0.000	0.000	-0.020	0.039	0.034	1.748	1.099	1.084	1.079	1.094	1.089	1.094
0.024	0.000	-0.005	0.000	0.000	0.010	0.034	1.777	1.108	1.094	1.084	1.099	1.094	1.089
0.015	0.000	0.000	0.000	0.029	-0.015	0.034	1.743	1.099	1.094	1.089	1.104	1.104	1.089
0.005	0.005	-0.005	0.000	0.034	-0.020	0.034	1.758	1.099	1.099	1.089	1.104	1.104	1.094
-0.010	0.000	0.000	-0.005	0.015	0.000	0.034	1.787	1.089	1.094	1.094	1.104	1.099	1.099
-0.029	0.000	0.000	-0.005	0.000	-0.005	0.029	1.729	1.074	1.089	1.089	1.104	1.094	1.094
-0.024	0.000	0.005	0.000	-0.005	-0.005	0.034	1.753	1.074	1.079	1.084	1.099	1.089	1.094
-0.034	0.000	0.000	0.000	-0.005	0.000	0.034	1.743	1.074	1.074	1.079	1.099	1.094	1.089
-0.024	-0.005	0.000	0.005	0.000	0.000	0.034	1.758	1.064	1.069	1.074	1.094	1.089	1.089
-0.024	-0.005	-0.005	0.000	0.000	-0.005	0.034	1.777	1.064	1.060	1.069	1.089	1.084	1.079
-0.010	0.000	0.000	0.000	-0.005	0.005	0.034	1.777	1.069	1.060	1.064	1.084	1.084	1.084
-0.010	0.000	0.005	0.000	0.000	0.010	0.034	1.753	1.064	1.060	1.060	1.079	1.084	1.084
0.000	-0.005	0.000	0.000	-0.005	0.010	0.034	1.787	1.069	1.060	1.060	1.084	1.079	1.084
-0.005	-0.005	-0.005	0.000	0.015	0.015	0.034	1.782	1.074	1.069	1.060	1.084	1.084	1.084
0.010	0.005	0.000	0.000	0.010	0.015	0.034	1.768	1.084	1.074	1.069	1.084	1.084	1.084
0.000	-0.005	-0.005	0.000	0.000	0.010	0.034	1.743	1.084	1.074	1.074	1.089	1.084	1.084
0.015	0.000	0.000	-0.005	0.000	0.000	0.034	1.777	1.094	1.084	1.079	1.094	1.089	1.084
0.010	-0.005	0.000	0.000	0.005	-0.005	0.034	1.753	1.089	1.089	1.084	1.099	1.094	1.089
0.005	0.000	0.000	0.000	0.005	-0.005	0.034	1.738	1.089	1.094	1.089	1.104	1.094	1.089
0.005	-0.005	0.000	-0.005	0.000	0.015	0.034	1.777	1.099	1.094	1.094	1.104	1.094	1.099
0.005	-0.005	-0.005	0.000	-0.005	-0.005	0.034	1.763	1.094	1.099	1.094	1.108	1.099	1.094
0.005	-0.005	-0.005	0.000	-0.010	0.010	0.034	1.768	1.079	1.089	1.089	1.104	1.094	1.094
0.005	-0.005	0.000	0.000	-0.010	0.005	0.034	1.797	1.084	1.089	1.089	1.104	1.094	1.094
0.005	0.000	0.005	-0.005	-0.005	0.005	0.034	1.758	1.079	1.084	1.084	1.099	1.094	1.089
-0.005	-0.005	0.000	-0.005	-0.005	0.000	0.029	1.777	1.064	1.074	1.079	1.099	1.094	1.089
0.005	0.000	0.000	0.000	0.000	0.000	0.034	1.753	1.069	1.069	1.069	1.094	1.089	1.084
0.000	0.000	0.000	-0.005	-0.005	-0.005	0.034	1.777	1.069	1.064	1.069	1.089	1.084	1.084
0.000	0.000	0.000	-0.005	0.000	-0.034	0.034	1.792	1.074	1.064	1.060	1.089	1.084	1.074
0.000	0.005	0.000	0.000	-0.005	-0.029	0.034	1.768	1.094	1.069	1.064	1.084	1.079	1.079
0.000	0.000	-0.005	-0.005	-0.005	-0.020	0.034	1.787	1.089	1.074	1.069	1.084	1.079	1.074
0.000	0.010	-0.005	0.000	-0.005	0.015	0.034	1.772	1.084	1.079	1.074	1.084	1.084	1.089
-0.005	0.000	-0.005	-0.005	-0.005	0.005	0.034	1.782	1.089	1.079	1.074	1.089	1.084	1.084
0.005	0.010	0.000	0.000	0.000	0.020	0.034	1.777	1.099	1.094	1.084	1.094	1.089	1.094
-0.005	0.005	0.000	0.000	-0.005	-0.010	0.034	1.792	1.094	1.094	1.089	1.104	1.094	1.084
0.005	0.010	0.000	-0.005	0.000	0.010	0.034	1.729	1.104	1.104	1.094	1.108	1.099	1.094
-0.005	0.005	-0.005	0.000	-0.005	-0.005	0.034	1.777	1.104	1.104	1.099	1.113	1.099	1.094
-0.010	-0.005	-0.005	-0.005	0.000	0.000	0.034	1.812	1.094	1.099	1.099	1.113	1.108	1.099
0.000	-0.005	-0.005	0.000	0.000	-0.015	0.034	1.719	1.084	1.094	1.099	1.113	1.104	1.099
0.005	0.000	0.000	0.000	0.005	0.000	0.034	1.738	1.084	1.094	1.094	1.113	1.108	1.099
0.000	0.000	-0.005	-0.005	0.010	0.005	0.034	1.772	1.084	1.084	1.089	1.108	1.108	1.104
-0.005	0.000	0.000	0.000	0.005	0.005	0.029	1.777	1.079	1.079	1.084	1.108	1.099	1.099
0.000	-0.010	0.000	0.005	0.000	0.000	0.034	1.772	1.074	1.074	1.079	1.104	1.099	1.094
0.000	-0.015	0.000	-0.005	-0.005	0.000	0.034	1.772	1.069	1.064	1.074	1.094	1.094	1.094
0.000	-0.010	0.005	0.000	-0.005	0.000	0.034	1.709	1.060	1.064	1.069	1.089	1.089	1.089
0.000	-0.005	0.000	-0.005	-0.005	-0.010	0.034	1.772	1.064	1.060	1.064	1.089	1.084	1.089
0.005	0.000	-0.005	-0.005	-0.005	0.020	0.029	1.787	1.069	1.064	1.060	1.084	1.084	1.089
0.005	-0.010	-0.005	0.000	0.000	0.010	0.034	1.733	1.069	1.064	1.064	1.084	1.084	1.089
-0.015	0.000	0.000	0.005	-0.005	0.005	0.034	1.782	1.074	1.069	1.069	1.089	1.084	1.084
-0.010	0.000	0.000	0.000	0.000	-0.005	0.034	1.777	1.084	1.074	1.069	1.089	1.089	1.084
-0.010	0.000	-0.005	0.000	0.000	-0.010	0.034	1.704	1.079	1.079	1.074	1.089	1.094	1.089
-0.005	0.000	-0.005	0.000	0.000	-0.029	0.034	1.763	1.089	1.084	1.079	1.094	1.089	1.089
-0.010	0.000	-0.005	0.000	0.000	-0.005	0.029	1.733	1.089	1.089	1.084	1.099	1.094	1.094
0.000	0.000	-0.005	0.005	0.000	0.000	0.034	1.729	1.094	1.094	1.089	1.104	1.099	1.099
-0.005	0.000	0.000	-0.005	0.005	0.015	0.034	1.738	1.084	1.094	1.094	1.104	1.099	1.104
-0.005	-0.005	0.000	0.000	0.000	0.010	0.034	1.782	1.089	1.089	1.089	1.108	1.099	1.099
-0.010	-0.005	0.005	0.000	-0.005	0.005	0.029	1.772	1.089	1.084	1.089	1.104	1.099	1.094
-0.005	0.000	0.000	-0.005	-0.005	-0.010	0.034	1.782	1.084	1.084	1.089	1.099	1.094	1.094
-0.005	-0.005	0.000	0.000	-0.005	-0.020	0.034	1.768	1.079	1.074	1.079	1.094	1.094	1.079
0.005	0.000	0.005	0.000	0.000	0.010	0.034	1.777	1.079	1.074	1.074	1.094	1.089	1.089
0.034	0.005	-0.010	0.000	0.000	0.010	0.034	1.768	1.084	1.074	1.069	1.089	1.089	1.089
0.034	0.000	0.000	0.005	0.000	-0.020	0.034	1.772	1.079	1.069	1.069	1.089	1.079	1.074
0.015	-0.005	0.000	0.000	0.005	-0.020	0.034	1.782	1.074	1.069	1.064	1.084	1.084	1.074
0.010	-0.005	-0.005	0.000	-0.005	0.005	0.034	1.738	1.064	1.064	1.064	1.084	1.079	1.089
-0.020	0.000	-0.005	0.005	0.000	0.000	0.034	1.772	1.060	1.064	1.064	1.084	1.079	1.079
-0.034	0.000	0.000	0.000	0.005	0.005	0.034	1.724	1.064	1.069	1.069	1.089	1.089	1.089
-0.039	-0.005	0.000	-0.005	-0.005	0.010	0.034	1.743	1.069	1.069	1.069	1.089	1.084	1.089
-0.034	-0.005	-0.005	0.000	0.005	-0.005	0.034	1.777	1.084	1.074	1.074	1.094	1.089	1.089
-0.024	0.005	0.000	0.000	0.010	0.005	0.034	1.797	1.089	1.079	1.079	1.099	1.094	1.089
-0.010	0.000	0.000	0.000	-0.005	0.000	0.034	1.768	1.099	1.094	1.084	1.099	1.094	1.094
0.000	0.005	0.000	-0.005	-0.024	-0.015	0.029	1.787	1.104	1.094	1.094	1.104	1.094	1.094
-0.005	-0.005	0.005	0.000	-0.015	0.015	0.034	1.758	1.094	1.094	1.089	1.104	1.099	1.099
-0.005	0.000	0.000	0.000	0.010	0.010	0.029	1.768	1.089	1.094	1.094	1.104	1.104	1.099
0.005	0.000	-0.005	0.000	0.034	0.005	0.034	1.753	1.099	1.089	1.089	1.104	1.108	1.099
0.005	-0.005	0.000	0.000	0.034	-0.005	0.034	1.743	1.089	1.089	1.084	1.104	1.104	1.094
0.010	0.000	-0.005	0.000	0.010	-0.034	0.034	1.763	1.079	1.084	1.079	1.099	1.094	1.084
0.000	-0.005	0.005	0.000	-0.005	-0.015	0.034	1.777	1.084	1.074	1.079	1.094	1.084	1.084
0.005	-0.005	-0.005	0.000	-0.005	0.010	0.034	1.772	1.074	1.074	1.069	1.089	1.084	1.089
0.005	0.000	-0.005	0.000	-0.020	0.000	0.034	1.724	1.069	1.069	1.069	1.084	1.079	1.084
0.015	-0.005	-0.005	-0.005	-0.049	0.005	0.034	1.768	1.069	1.069	1.069	1.084	1.069	1.074
0.010	0.000	0.000	0.000	-0.059	0.005	0.034	1.782	1.074	1.069	1.064	1.084	1.074	1.074
0.005	-0.005	-0.005	0.000	-0.024	-0.010	0.034	1.772	1.074	1.064	1.069	1.089	1.084	1.074
0.005	-0.005	0.000	-0.005	-0.005	-0.024	0.029	1.787	1.084	1.069	1.074	1.094	1.089	1.079
0.015	0.000	0.005	0.005	0.000	-0.010	0.034	1.724	1.079	1.079	1.079	1.094	1.099	1.084
0.005	0.005	0.000	0.005	0.020	-0.010	0.034	1.787	1.084	1.089	1.084	1.099	1.104	1.094
0.000	-0.005	0.000	0.000	0.024	0.005	0.034	1.777	1.094	1.084	1.084	1.104	1.104	1.104
0.005	-0.005	0.000	0.000	0.020	0.010	0.034	1.724	1.094	1.094	1.089	1.108	1.108	1.108
0.005	0.005	-0.005	-0.005	0.020	0.005	0.034	1.758	1.089	1.094	1.089	1.104	1.104	1.108
0.005	0.000	0.000	0.000	0.020	0.010	0.034	1.772	1.094	1.094	1.089	1.108	1.104	1.104
-0.005	0.000	0.000	0.000	0.010	0.005	0.034	1.763	1.089	1.089	1.089	1.108	1.099	1.104
-0.010	-0.005	0.000	-0.005	0.005	0.005	0.034	1.792	1.089	1.079	1.084	1.104	1.099	1.094
0.000	-0.005	-0.005	0.005	-0.005	-0.010	0.034	1.709	1.074	1.079	1.079	1.099	1.094	1.094
-0.010	0.000	-0.005	0.000	-0.005	-0.015	0.029	1.787	1.074	1.074	1.074	1.094	1.089	1.084
0.000	-0.005	0.000	0.000	0.005	-0.015	0.034	1.724	1.064	1.069	1.069	1.094	1.089	1.089
0.000	0.005	-0.005	0.000	0.005	0.005	0.034	1.777	1.064	1.064	1.064	1.089	1.089	1.089
0.000	0.010	0.005	0.000	-0.010	0.015	0.034	1.689	1.055	1.064	1.064	1.084	1.084	1.084
0.005	0.010	0.000	0.005	-0.005	0.005	0.034	1.768	1.064	1.064	1.064	1.084	1.079	1.084
0.000	-0.005	0.005	0.000	-0.010	0.010	0.034	1.729	1.064	1.060	1.060	1.079	1.079	1.084
0.005	0.000	0.000	0.000	-0.005	-0.010	0.034	1.777	1.064	1.064	1.064	1.084	1.079	1.074
0.015	-0.005	0.005	-0.005	-0.005	0.005	0.029	1.772	1.079	1.069	1.069	1.084	1.084	1.079
0.015	0.005	0.000	-0.005	-0.005	-0.005	0.034	1.782	1.084	1.079	1.074	1.089	1.084	1.084
0.010	0.010	-0.005	-0.005	0.000	0.005	0.034	1.763	1.084	1.084	1.074	1.094	1.089	1.089
-0.015	0.010	-0.005	0.000	0.005	0.000	0.034	1.792	1.089	1.089	1.079	1.099	1.094	1.094
-0.015	0.005	-0.005	0.000	0.015	-0.010	0.034	1.768	1.094	1.089	1.084	1.104	1.099	1.094
-0.029	-0.005	-0.005	-0.005	0.020	-0.005	0.034	1.777	1.094	1.089	1.089	1.104	1.099	1.094
-0.029	0.000	0.000	0.005	0.010	-0.005	0.029	1.743	1.089	1.089	1.089	1.104	1.099	1.094
-0.024	0.000	0.000	0.000	0.005	0.015	0.034	1.787	1.094	1.084	1.084	1.104	1.099	1.099
-0.020	0.000	0.000	-0.005	0.010	0.010	0.034	1.782	1.089	1.079	1.084	1.099	1.094	1.094
-0.005	0.005	0.000	0.000	0.000	0.005	0.034	1.782	1.089	1.079	1.079	1.094	1.089	1.089
-0.005	-0.010	0.000	0.000	-0.015	0.000	0.034	1.772	1.079	1.074	1.074	1.089	1.079	1.084
0.010	0.000	0.000	0.000	-0.020	0.000	0.034	1.777	1.074	1.074	1.069	1.089	1.079	1.074
0.010	-0.020	0.000	0.000	-0.024	0.000	0.034	1.763	1.064	1.064	1.069	1.084	1.074	1.074
-0.005	-0.015	0.005	-0.005	-0.024	0.005	0.034	1.772	1.064	1.064	1.060	1.084	1.079	1.074
0.005	0.015	0.000	-0.005	-0.024	0.000	0.034	1.782	1.069	1.069	1.064	1.084	1.079	1.074
0.015	0.010	0.000	0.005	0.000	0.010	0.034	1.768	1.074	1.074	1.069	1.084	1.084	1.079
0.005	-0.005	0.000	0.005	0.015	0.010	0.034	1.768	1.074	1.069	1.074	1.089	1.089	1.089
-0.005	0.000	0.000	-0.005	0.020	-0.005	0.034	1.772	1.079	1.079	1.074	1.094	1.094	1.084
-0.005	0.005	0.000	0.000	0.015	-0.005	0.029	1.772	1.079	1.079	1.079	1.094	1.094	1.089
-0.005	0.010	0.005	0.000	0.005	0.015	0.039	1.792	1.089	1.084	1.084	1.104	1.094	1.094
-0.010	-0.005	0.000	0.005	0.000	-0.010	0.034	1.753	1.094	1.089	1.084	1.104	1.099	1.089
0.000	-0.005	-0.005	0.005	-0.005	0.015	0.034	1.782	1.094	1.089	1.084	1.104	1.099	1.104
-0.010	-0.005	0.005	-0.005	-0.005	0.010	0.034	1.753	1.094	1.089	1.089	1.104	1.099	1.094
-0.005	0.000	-0.005	0.005	-0.005	-0.024	0.034	1.733	1.089	1.089	1.084	1.104	1.099	1.089
-0.005	-0.005	0.000	0.000	0.005	0.010	0.034	1.772	1.089	1.084	1.089	1.104	1.099	1.104
0.000	0.000	0.000	0.000	0.010	-0.010	0.034	1.772	1.084	1.084	1.079	1.099	1.099	1.089
0.005	-0.005	-0.010	0.000	0.010	0.010	0.034	1.768	1.074	1.074	1.074	1.094	1.094	1.099
0.000	-0.005	0.000	0.005	0.010	-0.005	0.034	1.782	1.074	1.074	1.074	1.094	1.089	1.089
0.000	0.000	0.000	-0.005	0.010	0.010	0.034	1.753	1.064	1.064	1.069	1.084	1.084	1.089
0.000	-0.010	-0.005	0.005	0.005	0.000	0.034	1.777	1.064	1.060	1.060	1.084	1.079	1.079
0.005	0.000	-0.005	0.000	-0.005	-0.020	0.034	1.772	1.069	1.060	1.060	1.079	1.074	1.074
0.000	-0.005	0.000	0.000	-0.015	0.000	0.034	1.680	1.064	1.064	1.060	1.084	1.079	1.079
-0.005	-0.005	-0.005	-0.005	-0.005	-0.005	0.034	1.777	1.069	1.064	1.064	1.084	1.079	1.079
0.000	0.000	-0.005	0.000	-0.005	-0.029	0.034	1.743	1.074	1.069	1.069	1.084	1.079	1.074
0.000	-0.015	0.000	0.000	0.000	-0.005	0.034	1.729	1.079	1.069	1.074	1.089	1.084	1.089
0.005	-0.005	-0.005	0.005	0.015	0.020	0.034	1.772	1.084	1.079	1.074	1.094	1.094	1.094
-0.005	0.000	0.005	-0.005	0.010	0.015	0.034	1.777	1.094	1.089	1.084	1.099	1.094	1.094
0.000	-0.005	0.000	0.005	0.005	0.000	0.034	1.724	1.089	1.089	1.089	1.099	1.094	1.094
0.005	-0.005	0.000	0.000	-0.010	0.005	0.029	1.738	1.089	1.094	1.089	1.104	1.094	1.094
0.000	0.000	-0.005	-0.005	-0.015	0.005	0.029	1.772	1.094	1.094	1.089	1.104	1.094	1.094
0.000	0.005	0.000	-0.005	-0.005	0.005	0.034	1.768	1.094	1.094	1.089	1.104	1.099	1.094
0.000	0.005	0.000	0.005	0.005	-0.020	0.034	1.743	1.079	1.089	1.089	1.104	1.099	1.084
0.005	0.005	0.000	0.005	0.005	-0.015	0.034	1.748	1.069	1.079	1.084	1.099	1.094	1.089
0.000	0.000	0.000	0.000	-0.005	0.015	0.034	1.782	1.074	1.069	1.074	1.094	1.089	1.089
-0.010	-0.010	-0.005	0.000	-0.015	0.005	0.034	1.763	1.060	1.060	1.064	1.089	1.084	1.084
-0.005	-0.015	0.005	0.000	-0.005	-0.010	0.034	1.748	1.060	1.055	1.060	1.089	1.084	1.079
0.000	-0.005	0.000	0.000	-0.015	-0.010	0.034	1.772	1.060	1.055	1.055	1.079	1.074	1.079
-0.005	-0.010	-0.005	-0.005	-0.005	0.010	0.034	1.763	1.064	1.060	1.055	1.079	1.079	1.084
0.010	-0.005	0.000	0.000	0.000	0.015	0.034	1.768	1.074	1.060	1.060	1.079	1.079	1.084
0.010	-0.005	0.000	0.005	-0.015	0.000	0.034	1.738	1.079	1.069	1.060	1.079	1.074	1.079
0.005	-0.010	0.005	0.000	-0.010	-0.005	0.034	1.772	1.079	1.074	1.069	1.084	1.079	1.079
0.005	0.024	-0.005	0.000	0.000	0.000	0.034	1.753	1.084	1.094	1.079	1.089	1.089	1.084
-0.010	0.015	0.000	0.000	0.020	-0.005	0.034	1.777	1.084	1.089	1.079	1.094	1.094	1.089
-0.005	0.005	0.000	-0.005	0.005	0.000	0.034	1.763	1.089	1.089	1.084	1.099	1.094	1.089
0.000	0.010	0.000	0.000	0.010	-0.005	0.034	1.738	1.094	1.094	1.089	1.104	1.099	1.094
0.000	0.000	-0.005	-0.005	0.010	0.005	0.034	1.753	1.094	1.089	1.089	1.104	1.099	1.094
-0.005	0.000	-0.005	0.005	0.000	0.000	0.034	1.743	1.089	1.089	1.084	1.104	1.094	1.094
0.005	0.010	-0.005	-0.005	0.005	0.005	0.034	1.743	1.084	1.089	1.084	1.099	1.099	1.094
0.000	0.005	-0.005	0.005	-0.005	-0.010	0.039	1.733	1.074	1.084	1.084	1.104	1.094	1.089
0.000	0.010	-0.005	0.000	-0.010	-0.010	0.034	1.772	1.069	1.074	1.079	1.094	1.089	1.089
-0.005	0.005	0.000	0.000	-0.015	0.000	0.034	1.753	1.069	1.069	1.074	1.089	1.084	1.084
0.000	-0.005	0.000	-0.005	0.000	-0.010	0.034	1.763	1.060	1.060	1.064	1.089	1.084	1.084
-0.005	0.000	-0.005	-0.005	0.015	0.020	0.034	1.768	1.060	1.055	1.060	1.084	1.089	1.084
0.010	0.000	0.005	0.000	0.010	-0.020	0.034	1.729	1.064	1.060	1.060	1.079	1.079	1.074
0.000	0.005	0.000	0.000	0.005	0.005	0.034	1.753	1.064	1.060	1.060	1.079	1.079	1.084
0.005	-0.005	0.000	0.000	-0.015	0.010	0.034	1.768	1.069	1.060	1.060	1.079	1.069	1.079
0.000	0.000	0.000	0.000	-0.020	0.010	0.034	1.733	1.074	1.069	1.060	1.079	1.074	1.079
-0.005	-0.005	0.000	0.000	0.000	0.020	0.034	1.777	1.079	1.069	1.069	1.084	1.084	1.089
-0.005	-0.005	0.000	-0.005	-0.005	0.010	0.034	1.787	1.089	1.079	1.074	1.089	1.084	1.084
-0.005	-0.010	-0.005	-0.005	-0.005	0.005	0.034	1.748	1.089	1.084	1.074	1.094	1.089	1.084
-0.005	0.000	-0.005	0.000	-0.005	0.005	0.034	1.768	1.094	1.089	1.084	1.099	1.089	1.089
0.024	-0.010	0.000	0.000	0.000	0.005	0.039	1.787	1.104	1.089	1.089	1.104	1.094	1.089
0.015	0.000	0.000	0.000	0.024	-0.005	0.034	1.768	1.094	1.099	1.089	1.104	1.104	1.094
-0.010	0.010	-0.005	0.000	0.034	-0.020	0.034	1.782	1.084	1.089	1.089	1.104	1.099	1.089
-0.024	0.000	0.000	0.000	0.020	-0.020	0.034	1.768	1.079	1.084	1.089	1.104	1.099	1.089
-0.024	-0.010	-0.005	0.005	0.034	-0.020	0.034	1.748	1.069	1.074	1.079	1.099	1.099	1.089
-0.029	-0.005	-0.005	-0.005	0.015	-0.005	0.034	1.709	1.060	1.069	1.074	1.094	1.089	1.089
-0.029	0.000	-0.005	-0.005	0.015	-0.005	0.034	1.782	1.060	1.060	1.069	1.089	1.084	1.089
-0.024	0.000	0.000	0.000	-0.024	0.010	0.034	1.743	1.060	1.060	1.064	1.084	1.069	1.084
-0.010	0.005	0.000	0.000	-0.054	0.010	0.034	1.772	1.060	1.055	1.060	1.079	1.064	1.079
0.005	0.005	0.000	-0.005	-0.044	0.005	0.034	1.787	1.074	1.060	1.060	1.079	1.069	1.069
-0.005	0.000	0.005	0.005	-0.020	0.010	0.034	1.733	1.064	1.060	1.060	1.079	1.079	1.074
0.020	-0.005	-0.005	0.005	-0.010	-0.005	0.034	1.772	1.079	1.064	1.060	1.079	1.079	1.069
0.005	0.005	0.000	0.000	0.005	0.005	0.034	1.787	1.079	1.074	1.064	1.084	1.084	1.079
0.010	-0.005	-0.010	-0.005	0.015	-0.005	0.034	1.777	1.079	1.074	1.069	1.089	1.089	1.084
0.024	0.005	0.000	-0.005	0.005	-0.005	0.034	1.763	1.089	1.084	1.079	1.089	1.089	1.084
0.024	0.000	-0.005	-0.005	0.015	-0.005	0.034	1.743	1.094	1.089	1.079	1.094	1.094	1.089
0.010	0.005	0.000	0.000	0.034	0.005	0.034	1.777	1.094	1.089	1.089	1.104	1.104	1.094
0.010	-0.010	0.000	0.000	0.010	-0.015	0.034	1.768	1.094	1.094	1.089	1.099	1.094	1.094
-0.015	0.000	0.000	0.000	-0.015	0.005	0.029	1.758	1.084	1.089	1.089	1.104	1.089	1.094
-0.010	-0.010	0.005	-0.005	-0.010	-0.005	0.034	1.792	1.089	1.084	1.089	1.104	1.094	1.084
-0.024	0.000	0.005	0.000	0.010	0.010	0.034	1.772	1.079	1.079	1.084	1.104	1.099	1.094
-0.020	-0.005	0.000	0.000	0.000	0.010	0.034	1.777	1.079	1.079	1.079	1.094	1.089	1.094
-0.020	-0.005	-0.005	0.005	-0.015	0.000	0.029	1.787	1.079	1.074	1.074	1.094	1.084	1.089
-0.010	0.010	-0.005	-0.005	-0.020	-0.005	0.034	1.772	1.069	1.074	1.069	1.089	1.084	1.084
-0.010	0.000	0.000	-0.005	-0.010	0.000	0.029	1.748	1.064	1.064	1.064	1.084	1.084	1.079
0.000	0.000	0.000	0.005	-0.005	-0.005	0.029	1.763	1.060	1.064	1.064	1.084	1.084	1.079
-0.005	-0.015	0.000	-0.005	0.015	-0.010	0.034	1.748	1.060	1.055	1.060	1.084	1.084	1.074
0.015	-0.005	-0.005	-0.005	0.000	0.000	0.034	1.729	1.074	1.064	1.060	1.079	1.079	1.079
0.010	-0.010	0.000	0.000	-0.005	-0.015	0.029	1.772	1.074	1.064	1.064	1.084	1.084	1.079
0.005	-0.010	-0.005	-0.005	0.010	-0.010	0.034	1.729	1.079	1.074	1.069	1.089	1.089	1.084
0.020	0.005	0.000	0.000	0.010	-0.010	0.029	1.709	1.079	1.084	1.074	1.094	1.094	1.089
0.000	-0.005	0.000	0.000	0.015	0.015	0.034	1.714	1.074	1.084	1.079	1.099	1.094	1.099
0.005	0.000	0.000	0.000	0.010	0.005	0.034	1.777	1.084	1.084	1.084	1.099	1.094	1.094
0.010	-0.005	-0.005	0.000	0.015	0.005	0.034	1.772	1.094	1.089	1.089	1.104	1.099	1.099
0.000	0.000	-0.005	0.000	-0.005	0.020	0.034	1.738	1.084	1.094	1.089	1.104	1.094	1.099
-0.005	0.000	0.000	0.000	-0.010	0.020	0.029	1.792	1.084	1.084	1.089	1.104	1.094	1.099
-0.005	-0.005	0.000	0.005	-0.005	0.020	0.034	1.738	1.084	1.089	1.084	1.104	1.099	1.094
0.000	0.000	0.000	0.000	-0.005	-0.005	0.034	1.738	1.074	1.079	1.084	1.099	1.094	1.089
-0.015	0.005	0.000	-0.005	0.000	0.000	0.034	1.777	1.074	1.074	1.079	1.094	1.089	1.089
-0.005	0.020	0.000	0.000	-0.020	0.015	0.034	1.724	1.069	1.074	1.069	1.094	1.084	1.089
0.000	0.015	0.000	0.000	-0.029	-0.024	0.034	1.729	1.060	1.064	1.069	1.084	1.074	1.074
0.010	0.005	-0.005	-0.005	-0.010	0.000	0.034	1.753	1.060	1.055	1.060	1.084	1.084	1.079
-0.005	0.010	0.005	0.000	0.015	-0.005	0.034	1.733	1.055	1.060	1.055	1.084	1.084	1.079
0.005	0.000	-0.005	0.000	0.024	0.005	0.034	1.743	1.060	1.055	1.055	1.079	1.089	1.084
-0.010	0.005	-0.005	0.000	0.010	0.015	0.034	1.753	1.060	1.055	1.055	1.079	1.079	1.084
-0.010	0.000	0.000	0.000	-0.005	0.020	0.029	1.777	1.069	1.060	1.060	1.079	1.074	1.079
-0.010	0.005	0.005	0.000	-0.029	0.010	0.029	1.763	1.074	1.069	1.064	1.079	1.069	1.079
-0.005	-0.005	-0.005	-0.005	-0.020	-0.005	0.034	1.787	1.089	1.074	1.069	1.089	1.079	1.074
0.000	-0.005	0.000	0.000	-0.005	0.005	0.034	1.729	1.089	1.084	1.074	1.094	1.089	1.084
0.000	0.010	-0.005	0.005	0.015	-0.005	0.034	1.743	1.089	1.094	1.084	1.099	1.094	1.084
0.000	0.000	0.005	-0.005	0.005	0.000	0.034	1.782	1.094	1.089	1.089	1.099	1.094	1.089
0.010	-0.005	0.005	0.000	0.010	0.005	0.034	1.772	1.094	1.089	1.084	1.099	1.099	1.094
0.005	-0.005	0.000	0.000	0.024	0.005	0.029	1.748	1.084	1.084	1.084	1.104	1.099	1.094
-0.005	0.000	-0.005	0.000	-0.005	0.000	0.029	1.709	1.079	1.084	1.079	1.099	1.089	1.089
0.005	-0.005	-0.005	0.000	-0.024	-0.020	0.034	1.719	1.069	1.074	1.074	1.094	1.084	1.074
0.000	-0.005	0.000	0.000	-0.010	0.015	0.034	1.768	1.064	1.069	1.074	1.094	1.089	1.089
0.000	0.000	0.000	-0.005	0.000	0.010	0.034	1.763	1.064	1.064	1.069	1.089	1.089	1.084
0.000	-0.010	0.000	0.000	0.010	-0.005	0.034	1.733	1.060	1.060	1.060	1.084	1.089	1.079
0.000	0.000	0.000	0.005	0.010	-0.015	0.034	1.738	1.060	1.055	1.060	1.079	1.084	1.074
0.000	0.000	0.000	0.000	0.005	-0.005	0.039	1.738	1.060	1.055	1.055	1.074	1.079	1.074
0.000	0.000	0.000	0.000	0.000	-0.005	0.034	1.768	1.060	1.055	1.060	1.074	1.074	1.079
0.005	-0.005	0.000	0.000	0.000	0.005	0.034	1.787	1.074	1.060	1.060	1.074	1.074	1.079
0.005	-0.005	0.000	0.000	0.005	0.005	0.034	1.768	1.079	1.069	1.064	1.079	1.079	1.079
0.000	-0.010	0.000	-0.005	0.005	-0.010	0.034	1.748	1.084	1.074	1.064	1.084	1.084	1.074
-0.005	0.000	0.005	0.000	0.015	-0.005	0.034	1.724	1.079	1.084	1.074	1.089	1.089	1.084
-0.015	0.000	-0.005	0.000	0.020	-0.005	0.029	1.748	1.084	1.084	1.079	1.094	1.094	1.089
-0.005	0.000	0.000	-0.005	0.005	0.005	0.034	1.807	1.094	1.089	1.084	1.099	1.089	1.089
-0.005	0.005	0.000	0.000	-0.005	-0.029	0.034	1.738	1.094	1.094	1.084	1.099	1.089	1.079
0.000	-0.005	-0.005	-0.005	-0.010	-0.005	0.034	1.787	1.094	1.089	1.084	1.099	1.089	1.089
0.000	0.015	0.000	0.000	-0.010	-0.015	0.034	1.729	1.084	1.094	1.089	1.104	1.094	1.089
0.000	0.005	0.000	0.005	0.000	0.005	0.034	1.709	1.074	1.089	1.084	1.099	1.094	1.094
0.000	0.015	-0.005	0.000	-0.005	0.015	0.034	1.768	1.074	1.079	1.084	1.099	1.094	1.094
0.000	0.015	-0.005	0.000	-0.005	-0.005	0.029	1.772	1.069	1.069	1.074	1.094	1.089	1.079
0.000	0.005	0.005	0.000	0.000	0.010	0.034	1.738	1.069	1.064	1.069	1.089	1.089	1.084
0.000	0.000	0.000	0.000	-0.005	-0.020	0.029	1.758	1.064	1.060	1.064	1.084	1.079	1.074
-0.005	-0.005	-0.005	0.000	-0.005	-0.015	0.034	1.777	1.064	1.055	1.060	1.084	1.074	1.074
-0.005	-0.010	0.000	0.000	0.005	0.010	0.029	1.733	1.055	1.060	1.060	1.079	1.084	1.084
0.010	0.000	0.000	0.005	0.000	0.010	0.029	1.768	1.064	1.060	1.060	1.079	1.079	1.084
0.005	-0.010	-0.005	0.000	-0.005	0.010	0.034	1.772	1.074	1.060	1.060	1.079	1.074	1.079
0.020	-0.005	0.000	0.000	-0.005	0.010	0.034	1.724	1.079	1.069	1.064	1.084	1.079	1.084
0.020	-0.005	0.000	0.000	0.005	-0.005	0.034	1.733	1.079	1.079	1.069	1.089	1.089	1.079
0.015	-0.005	0.000	0.000	0.000	-0.005	0.039	1.733	1.079	1.079	1.074	1.094	1.089	1.084
0.029	-0.005	-0.005	0.000	-0.015	-0.029	0.034	1.772	1.089	1.089	1.079	1.094	1.084	1.079
0.015	-0.005	-0.005	0.005	-0.024	-0.005	0.034	1.787	1.084	1.089	1.084	1.099	1.089	1.089
-0.010	0.000	-0.005	-0.005	-0.010	0.000	0.034	1.777	1.084	1.089	1.089	1.099	1.094	1.094
-0.020	0.000	-0.005	0.000	0.005	0.000	0.034	1.753	1.079	1.089	1.089	1.099	1.099	1.099
-0.039	0.000	0.000	-0.005	0.010	0.005	0.029	1.792	1.074	1.084	1.084	1.099	1.099	1.094
-0.059	0.000	0.005	-0.005	0.015	0.005	0.029	1.797	1.074	1.074	1.074	1.099	1.094	1.094
-0.044	-0.005	-0.005	-0.005	-0.005	-0.005	0.034	1.777	1.079	1.069	1.074	1.094	1.084	1.084
-0.039	0.000	-0.005	0.000	0.005	0.000	0.029	1.777	1.069	1.064	1.069	1.089	1.089	1.084
-0.015	0.000	0.000	0.000	0.005	-0.005	0.034	1.787	1.079	1.069	1.064	1.084	1.079	1.079
-0.010	0.000	-0.005	0.000	0.024	-0.005	0.034	1.758	1.069	1.064	1.064	1.084	1.084	1.074
0.005	0.010	0.000	0.000	0.020	0.015	0.034	1.787	1.074	1.064	1.064	1.084	1.079	1.084
0.000	-0.005	0.005	0.000	-0.005	0.010	0.034	1.792	1.074	1.064	1.064	1.079	1.074	1.079
0.010	-0.005	-0.005	-0.005	0.000	0.005	0.034	1.768	1.079	1.069	1.064	1.079	1.074	1.079
0.005	0.000	0.000	0.000	0.005	0.010	0.034	1.768	1.084	1.074	1.069	1.084	1.074	1.079
0.015	0.000	0.000	0.000	-0.005	0.000	0.029	1.768	1.089	1.084	1.074	1.089	1.079	1.079
0.020	0.000	-0.005	0.000	-0.010	0.010	0.034	1.782	1.094	1.084	1.079	1.094	1.084	1.084
0.010	-0.005	0.000	0.000	0.000	0.005	0.034	1.753	1.094	1.094	1.084	1.099	1.094	1.084
0.020	-0.005	-0.005	0.005	0.005	0.000	0.034	1.768	1.099	1.094	1.094	1.104	1.099	1.089
0.015	-0.005	0.005	-0.005	0.000	0.005	0.029	1.802	1.099	1.094	1.094	1.108	1.099	1.094
0.005	0.000	0.000	0.000	-0.005	0.005	0.034	1.714	1.089	1.094	1.094	1.104	1.099	1.094
0.024	-0.005	0.000	0.000	-0.005	-0.005	0.029	1.777	1.094	1.089	1.094	1.108	1.099	1.094
0.015	-0.005	-0.005	0.000	-0.010	-0.024	0.034	1.680	1.079	1.089	1.089	1.104	1.099	1.089
0.010	0.000	0.000	-0.005	-0.005	-0.005	0.029	1.743	1.064	1.079	1.079	1.104	1.094	1.094
0.000	-0.005	0.000	0.000	0.005	0.000	0.034	1.733	1.030	1.060	1.074	1.099	1.094	1.094
0.000	-0.005	-0.005	0.000	0.000	0.000	0.034	1.753	1.040	1.050	1.064	1.094	1.094	1.089
-0.015	0.005	-0.005	0.000	0.000	-0.020	0.034	1.777	1.040	1.045	1.055	1.084	1.084	1.079
-0.029	0.010	0.000	0.000	0.000	-0.005	0.034	1.763	1.050	1.040	1.055	1.079	1.079	1.084
-0.024	0.005	-0.005	0.000	0.005	-0.024	0.034	1.753	1.050	1.045	1.045	1.074	1.074	1.074
-0.024	0.000	0.000	0.000	0.000	0.000	0.034	1.753	1.055	1.045	1.045	1.069	1.074	1.084
-0.015	0.000	0.000	0.005	-0.005	0.010	0.034	1.758	1.069	1.050	1.045	1.069	1.074	1.084
-0.010	0.010	0.000	0.000	0.000	0.010	0.029	1.787	1.079	1.060	1.055	1.074	1.074	1.079
0.000	-0.005	0.000	0.000	0.000	0.010	0.034	1.782	1.089	1.064	1.060	1.079	1.074	1.079
0.000	-0.005	0.000	0.000	0.000	-0.020	0.029	1.729	1.089	1.079	1.069	1.084	1.074	1.074
0.015	0.005	0.000	0.000	0.000	0.010	0.034	1.748	1.094	1.084	1.074	1.089	1.084	1.084
0.015	0.000	-0.005	0.000	0.000	0.000	0.034	1.812	1.099	1.089	1.079	1.094	1.084	1.084
0.015	0.005	0.005	0.005	0.000	-0.015	0.034	1.763	1.094	1.094	1.084	1.099	1.089	1.084
0.020	0.015	-0.005	0.000	0.000	0.010	0.034	1.772	1.094	1.094	1.089	1.099	1.089	1.089
-0.005	-0.010	0.005	0.000	0.005	-0.020	0.029	1.787	1.089	1.089	1.084	1.099	1.094	1.079
0.000	-0.010	-0.005	0.000	0.010	0.010	0.034	1.772	1.079	1.079	1.084	1.099	1.094	1.094
0.000	-0.005	-0.005	0.000	0.005	0.005	0.034	1.729	1.069	1.074	1.074	1.094	1.089	1.084
0.000	-0.010	0.000	0.000	-0.005	0.005	0.034	1.753	1.064	1.069	1.074	1.089	1.079	1.079
0.005	-0.005	-0.010	0.000	-0.015	-0.010	0.029	1.772	1.064	1.060	1.064	1.084	1.074	1.074
-0.015	0.005	-0.005	0.000	-0.005	-0.005	0.034	1.738	1.055	1.060	1.060	1.084	1.079	1.074
-0.010	0.005	-0.005	0.000	0.005	-0.020	0.034	1.787	1.060	1.055	1.060	1.079	1.079	1.069
-0.010	0.000	-0.005	0.000	-0.005	-0.005	0.034	1.777	1.064	1.055	1.055	1.079	1.074	1.069
-0.010	0.000	0.000	0.000	-0.005	0.005	0.034	1.733	1.064	1.060	1.060	1.079	1.079	1.074
-0.010	0.005	0.000	0.000	0.005	0.010	0.034	1.772	1.069	1.064	1.060	1.079	1.079	1.079
0.005	0.005	0.000	-0.005	0.005	0.010	0.029	1.738	1.084	1.074	1.064	1.084	1.079	1.079
0.005	0.000	-0.005	0.000	-0.005	0.010	0.034	1.748	1.084	1.079	1.069	1.089	1.079	1.084
-0.005	0.010	0.000	-0.005	-0.005	-0.005	0.029	1.782	1.089	1.084	1.074	1.094	1.084	1.079
-0.005	-0.005	-0.005	0.000	-0.010	0.005	0.034	1.738	1.089	1.084	1.084	1.094	1.084	1.089
0.005	-0.010	-0.005	-0.005	0.000	-0.010	0.034	1.782	1.084	1.084	1.084	1.099	1.094	1.084
0.000	-0.005	-0.005	-0.005	-0.005	-0.039	0.034	1.758	1.084	1.089	1.084	1.104	1.094	1.079
-0.005	-0.005	-0.005	0.000	0.000	-0.044	0.034	1.753	1.079	1.084	1.084	1.099	1.094	1.084
-0.005	0.005	-0.005	-0.005	-0.005	-0.010	0.034	1.772	1.079	1.084	1.084	1.099	1.094	1.089
0.010	-0.005	0.000	0.005	-0.005	0.015	0.034	1.719	1.074	1.074	1.079	1.099	1.094	1.094
0.020	0.000	0.000	0.000	0.000	0.000	0.034	1.743	1.069	1.074	1.074	1.094	1.094	1.089
0.010	0.005	0.000	0.005	0.005	-0.015	0.034	1.831	1.069	1.069	1.069	1.094	1.089	1.084
0.020	-0.005	0.005	0.000	-0.005	0.010	0.034	1.689	1.055	1.060	1.064	1.084	1.084	1.084
0.010	-0.015	0.005	0.000	0.000	0.020	0.034	1.782	1.055	1.050	1.055	1.079	1.084	1.084
-0.015	-0.005	0.000	0.000	0.000	0.000	0.034	1.733	1.050	1.055	1.055	1.074	1.079	1.074
-0.010	0.005	0.000	-0.005	0.020	0.010	0.029	1.777	1.060	1.055	1.055	1.074	1.084	1.079
-0.015	0.005	0.000	-0.005	0.015	0.005	0.029	1.772	1.064	1.060	1.055	1.074	1.074	1.079
-0.029	0.000	-0.005	-0.005	0.000	-0.005	0.029	1.768	1.069	1.060	1.055	1.074	1.074	1.074
-0.034	0.000	0.000	-0.005	-0.005	0.005	0.034	1.704	1.069	1.064	1.064	1.079	1.074	1.079
-0.020	-0.010	0.000	0.000	0.000	0.015	0.034	1.680	1.074	1.074	1.064	1.084	1.079	1.084
-0.020	0.010	0.000	-0.005	-0.010	0.005	0.034	1.768	1.084	1.079	1.074	1.089	1.079	1.084
-0.005	0.000	0.000	0.000	-0.005	0.020	0.034	1.753	1.089	1.084	1.074	1.094	1.089	1.089
0.000	-0.005	0.000	0.000	0.000	0.020	0.034	1.729	1.084	1.084	1.079	1.094	1.089	1.094
0.010	0.015	0.000	0.005	0.000	0.010	0.034	1.782	1.094	1.094	1.084	1.099	1.089	1.089
0.015	0.000	-0.005	0.000	0.005	0.005	0.034	1.748	1.089	1.089	1.084	1.099	1.094	1.089
0.015	0.005	-0.005	0.000	-0.005	-0.039	0.034	1.777	1.084	1.084	1.084	1.099	1.089	1.074
-0.005	-0.005	0.005	-0.005	-0.005	-0.005	0.034	1.763	1.074	1.074	1.074	1.094	1.089	1.084
-0.005	-0.005	0.000	-0.005	0.000	-0.034	0.034	1.753	1.064	1.069	1.074	1.094	1.084	1.074
-0.005	-0.005	0.000	-0.005	0.000	0.000	0.034	1.743	1.060	1.064	1.064	1.084	1.084	1.084
-0.005	-0.005	0.000	0.000	0.000	0.005	0.034	1.733	1.055	1.060	1.060	1.084	1.079	1.079
0.000	-0.010	0.000	0.000	-0.005	0.010	0.034	1.768	1.055	1.055	1.060	1.079	1.074	1.084
0.000	0.000	0.000	0.000	-0.005	-0.029	0.034	1.758	1.060	1.055	1.055	1.079	1.074	1.064
0.000	-0.005	0.000	0.000	-0.005	-0.015	0.034	1.777	1.064	1.055	1.055	1.074	1.074	1.069
0.000	-0.005	0.005	0.000	0.000	-0.039	0.034	1.792	1.069	1.055	1.055	1.079	1.074	1.069
0.005	0.005	0.005	0.000	0.010	-0.015	0.034	1.738	1.074	1.069	1.060	1.079	1.079	1.079
-0.005	0.005	0.000	0.000	0.005	0.010	0.034	1.782	1.079	1.074	1.069	1.084	1.079	1.089
0.000	0.005	0.005	-0.005	-0.005	0.020	0.034	1.763	1.094	1.079	1.069	1.089	1.084	1.089
0.010	0.000	0.000	0.005	-0.005	0.005	0.034	1.729	1.094	1.089	1.079	1.094	1.084	1.089
0.000	0.005	-0.010	0.000	0.000	0.034	0.034	1.768	1.094	1.089	1.084	1.099	1.094	1.094
-0.010	-0.005	0.000	0.000	-0.005	0.020	0.034	1.768	1.094	1.089	1.084	1.099	1.094	1.094
-0.005	0.005	0.000	0.000	0.000	0.005	0.034	1.792	1.094	1.094	1.089	1.099	1.094	1.084
0.010	-0.005	0.000	0.000	-0.005	0.005	0.029	1.782	1.094	1.089	1.089	1.099	1.094	1.094
0.015	-0.005	0.000	-0.005	0.005	0.005	0.034	1.782	1.094	1.089	1.084	1.099	1.094	1.089
0.044	0.000	0.005	0.000	0.010	0.000	0.034	1.753	1.089	1.084	1.084	1.099	1.094	1.084
0.020	-0.005	0.000	0.000	0.000	-0.010	0.034	1.797	1.079	1.079	1.074	1.094	1.089	1.079
0.005	-0.005	-0.005	0.000	-0.010	-0.005	0.034	1.753	1.030	1.064	1.069	1.094	1.079	1.079
-0.015	-0.005	0.000	0.000	-0.015	0.005	0.034	1.777	1.035	1.050	1.060	1.089	1.079	1.079
-0.024	0.000	0.000	-0.005	0.000	-0.010	0.029	1.768	1.040	1.045	1.055	1.084	1.079	1.079
-0.039	0.000	0.000	0.000	0.000	0.000	0.034	1.763	1.045	1.045	1.055	1.079	1.079	1.079
-0.029	0.000	0.000	0.000	0.000	0.020	0.034	1.753	1.055	1.045	1.050	1.079	1.079	1.084
-0.024	0.000	0.000	0.005	0.000	-0.015	0.034	1.768	1.064	1.055	1.055	1.079	1.074	1.069
-0.024	-0.005	0.000	0.000	-0.010	-0.010	0.034	1.763	1.069	1.060	1.055	1.079	1.079	1.079
-0.010	-0.015	-0.005	0.000	-0.015	0.005	0.034	1.768	1.084	1.064	1.060	1.079	1.079	1.084
0.000	-0.015	-0.005	-0.005	-0.054	0.015	0.034	1.777	1.084	1.074	1.064	1.084	1.074	1.079
0.000	0.005	0.005	-0.005	-0.005	0.020	0.029	1.743	1.089	1.089	1.074	1.089	1.089	1.089
0.005	0.000	0.000	-0.005	0.020	0.010	0.034	1.777	1.099	1.094	1.079	1.094	1.099	1.089
0.000	0.005	0.000	0.000	0.010	0.005	0.034	1.758	1.099	1.094	1.084	1.094	1.094	1.089
0.005	0.000	0.000	0.000	-0.010	-0.015	0.034	1.782	1.099	1.094	1.089	1.099	1.089	1.084
0.005	0.000	0.000	0.000	0.015	-0.015	0.034	1.729	1.084	1.089	1.089	1.099	1.094	1.084
0.034	0.010	-0.005	0.000	0.024	-0.020	0.034	1.738	1.089	1.089	1.084	1.099	1.094	1.084
0.024	-0.005	-0.005	0.000	0.015	-0.039	0.034	1.743	1.079	1.079	1.079	1.094	1.084	1.079
0.024	0.000	0.000	-0.005	-0.005	-0.015	0.029	1.738	1.064	1.074	1.074	1.094	1.079	1.079
0.000	0.000	-0.005	0.000	-0.020	-0.015	0.034	1.733	1.055	1.064	1.069	1.089	1.074	1.074
0.005	0.000	0.000	0.000	0.015	0.000	0.034	1.782	1.055	1.055	1.064	1.084	1.084	1.084
-0.010	0.000	0.005	0.000	0.029	0.020	0.029	1.753	1.055	1.055	1.060	1.084	1.089	1.089
-0.029	-0.005	0.000	0.010	0.024	0.010	0.034	1.733	1.050	1.050	1.055	1.079	1.079	1.084
-0.029	0.005	0.000	0.000	0.010	-0.010	0.029	1.772	1.055	1.055	1.055	1.074	1.074	1.074
-0.024	0.000	-0.005	-0.005	0.000	-0.015	0.029	1.772	1.069	1.060	1.055	1.079	1.074	1.074
-0.020	0.005	0.000	0.000	-0.005	0.005	0.029	1.748	1.074	1.064	1.060	1.084	1.079	1.084
-0.015	0.010	0.000	0.000	0.000	0.010	0.034	1.753	1.079	1.079	1.069	1.084	1.084	1.084
-0.005	0.020	0.005	0.000	-0.010	0.010	0.034	1.772	1.089	1.084	1.074	1.089	1.079	1.089
-0.010	0.020	0.005	0.000	-0.005	0.015	0.029	1.758	1.094	1.089	1.079	1.094	1.089	1.089
0.010	0.005	0.000	0.000	0.000	0.010	0.034	1.724	1.094	1.089	1.084	1.099	1.094	1.089
0.000	0.010	0.000	0.000	-0.015	-0.010	0.034	1.777	1.094	1.094	1.089	1.099	1.089	1.084
-0.005	0.005	0.000	0.000	-0.020	-0.015	0.029	1.782	1.084	1.084	1.084	1.099	1.089	1.084
0.005	0.005	0.005	0.005	-0.010	-0.005	0.034	1.758	1.079	1.084	1.084	1.099	1.094	1.089
0.000	-0.010	0.000	0.000	0.000	-0.020	0.034	1.763	1.074	1.074	1.079	1.094	1.094	1.079
0.000	0.000	0.000	-0.005	0.000	0.015	0.034	1.782	1.074	1.074	1.074	1.089	1.094	1.094
0.010	-0.010	-0.005	0.000	0.000	0.010	0.029	1.729	1.064	1.064	1.069	1.089	1.089	1.089
0.015	-0.010	-0.005	0.000	0.015	-0.005	0.029	1.733	1.064	1.060	1.064	1.084	1.084	1.079
0.005	-0.005	-0.005	0.000	0.000	0.005	0.029	1.758	1.060	1.055	1.055	1.079	1.079	1.079
0.010	-0.015	0.000	0.000	-0.005	-0.005	0.034	1.743	1.060	1.055	1.055	1.079	1.074	1.074
0.010	0.005	0.000	0.000	-0.005	0.005	0.029	1.792	1.064	1.060	1.055	1.074	1.074	1.079
-0.005	0.000	0.000	0.000	0.000	0.000	0.034	1.772	1.069	1.064	1.060	1.079	1.074	1.074
0.005	0.000	0.000	0.005	0.005	0.005	0.034	1.738	1.069	1.069	1.064	1.079	1.079	1.079
0.010	-0.005	-0.005	0.000	0.010	-0.024	0.034	1.787	1.084	1.069	1.069	1.084	1.084	1.074
-0.005	-0.010	-0.005	0.000	-0.005	-0.020	0.034	1.797	1.089	1.074	1.074	1.089	1.079	1.079
0.010	0.000	-0.005	-0.005	-0.010	0.005	0.029	1.743	1.089	1.084	1.074	1.089	1.084	1.089
0.015	-0.005	-0.005	-0.005	-0.020	-0.005	0.029	1.738	1.094	1.089	1.079	1.094	1.084	1.079
0.010	-0.015	-0.005	0.000	-0.010	-0.020	0.034	1.777	1.089	1.089	1.084	1.099	1.089	1.084
0.000	-0.005	0.000	0.000	-0.020	0.000	0.029	1.777	1.089	1.089	1.089	1.099	1.089	1.089
-0.005	-0.005	0.005	0.000	-0.005	0.020	0.034	1.743	1.074	1.089	1.089	1.099	1.094	1.094
-0.005	0.000	-0.005	0.000	0.005	0.020	0.034	1.777	1.074	1.084	1.084	1.099	1.099	1.094
0.005	0.000	0.000	0.000	0.005	0.005	0.034	1.763	1.069	1.079	1.079	1.094	1.094	1.084
-0.010	0.000	0.000	-0.005	0.010	0.010	0.029	1.797	1.069	1.069	1.074	1.094	1.094	1.089
-0.005	0.000	-0.005	-0.005	0.005	0.010	0.034	1.753	1.064	1.064	1.069	1.084	1.084	1.084
-0.010	-0.005	-0.005	0.000	-0.005	-0.005	0.034	1.719	1.055	1.060	1.064	1.084	1.079	1.074
-0.010	-0.005	0.000	-0.005	0.005	0.010	0.034	1.743	1.055	1.055	1.060	1.079	1.079	1.079
-0.005	0.005	0.005	0.000	0.000	0.000	0.034	1.758	1.055	1.055	1.060	1.079	1.074	1.079
0.000	-0.005	0.000	0.000	0.000	0.005	0.034	1.753	1.064	1.050	1.055	1.074	1.074	1.074
0.000	0.005	0.005	0.000	0.005	-0.020	0.034	1.792	1.069	1.060	1.060	1.079	1.079	1.074
-0.010	0.010	0.000	0.000	0.000	-0.029	0.034	1.782	1.074	1.069	1.064	1.084	1.079	1.069
-0.010	0.000	0.000	-0.005	0.005	0.000	0.034	1.772	1.084	1.069	1.069	1.084	1.079	1.089
-0.005	-0.005	0.000	0.000	0.000	-0.020	0.034	1.787	1.084	1.079	1.074	1.089	1.084	1.079
0.000	-0.005	0.000	0.005	0.005	0.020	0.034	1.729	1.089	1.084	1.074	1.094	1.089	1.094
-0.010	-0.005	0.000	0.000	0.000	-0.015	0.034	1.777	1.094	1.084	1.084	1.094	1.089	1.089
-0.010	-0.005	0.000	0.000	-0.005	-0.005	0.034	1.777	1.099	1.089	1.084	1.099	1.089	1.089
0.000	-0.005	-0.005	0.000	-0.005	0.024	0.029	1.743	1.094	1.094	1.084	1.099	1.094	1.094
-0.010	-0.005	-0.005	0.000	-0.005	0.020	0.029	1.748	1.084	1.089	1.084	1.099	1.089	1.094
0.000	0.005	0.000	0.000	-0.005	0.020	0.034	1.777	1.084	1.084	1.084	1.099	1.089	1.089
-0.005	0.005	0.005	0.000	-0.005	0.010	0.034	1.729	1.074	1.079	1.079	1.094	1.089	1.084
0.015	0.000	-0.005	0.000	-0.005	0.000	0.034	1.738	1.069	1.069	1.074	1.089	1.084	1.079
0.000	0.005	0.000	0.005	0.000	-0.024	0.034	1.772	1.055	1.064	1.064	1.089	1.084	1.069
0.000	-0.005	0.000	0.000	-0.005	0.005	0.034	1.733	1.055	1.060	1.060	1.084	1.079	1.074
0.000	-0.010	-0.005	-0.005	-0.005	0.000	0.034	1.782	1.060	1.055	1.060	1.079	1.079	1.079
-0.005	0.005	0.000	-0.005	0.005	0.000	0.034	1.748	1.055	1.055	1.060	1.079	1.079	1.079
0.005	-0.005	0.000	0.000	0.005	-0.024	0.034	1.753	1.060	1.055	1.055	1.079	1.079	1.069
0.000	-0.005	0.000	-0.005	0.005	0.005	0.034	1.777	1.074	1.060	1.060	1.079	1.079	1.084
0.000	-0.010	0.000	0.000	0.000	-0.005	0.034	1.763	1.079	1.069	1.064	1.084	1.084	1.079
-0.005	0.005	0.005	0.000	0.015	0.015	0.034	1.729	1.074	1.079	1.074	1.089	1.089	1.089
-0.005	0.000	-0.005	0.000	0.000	0.024	0.034	1.782	1.084	1.079	1.079	1.094	1.089	1.094
-0.005	0.000	0.000	0.005	-0.005	-0.015	0.034	1.753	1.089	1.089	1.079	1.099	1.089	1.084
-0.005	0.000	0.000	0.005	-0.005	-0.020	0.034	1.743	1.089	1.089	1.089	1.099	1.089	1.084
-0.010	0.005	0.000	0.000	-0.010	-0.005	0.034	1.782	1.094	1.089	1.084	1.099	1.089	1.089
0.000	-0.005	-0.005	0.000	-0.039	-0.020	0.034	1.768	1.084	1.089	1.084	1.099	1.084	1.084
0.000	0.010	-0.005	0.000	-0.024	-0.024	0.034	1.753	1.079	1.084	1.079	1.099	1.089	1.084
0.000	0.000	-0.005	0.000	0.005	0.015	0.034	1.782	1.074	1.074	1.079	1.094	1.099	1.094
0.000	-0.005	0.005	0.000	0.034	0.010	0.029	1.748	1.069	1.069	1.074	1.094	1.099	1.089
0.000	-0.005	0.000	0.000	0.029	0.020	0.034	1.753	1.064	1.064	1.064	1.089	1.089	1.089
0.010	0.005	0.000	0.000	-0.005	0.005	0.034	1.792	1.045	1.060	1.060	1.079	1.074	1.079
0.010	0.005	0.000	0.000	0.000	0.024	0.029	1.724	1.045	1.050	1.060	1.079	1.074	1.084
-0.005	-0.010	-0.005	-0.005	0.000	0.010	0.034	1.748	1.050	1.050	1.055	1.074	1.074	1.074
-0.005	-0.010	0.000	-0.005	-0.020	0.015	0.034	1.777	1.055	1.045	1.055	1.074	1.064	1.069
0.005	-0.005	0.000	-0.005	-0.029	0.010	0.034	1.768	1.064	1.055	1.055	1.074	1.064	1.069
0.000	-0.005	0.000	-0.005	-0.005	-0.015	0.034	1.753	1.069	1.064	1.055	1.074	1.074	1.064
-0.005	-0.005	0.000	-0.005	-0.010	-0.029	0.034	1.787	1.074	1.069	1.060	1.079	1.074	1.064
-0.005	-0.005	-0.005	0.000	-0.029	-0.034	0.034	1.763	1.074	1.074	1.064	1.084	1.074	1.069
-0.005	-0.005	0.000	-0.005	-0.020	-0.020	0.029	1.772	1.084	1.079	1.074	1.089	1.084	1.079
0.000	-0.005	0.000	-0.005	0.020	0.010	0.034	1.738	1.089	1.089	1.079	1.094	1.099	1.094
-0.005	-0.015	0.000	-0.005	0.068	0.010	0.034	1.748	1.074	1.079	1.079	1.094	1.108	1.099
-0.005	-0.015	-0.005	-0.005	0.034	0.015	0.034	1.729	1.079	1.079	1.074	1.094	1.094	1.094
0.000	-0.010	0.000	-0.005	0.000	0.010	0.034	1.738	1.079	1.079	1.079	1.094	1.084	1.089
0.020	-0.010	-0.005	-0.005	0.015	0.010	0.034	1.758	1.079	1.074	1.074	1.094	1.084	1.094
0.015	-0.005	0.000	-0.005	0.005	0.000	0.034	1.753	1.074	1.074	1.074	1.089	1.084	1.084
0.034	-0.005	0.000	0.000	0.000	-0.010	0.029	1.758	1.079	1.069	1.069	1.084	1.079	1.074
0.034	0.005	0.000	-0.005	0.000	0.015	0.029	1.777	1.069	1.069	1.064	1.084	1.079	1.079
0.015	0.000	0.000	-0.005	-0.010	0.015	0.034	1.768	1.060	1.060	1.060	1.079	1.069	1.074
-0.024	0.005	0.000	0.000	-0.010	-0.005	0.029	1.787	1.050	1.055	1.060	1.079	1.074	1.069
-0.029	-0.005	-0.005	0.000	0.005	-0.005	0.034	1.729	1.040	1.045	1.050	1.074	1.074	1.064
-0.034	0.000	0.000	0.000	0.005	-0.005	0.034	1.772	1.050	1.050	1.055	1.074	1.074	1.074
-0.044	0.000	-0.005	0.005	0.000	0.000	0.034	1.763	1.060	1.055	1.055	1.074	1.074	1.069
-0.034	0.000	0.000	0.000	0.005	0.000	0.034	1.719	1.064	1.060	1.060	1.079	1.074	1.079
-0.029	0.015	0.000	0.000	0.010	0.000	0.034	1.782	1.079	1.069	1.064	1.084	1.079	1.079
-0.015	0.005	0.000	0.010	0.005	0.000	0.039	1.748	1.079	1.074	1.069	1.089	1.084	1.079
0.010	0.000	-0.005	0.005	0.024	-0.015	0.034	1.753	1.089	1.084	1.074	1.094	1.089	1.084
-0.005	0.000	0.000	0.000	0.015	-0.029	0.034	1.782	1.094	1.084	1.079	1.094	1.089	1.084
0.015	0.015	0.000	0.005	0.015	-0.010	0.034	1.748	1.094	1.094	1.084	1.094	1.089	1.089
0.005	0.015	-0.005	0.000	0.010	-0.005	0.034	1.782	1.089	1.089	1.084	1.099	1.089	1.089
0.015	0.000	0.000	0.000	-0.010	-0.010	0.034	1.753	1.084	1.084	1.084	1.094	1.084	1.079
0.010	0.005	0.000	0.000	0.005	-0.005	0.034	1.768	1.079	1.079	1.079	1.094	1.089	1.089
0.000	0.005	0.000	0.000	0.015	0.000	0.034	1.772	1.074	1.069	1.074	1.094	1.089	1.084
0.005	0.005	0.000	0.000	-0.005	-0.010	0.034	1.758	1.069	1.069	1.069	1.089	1.084	1.079
0.010	-0.005	-0.005	0.000	-0.005	-0.024	0.029	1.777	1.064	1.060	1.060	1.084	1.074	1.074
0.000	-0.010	0.000	-0.005	-0.020	-0.015	0.034	1.782	1.064	1.055	1.060	1.079	1.074	1.069
-0.010	-0.005	0.000	0.000	-0.020	-0.010	0.034	1.768	1.060	1.055	1.055	1.074	1.069	1.069
0.005	-0.005	0.000	0.000	-0.029	0.000	0.034	1.763	1.084	1.060	1.055	1.074	1.064	1.069
-0.005	0.000	0.000	0.005	-0.020	0.010	0.034	1.753	1.079	1.069	1.060	1.079	1.069	1.074
0.005	-0.010	-0.005	0.000	0.005	-0.005	0.034	1.748	1.084	1.074	1.064	1.084	1.084	1.069
-0.005	-0.005	0.000	0.000	0.010	-0.015	0.034	1.797	1.084	1.079	1.074	1.084	1.084	1.079
0.005	-0.005	0.000	0.000	0.010	0.000	0.029	1.763	1.084	1.084	1.074	1.089	1.089	1.084
0.000	0.000	0.000	0.000	0.010	0.015	0.034	1.763	1.089	1.089	1.084	1.094	1.089	1.094
-0.010	0.000	0.000	0.000	-0.005	-0.010	0.034	1.777	1.094	1.094	1.089	1.104	1.089	1.089
-0.005	-0.015	0.000	0.000	-0.010	0.015	0.029	1.704	1.084	1.089	1.089	1.104	1.094	1.094
0.000	-0.005	0.000	0.000	-0.010	0.020	0.034	1.777	1.089	1.089	1.089	1.104	1.094	1.094
0.010	0.005	0.005	0.005	-0.015	0.015	0.034	1.729	1.089	1.094	1.089	1.104	1.094	1.094
0.015	-0.005	0.000	-0.005	-0.010	0.005	0.034	1.792	1.089	1.089	1.089	1.104	1.094	1.089
0.015	0.005	0.000	-0.005	-0.015	-0.034	0.034	1.729	1.079	1.084	1.084	1.099	1.089	1.079
0.000	0.000	0.000	-0.005	-0.015	-0.015	0.034	1.748	1.064	1.074	1.079	1.099	1.089	1.084
0.005	0.000	0.000	-0.005	-0.020	0.005	0.034	1.738	1.055	1.064	1.069	1.089	1.084	1.089
0.010	-0.020	0.000	0.000	-0.005	0.010	0.034	1.655	1.055	1.055	1.060	1.089	1.089	1.089
-0.005	-0.010	0.000	0.000	-0.010	0.005	0.034	1.787	1.055	1.050	1.055	1.084	1.079	1.079
-0.010	-0.005	0.000	0.000	-0.015	-0.005	0.034	1.704	1.050	1.050	1.055	1.079	1.079	1.074
-0.015	0.000	0.000	-0.005	-0.015	-0.010	0.034	1.758	1.055	1.055	1.055	1.079	1.079	1.074
-0.020	0.010	0.000	0.005	-0.005	-0.039	0.034	1.777	1.064	1.060	1.055	1.079	1.079	1.069
-0.020	0.005	0.000	0.000	0.015	-0.010	0.034	1.748	1.069	1.064	1.060	1.079	1.089	1.084
-0.015	-0.005	-0.005	0.000	0.000	0.015	0.029	1.743	1.074	1.069	1.060	1.084	1.079	1.089
-0.020	0.005	-0.005	0.000	-0.005	0.020	0.034	1.782	1.084	1.074	1.069	1.089	1.079	1.089
-0.020	0.005	0.000	0.000	-0.010	0.000	0.034	1.748	1.089	1.084	1.074	1.089	1.084	1.084
0.000	0.010	-0.005	0.005	0.020	0.000	0.034	1.763	1.094	1.089	1.084	1.094	1.094	1.094
-0.010	0.005	0.005	0.000	0.015	-0.005	0.034	1.787	1.094	1.094	1.084	1.099	1.094	1.089
-0.005	0.005	0.000	0.000	0.010	0.005	0.034	1.768	1.094	1.089	1.084	1.099	1.094	1.094
0.005	0.010	0.000	0.000	0.005	0.005	0.034	1.768	1.094	1.089	1.089	1.099	1.094	1.094
0.000	0.005	0.000	0.000	0.000	-0.010	0.034	1.763	1.089	1.089	1.084	1.099	1.089	1.084
0.000	-0.005	-0.005	0.000	-0.005	0.010	0.034	1.768	1.074	1.074	1.079	1.094	1.089	1.089
0.005	-0.020	-0.005	-0.005	-0.005	0.005	0.029	1.797	1.074	1.064	1.074	1.094	1.084	1.084
0.020	-0.015	0.000	0.000	0.005	0.010	0.034	1.724	1.069	1.064	1.069	1.089	1.084	1.084
0.015	-0.010	0.000	-0.005	0.015	-0.010	0.034	1.772	1.064	1.060	1.064	1.089	1.084	1.074
0.020	-0.005	-0.005	0.000	0.000	0.000	0.029	1.797	1.064	1.064	1.060	1.084	1.079	1.079
0.005	-0.010	-0.005	0.000	-0.020	0.015	0.034	1.768	1.060	1.060	1.060	1.079	1.074	1.074
