-0.005	0.005	0.000	0.000	0.005	0.024	0.044	2.734	2.393	2.085	2.007	1.938	1.934	1.943
0.000	0.015	0.005	0.000	0.005	0.024	0.044	2.695	2.280	2.148	2.046	1.978	1.943	1.943
-0.005	0.005	0.000	0.000	0.000	0.005	0.044	2.646	2.183	2.158	2.080	2.007	1.958	1.948
-0.005	0.020	0.000	0.000	0.000	0.010	0.044	2.744	2.124	2.148	2.100	2.036	1.978	1.953
0.000	0.015	0.005	0.000	0.005	-0.005	0.044	2.651	2.065	2.129	2.109	2.056	1.997	1.963
0.000	0.010	0.000	0.000	0.005	-0.020	0.044	2.759	2.036	2.100	2.100	2.075	2.017	1.968
0.005	0.005	0.005	0.000	0.000	-0.005	0.049	2.739	2.012	2.070	2.090	2.080	2.031	1.987
0.000	0.000	-0.005	0.000	0.005	-0.015	0.049	2.720	1.982	2.046	2.075	2.085	2.041	2.002
0.000	0.000	0.000	-0.005	0.005	0.010	0.044	2.651	1.963	2.017	2.061	2.080	2.046	2.017
0.000	-0.005	0.000	0.000	0.005	-0.020	0.039	2.715	1.958	1.992	2.036	2.075	2.051	2.017
0.000	-0.005	-0.005	0.000	-0.005	0.005	0.044	2.661	1.948	1.978	2.021	2.061	2.051	2.031
0.010	-0.010	0.000	0.005	0.000	0.005	0.044	2.705	1.953	1.973	2.007	2.051	2.051	2.036
0.005	-0.010	0.000	0.005	0.000	-0.015	0.044	2.661	1.953	1.968	1.997	2.041	2.046	2.031
0.005	-0.010	0.000	0.000	0.005	0.005	0.044	2.681	1.958	1.973	1.992	2.036	2.046	2.046
0.005	0.005	0.005	0.005	0.005	0.020	0.049	2.695	1.968	1.973	1.987	2.031	2.046	2.046
0.005	-0.005	0.000	0.000	0.005	0.020	0.044	2.705	1.973	1.978	1.982	2.021	2.036	2.046
0.010	0.000	0.000	-0.005	0.000	0.020	0.044	2.700	1.982	1.982	1.987	2.021	2.036	2.046
0.010	0.005	0.000	0.000	0.005	0.015	0.044	2.695	1.987	1.987	1.992	2.021	2.031	2.046
-0.005	0.000	0.000	-0.005	0.000	0.010	0.044	2.690	1.987	1.992	1.992	2.017	2.031	2.041
0.000	0.010	0.005	0.000	0.005	0.005	0.044	2.676	1.982	1.987	1.992	2.017	2.026	2.036
0.005	0.005	0.000	0.000	0.005	0.005	0.044	2.700	1.982	1.987	1.987	2.017	2.021	2.031
-0.005	-0.005	0.005	0.000	0.000	0.005	0.044	2.671	1.978	1.982	1.987	2.012	2.012	2.026
0.005	0.005	0.005	0.000	0.005	-0.029	0.044	2.715	1.973	1.978	1.978	2.007	2.007	2.012
0.000	0.000	0.000	0.000	0.005	-0.024	0.044	2.705	1.968	1.973	1.973	1.997	2.002	2.007
0.005	0.010	0.000	0.000	0.005	-0.010	0.049	2.695	1.963	1.963	1.968	1.992	1.997	2.007
-0.005	0.000	0.000	0.005	-0.005	0.005	0.044	2.661	1.948	1.953	1.963	1.987	1.987	2.002
0.005	0.005	0.005	0.000	0.000	-0.005	0.044	2.695	1.948	1.953	1.958	1.978	1.987	1.997
0.010	-0.005	0.005	0.005	0.005	-0.005	0.044	2.671	1.948	1.948	1.953	1.978	1.982	1.992
0.000	0.010	0.000	0.005	0.000	0.010	0.044	2.710	1.953	1.948	1.948	1.973	1.978	1.987
-0.005	0.000	0.005	0.005	0.000	0.005	0.044	2.700	1.953	1.953	1.953	1.973	1.973	1.982
0.005	0.005	0.000	0.005	0.005	0.005	0.044	2.666	1.958	1.953	1.953	1.978	1.978	1.987
0.000	0.005	0.000	0.010	0.000	0.010	0.044	2.700	1.963	1.958	1.958	1.978	1.978	1.987
0.010	0.000	0.000	0.010	0.005	0.000	0.044	2.705	1.973	1.963	1.963	1.978	1.978	1.982
0.005	0.005	0.000	0.000	0.005	0.015	0.044	2.676	1.973	1.968	1.968	1.982	1.982	1.987
0.005	-0.005	0.000	0.000	0.010	0.000	0.049	2.686	1.973	1.968	1.968	1.987	1.982	1.987
0.015	0.000	0.000	-0.005	0.005	0.010	0.049	2.808	1.987	1.978	1.973	1.992	1.982	1.992
-0.005	-0.005	0.000	0.000	0.000	0.005	0.039	2.793	1.987	1.978	1.973	1.987	1.987	1.982
-0.005	0.005	0.000	0.000	0.005	0.000	0.044	2.661	1.978	1.978	1.973	1.987	1.987	1.982
0.000	0.010	0.000	0.000	0.000	0.005	0.044	2.788	1.982	1.978	1.973	1.987	1.982	1.982
0.000	0.005	0.005	0.000	0.005	0.000	0.044	2.646	1.958	1.968	1.968	1.987	1.982	1.982
0.005	0.000	0.000	0.005	-0.005	-0.005	0.044	2.720	1.958	1.963	1.963	1.982	1.978	1.973
-0.005	0.000	0.000	0.000	0.000	-0.015	0.044	2.710	1.953	1.958	1.963	1.982	1.973	1.973
0.000	0.010	0.005	0.005	0.000	-0.005	0.049	2.749	1.948	1.953	1.953	1.978	1.973	1.973
0.010	0.005	0.000	0.005	0.005	-0.015	0.044	2.720	1.948	1.948	1.948	1.973	1.973	1.968
0.005	0.005	0.000	0.005	0.000	-0.015	0.044	2.632	1.943	1.943	1.948	1.968	1.968	1.968
0.005	0.005	0.005	0.005	0.000	0.010	0.044	2.759	1.948	1.943	1.948	1.968	1.968	1.973
0.005	-0.010	0.005	0.005	0.000	-0.020	0.044	2.666	1.943	1.943	1.948	1.968	1.968	1.968
0.005	-0.005	0.005	0.005	0.000	0.020	0.044	2.671	1.943	1.943	1.948	1.973	1.973	1.978
0.000	0.000	0.005	0.005	0.010	-0.015	0.044	2.690	1.943	1.948	1.948	1.973	1.968	1.968
0.000	-0.010	0.000	0.010	0.005	0.005	0.044	2.617	1.943	1.948	1.953	1.973	1.973	1.978
-0.010	-0.005	0.000	0.000	0.000	0.015	0.044	2.671	1.943	1.948	1.953	1.973	1.973	1.978
0.000	0.000	-0.005	0.000	0.005	0.020	0.044	2.720	1.958	1.953	1.953	1.978	1.978	1.982
-0.005	0.005	0.005	0.000	0.005	-0.010	0.044	2.700	1.958	1.958	1.958	1.978	1.973	1.968
-0.005	0.000	0.010	0.000	0.005	0.005	0.044	2.676	1.963	1.958	1.958	1.978	1.973	1.978
0.000	0.005	0.000	0.000	0.000	0.010	0.044	2.700	1.963	1.958	1.953	1.978	1.973	1.978
0.000	-0.005	0.005	0.000	0.005	0.005	0.044	2.700	1.953	1.953	1.953	1.973	1.973	1.973
-0.005	-0.005	0.000	0.005	-0.005	-0.024	0.044	2.666	1.938	1.943	1.948	1.968	1.963	1.963
0.000	-0.010	-0.005	0.005	-0.005	0.000	0.049	2.700	1.934	1.938	1.938	1.963	1.958	1.963
0.000	-0.005	0.000	0.005	-0.005	-0.005	0.044	2.695	1.924	1.929	1.934	1.958	1.958	1.958
0.005	0.010	0.000	0.005	0.000	-0.020	0.044	2.666	1.919	1.924	1.929	1.948	1.948	1.948
0.000	0.000	0.005	0.000	0.005	0.010	0.044	2.661	1.919	1.924	1.929	1.948	1.948	1.958
0.015	0.000	0.000	0.000	0.010	0.010	0.044	2.700	1.924	1.924	1.924	1.948	1.948	1.953
0.000	-0.010	-0.005	0.000	0.005	0.010	0.044	2.705	1.924	1.919	1.919	1.943	1.948	1.953
0.005	-0.005	0.000	0.000	0.000	0.010	0.044	2.676	1.934	1.924	1.924	1.948	1.943	1.953
0.005	-0.010	0.005	0.000	0.000	0.010	0.044	2.720	1.938	1.934	1.929	1.948	1.943	1.953
0.005	0.000	-0.005	0.005	0.000	0.005	0.039	2.705	1.943	1.938	1.934	1.953	1.948	1.948
0.005	0.000	0.000	0.000	0.000	0.005	0.044	2.710	1.948	1.943	1.938	1.953	1.948	1.953
-0.005	0.005	0.000	0.000	0.000	0.010	0.044	2.710	1.953	1.948	1.943	1.958	1.953	1.953
0.005	-0.005	0.000	0.000	0.000	0.010	0.044	2.715	1.958	1.953	1.948	1.963	1.958	1.958
0.005	0.000	0.005	-0.005	0.005	0.005	0.044	2.705	1.958	1.953	1.953	1.968	1.963	1.958
-0.005	0.005	0.000	0.000	0.000	-0.005	0.044	2.676	1.948	1.953	1.948	1.968	1.958	1.958
0.000	0.005	0.000	0.000	0.005	-0.005	0.044	2.705	1.943	1.948	1.943	1.963	1.958	1.953
0.000	0.000	-0.005	0.000	0.000	0.000	0.044	2.710	1.938	1.938	1.938	1.963	1.953	1.953
-0.005	0.005	0.000	0.000	0.000	0.000	0.044	2.686	1.929	1.934	1.938	1.958	1.948	1.953
-0.005	0.005	0.005	0.005	0.000	0.005	0.044	2.690	1.924	1.929	1.934	1.958	1.948	1.948
0.000	0.000	0.005	0.000	0.000	-0.005	0.044	2.803	1.934	1.924	1.929	1.953	1.943	1.943
-0.005	0.000	0.000	0.000	0.005	-0.005	0.044	2.642	1.929	1.924	1.924	1.943	1.943	1.943
0.005	0.000	0.005	0.005	0.005	0.000	0.044	2.651	1.919	1.919	1.919	1.943	1.938	1.943
0.000	-0.010	0.005	0.005	0.000	0.000	0.044	2.788	1.934	1.919	1.919	1.938	1.938	1.938
0.010	0.000	0.000	0.005	0.000	0.000	0.044	2.637	1.924	1.924	1.919	1.938	1.938	1.943
0.005	0.005	0.000	0.000	0.000	0.015	0.044	2.646	1.934	1.929	1.919	1.943	1.938	1.943
-0.005	0.005	0.005	0.005	0.005	0.020	0.044	2.681	1.934	1.934	1.929	1.943	1.943	1.953
-0.005	0.005	0.005	0.005	0.000	0.015	0.044	2.749	1.943	1.943	1.934	1.948	1.943	1.948
0.015	0.010	0.005	0.005	0.005	0.015	0.044	2.690	1.948	1.943	1.938	1.953	1.948	1.948
0.005	0.000	0.005	0.000	0.000	0.015	0.044	2.715	1.943	1.948	1.943	1.958	1.953	1.953
0.000	-0.010	0.000	0.000	0.000	-0.005	0.044	2.676	1.953	1.948	1.948	1.963	1.953	1.948
0.005	-0.005	0.000	0.000	0.005	0.010	0.044	2.739	1.953	1.953	1.948	1.963	1.958	1.958
0.000	-0.010	0.000	0.000	0.005	-0.015	0.044	2.725	1.948	1.948	1.948	1.963	1.958	1.948
0.005	-0.010	0.000	0.005	0.000	0.005	0.044	2.681	1.934	1.943	1.943	1.958	1.953	1.953
0.000	0.015	0.005	0.000	0.005	0.000	0.049	2.627	1.924	1.938	1.943	1.958	1.953	1.948
-0.005	0.005	-0.005	0.000	0.005	-0.039	0.044	2.700	1.919	1.929	1.929	1.953	1.943	1.934
-0.005	0.015	-0.005	0.000	0.000	0.000	0.044	2.612	1.904	1.919	1.924	1.948	1.943	1.948
-0.005	0.024	0.000	0.005	0.005	0.010	0.044	2.700	1.899	1.909	1.919	1.943	1.943	1.943
-0.005	0.020	0.000	0.000	0.000	0.005	0.044	2.681	1.904	1.904	1.914	1.938	1.938	1.938
-0.005	0.015	0.005	0.000	0.005	0.005	0.049	2.700	1.909	1.904	1.909	1.934	1.934	1.938
0.005	0.005	0.000	0.005	0.000	-0.005	0.044	2.705	1.909	1.904	1.909	1.934	1.934	1.934
0.005	0.005	0.000	0.000	0.005	0.005	0.044	2.686	1.914	1.909	1.909	1.934	1.934	1.938
0.005	0.000	0.010	0.000	0.000	0.010	0.044	2.705	1.924	1.914	1.909	1.934	1.934	1.943
0.010	0.000	0.005	0.000	-0.005	-0.020	0.044	2.705	1.934	1.924	1.919	1.934	1.934	1.934
0.005	0.005	0.005	0.000	0.005	0.015	0.044	2.686	1.929	1.929	1.924	1.938	1.938	1.938
0.010	0.000	0.000	0.005	-0.005	0.000	0.044	2.686	1.929	1.929	1.929	1.943	1.938	1.943
0.000	0.000	0.000	0.000	-0.005	0.020	0.039	2.681	1.934	1.934	1.934	1.943	1.943	1.948
0.000	-0.005	0.000	0.000	0.000	0.020	0.044	2.710	1.934	1.929	1.934	1.948	1.943	1.948
0.000	0.000	-0.005	0.005	0.000	0.015	0.044	2.671	1.929	1.929	1.929	1.948	1.943	1.948
0.005	0.000	0.000	0.000	0.005	0.005	0.044	2.686	1.924	1.929	1.929	1.948	1.943	1.943
0.000	0.000	0.005	0.000	0.005	0.005	0.044	2.705	1.924	1.924	1.924	1.948	1.938	1.938
-0.005	0.000	0.000	-0.005	-0.005	0.000	0.044	2.686	1.914	1.919	1.919	1.943	1.938	1.938
0.005	0.005	0.000	0.000	0.000	-0.010	0.044	2.700	1.914	1.919	1.914	1.934	1.934	1.929
0.000	0.015	0.000	0.000	-0.005	-0.005	0.049	2.705	1.909	1.909	1.909	1.929	1.929	1.929
0.000	-0.020	0.005	0.000	0.000	-0.020	0.044	2.695	1.904	1.895	1.899	1.924	1.924	1.919
0.005	-0.020	0.000	0.005	0.000	-0.005	0.044	2.661	1.899	1.899	1.895	1.924	1.924	1.924
-0.005	-0.010	0.000	0.005	0.005	0.000	0.044	2.705	1.904	1.899	1.899	1.919	1.919	1.924
0.015	0.000	0.005	0.000	0.000	0.000	0.044	2.715	1.914	1.904	1.899	1.919	1.919	1.924
-0.005	0.000	0.005	0.005	0.000	0.015	0.044	2.681	1.909	1.909	1.904	1.924	1.924	1.929
0.005	0.000	0.005	0.005	0.000	0.015	0.044	2.676	1.919	1.914	1.909	1.924	1.924	1.934
-0.010	0.005	0.000	0.000	0.005	0.015	0.044	2.812	1.934	1.924	1.914	1.929	1.924	1.929
0.000	0.005	0.000	0.005	0.005	0.005	0.044	2.651	1.934	1.929	1.924	1.934	1.929	1.929
0.005	0.015	-0.005	0.000	-0.005	-0.005	0.044	2.646	1.924	1.934	1.929	1.938	1.929	1.929
0.005	0.005	0.000	0.000	0.005	0.010	0.044	2.788	1.943	1.938	1.929	1.943	1.934	1.938
0.000	0.005	0.000	0.000	0.005	0.000	0.044	2.651	1.934	1.938	1.934	1.948	1.938	1.934
0.015	0.000	-0.005	0.005	-0.005	0.005	0.044	2.729	1.934	1.929	1.929	1.948	1.938	1.938
0.010	0.015	0.000	0.000	0.005	0.005	0.044	2.705	1.924	1.929	1.929	1.943	1.938	1.934
0.015	0.015	0.000	0.000	0.000	0.005	0.044	2.661	1.919	1.924	1.924	1.943	1.938	1.934
0.000	0.005	0.000	0.005	0.000	-0.005	0.044	2.676	1.909	1.914	1.919	1.938	1.934	1.929
0.000	0.005	0.000	0.005	-0.005	0.005	0.044	2.705	1.899	1.904	1.909	1.934	1.929	1.934
0.000	0.000	-0.005	-0.005	-0.005	-0.015	0.044	2.661	1.899	1.899	1.904	1.929	1.924	1.919
0.005	0.005	0.000	0.000	-0.005	0.005	0.044	2.749	1.904	1.899	1.904	1.924	1.924	1.924
0.005	0.005	0.005	0.000	-0.005	0.005	0.049	2.651	1.899	1.899	1.899	1.924	1.919	1.924
0.010	0.005	0.000	-0.005	0.000	0.010	0.044	2.686	1.899	1.895	1.899	1.919	1.919	1.919
0.005	0.005	0.000	0.000	-0.005	-0.010	0.049	2.656	1.899	1.899	1.895	1.919	1.914	1.914
-0.005	0.010	0.005	0.000	-0.005	0.010	0.044	2.666	1.899	1.904	1.899	1.924	1.919	1.924
0.000	0.005	0.000	0.000	0.005	0.020	0.044	2.661	1.909	1.904	1.904	1.924	1.924	1.929
0.010	0.005	0.005	-0.005	0.000	0.020	0.049	2.681	1.919	1.909	1.909	1.929	1.924	1.934
0.010	-0.010	0.005	0.000	0.000	0.024	0.044	2.671	1.919	1.914	1.914	1.934	1.929	1.934
0.005	-0.005	0.005	0.005	-0.005	0.020	0.044	2.710	1.924	1.919	1.914	1.934	1.929	1.934
-0.005	-0.005	0.005	0.005	0.000	0.024	0.044	2.690	1.924	1.919	1.919	1.934	1.934	1.934
0.005	-0.005	0.000	0.000	0.000	0.000	0.044	2.676	1.919	1.919	1.919	1.934	1.929	1.929
0.010	0.000	0.005	0.005	0.005	0.010	0.049	2.695	1.914	1.919	1.919	1.938	1.934	1.934
-0.010	-0.005	0.005	0.000	0.005	-0.005	0.049	2.705	1.914	1.914	1.914	1.934	1.934	1.929
-0.005	0.000	0.000	0.005	0.005	-0.020	0.044	2.695	1.899	1.909	1.909	1.929	1.929	1.919
-0.005	-0.010	0.000	0.010	0.010	-0.010	0.044	2.705	1.899	1.899	1.904	1.924	1.924	1.924
-0.005	-0.005	0.000	0.005	0.020	-0.020	0.044	2.676	1.895	1.895	1.899	1.924	1.924	1.919
-0.005	0.000	0.005	0.005	0.015	-0.020	0.044	2.715	1.895	1.895	1.895	1.914	1.914	1.914
0.000	0.005	0.000	0.005	0.020	-0.010	0.039	2.686	1.895	1.890	1.895	1.914	1.914	1.919
0.000	-0.005	-0.005	0.005	0.024	-0.010	0.044	2.671	1.895	1.885	1.890	1.909	1.914	1.914
-0.015	0.000	0.000	0.005	0.020	-0.005	0.044	2.720	1.895	1.890	1.890	1.909	1.909	1.914
-0.005	0.005	0.000	0.005	0.015	-0.010	0.044	2.690	1.904	1.895	1.895	1.909	1.909	1.914
0.000	-0.005	0.005	0.005	0.020	-0.010	0.044	2.715	1.914	1.899	1.899	1.914	1.914	1.914
0.000	0.005	0.005	0.000	0.024	-0.020	0.044	2.720	1.919	1.914	1.904	1.919	1.914	1.914
-0.005	0.010	0.000	0.000	0.015	0.005	0.044	2.705	1.919	1.914	1.909	1.924	1.914	1.924
-0.005	0.010	0.000	0.000	0.010	0.005	0.044	2.715	1.924	1.919	1.909	1.929	1.919	1.919
0.005	0.005	0.005	0.005	0.010	0.000	0.044	2.720	1.929	1.929	1.919	1.934	1.924	1.924
-0.005	0.000	0.005	0.010	0.005	-0.010	0.049	2.690	1.924	1.929	1.924	1.938	1.929	1.919
0.010	-0.010	-0.005	0.010	0.005	0.000	0.044	2.686	1.924	1.919	1.919	1.938	1.929	1.929
0.000	-0.015	0.005	0.005	0.000	-0.015	0.044	2.690	1.919	1.919	1.919	1.934	1.929	1.919
0.000	-0.005	0.005	0.005	0.005	0.000	0.044	2.793	1.924	1.919	1.914	1.934	1.929	1.924
0.005	-0.010	0.005	0.000	0.000	-0.034	0.044	2.651	1.909	1.914	1.909	1.929	1.919	1.914
0.015	-0.005	0.000	0.000	0.000	-0.010	0.044	2.651	1.899	1.904	1.904	1.924	1.919	1.919
0.005	0.005	0.000	0.005	0.000	0.010	0.044	2.788	1.904	1.899	1.904	1.924	1.919	1.924
0.010	0.015	0.005	0.000	-0.005	0.000	0.044	2.661	1.895	1.899	1.899	1.919	1.914	1.914
0.005	0.020	0.005	0.005	-0.005	0.000	0.049	2.739	1.899	1.899	1.895	1.919	1.909	1.914
0.000	0.015	0.000	0.000	-0.010	0.015	0.044	2.710	1.899	1.895	1.895	1.914	1.909	1.914
0.015	0.005	0.005	0.005	-0.015	0.015	0.039	2.759	1.909	1.899	1.895	1.914	1.909	1.909
0.010	0.000	0.000	0.000	-0.010	0.015	0.044	2.671	1.904	1.899	1.899	1.914	1.909	1.914
0.000	0.000	0.000	0.000	-0.010	0.010	0.044	2.642	1.904	1.904	1.899	1.919	1.914	1.914
0.005	0.000	0.000	0.005	-0.010	0.015	0.049	2.764	1.914	1.914	1.904	1.924	1.919	1.914
0.015	0.000	0.000	0.000	-0.010	0.000	0.044	2.622	1.924	1.914	1.909	1.929	1.924	1.919
0.010	0.000	0.005	0.000	-0.010	0.015	0.044	2.617	1.914	1.919	1.914	1.929	1.924	1.924
0.000	0.005	0.000	-0.005	-0.010	0.024	0.044	2.686	1.914	1.919	1.919	1.934	1.929	1.929
0.010	0.015	0.000	0.000	-0.010	0.015	0.049	2.666	1.914	1.919	1.919	1.934	1.929	1.929
0.010	0.005	0.000	0.000	-0.010	0.010	0.044	2.666	1.909	1.914	1.919	1.938	1.929	1.929
0.000	0.005	0.005	0.000	-0.015	0.010	0.044	2.651	1.904	1.909	1.914	1.934	1.929	1.929
0.000	0.010	0.000	0.000	-0.005	-0.005	0.044	2.666	1.895	1.904	1.904	1.929	1.929	1.924
0.000	0.005	0.000	0.000	0.005	-0.015	0.044	2.671	1.890	1.895	1.904	1.924	1.924	1.914
-0.010	0.010	0.000	0.000	0.000	0.010	0.044	2.705	1.890	1.890	1.895	1.919	1.919	1.919
-0.010	0.005	0.000	0.000	0.005	0.010	0.044	2.671	1.885	1.880	1.890	1.914	1.914	1.914
0.005	0.000	0.000	0.000	0.005	0.005	0.044	2.661	1.885	1.880	1.885	1.909	1.909	1.914
0.000	0.000	0.000	0.005	0.005	0.005	0.044	2.700	1.885	1.875	1.880	1.904	1.909	1.914
0.000	0.000	0.005	0.000	-0.010	-0.029	0.044	2.710	1.895	1.880	1.880	1.904	1.899	1.899
-0.010	-0.005	0.000	0.000	-0.005	-0.029	0.039	2.700	1.895	1.880	1.880	1.899	1.899	1.899
-0.005	0.005	0.000	0.000	-0.005	-0.015	0.039	2.710	1.904	1.895	1.885	1.904	1.899	1.904
0.000	0.005	0.000	0.000	-0.015	0.000	0.044	2.700	1.904	1.899	1.890	1.909	1.899	1.909
0.005	0.010	0.000	0.005	-0.024	0.005	0.044	2.705	1.914	1.909	1.899	1.914	1.909	1.914
-0.010	0.000	0.000	0.000	-0.005	0.010	0.044	2.705	1.914	1.909	1.904	1.919	1.914	1.914
-0.005	-0.020	0.005	0.000	-0.020	0.024	0.044	2.681	1.919	1.909	1.904	1.924	1.914	1.919
0.005	-0.015	0.000	0.000	-0.005	0.029	0.044	2.715	1.924	1.919	1.909	1.929	1.924	1.924
-0.005	-0.010	-0.005	0.000	0.029	0.020	0.044	2.705	1.919	1.914	1.909	1.929	1.934	1.929
-0.005	0.000	-0.005	0.000	0.029	0.020	0.044	2.666	1.914	1.919	1.909	1.929	1.929	1.924
0.000	0.010	0.005	0.000	0.015	0.000	0.044	2.710	1.914	1.919	1.909	1.929	1.919	1.919
0.000	0.010	0.005	0.000	0.000	-0.005	0.049	2.671	1.899	1.909	1.909	1.924	1.914	1.914
0.005	0.015	0.000	0.005	0.015	-0.010	0.044	2.666	1.895	1.904	1.904	1.924	1.919	1.909
-0.005	0.000	0.000	0.000	0.029	-0.010	0.044	2.705	1.890	1.890	1.899	1.919	1.919	1.914
0.000	0.000	0.000	0.000	0.034	-0.010	0.044	2.705	1.890	1.885	1.890	1.914	1.914	1.909
0.010	-0.015	-0.005	0.005	0.029	-0.005	0.044	2.671	1.885	1.875	1.885	1.909	1.909	1.909
0.010	-0.010	0.005	0.000	0.005	0.010	0.044	2.695	1.890	1.885	1.885	1.904	1.899	1.909
0.010	0.000	0.005	0.000	-0.005	0.015	0.044	2.803	1.904	1.890	1.885	1.904	1.895	1.904
0.005	-0.005	0.005	0.000	0.000	0.000	0.044	2.651	1.899	1.895	1.885	1.904	1.899	1.899
-0.005	0.005	0.005	0.000	0.005	0.029	0.044	2.666	1.895	1.899	1.895	1.909	1.904	1.914
0.005	0.010	0.005	0.000	-0.020	0.020	0.044	2.803	1.919	1.909	1.899	1.914	1.899	1.909
-0.010	0.005	0.000	0.000	0.000	0.020	0.044	2.661	1.909	1.909	1.904	1.919	1.914	1.914
-0.005	0.000	0.005	0.000	-0.005	0.000	0.039	2.744	1.919	1.914	1.909	1.924	1.914	1.909
0.005	0.010	0.000	0.000	-0.005	0.005	0.044	2.690	1.924	1.924	1.914	1.924	1.919	1.914
0.010	0.005	0.000	0.005	0.000	0.000	0.044	2.651	1.909	1.919	1.914	1.929	1.919	1.919
-0.005	0.000	0.005	0.005	-0.010	0.005	0.044	2.651	1.914	1.919	1.914	1.929	1.919	1.919
-0.005	0.005	0.000	0.000	-0.010	-0.010	0.044	2.651	1.904	1.914	1.914	1.929	1.924	1.909
0.000	0.010	0.005	-0.005	-0.005	-0.010	0.044	2.749	1.909	1.914	1.914	1.929	1.924	1.909
-0.005	0.005	0.000	0.000	0.000	-0.005	0.044	2.739	1.904	1.904	1.904	1.924	1.924	1.919
0.000	-0.005	0.000	0.000	0.000	0.000	0.044	2.705	1.899	1.895	1.899	1.919	1.919	1.914
0.010	0.005	0.000	0.005	0.015	-0.010	0.044	2.651	1.895	1.895	1.895	1.919	1.914	1.909
0.005	0.029	0.005	0.000	0.020	0.000	0.044	2.759	1.899	1.895	1.890	1.914	1.914	1.914
0.005	0.015	0.000	0.005	0.015	-0.020	0.044	2.695	1.895	1.890	1.890	1.909	1.909	1.909
0.015	0.000	0.005	0.000	0.020	-0.010	0.044	2.622	1.895	1.885	1.890	1.909	1.909	1.909
0.005	0.000	0.000	0.000	0.020	0.015	0.044	2.671	1.895	1.890	1.890	1.909	1.909	1.914
0.005	0.005	0.005	0.000	0.024	0.005	0.044	2.676	1.895	1.895	1.890	1.909	1.909	1.909
0.010	0.005	0.000	0.000	0.000	0.005	0.044	2.710	1.904	1.895	1.895	1.909	1.904	1.909
0.010	0.005	0.000	0.005	-0.010	0.005	0.044	2.710	1.909	1.904	1.899	1.914	1.909	1.914
0.005	0.005	0.000	0.000	-0.024	-0.005	0.044	2.710	1.914	1.909	1.904	1.919	1.909	1.909
0.000	-0.005	0.005	0.000	-0.010	0.005	0.044	2.715	1.919	1.909	1.909	1.924	1.919	1.914
0.010	-0.005	0.005	0.000	0.010	-0.020	0.044	2.715	1.924	1.914	1.914	1.929	1.924	1.909
0.005	-0.005	0.005	0.000	-0.005	0.015	0.044	2.715	1.919	1.919	1.914	1.934	1.924	1.924
0.015	-0.020	0.000	0.000	-0.010	0.010	0.044	2.710	1.919	1.914	1.914	1.934	1.924	1.924
0.000	-0.020	0.005	0.000	0.010	0.005	0.044	2.676	1.909	1.909	1.909	1.929	1.929	1.924
0.000	-0.015	0.005	0.005	0.024	-0.005	0.049	2.715	1.904	1.904	1.904	1.929	1.924	1.919
0.010	-0.015	0.000	0.000	0.015	0.000	0.049	2.681	1.899	1.904	1.899	1.924	1.919	1.919
0.005	0.000	0.005	0.005	0.005	-0.010	0.044	2.676	1.895	1.899	1.895	1.919	1.914	1.909
0.000	-0.005	0.000	0.000	0.000	-0.005	0.049	2.700	1.890	1.895	1.890	1.909	1.909	1.909
0.005	0.000	0.000	0.005	-0.005	-0.020	0.044	2.705	1.890	1.890	1.890	1.909	1.904	1.904
0.000	-0.005	0.000	0.000	-0.005	-0.005	0.049	2.671	1.880	1.885	1.885	1.904	1.899	1.904
0.000	0.000	-0.005	0.005	0.000	0.005	0.044	2.705	1.885	1.885	1.880	1.904	1.904	1.909
0.005	0.000	-0.005	0.005	-0.005	-0.005	0.044	2.690	1.890	1.885	1.885	1.904	1.904	1.904
0.000	0.010	-0.005	0.005	-0.005	-0.015	0.044	2.705	1.899	1.895	1.890	1.909	1.904	1.904
0.005	0.000	0.000	0.000	0.000	0.015	0.044	2.705	1.899	1.899	1.895	1.914	1.909	1.909
-0.005	0.005	0.005	0.000	-0.005	0.015	0.044	2.705	1.904	1.904	1.899	1.914	1.909	1.914
0.000	0.010	0.000	0.000	-0.005	0.024	0.044	2.686	1.909	1.909	1.904	1.919	1.914	1.919
0.005	0.010	0.005	0.000	0.000	0.015	0.044	2.695	1.914	1.914	1.909	1.929	1.919	1.919
-0.005	0.000	0.000	-0.005	0.000	-0.005	0.039	2.808	1.924	1.914	1.909	1.929	1.919	1.914
0.000	0.005	0.000	0.000	0.000	0.005	0.049	2.656	1.914	1.919	1.909	1.929	1.924	1.919
0.000	0.020	0.000	0.000	-0.005	0.005	0.044	2.651	1.904	1.919	1.914	1.934	1.924	1.919
0.005	0.024	0.000	0.000	0.000	0.000	0.044	2.773	1.909	1.914	1.909	1.924	1.919	1.919
0.005	0.015	0.000	0.005	0.000	-0.005	0.049	2.651	1.895	1.904	1.904	1.924	1.919	1.909
-0.005	0.005	-0.005	0.000	-0.005	0.005	0.044	2.734	1.895	1.895	1.899	1.924	1.914	1.914
0.000	-0.010	0.005	0.005	0.000	-0.005	0.044	2.690	1.895	1.890	1.895	1.919	1.914	1.914
-0.005	-0.005	-0.005	0.005	0.000	-0.005	0.044	2.651	1.885	1.885	1.890	1.914	1.909	1.909
0.005	-0.005	0.005	0.005	0.000	0.005	0.049	2.681	1.885	1.880	1.885	1.909	1.904	1.909
0.005	-0.005	0.000	0.005	-0.005	-0.005	0.044	2.632	1.875	1.880	1.880	1.904	1.904	1.904
0.000	-0.010	-0.005	0.000	0.005	-0.005	0.044	2.681	1.890	1.880	1.880	1.904	1.904	1.899
-0.005	-0.005	0.000	0.000	0.005	-0.024	0.044	2.754	1.899	1.885	1.885	1.904	1.904	1.904
0.010	-0.010	0.005	0.000	0.000	0.010	0.044	2.764	1.919	1.895	1.890	1.909	1.909	1.914
0.000	0.005	0.005	0.000	0.005	0.005	0.044	2.686	1.909	1.904	1.895	1.909	1.904	1.909
0.005	0.005	0.000	0.000	0.000	0.015	0.044	2.656	1.904	1.909	1.899	1.914	1.909	1.914
-0.005	0.000	0.005	0.000	0.000	0.015	0.044	2.661	1.904	1.914	1.909	1.919	1.914	1.919
0.000	0.005	0.005	0.000	0.005	-0.005	0.044	2.666	1.914	1.914	1.914	1.924	1.919	1.909
0.000	0.015	0.005	0.005	0.005	0.015	0.044	2.666	1.909	1.914	1.914	1.929	1.924	1.919
0.000	-0.020	0.005	0.005	0.005	0.010	0.044	2.666	1.904	1.904	1.909	1.929	1.924	1.919
0.000	-0.015	0.005	0.005	-0.005	0.000	0.049	2.690	1.909	1.904	1.909	1.924	1.914	1.914
0.005	-0.010	0.000	0.005	-0.005	-0.005	0.049	2.700	1.904	1.904	1.904	1.924	1.914	1.914
0.000	-0.010	-0.005	0.005	0.000	0.005	0.044	2.695	1.895	1.895	1.899	1.919	1.914	1.919
-0.005	0.015	0.000	0.005	0.005	-0.005	0.044	2.700	1.890	1.899	1.895	1.914	1.909	1.909
-0.005	0.015	-0.005	0.005	0.000	0.000	0.044	2.705	1.895	1.895	1.890	1.909	1.909	1.909
0.000	0.005	0.005	0.000	0.000	-0.010	0.044	2.705	1.890	1.885	1.890	1.904	1.904	1.899
0.000	0.015	-0.005	0.000	0.005	0.005	0.044	2.676	1.890	1.885	1.885	1.899	1.904	1.904
-0.010	0.010	0.000	0.005	0.010	-0.020	0.044	2.710	1.885	1.880	1.885	1.904	1.899	1.895
0.015	0.000	0.000	0.000	0.005	0.005	0.044	2.715	1.899	1.885	1.885	1.899	1.899	1.904
-0.005	-0.005	0.005	0.000	0.005	0.000	0.044	2.715	1.899	1.890	1.885	1.904	1.904	1.904
-0.005	0.000	0.005	0.000	0.000	0.005	0.049	2.690	1.904	1.895	1.890	1.909	1.904	1.909
0.000	0.005	0.005	0.000	0.005	0.015	0.049	2.681	1.909	1.904	1.895	1.914	1.909	1.909
0.000	0.020	0.005	0.005	0.000	0.020	0.044	2.710	1.919	1.914	1.904	1.919	1.909	1.914
0.000	0.000	0.010	0.005	0.005	0.020	0.049	2.671	1.914	1.914	1.909	1.924	1.914	1.914
0.000	0.005	0.000	0.005	0.000	-0.020	0.044	2.700	1.914	1.919	1.909	1.929	1.919	1.904
0.010	0.005	0.000	0.000	0.000	0.020	0.049	2.695	1.919	1.914	1.909	1.924	1.924	1.924
0.005	0.010	0.000	0.000	0.000	0.015	0.044	2.676	1.909	1.914	1.914	1.929	1.919	1.919
0.000	0.010	0.000	0.000	0.005	0.005	0.049	2.715	1.914	1.914	1.909	1.929	1.924	1.919
0.010	0.005	0.005	0.000	-0.005	-0.005	0.044	2.705	1.904	1.904	1.904	1.924	1.914	1.909
0.010	0.005	0.000	0.000	-0.005	-0.020	0.044	2.666	1.895	1.899	1.899	1.924	1.914	1.904
0.005	-0.010	0.000	0.000	0.000	0.005	0.044	2.686	1.890	1.890	1.895	1.914	1.914	1.909
0.000	-0.010	0.000	0.005	0.000	-0.029	0.044	2.803	1.895	1.885	1.890	1.914	1.909	1.899
0.015	-0.005	0.000	0.000	0.005	0.000	0.049	2.783	1.904	1.890	1.885	1.904	1.904	1.904
0.000	-0.015	0.000	0.005	0.000	-0.015	0.044	2.651	1.890	1.885	1.880	1.904	1.904	1.904
0.015	-0.010	0.000	0.000	0.005	0.000	0.044	2.783	1.904	1.890	1.880	1.904	1.899	1.909
0.005	-0.005	0.005	0.000	0.010	0.005	0.049	2.646	1.899	1.895	1.890	1.904	1.904	1.909
0.015	0.000	0.000	0.005	0.005	0.010	0.044	2.729	1.909	1.899	1.890	1.909	1.904	1.909
0.010	0.015	-0.005	0.005	0.005	0.015	0.044	2.710	1.914	1.914	1.899	1.914	1.909	1.914
0.015	0.000	0.000	0.005	0.000	0.010	0.044	2.739	1.919	1.914	1.904	1.914	1.909	1.909
0.020	0.005	-0.005	0.005	0.000	-0.005	0.044	2.686	1.924	1.919	1.909	1.919	1.914	1.909
0.005	0.000	0.005	0.000	0.000	0.015	0.044	2.651	1.909	1.924	1.914	1.929	1.924	1.919
0.000	0.005	0.000	0.005	0.000	0.015	0.044	2.734	1.919	1.924	1.919	1.929	1.919	1.919
0.005	0.000	0.005	0.000	0.000	-0.010	0.039	2.651	1.924	1.919	1.919	1.934	1.924	1.914
-0.005	0.010	0.000	0.005	0.000	0.015	0.044	2.705	1.919	1.924	1.919	1.934	1.924	1.924
0.005	0.005	0.005	0.000	0.000	-0.005	0.044	2.651	1.909	1.914	1.914	1.934	1.924	1.919
0.000	0.005	0.000	0.000	0.000	0.000	0.049	2.720	1.885	1.904	1.909	1.929	1.919	1.919
0.005	-0.005	0.005	0.000	0.005	0.005	0.044	2.686	1.890	1.895	1.904	1.924	1.919	1.919
0.000	0.000	0.000	0.005	0.000	-0.005	0.049	2.686	1.890	1.885	1.899	1.919	1.914	1.914
-0.005	0.000	0.010	0.000	0.005	-0.010	0.044	2.705	1.885	1.880	1.890	1.914	1.914	1.914
0.000	-0.005	0.005	0.000	0.000	-0.010	0.049	2.671	1.880	1.880	1.885	1.909	1.909	1.904
0.000	-0.005	0.005	0.000	0.010	0.005	0.044	2.705	1.885	1.880	1.880	1.904	1.904	1.914
-0.005	-0.010	-0.005	0.000	0.005	0.010	0.049	2.715	1.880	1.880	1.875	1.904	1.904	1.914
0.000	0.000	0.000	0.000	0.000	0.010	0.044	2.710	1.895	1.885	1.880	1.899	1.899	1.904
0.010	0.010	-0.005	0.000	0.005	-0.010	0.044	2.705	1.904	1.895	1.885	1.904	1.904	1.904
0.005	0.000	0.000	0.005	0.005	0.005	0.044	2.705	1.904	1.899	1.890	1.904	1.904	1.909
0.010	0.010	-0.005	0.000	0.000	0.020	0.044	2.710	1.914	1.904	1.899	1.914	1.904	1.919
0.000	0.005	0.005	-0.005	0.005	0.005	0.039	2.710	1.919	1.909	1.904	1.914	1.909	1.909
0.010	-0.005	-0.005	0.005	0.000	0.015	0.044	2.671	1.914	1.914	1.909	1.919	1.914	1.919
0.005	0.005	0.000	0.000	0.000	0.015	0.049	2.710	1.919	1.919	1.909	1.924	1.914	1.919
0.005	0.005	-0.005	0.000	0.000	-0.005	0.044	2.710	1.919	1.919	1.909	1.924	1.919	1.914
-0.005	0.000	-0.005	0.000	0.005	0.000	0.044	2.710	1.909	1.914	1.909	1.929	1.919	1.914
0.000	-0.005	0.000	0.005	0.005	-0.020	0.049	2.695	1.904	1.909	1.909	1.924	1.919	1.914
0.005	0.000	0.000	0.005	0.005	0.010	0.044	2.710	1.904	1.904	1.904	1.919	1.914	1.914
0.000	-0.010	-0.005	0.000	0.000	0.005	0.044	2.671	1.895	1.895	1.895	1.919	1.909	1.909
0.000	0.000	0.000	0.000	0.005	-0.005	0.039	2.705	1.890	1.890	1.895	1.914	1.909	1.904
0.005	0.000	0.005	0.005	0.000	-0.005	0.039	2.700	1.885	1.890	1.890	1.909	1.904	1.904
0.010	0.000	-0.005	0.005	0.000	-0.010	0.044	2.671	1.880	1.885	1.880	1.904	1.899	1.899
-0.005	0.010	0.005	0.000	0.000	0.000	0.044	2.710	1.885	1.890	1.885	1.904	1.904	1.899
-0.005	0.000	0.005	0.000	0.005	0.000	0.044	2.710	1.890	1.885	1.885	1.904	1.904	1.904
0.005	-0.005	0.005	0.005	0.005	0.015	0.044	2.671	1.890	1.890	1.885	1.904	1.904	1.909
0.000	0.000	-0.005	0.000	0.005	0.010	0.044	2.695	1.895	1.895	1.890	1.909	1.904	1.909
-0.005	0.010	0.005	-0.005	0.000	0.015	0.044	2.803	1.914	1.904	1.895	1.914	1.909	1.909
0.000	0.005	0.000	0.005	0.005	0.005	0.049	2.642	1.914	1.904	1.899	1.919	1.909	1.909
-0.010	-0.005	0.000	0.005	0.010	0.015	0.044	2.661	1.904	1.904	1.904	1.919	1.919	1.919
0.000	0.000	0.005	0.005	-0.005	0.005	0.044	2.778	1.919	1.914	1.909	1.924	1.914	1.914
0.005	0.010	0.000	0.005	0.005	-0.005	0.049	2.646	1.914	1.919	1.909	1.924	1.919	1.914
-0.005	-0.005	0.005	0.005	0.000	-0.005	0.044	2.734	1.914	1.909	1.909	1.924	1.919	1.914
0.005	-0.005	0.000	0.005	-0.005	0.005	0.044	2.705	1.914	1.909	1.909	1.929	1.919	1.919
-0.005	-0.005	0.000	0.005	0.005	0.000	0.039	2.661	1.895	1.899	1.904	1.924	1.919	1.914
0.000	-0.005	0.000	0.000	0.005	0.000	0.044	2.695	1.895	1.895	1.899	1.919	1.914	1.914
0.000	0.000	0.000	0.005	0.000	-0.010	0.044	2.739	1.895	1.895	1.895	1.914	1.909	1.904
-0.010	0.000	0.000	0.000	0.000	0.000	0.044	2.671	1.880	1.885	1.890	1.909	1.904	1.904
-0.005	0.005	0.005	0.000	0.005	-0.005	0.044	2.739	1.885	1.885	1.885	1.904	1.904	1.899
0.000	0.010	0.000	0.000	0.005	0.005	0.044	2.725	1.890	1.885	1.885	1.904	1.904	1.904
-0.005	-0.005	0.000	0.000	0.005	0.000	0.044	2.690	1.890	1.885	1.880	1.904	1.899	1.904
0.000	0.005	0.005	0.005	0.005	0.000	0.049	2.661	1.890	1.885	1.885	1.904	1.904	1.904
0.000	-0.005	0.000	0.005	0.000	0.005	0.044	2.695	1.895	1.890	1.885	1.904	1.904	1.909
0.005	0.005	0.000	-0.005	0.000	0.005	0.044	2.617	1.899	1.895	1.890	1.909	1.904	1.909
0.005	0.010	0.005	0.000	0.000	0.005	0.044	2.661	1.904	1.899	1.895	1.914	1.904	1.909
0.005	0.005	0.000	0.000	0.000	0.000	0.044	2.681	1.909	1.904	1.899	1.919	1.914	1.909
0.015	0.000	0.000	0.005	0.005	0.005	0.044	2.705	1.909	1.909	1.904	1.919	1.914	1.914
0.005	0.010	0.000	0.005	0.000	0.015	0.044	2.705	1.914	1.909	1.909	1.924	1.919	1.919
0.005	0.010	0.000	0.000	0.000	-0.005	0.044	2.710	1.914	1.909	1.909	1.924	1.919	1.914
0.000	0.005	0.005	-0.005	0.000	0.005	0.044	2.715	1.909	1.914	1.909	1.924	1.919	1.914
0.010	0.010	0.005	0.005	0.000	-0.020	0.044	2.705	1.904	1.909	1.909	1.924	1.914	1.904
0.010	0.000	0.000	0.005	0.000	0.005	0.044	2.710	1.904	1.899	1.904	1.919	1.914	1.914
0.000	0.005	0.000	-0.005	0.005	-0.010	0.044	2.705	1.895	1.895	1.899	1.919	1.909	1.904
-0.015	-0.005	0.005	0.000	-0.005	0.000	0.044	2.661	1.880	1.890	1.890	1.909	1.909	1.904
0.010	-0.005	0.005	0.000	0.000	-0.005	0.044	2.710	1.885	1.880	1.880	1.909	1.904	1.899
0.000	0.000	0.000	0.000	0.000	0.000	0.044	2.671	1.880	1.880	1.880	1.904	1.904	1.904
0.000	-0.005	0.005	0.005	-0.005	-0.005	0.044	2.686	1.880	1.875	1.880	1.904	1.899	1.899
0.000	0.000	-0.005	0.005	-0.005	0.000	0.044	2.666	1.880	1.880	1.875	1.899	1.895	1.899
0.010	-0.005	0.000	0.000	0.000	-0.015	0.044	2.671	1.890	1.885	1.880	1.899	1.899	1.895
0.005	-0.005	-0.005	0.010	0.005	0.010	0.044	2.700	1.895	1.890	1.885	1.904	1.904	1.909
-0.005	0.000	0.005	0.000	0.000	0.015	0.044	2.715	1.904	1.895	1.890	1.909	1.904	1.909
0.005	-0.015	0.000	0.005	0.000	0.010	0.044	2.681	1.909	1.895	1.895	1.909	1.904	1.904
0.010	-0.005	0.005	0.000	0.000	0.015	0.044	2.676	1.904	1.909	1.899	1.909	1.909	1.914
0.000	-0.010	0.000	0.000	0.000	0.000	0.044	2.715	1.909	1.904	1.904	1.919	1.909	1.909
0.000	-0.005	0.005	0.000	0.000	0.010	0.044	2.710	1.914	1.909	1.904	1.919	1.914	1.909
0.005	0.000	0.000	0.000	0.005	-0.024	0.044	2.666	1.909	1.909	1.909	1.919	1.914	1.904
0.000	0.000	0.000	0.000	0.005	0.000	0.044	2.695	1.904	1.904	1.904	1.919	1.914	1.914
0.005	0.015	0.005	0.000	0.000	0.005	0.044	2.808	1.914	1.909	1.904	1.919	1.909	1.909
-0.005	0.005	0.005	0.000	0.000	0.000	0.049	2.651	1.895	1.895	1.899	1.914	1.909	1.909
-0.005	0.005	0.000	0.000	0.000	-0.005	0.044	2.646	1.885	1.895	1.895	1.909	1.904	1.904
-0.005	0.015	-0.005	0.005	0.005	-0.005	0.044	2.778	1.890	1.890	1.890	1.909	1.904	1.904
-0.010	0.015	0.000	0.000	0.000	-0.024	0.049	2.651	1.880	1.885	1.885	1.904	1.899	1.895
0.000	-0.005	-0.005	0.005	0.000	-0.015	0.044	2.729	1.890	1.880	1.880	1.899	1.899	1.899
0.005	-0.005	0.005	0.000	0.005	0.015	0.049	2.671	1.885	1.880	1.880	1.904	1.899	1.909
0.005	-0.005	0.005	0.000	0.005	-0.010	0.039	2.690	1.885	1.875	1.880	1.899	1.899	1.899
0.010	0.000	0.000	0.000	0.000	0.020	0.044	2.642	1.885	1.885	1.880	1.899	1.899	1.904
0.000	0.000	0.005	0.005	-0.005	0.020	0.049	2.651	1.890	1.890	1.885	1.909	1.899	1.904
-0.005	0.000	0.005	0.005	0.005	0.020	0.044	2.759	1.909	1.895	1.890	1.909	1.904	1.904
0.005	0.000	0.005	0.000	0.005	0.015	0.039	2.759	1.919	1.904	1.899	1.914	1.909	1.909
0.015	0.000	0.010	0.005	0.005	0.005	0.044	2.622	1.909	1.909	1.904	1.919	1.909	1.914
0.005	-0.005	0.005	0.005	0.005	-0.015	0.044	2.646	1.909	1.909	1.904	1.924	1.914	1.904
0.000	-0.005	0.010	0.000	0.005	-0.010	0.044	2.754	1.914	1.909	1.909	1.924	1.914	1.914
0.005	0.000	0.005	0.000	0.005	0.005	0.044	2.690	1.909	1.909	1.904	1.924	1.919	1.914
-0.005	0.010	-0.005	0.000	0.005	0.005	0.044	2.617	1.890	1.904	1.904	1.919	1.914	1.914
0.010	0.000	0.005	0.005	0.000	-0.020	0.044	2.690	1.895	1.899	1.904	1.919	1.914	1.909
0.000	0.010	0.000	0.000	0.005	0.000	0.044	2.671	1.890	1.890	1.895	1.914	1.909	1.909
0.005	0.005	0.005	0.000	0.000	-0.005	0.044	2.676	1.885	1.885	1.890	1.914	1.909	1.904
-0.010	-0.010	0.000	0.005	0.000	-0.005	0.049	2.715	1.880	1.875	1.880	1.904	1.904	1.904
0.000	0.000	0.000	0.000	-0.005	-0.020	0.044	2.695	1.885	1.875	1.880	1.899	1.899	1.899
-0.005	0.015	0.000	0.005	0.000	-0.015	0.044	2.710	1.885	1.880	1.880	1.899	1.899	1.899
0.005	0.015	0.005	0.000	0.000	0.000	0.044	2.705	1.890	1.880	1.875	1.895	1.895	1.899
0.000	0.000	0.000	0.000	-0.005	0.005	0.044	2.700	1.890	1.880	1.880	1.899	1.895	1.899
0.005	0.015	0.005	0.000	0.005	-0.010	0.044	2.681	1.895	1.890	1.885	1.899	1.895	1.899
0.005	0.005	0.000	0.000	0.005	0.015	0.044	2.700	1.899	1.895	1.885	1.904	1.899	1.909
0.000	0.000	0.005	0.005	0.005	0.015	0.044	2.710	1.904	1.899	1.895	1.909	1.904	1.914
0.000	0.000	-0.005	0.000	0.010	0.015	0.044	2.705	1.909	1.904	1.895	1.914	1.909	1.909
0.005	-0.005	0.005	0.005	0.000	0.010	0.049	2.681	1.914	1.909	1.899	1.919	1.914	1.909
0.005	-0.010	-0.005	0.000	0.000	0.005	0.044	2.671	1.909	1.909	1.904	1.919	1.909	1.914
0.000	-0.005	0.005	0.000	0.000	0.000	0.044	2.705	1.909	1.914	1.909	1.924	1.914	1.914
0.000	0.005	0.000	0.000	0.000	0.010	0.044	2.681	1.904	1.909	1.904	1.924	1.914	1.914
0.005	-0.010	-0.005	0.005	-0.005	0.000	0.044	2.710	1.899	1.899	1.904	1.924	1.914	1.909
-0.005	-0.010	0.005	0.000	0.000	-0.010	0.044	2.700	1.895	1.895	1.895	1.919	1.909	1.899
0.000	-0.010	0.000	0.000	-0.005	-0.015	0.044	2.661	1.885	1.890	1.890	1.909	1.909	1.899
0.000	0.000	0.005	0.000	0.005	-0.005	0.044	2.700	1.885	1.885	1.890	1.909	1.904	1.904
-0.005	0.010	0.000	0.005	0.000	0.000	0.044	2.705	1.880	1.880	1.880	1.904	1.899	1.899
-0.005	-0.005	0.005	0.000	0.000	0.005	0.044	2.681	1.885	1.875	1.880	1.899	1.899	1.904
-0.005	0.000	-0.005	0.005	0.000	-0.005	0.044	2.676	1.885	1.875	1.875	1.899	1.899	1.899
0.010	0.005	0.000	0.000	0.000	0.005	0.044	2.798	1.899	1.885	1.880	1.895	1.895	1.899
0.000	0.005	-0.005	0.005	0.005	0.005	0.044	2.651	1.890	1.885	1.880	1.899	1.899	1.904
0.010	0.005	0.000	0.005	0.005	-0.005	0.049	2.661	1.899	1.890	1.890	1.904	1.899	1.895
0.000	0.005	0.000	0.000	0.000	0.015	0.044	2.793	1.909	1.899	1.890	1.909	1.904	1.904
0.010	0.024	0.005	0.005	0.005	-0.005	0.044	2.651	1.904	1.909	1.899	1.914	1.904	1.909
0.000	0.020	0.005	0.000	0.000	-0.010	0.044	2.739	1.909	1.914	1.909	1.919	1.909	1.904
0.000	0.024	0.000	0.000	0.000	0.010	0.044	2.686	1.909	1.914	1.909	1.924	1.914	1.914
0.010	0.024	0.005	0.005	0.005	0.015	0.044	2.622	1.904	1.919	1.914	1.924	1.919	1.919
-0.005	0.015	0.000	0.000	0.005	0.010	0.039	2.690	1.895	1.904	1.909	1.924	1.919	1.919
0.015	0.005	0.000	0.010	0.005	0.010	0.044	2.632	1.890	1.899	1.904	1.924	1.919	1.914
-0.005	0.000	-0.005	0.000	0.005	-0.015	0.044	2.661	1.895	1.890	1.899	1.919	1.914	1.909
-0.010	-0.010	0.005	0.000	0.000	-0.010	0.049	2.720	1.895	1.885	1.895	1.919	1.909	1.909
-0.005	-0.005	0.010	0.000	0.005	0.000	0.039	2.715	1.895	1.885	1.890	1.909	1.904	1.904
-0.005	-0.015	0.005	0.000	0.000	-0.010	0.044	2.690	1.890	1.885	1.880	1.904	1.904	1.904
-0.005	-0.005	-0.005	0.000	-0.005	-0.005	0.044	2.646	1.885	1.880	1.880	1.899	1.895	1.899
-0.010	-0.005	0.000	0.000	-0.005	-0.029	0.044	2.690	1.885	1.875	1.875	1.895	1.895	1.895
-0.005	0.000	0.000	0.000	0.000	0.010	0.044	2.725	1.880	1.875	1.875	1.895	1.895	1.904
0.000	-0.010	0.000	0.000	0.005	0.010	0.044	2.681	1.880	1.875	1.875	1.895	1.895	1.899
-0.005	-0.005	0.000	0.000	0.000	0.010	0.044	2.681	1.890	1.885	1.880	1.899	1.895	1.899
-0.010	0.010	0.000	0.000	0.005	0.010	0.044	2.686	1.890	1.890	1.885	1.904	1.899	1.904
0.005	0.000	0.005	0.000	0.000	0.020	0.044	2.681	1.904	1.895	1.890	1.909	1.904	1.904
0.000	0.005	0.005	-0.005	0.000	0.015	0.044	2.681	1.904	1.904	1.895	1.909	1.904	1.909
0.000	0.000	0.005	0.005	0.005	0.020	0.044	2.705	1.914	1.909	1.899	1.914	1.909	1.909
0.000	0.000	0.000	0.000	0.000	-0.010	0.044	2.705	1.914	1.909	1.904	1.919	1.909	1.904
0.005	-0.005	0.000	0.000	0.000	0.010	0.044	2.705	1.914	1.909	1.904	1.919	1.914	1.914
0.005	-0.005	0.000	0.005	0.005	-0.005	0.049	2.695	1.909	1.909	1.904	1.919	1.914	1.909
0.000	-0.005	0.005	0.000	0.000	-0.005	0.044	2.700	1.904	1.904	1.904	1.919	1.909	1.904
0.000	-0.005	0.000	0.005	-0.005	0.000	0.044	2.686	1.899	1.904	1.899	1.919	1.909	1.909
0.000	-0.005	0.000	0.000	-0.005	-0.034	0.044	2.661	1.890	1.895	1.895	1.914	1.904	1.895
0.005	-0.005	0.005	0.000	0.005	0.000	0.044	2.666	1.880	1.885	1.890	1.909	1.909	1.904
0.005	0.000	0.000	0.005	0.000	-0.005	0.039	2.705	1.880	1.885	1.885	1.904	1.904	1.904
0.005	0.010	0.000	0.000	0.000	-0.015	0.044	2.676	1.875	1.875	1.880	1.899	1.899	1.895
0.005	0.000	0.000	0.005	0.000	0.005	0.044	2.671	1.875	1.875	1.875	1.899	1.899	1.904
0.005	0.005	0.000	0.005	0.005	0.000	0.044	2.720	1.880	1.875	1.875	1.895	1.895	1.899
0.000	0.000	0.000	0.000	0.000	-0.005	0.044	2.676	1.875	1.875	1.875	1.895	1.895	1.899
-0.005	0.005	0.000	0.000	-0.005	0.015	0.039	2.695	1.885	1.880	1.880	1.899	1.895	1.904
0.000	0.005	0.005	0.005	0.005	0.005	0.044	2.715	1.904	1.890	1.885	1.904	1.899	1.899
0.000	0.000	0.005	0.000	0.005	0.015	0.044	2.715	1.904	1.895	1.885	1.904	1.904	1.909
0.010	0.005	0.005	0.000	0.005	0.020	0.044	2.690	1.909	1.904	1.895	1.909	1.909	1.909
0.005	-0.005	0.005	0.000	0.000	0.010	0.044	2.700	1.914	1.909	1.899	1.914	1.909	1.909
-0.010	0.000	0.005	0.000	0.000	0.015	0.049	2.808	1.924	1.914	1.904	1.919	1.909	1.909
0.005	0.000	0.005	0.000	0.000	-0.020	0.044	2.646	1.919	1.914	1.909	1.919	1.909	1.904
0.000	0.000	0.005	0.000	0.010	0.010	0.044	2.651	1.904	1.909	1.909	1.924	1.914	1.914
-0.010	0.005	0.005	0.000	0.000	0.005	0.044	2.793	1.909	1.909	1.899	1.919	1.909	1.909
-0.010	0.000	0.000	0.000	0.010	-0.010	0.044	2.646	1.895	1.899	1.899	1.914	1.909	1.904
-0.005	-0.010	0.005	0.000	0.005	-0.029	0.049	2.725	1.895	1.890	1.895	1.914	1.904	1.899
0.000	0.005	0.005	0.005	0.000	0.000	0.044	2.671	1.885	1.890	1.890	1.909	1.904	1.904
-0.005	0.010	0.000	0.000	0.000	-0.020	0.044	2.700	1.875	1.885	1.885	1.904	1.899	1.895
0.005	0.010	0.000	0.000	0.005	0.010	0.044	2.617	1.870	1.880	1.880	1.904	1.899	1.904
0.005	0.005	0.000	0.005	0.000	-0.005	0.049	2.729	1.880	1.875	1.875	1.904	1.895	1.895
0.005	0.000	-0.005	0.000	0.000	0.010	0.044	2.754	1.885	1.875	1.875	1.899	1.895	1.899
0.000	-0.005	0.000	0.000	0.000	0.010	0.044	2.725	1.895	1.880	1.880	1.899	1.899	1.899
-0.005	-0.005	-0.005	0.000	0.000	0.010	0.044	2.725	1.899	1.890	1.880	1.904	1.899	1.904
0.005	-0.010	0.000	0.005	0.000	0.000	0.044	2.686	1.904	1.895	1.890	1.904	1.899	1.899
0.000	0.005	-0.005	0.000	0.005	0.020	0.044	2.656	1.904	1.904	1.895	1.909	1.909	1.914
-0.005	-0.005	0.000	0.000	-0.005	0.015	0.044	2.671	1.904	1.904	1.899	1.914	1.909	1.909
0.000	-0.005	0.005	0.005	0.000	0.015	0.049	2.632	1.904	1.909	1.904	1.919	1.909	1.914
0.015	0.000	0.005	0.005	0.005	0.020	0.044	2.686	1.904	1.904	1.904	1.919	1.914	1.909
0.005	0.005	0.000	0.000	-0.005	0.010	0.044	2.676	1.904	1.904	1.904	1.919	1.909	1.909
0.000	0.015	0.005	0.000	0.005	0.015	0.044	2.681	1.899	1.909	1.904	1.919	1.914	1.909
-0.005	0.015	0.005	0.000	0.000	0.000	0.044	2.710	1.895	1.899	1.899	1.914	1.909	1.904
0.000	0.010	0.005	0.005	0.000	-0.005	0.044	2.700	1.890	1.890	1.895	1.914	1.909	1.904
0.000	0.010	0.000	0.000	-0.005	-0.010	0.044	2.700	1.885	1.885	1.885	1.909	1.904	1.899
0.000	0.010	0.005	0.000	-0.005	-0.005	0.044	2.700	1.880	1.880	1.885	1.904	1.904	1.899
-0.005	0.005	0.010	0.005	-0.005	-0.005	0.044	2.700	1.880	1.875	1.880	1.899	1.899	1.895
0.000	0.000	0.005	0.000	0.000	-0.020	0.039	2.690	1.880	1.870	1.875	1.899	1.895	1.890
0.010	0.000	0.000	0.000	0.000	-0.010	0.044	2.705	1.880	1.875	1.875	1.895	1.895	1.895
0.000	0.005	0.005	0.000	0.000	0.005	0.044	2.700	1.885	1.875	1.875	1.890	1.895	1.899
0.015	0.000	0.005	0.000	0.000	0.010	0.044	2.676	1.895	1.885	1.880	1.899	1.895	1.899
0.005	0.000	0.000	0.005	0.000	0.000	0.044	2.681	1.899	1.885	1.880	1.899	1.899	1.899
0.010	0.010	0.000	0.000	0.010	0.020	0.049	2.710	1.904	1.895	1.885	1.904	1.899	1.909
0.000	0.005	0.000	0.000	0.000	0.010	0.044	2.676	1.904	1.904	1.890	1.909	1.899	1.904
0.005	0.010	0.000	0.000	0.005	0.015	0.049	2.681	1.909	1.904	1.899	1.914	1.909	1.909
0.000	0.005	-0.005	0.005	0.000	-0.015	0.044	2.715	1.914	1.909	1.899	1.914	1.909	1.904
-0.005	0.020	0.000	0.005	0.000	0.000	0.044	2.695	1.909	1.909	1.904	1.919	1.909	1.909
0.000	0.015	0.000	0.000	0.005	0.015	0.049	2.681	1.909	1.909	1.904	1.919	1.914	1.909
0.005	0.010	0.000	-0.005	0.005	0.000	0.044	2.710	1.904	1.904	1.904	1.919	1.909	1.904
0.005	0.005	0.000	0.005	0.000	-0.020	0.044	2.710	1.899	1.899	1.899	1.919	1.909	1.899
-0.005	0.005	0.000	0.000	0.005	0.005	0.044	2.686	1.890	1.890	1.895	1.914	1.909	1.909
0.005	0.000	0.005	0.000	0.000	0.005	0.044	2.695	1.885	1.885	1.890	1.909	1.904	1.904
0.005	0.005	0.000	0.005	0.010	0.005	0.044	2.808	1.895	1.885	1.885	1.904	1.904	1.899
0.005	0.000	-0.005	0.000	0.000	-0.005	0.044	2.632	1.880	1.880	1.880	1.899	1.895	1.895
0.005	-0.005	0.000	0.000	0.000	-0.020	0.044	2.656	1.875	1.875	1.880	1.899	1.895	1.890
0.000	0.005	0.000	0.000	0.000	0.000	0.044	2.778	1.890	1.880	1.880	1.895	1.895	1.895
0.000	-0.015	0.010	0.005	0.000	0.010	0.044	2.651	1.890	1.880	1.875	1.899	1.895	1.899
0.005	-0.005	0.000	0.005	0.000	0.005	0.049	2.642	1.885	1.885	1.880	1.899	1.899	1.899
0.015	-0.020	0.005	0.000	0.000	0.010	0.044	2.705	1.899	1.890	1.885	1.904	1.899	1.904
0.005	-0.005	0.000	0.000	0.000	0.010	0.049	2.715	1.895	1.899	1.890	1.904	1.899	1.904
0.015	-0.010	0.010	0.000	-0.005	0.015	0.044	2.642	1.899	1.904	1.895	1.909	1.904	1.909
0.005	-0.005	0.000	0.000	0.000	0.015	0.044	2.632	1.895	1.904	1.899	1.914	1.909	1.909
0.005	0.010	0.005	0.005	-0.005	0.010	0.044	2.676	1.895	1.909	1.904	1.919	1.914	1.909
0.015	0.000	0.005	0.005	0.005	0.000	0.044	2.754	1.909	1.904	1.904	1.924	1.914	1.909
0.005	0.010	0.005	0.000	0.005	0.000	0.044	2.734	1.904	1.909	1.904	1.919	1.914	1.909
-0.005	0.000	0.000	0.000	0.000	-0.005	0.044	2.681	1.899	1.899	1.899	1.919	1.914	1.904
0.005	0.000	0.000	0.005	0.000	-0.015	0.044	2.646	1.890	1.895	1.895	1.914	1.909	1.904
0.005	-0.010	0.000	0.005	0.000	-0.010	0.044	2.686	1.880	1.885	1.885	1.909	1.904	1.904
0.000	0.000	0.000	0.000	-0.005	-0.005	0.039	2.617	1.875	1.880	1.885	1.909	1.899	1.904
-0.005	0.005	0.000	0.005	0.000	-0.005	0.044	2.661	1.870	1.875	1.875	1.899	1.899	1.895
-0.005	0.000	0.000	0.000	0.000	0.000	0.044	2.676	1.870	1.870	1.875	1.895	1.895	1.899
0.010	-0.005	0.010	0.005	0.000	0.015	0.044	2.690	1.875	1.870	1.870	1.895	1.895	1.899
-0.005	0.000	0.005	0.005	0.000	0.010	0.039	2.705	1.880	1.870	1.870	1.895	1.890	1.899
0.000	0.000	0.005	0.000	0.005	0.015	0.044	2.700	1.885	1.875	1.870	1.890	1.890	1.899
-0.010	-0.005	0.000	0.000	0.000	0.000	0.044	2.705	1.885	1.880	1.875	1.895	1.895	1.895
-0.005	0.000	0.005	0.000	0.000	0.020	0.044	2.710	1.899	1.890	1.880	1.895	1.895	1.899
0.015	0.005	0.005	0.005	0.005	0.024	0.044	2.715	1.914	1.899	1.885	1.904	1.899	1.904
0.024	0.000	0.000	0.000	0.005	0.000	0.044	2.671	1.914	1.904	1.895	1.909	1.899	1.904
0.024	0.005	0.005	0.005	0.000	0.015	0.044	2.671	1.909	1.909	1.899	1.914	1.904	1.904
-0.005	0.000	0.005	0.000	0.005	0.010	0.044	2.705	1.899	1.904	1.904	1.919	1.909	1.909
-0.020	0.005	0.005	0.000	0.000	0.005	0.044	2.681	1.899	1.904	1.899	1.919	1.909	1.904
-0.020	0.005	0.000	0.005	0.010	0.000	0.049	2.676	1.895	1.904	1.899	1.919	1.909	1.904
-0.029	-0.005	0.000	0.005	0.000	-0.024	0.044	2.671	1.885	1.890	1.895	1.914	1.904	1.899
-0.015	-0.005	0.000	0.005	0.000	-0.015	0.044	2.710	1.890	1.885	1.890	1.909	1.904	1.899
-0.005	-0.005	-0.010	0.005	0.000	-0.029	0.044	2.671	1.880	1.880	1.885	1.904	1.899	1.899
0.015	0.005	-0.005	0.000	0.000	-0.005	0.044	2.710	1.890	1.880	1.880	1.899	1.895	1.899
0.000	-0.005	0.000	0.005	0.005	-0.020	0.049	2.661	1.880	1.875	1.875	1.895	1.895	1.895
0.015	-0.005	-0.005	0.000	-0.005	-0.005	0.044	2.681	1.875	1.875	1.875	1.890	1.890	1.899
0.010	0.000	-0.005	0.000	0.005	-0.020	0.044	2.695	1.880	1.875	1.875	1.890	1.890	1.890
0.005	-0.010	0.005	0.000	-0.005	0.010	0.044	2.710	1.880	1.875	1.875	1.895	1.895	1.899
0.005	0.015	0.005	0.005	0.005	0.005	0.044	2.686	1.890	1.885	1.880	1.895	1.895	1.899
0.005	0.005	0.000	0.005	0.005	0.010	0.049	2.695	1.895	1.885	1.885	1.899	1.895	1.899
0.005	0.005	0.005	0.000	0.000	0.000	0.044	2.808	1.914	1.895	1.890	1.904	1.899	1.895
0.000	0.010	0.010	0.005	0.005	0.015	0.044	2.642	1.919	1.909	1.895	1.909	1.904	1.904
-0.005	0.000	0.005	0.000	0.000	0.000	0.039	2.642	1.909	1.909	1.904	1.914	1.904	1.899
0.000	-0.005	0.010	0.005	0.005	0.015	0.044	2.793	1.919	1.914	1.904	1.919	1.914	1.914
0.010	-0.005	0.005	0.000	0.000	0.015	0.044	2.646	1.909	1.914	1.909	1.919	1.914	1.914
0.000	0.005	0.005	0.005	0.000	-0.015	0.044	2.632	1.904	1.914	1.909	1.924	1.909	1.904
-0.020	0.000	0.005	0.005	0.000	-0.010	0.049	2.695	1.890	1.904	1.904	1.919	1.914	1.904
-0.024	0.010	0.000	0.005	0.000	0.005	0.044	2.666	1.880	1.899	1.899	1.919	1.909	1.909
-0.020	0.015	0.000	0.005	0.000	-0.005	0.044	2.695	1.880	1.890	1.895	1.914	1.909	1.904
-0.005	0.005	0.000	0.005	0.000	0.005	0.044	2.715	1.875	1.880	1.890	1.909	1.904	1.904
0.000	0.005	0.005	0.005	0.000	-0.010	0.044	2.666	1.875	1.870	1.885	1.904	1.899	1.895
0.010	0.005	0.000	0.005	0.000	0.005	0.049	2.744	1.880	1.870	1.875	1.899	1.899	1.899
0.005	0.010	0.005	0.005	0.000	0.015	0.039	2.642	1.875	1.870	1.875	1.899	1.895	1.899
0.010	0.020	0.000	0.005	0.010	0.005	0.044	2.651	1.875	1.875	1.870	1.895	1.895	1.899
0.000	0.005	0.000	0.005	0.005	0.005	0.044	2.627	1.875	1.875	1.875	1.895	1.895	1.895
0.010	0.000	0.000	0.005	0.005	0.000	0.044	2.690	1.885	1.875	1.875	1.895	1.895	1.899
0.015	0.000	-0.005	0.000	0.000	0.005	0.049	2.627	1.890	1.880	1.880	1.899	1.895	1.899
0.000	0.000	0.000	0.000	0.000	0.010	0.044	2.705	1.895	1.890	1.885	1.904	1.899	1.904
-0.010	-0.005	0.000	-0.005	0.000	0.015	0.044	2.690	1.904	1.895	1.885	1.899	1.904	1.904
0.005	0.000	0.000	0.000	0.010	0.010	0.044	2.695	1.909	1.899	1.895	1.904	1.904	1.909
0.005	0.000	0.000	-0.005	0.000	0.010	0.044	2.700	1.914	1.904	1.895	1.909	1.904	1.904
0.005	-0.005	0.005	0.000	0.000	0.000	0.049	2.676	1.909	1.904	1.899	1.914	1.904	1.904
0.010	-0.005	-0.005	0.000	0.005	-0.005	0.044	2.695	1.909	1.904	1.904	1.914	1.909	1.904
0.005	-0.005	0.000	-0.005	0.000	-0.005	0.044	2.705	1.899	1.899	1.899	1.914	1.904	1.899
0.015	0.000	0.000	0.000	-0.005	-0.015	0.044	2.681	1.890	1.895	1.899	1.914	1.904	1.899
0.034	-0.005	0.005	0.005	0.000	-0.029	0.044	2.671	1.890	1.890	1.890	1.909	1.904	1.890
0.020	-0.005	0.005	0.005	0.000	-0.024	0.044	2.666	1.875	1.880	1.885	1.904	1.899	1.890
0.039	-0.005	0.005	0.005	0.000	0.005	0.044	2.695	1.880	1.875	1.880	1.899	1.899	1.899
0.054	-0.010	0.000	0.005	0.005	-0.024	0.044	2.671	1.875	1.875	1.875	1.895	1.895	1.890
0.024	-0.015	0.005	0.000	0.005	0.010	0.049	2.700	1.875	1.870	1.870	1.895	1.895	1.899
0.000	0.000	0.005	0.000	0.000	0.005	0.044	2.666	1.870	1.875	1.870	1.890	1.895	1.899
-0.010	0.005	0.000	-0.005	0.010	0.010	0.044	2.671	1.870	1.875	1.875	1.890	1.895	1.895
-0.020	0.000	0.010	-0.005	0.005	0.020	0.044	2.686	1.880	1.875	1.875	1.899	1.895	1.899
0.000	-0.005	0.005	-0.005	0.005	0.020	0.044	2.715	1.895	1.885	1.880	1.899	1.895	1.899
-0.005	0.005	0.000	0.000	0.005	0.020	0.044	2.676	1.895	1.890	1.885	1.904	1.899	1.904
-0.029	0.010	0.010	0.005	0.000	0.015	0.039	2.676	1.895	1.899	1.895	1.909	1.904	1.904
-0.020	0.005	0.005	0.005	0.005	0.010	0.039	2.710	1.904	1.899	1.895	1.914	1.904	1.904
-0.015	0.010	0.000	0.015	0.000	-0.005	0.044	2.695	1.904	1.904	1.895	1.914	1.904	1.899
-0.020	0.005	0.000	0.010	0.005	-0.015	0.039	2.676	1.904	1.904	1.895	1.914	1.904	1.904
-0.029	-0.010	0.000	0.005	0.000	0.010	0.044	2.690	1.895	1.895	1.895	1.914	1.904	1.909
-0.020	-0.015	0.005	0.005	0.005	0.010	0.044	2.803	1.904	1.895	1.895	1.909	1.904	1.904
-0.024	-0.010	0.000	0.000	-0.005	-0.029	0.039	2.651	1.890	1.890	1.890	1.904	1.899	1.895
-0.024	0.020	0.000	0.005	0.000	0.000	0.039	2.651	1.880	1.890	1.885	1.904	1.895	1.899
-0.015	0.005	0.000	0.005	0.000	-0.020	0.039	2.788	1.895	1.885	1.880	1.899	1.895	1.890
0.034	0.000	0.000	0.010	0.005	-0.010	0.044	2.627	1.890	1.885	1.880	1.899	1.895	1.890
0.015	0.000	0.005	0.010	0.005	-0.015	0.044	2.642	1.880	1.880	1.875	1.895	1.890	1.885
0.005	0.005	0.000	0.010	0.005	0.010	0.044	2.666	1.870	1.875	1.875	1.895	1.895	1.895
-0.015	0.005	0.005	0.005	0.000	0.005	0.044	2.715	1.870	1.875	1.875	1.890	1.890	1.895
-0.015	0.010	0.005	0.000	0.005	0.015	0.044	2.705	1.880	1.880	1.875	1.895	1.895	1.895
-0.024	0.000	0.005	-0.005	0.000	0.010	0.044	2.720	1.885	1.880	1.880	1.895	1.895	1.895
-0.029	0.000	-0.005	-0.005	0.000	0.005	0.044	2.666	1.895	1.885	1.885	1.904	1.899	1.899
-0.015	-0.005	0.005	-0.005	0.005	0.005	0.044	2.710	1.904	1.890	1.885	1.904	1.899	1.899
-0.020	0.000	0.005	-0.005	0.000	0.015	0.044	2.734	1.904	1.899	1.895	1.909	1.904	1.909
-0.005	0.000	0.010	-0.005	0.000	0.010	0.044	2.695	1.909	1.904	1.895	1.914	1.904	1.904
0.005	-0.005	0.000	-0.005	0.000	-0.005	0.044	2.651	1.904	1.904	1.899	1.914	1.909	1.904
-0.005	0.000	0.005	0.005	0.000	-0.005	0.044	2.676	1.899	1.904	1.899	1.919	1.909	1.904
0.024	0.005	0.000	0.000	0.005	-0.020	0.044	2.607	1.895	1.899	1.899	1.914	1.909	1.899
0.034	0.010	0.000	0.000	0.000	0.010	0.044	2.700	1.895	1.895	1.895	1.914	1.904	1.904
0.034	-0.005	0.000	0.000	0.000	0.010	0.044	2.686	1.890	1.885	1.890	1.909	1.904	1.899
0.015	-0.015	0.005	0.005	-0.005	0.005	0.044	2.700	1.880	1.875	1.880	1.909	1.899	1.895
0.024	-0.005	-0.005	0.005	0.000	0.005	0.044	2.705	1.880	1.875	1.880	1.904	1.895	1.895
0.034	-0.005	0.005	0.005	0.000	-0.005	0.044	2.705	1.880	1.875	1.875	1.895	1.895	1.890
0.054	0.005	0.005	0.000	-0.005	0.000	0.039	2.705	1.885	1.885	1.875	1.895	1.895	1.895
0.044	-0.010	0.000	0.005	0.000	0.005	0.044	2.695	1.885	1.875	1.875	1.895	1.895	1.895
0.020	0.005	0.000	0.000	0.000	0.010	0.049	2.710	1.885	1.880	1.875	1.895	1.890	1.895
0.005	0.029	0.000	-0.005	0.000	0.005	0.044	2.715	1.890	1.890	1.880	1.899	1.895	1.890
-0.015	-0.005	0.010	0.005	-0.005	-0.015	0.044	2.700	1.885	1.885	1.885	1.904	1.895	1.890
-0.020	0.000	0.000	0.000	0.000	0.010	0.044	2.710	1.895	1.890	1.885	1.904	1.899	1.904
-0.010	0.010	0.000	0.000	0.000	-0.005	0.044	2.720	1.909	1.904	1.895	1.909	1.904	1.899
0.010	0.015	0.005	0.000	0.000	0.005	0.044	2.676	1.909	1.909	1.899	1.914	1.909	1.909
0.005	0.015	0.010	0.010	0.005	-0.005	0.039	2.720	1.909	1.909	1.904	1.919	1.914	1.909
0.010	0.010	0.000	0.000	0.010	0.005	0.044	2.710	1.909	1.909	1.904	1.919	1.914	1.909
-0.005	0.000	0.000	0.000	0.000	-0.010	0.044	2.695	1.899	1.904	1.904	1.919	1.909	1.904
-0.010	0.015	0.000	0.005	0.000	-0.005	0.044	2.710	1.890	1.899	1.899	1.919	1.909	1.909
-0.020	0.000	0.005	0.005	0.005	-0.005	0.044	2.671	1.880	1.885	1.895	1.914	1.909	1.904
-0.029	0.000	0.005	0.005	0.005	-0.020	0.044	2.710	1.880	1.880	1.885	1.909	1.904	1.899
-0.020	0.005	0.000	0.000	0.005	-0.005	0.044	2.705	1.880	1.875	1.880	1.904	1.904	1.899
0.010	0.005	0.000	0.000	0.005	-0.015	0.049	2.705	1.890	1.880	1.875	1.899	1.899	1.895
0.034	0.010	0.000	0.000	0.005	-0.010	0.049	2.686	1.890	1.880	1.880	1.895	1.895	1.895
0.024	0.010	0.000	-0.005	0.005	0.000	0.039	2.686	1.885	1.880	1.875	1.895	1.890	1.899
0.010	0.005	0.005	-0.010	0.000	0.000	0.049	2.817	1.895	1.880	1.875	1.895	1.890	1.890
0.005	0.000	0.000	-0.015	0.000	-0.005	0.044	2.642	1.885	1.885	1.875	1.890	1.890	1.895
-0.005	-0.005	0.000	-0.010	0.005	0.015	0.044	2.651	1.885	1.885	1.880	1.899	1.895	1.904
-0.015	0.000	0.000	-0.005	0.005	0.005	0.044	2.788	1.904	1.890	1.885	1.904	1.895	1.899
0.015	0.000	-0.005	0.000	0.000	0.000	0.044	2.646	1.914	1.899	1.895	1.909	1.899	1.899
0.137	0.000	0.000	0.005	0.000	0.015	0.044	2.754	1.953	1.919	1.904	1.919	1.904	1.909
0.117	0.005	0.000	0.010	0.005	0.000	0.044	2.671	1.934	1.924	1.914	1.924	1.914	1.909
0.049	0.005	-0.005	0.015	0.000	0.015	0.044	2.739	1.909	1.919	1.914	1.929	1.919	1.914
-0.029	0.000	0.000	0.024	-0.005	0.010	0.039	2.617	1.875	1.904	1.914	1.929	1.914	1.909
-0.073	0.000	0.000	0.020	0.000	0.010	0.044	2.715	1.870	1.890	1.904	1.929	1.919	1.914
-0.117	0.000	0.000	0.020	0.000	-0.024	0.044	2.754	1.865	1.880	1.895	1.924	1.914	1.899
-0.098	0.010	0.010	0.029	0.000	-0.005	0.044	2.749	1.880	1.880	1.885	1.914	1.914	1.904
-0.063	-0.005	0.005	0.015	0.005	-0.010	0.044	2.695	1.880	1.875	1.880	1.909	1.909	1.909
-0.034	-0.010	0.010	0.010	0.000	-0.024	0.044	2.686	1.880	1.875	1.875	1.899	1.904	1.899
-0.024	0.015	0.005	0.015	0.000	0.010	0.044	2.646	1.880	1.880	1.875	1.895	1.895	1.904
-0.010	0.010	0.005	0.005	0.000	0.015	0.044	2.676	1.880	1.875	1.870	1.890	1.895	1.899
-0.015	-0.005	0.000	0.000	0.005	0.015	0.044	2.622	1.875	1.870	1.870	1.885	1.890	1.899
0.005	-0.005	0.005	-0.005	0.005	0.020	0.049	2.666	1.880	1.875	1.870	1.885	1.890	1.899
0.034	0.000	0.000	-0.005	0.000	0.010	0.044	2.671	1.890	1.880	1.875	1.890	1.890	1.895
0.039	0.010	0.005	0.000	0.005	0.000	0.044	2.700	1.904	1.890	1.880	1.895	1.890	1.895
0.010	0.010	0.000	0.000	0.000	-0.005	0.049	2.686	1.895	1.895	1.885	1.904	1.895	1.895
-0.015	0.010	-0.005	0.000	0.005	0.015	0.044	2.671	1.890	1.895	1.890	1.904	1.899	1.909
-0.034	0.010	0.000	-0.005	0.000	-0.005	0.049	2.700	1.895	1.899	1.895	1.909	1.904	1.899
-0.034	0.000	-0.005	-0.010	0.005	0.015	0.044	2.710	1.899	1.895	1.895	1.909	1.904	1.909
-0.034	0.010	0.005	-0.010	0.000	0.015	0.044	2.710	1.904	1.904	1.899	1.909	1.904	1.904
-0.029	0.000	0.005	-0.010	0.000	-0.005	0.044	2.705	1.909	1.904	1.899	1.914	1.904	1.904
-0.010	-0.005	0.000	-0.005	0.000	-0.044	0.049	2.666	1.904	1.899	1.895	1.914	1.904	1.895
0.010	0.000	0.005	-0.010	0.000	-0.015	0.044	2.705	1.904	1.895	1.895	1.909	1.904	1.899
0.015	-0.005	0.000	-0.010	0.000	-0.015	0.044	2.671	1.895	1.890	1.890	1.909	1.899	1.899
0.034	0.000	-0.005	-0.010	0.005	0.005	0.044	2.676	1.890	1.885	1.885	1.904	1.899	1.899
0.049	0.005	0.000	-0.005	0.005	0.010	0.044	2.695	1.885	1.885	1.880	1.899	1.895	1.899
0.044	-0.010	-0.005	-0.005	0.005	0.010	0.044	2.676	1.880	1.875	1.875	1.895	1.895	1.895
0.024	0.000	0.000	0.000	-0.005	0.010	0.044	2.705	1.880	1.875	1.875	1.899	1.890	1.890
0.024	-0.005	0.000	0.005	0.000	0.010	0.044	2.725	1.880	1.875	1.875	1.895	1.890	1.895
0.034	-0.010	0.000	0.005	-0.010	0.000	0.049	2.681	1.885	1.880	1.875	1.899	1.890	1.890
0.049	-0.024	0.000	0.005	0.000	0.020	0.044	2.705	1.890	1.880	1.880	1.899	1.895	1.899
0.024	-0.020	0.010	0.005	0.000	0.010	0.044	2.710	1.890	1.890	1.885	1.904	1.899	1.895
-0.005	-0.005	-0.005	0.005	0.005	0.020	0.044	2.715	1.890	1.895	1.890	1.904	1.899	1.904
-0.029	0.005	0.005	0.005	0.000	0.020	0.044	2.686	1.885	1.899	1.895	1.909	1.904	1.909
-0.049	0.000	0.000	0.005	0.000	0.010	0.044	2.686	1.885	1.895	1.895	1.914	1.909	1.904
-0.073	-0.005	0.000	0.005	0.000	0.000	0.044	2.798	1.899	1.895	1.895	1.914	1.909	1.904
-0.059	-0.005	0.000	0.010	0.000	-0.005	0.044	2.651	1.899	1.899	1.895	1.919	1.909	1.904
-0.044	0.005	0.000	0.010	0.005	-0.010	0.049	2.656	1.895	1.899	1.895	1.914	1.904	1.899
-0.024	0.000	0.000	0.005	0.000	-0.005	0.049	2.778	1.904	1.895	1.895	1.914	1.904	1.904
0.000	-0.005	0.000	0.005	0.005	0.000	0.044	2.642	1.904	1.895	1.890	1.909	1.904	1.904
0.029	-0.024	0.000	0.000	0.000	0.005	0.044	2.744	1.909	1.890	1.890	1.904	1.904	1.904
0.044	-0.005	0.000	0.000	0.000	0.005	0.044	2.661	1.899	1.895	1.890	1.899	1.899	1.895
0.044	-0.005	0.005	0.000	0.005	0.005	0.044	2.729	1.899	1.890	1.885	1.899	1.895	1.895
0.044	0.005	0.010	0.005	0.005	0.000	0.044	2.715	1.890	1.890	1.885	1.899	1.895	1.890
0.029	0.005	0.000	0.015	0.000	0.000	0.044	2.642	1.875	1.890	1.885	1.899	1.890	1.895
0.005	0.005	0.005	0.015	-0.005	-0.015	0.044	2.778	1.885	1.885	1.885	1.904	1.895	1.885
0.000	0.015	0.000	0.010	0.000	0.015	0.044	2.734	1.890	1.890	1.885	1.904	1.899	1.899
-0.020	0.010	0.000	0.000	0.000	0.005	0.044	2.754	1.895	1.895	1.890	1.904	1.899	1.899
-0.015	0.015	0.005	0.005	0.000	0.005	0.039	2.695	1.899	1.899	1.895	1.909	1.904	1.904
-0.015	0.010	0.000	0.005	0.000	0.010	0.044	2.656	1.895	1.899	1.895	1.914	1.909	1.909
-0.020	0.015	0.005	0.000	-0.010	0.020	0.044	2.695	1.899	1.899	1.899	1.919	1.909	1.914
-0.024	0.005	0.005	0.000	0.000	0.000	0.044	2.715	1.904	1.904	1.899	1.919	1.914	1.909
-0.020	0.000	0.000	0.005	0.000	-0.005	0.044	2.705	1.909	1.899	1.904	1.919	1.914	1.909
0.005	0.000	0.005	0.000	-0.005	0.005	0.049	2.681	1.909	1.904	1.904	1.924	1.914	1.914
0.010	0.010	0.005	0.005	0.000	0.015	0.049	2.715	1.914	1.909	1.904	1.924	1.914	1.914
0.073	0.000	0.005	0.000	-0.005	-0.015	0.044	2.676	1.924	1.904	1.899	1.919	1.909	1.904
0.132	0.005	0.000	0.000	0.000	0.015	0.044	2.686	1.929	1.909	1.899	1.914	1.909	1.914
0.103	0.010	0.000	-0.005	0.000	-0.010	0.044	2.676	1.904	1.909	1.899	1.909	1.904	1.904
0.049	0.010	0.000	0.000	0.005	0.010	0.044	2.705	1.875	1.895	1.895	1.909	1.904	1.904
-0.024	0.000	-0.005	-0.005	0.000	-0.005	0.044	2.705	1.860	1.875	1.885	1.904	1.899	1.899
-0.073	0.005	0.000	0.000	0.000	-0.015	0.044	2.710	1.855	1.870	1.880	1.899	1.899	1.895
-0.083	0.005	0.000	0.000	0.000	0.005	0.039	2.710	1.860	1.865	1.875	1.899	1.899	1.899
-0.078	0.005	-0.005	0.000	-0.005	0.005	0.044	2.700	1.875	1.870	1.870	1.895	1.899	1.904
-0.049	0.000	-0.005	-0.005	0.000	-0.015	0.044	2.700	1.890	1.875	1.870	1.895	1.895	1.895
-0.039	0.005	0.000	0.000	0.000	0.010	0.044	2.671	1.899	1.885	1.875	1.895	1.899	1.904
-0.015	0.010	0.000	-0.005	0.000	0.010	0.044	2.676	1.904	1.895	1.885	1.899	1.899	1.899
0.039	-0.005	0.000	-0.005	0.000	0.015	0.049	2.681	1.924	1.904	1.895	1.909	1.904	1.909
0.049	0.020	0.000	-0.005	0.000	0.010	0.044	2.681	1.929	1.919	1.904	1.914	1.904	1.909
0.029	0.024	0.000	-0.010	0.000	0.015	0.044	2.720	1.924	1.919	1.909	1.919	1.909	1.909
0.024	0.024	0.005	-0.010	-0.005	0.015	0.044	2.676	1.914	1.919	1.914	1.924	1.909	1.909
0.000	0.010	0.005	-0.005	0.005	0.000	0.044	2.710	1.899	1.909	1.909	1.924	1.914	1.909
-0.020	-0.010	0.010	-0.005	0.005	-0.005	0.044	2.715	1.890	1.899	1.909	1.924	1.914	1.904
-0.034	-0.015	0.005	-0.010	0.005	0.005	0.044	2.705	1.885	1.890	1.899	1.919	1.909	1.909
-0.029	-0.015	0.010	-0.010	0.005	0.005	0.039	2.681	1.880	1.880	1.890	1.909	1.909	1.909
-0.010	-0.015	0.005	-0.005	0.010	0.010	0.044	2.690	1.885	1.880	1.880	1.909	1.909	1.904
0.142	-0.005	0.005	0.000	0.010	0.005	0.044	2.808	1.938	1.895	1.885	1.904	1.904	1.899
0.176	0.000	0.005	0.005	0.015	0.000	0.044	2.646	1.924	1.904	1.885	1.904	1.899	1.899
0.117	-0.010	-0.005	0.015	0.020	0.005	0.044	2.651	1.885	1.895	1.885	1.904	1.904	1.899
0.034	-0.010	0.000	0.015	0.015	-0.020	0.044	2.788	1.880	1.885	1.885	1.904	1.899	1.895
-0.044	0.000	-0.005	0.015	0.024	-0.005	0.049	2.642	1.851	1.875	1.885	1.904	1.904	1.904
-0.112	0.015	0.005	0.015	0.015	-0.005	0.044	2.661	1.846	1.870	1.885	1.909	1.899	1.899
-0.127	0.015	0.005	0.005	0.015	-0.005	0.044	2.671	1.860	1.875	1.885	1.904	1.904	1.904
-0.088	0.020	0.000	0.005	0.020	-0.015	0.044	2.749	1.895	1.880	1.885	1.904	1.904	1.909
-0.005	0.024	0.000	0.005	0.029	-0.010	0.044	2.661	1.924	1.899	1.890	1.909	1.909	1.909
0.005	0.010	0.005	0.010	0.024	-0.029	0.044	2.759	1.929	1.904	1.895	1.914	1.914	1.904
0.000	0.005	0.005	0.015	0.015	-0.039	0.044	2.764	1.929	1.909	1.899	1.914	1.909	1.904
-0.010	0.000	0.000	0.015	0.015	-0.029	0.044	2.720	1.924	1.909	1.904	1.919	1.914	1.909
-0.020	-0.005	0.000	0.010	0.010	-0.049	0.044	2.734	1.899	1.904	1.904	1.919	1.909	1.904
-0.044	-0.005	0.000	0.010	0.005	-0.024	0.044	2.651	1.880	1.895	1.899	1.914	1.904	1.909
-0.054	-0.010	0.000	0.005	-0.005	0.010	0.044	2.651	1.875	1.885	1.890	1.909	1.904	1.914
-0.054	-0.010	-0.005	0.005	-0.005	0.015	0.044	2.661	1.870	1.875	1.880	1.904	1.899	1.909
-0.044	0.000	-0.005	0.005	-0.005	0.000	0.044	2.617	1.870	1.875	1.875	1.899	1.899	1.899
-0.020	0.000	0.000	0.005	-0.005	0.015	0.044	2.671	1.875	1.870	1.875	1.895	1.895	1.904
-0.020	0.005	-0.005	0.005	-0.010	0.000	0.044	2.681	1.885	1.870	1.875	1.895	1.890	1.895
-0.010	0.005	0.000	0.005	-0.010	0.005	0.044	2.681	1.880	1.875	1.870	1.890	1.890	1.890
0.010	0.000	-0.005	0.005	-0.015	0.024	0.044	2.671	1.885	1.875	1.870	1.890	1.890	1.899
0.122	0.000	-0.005	0.005	0.010	0.024	0.044	2.710	1.929	1.890	1.880	1.890	1.895	1.899
0.122	0.005	0.005	0.000	0.010	0.010	0.044	2.700	1.924	1.899	1.885	1.895	1.899	1.895
0.083	0.000	0.000	0.000	0.000	0.024	0.044	2.700	1.909	1.904	1.895	1.899	1.895	1.899
0.020	0.005	0.000	-0.005	-0.005	0.015	0.044	2.705	1.895	1.904	1.899	1.909	1.899	1.899
-0.029	0.000	0.000	-0.010	-0.005	0.024	0.044	2.700	1.885	1.899	1.904	1.914	1.904	1.904
-0.073	0.000	0.005	-0.005	0.005	0.024	0.044	2.710	1.885	1.899	1.899	1.919	1.909	1.904
-0.073	-0.010	0.005	0.000	0.005	0.020	0.044	2.715	1.890	1.895	1.899	1.919	1.914	1.909
-0.044	-0.005	0.000	0.000	0.005	0.010	0.049	2.705	1.904	1.895	1.895	1.919	1.914	1.904
-0.015	0.005	0.000	0.000	0.000	-0.005	0.044	2.666	1.909	1.904	1.895	1.919	1.909	1.904
0.005	0.000	-0.005	0.000	-0.020	0.010	0.049	2.666	1.904	1.899	1.895	1.914	1.904	1.904
0.020	-0.005	0.005	0.005	-0.034	0.010	0.044	2.705	1.899	1.895	1.890	1.909	1.899	1.904
0.024	0.005	0.005	-0.005	-0.024	0.010	0.049	2.686	1.890	1.890	1.890	1.909	1.899	1.899
0.020	-0.005	0.005	0.000	-0.020	0.005	0.039	2.710	1.885	1.885	1.885	1.904	1.899	1.895
0.015	0.005	0.000	0.000	-0.015	0.015	0.044	2.661	1.875	1.880	1.880	1.899	1.895	1.899
0.024	0.005	-0.005	0.005	0.005	0.000	0.044	2.700	1.880	1.875	1.875	1.899	1.899	1.890
0.034	0.010	0.005	0.000	0.010	0.015	0.044	2.705	1.885	1.880	1.875	1.899	1.899	1.895
0.029	0.020	0.005	0.000	0.015	0.015	0.044	2.705	1.890	1.885	1.880	1.899	1.899	1.899
0.034	-0.005	0.000	-0.005	0.010	0.000	0.039	2.676	1.890	1.885	1.880	1.899	1.899	1.899
0.024	0.000	0.000	-0.005	0.020	0.015	0.044	2.695	1.895	1.890	1.885	1.904	1.899	1.904
0.015	0.005	0.000	0.000	0.015	-0.020	0.039	2.808	1.914	1.899	1.890	1.909	1.904	1.895
0.093	0.005	0.000	-0.005	0.005	0.010	0.044	2.646	1.934	1.909	1.899	1.914	1.904	1.909
0.132	0.005	0.000	-0.005	0.020	0.010	0.044	2.656	1.934	1.919	1.904	1.919	1.914	1.909
0.078	0.015	0.005	-0.005	0.000	-0.015	0.044	2.798	1.924	1.924	1.914	1.919	1.909	1.904
0.024	0.005	0.000	-0.015	-0.015	0.000	0.044	2.651	1.895	1.909	1.909	1.924	1.909	1.909
-0.034	0.000	0.005	-0.010	0.000	0.005	0.049	2.734	1.880	1.899	1.909	1.924	1.919	1.909
-0.078	0.000	0.000	0.005	0.010	-0.010	0.044	2.656	1.870	1.890	1.899	1.929	1.919	1.909
-0.093	0.010	0.000	0.010	-0.005	-0.015	0.049	2.734	1.870	1.880	1.895	1.919	1.909	1.904
-0.083	0.000	0.000	0.015	-0.005	0.005	0.044	2.646	1.870	1.875	1.885	1.914	1.909	1.914
-0.063	-0.010	0.000	0.015	-0.015	0.005	0.044	2.729	1.875	1.865	1.875	1.909	1.904	1.904
-0.068	0.000	0.000	0.015	-0.005	0.000	0.044	2.759	1.885	1.875	1.870	1.899	1.899	1.904
-0.049	0.005	0.000	0.010	0.000	0.005	0.044	2.720	1.890	1.875	1.870	1.895	1.899	1.899
0.015	0.005	0.005	0.010	0.000	0.010	0.044	2.759	1.909	1.885	1.870	1.890	1.895	1.899
0.020	-0.005	0.005	0.000	0.010	-0.010	0.044	2.690	1.904	1.885	1.875	1.890	1.895	1.895
0.024	0.000	0.000	0.000	0.000	0.005	0.044	2.759	1.914	1.895	1.880	1.895	1.895	1.895
0.020	0.000	0.005	0.005	0.005	-0.010	0.044	2.666	1.904	1.899	1.890	1.899	1.895	1.895
-0.005	0.000	0.005	0.015	0.000	-0.015	0.044	2.622	1.890	1.899	1.895	1.909	1.899	1.899
-0.039	-0.005	0.005	0.015	0.005	-0.015	0.044	2.715	1.890	1.899	1.895	1.914	1.904	1.899
-0.010	0.000	0.005	0.015	0.010	-0.015	0.049	2.681	1.909	1.904	1.899	1.914	1.909	1.904
0.024	0.000	0.005	0.000	0.015	0.000	0.049	2.715	1.924	1.914	1.909	1.919	1.914	1.909
0.073	-0.005	0.005	-0.010	0.015	0.015	0.044	2.705	1.934	1.919	1.909	1.924	1.914	1.919
0.063	0.005	0.000	-0.005	0.000	0.010	0.044	2.705	1.919	1.919	1.909	1.924	1.914	1.914
0.039	0.005	0.000	-0.005	-0.005	-0.005	0.044	2.710	1.909	1.914	1.909	1.924	1.909	1.909
0.059	0.005	0.000	-0.010	-0.010	0.010	0.044	2.700	1.914	1.914	1.914	1.924	1.909	1.909
0.073	0.010	0.000	-0.005	-0.015	-0.015	0.044	2.705	1.904	1.904	1.904	1.924	1.909	1.904
0.029	-0.005	0.000	0.000	-0.005	0.005	0.039	2.666	1.880	1.890	1.899	1.919	1.914	1.909
-0.005	-0.010	0.000	0.005	0.000	0.010	0.044	2.671	1.870	1.880	1.890	1.914	1.909	1.904
-0.044	0.005	-0.005	0.005	0.005	0.015	0.044	2.700	1.860	1.875	1.880	1.909	1.909	1.909
-0.073	0.005	0.000	0.005	0.015	0.015	0.044	2.700	1.855	1.865	1.875	1.904	1.904	1.904
-0.088	0.005	0.005	0.010	0.020	0.000	0.039	2.671	1.855	1.865	1.870	1.899	1.904	1.899
-0.093	0.015	0.010	0.005	0.010	0.010	0.044	2.671	1.860	1.865	1.870	1.895	1.899	1.904
-0.103	-0.005	0.000	0.000	-0.005	0.010	0.044	2.705	1.875	1.860	1.870	1.895	1.890	1.904
-0.083	0.000	0.000	-0.005	-0.010	0.005	0.044	2.686	1.890	1.875	1.870	1.890	1.890	1.895
-0.039	-0.005	0.000	-0.015	-0.015	-0.005	0.044	2.715	1.909	1.885	1.875	1.895	1.890	1.899
-0.005	-0.010	0.000	-0.005	-0.020	-0.005	0.044	2.666	1.919	1.899	1.885	1.899	1.895	1.899
0.005	-0.005	0.000	0.000	-0.010	-0.020	0.044	2.676	1.919	1.909	1.890	1.909	1.899	1.895
0.015	0.000	0.000	0.010	-0.010	-0.005	0.044	2.705	1.924	1.914	1.899	1.914	1.904	1.904
0.029	0.015	0.005	0.020	-0.010	0.000	0.044	2.710	1.924	1.919	1.909	1.924	1.909	1.909
0.034	0.020	0.000	0.029	-0.005	0.010	0.049	2.681	1.914	1.919	1.909	1.924	1.914	1.909
0.024	0.005	0.005	0.020	0.000	0.000	0.044	2.700	1.909	1.914	1.914	1.924	1.919	1.909
0.029	-0.005	0.000	0.015	0.049	-0.005	0.044	2.793	1.909	1.904	1.904	1.924	1.929	1.909
0.029	0.000	0.000	0.010	0.078	0.024	0.044	2.651	1.895	1.904	1.899	1.919	1.929	1.924
0.024	0.000	0.005	0.005	0.059	0.029	0.044	2.646	1.880	1.895	1.899	1.909	1.914	1.919
0.044	0.005	0.005	-0.005	0.034	0.024	0.049	2.778	1.904	1.890	1.890	1.904	1.899	1.909
0.088	0.010	0.005	-0.010	-0.005	-0.005	0.049	2.637	1.899	1.895	1.890	1.899	1.885	1.895
0.156	0.005	0.000	-0.010	-0.029	-0.020	0.044	2.651	1.909	1.895	1.885	1.899	1.885	1.885
0.103	0.010	0.005	-0.005	-0.020	-0.015	0.049	2.676	1.885	1.895	1.890	1.904	1.890	1.890
0.039	0.000	0.005	0.000	0.000	-0.044	0.044	2.720	1.875	1.880	1.885	1.909	1.899	1.885
-0.049	-0.005	-0.005	0.000	-0.015	-0.029	0.044	2.695	1.855	1.870	1.885	1.904	1.895	1.890
-0.088	0.000	0.005	-0.005	-0.020	-0.015	0.044	2.725	1.865	1.870	1.885	1.904	1.899	1.899
-0.112	-0.005	0.000	-0.005	-0.015	-0.010	0.039	2.666	1.865	1.870	1.880	1.909	1.904	1.904
-0.098	-0.005	0.005	-0.005	-0.020	-0.015	0.044	2.764	1.890	1.875	1.885	1.909	1.909	1.904
-0.078	0.005	0.000	-0.010	0.000	0.010	0.044	2.754	1.914	1.895	1.890	1.909	1.914	1.919
-0.039	0.015	0.000	-0.005	0.015	0.024	0.044	2.666	1.919	1.904	1.895	1.914	1.919	1.919
-0.010	0.005	0.000	-0.005	0.015	0.020	0.044	2.754	1.934	1.914	1.899	1.914	1.919	1.919
0.010	-0.010	0.000	0.000	0.015	-0.015	0.044	2.661	1.929	1.914	1.899	1.914	1.914	1.909
0.024	0.000	-0.005	0.005	0.015	0.000	0.039	2.622	1.914	1.914	1.904	1.919	1.909	1.909
0.034	0.015	0.000	-0.005	0.010	-0.005	0.044	2.695	1.904	1.909	1.904	1.914	1.909	1.904
0.039	-0.020	0.000	-0.005	0.024	0.010	0.044	2.686	1.895	1.895	1.895	1.914	1.909	1.909
0.029	0.005	0.010	-0.005	0.015	-0.005	0.049	2.686	1.885	1.895	1.895	1.909	1.904	1.899
0.015	0.005	0.005	0.000	0.005	-0.020	0.049	2.705	1.880	1.885	1.890	1.904	1.895	1.890
0.005	0.000	0.005	0.000	-0.029	-0.005	0.044	2.710	1.880	1.875	1.885	1.904	1.890	1.895
0.005	-0.005	0.000	0.015	-0.020	-0.015	0.044	2.700	1.875	1.875	1.880	1.904	1.890	1.890
0.015	-0.005	0.000	0.005	-0.005	0.020	0.049	2.676	1.880	1.875	1.880	1.899	1.899	1.904
0.005	0.005	0.000	0.010	-0.005	0.029	0.049	2.715	1.890	1.880	1.880	1.904	1.899	1.904
0.010	0.000	0.000	0.010	-0.005	-0.015	0.044	2.681	1.895	1.890	1.885	1.904	1.899	1.895
0.015	0.005	0.005	0.005	0.000	0.010	0.049	2.671	1.895	1.895	1.890	1.904	1.904	1.904
0.015	-0.005	0.000	0.000	0.000	0.010	0.044	2.686	1.904	1.895	1.895	1.909	1.904	1.909
0.010	-0.010	0.005	-0.010	-0.005	0.024	0.039	2.686	1.909	1.904	1.895	1.914	1.909	1.914
0.015	-0.005	0.000	-0.005	0.005	0.005	0.044	2.671	1.904	1.904	1.899	1.914	1.914	1.914
0.015	0.000	0.000	0.000	0.000	0.010	0.044	2.646	1.899	1.909	1.904	1.919	1.914	1.909
0.010	0.015	0.000	0.005	-0.024	-0.010	0.044	2.676	1.899	1.904	1.904	1.924	1.904	1.904
0.005	0.005	0.005	0.010	-0.015	-0.015	0.044	2.686	1.895	1.899	1.904	1.924	1.914	1.904
0.005	-0.020	-0.005	0.020	-0.005	-0.020	0.044	2.695	1.890	1.890	1.895	1.919	1.914	1.909
-0.005	-0.010	0.000	0.020	0.005	0.000	0.044	2.671	1.885	1.885	1.890	1.914	1.914	1.914
-0.005	-0.005	0.000	0.005	0.044	0.005	0.049	2.686	1.885	1.880	1.890	1.909	1.919	1.914
0.000	-0.020	0.005	-0.005	0.049	0.015	0.044	2.705	1.885	1.875	1.880	1.899	1.909	1.909
0.000	-0.010	0.000	0.000	-0.005	0.000	0.044	2.705	1.880	1.870	1.875	1.895	1.890	1.899
0.005	0.015	0.000	0.000	-0.010	0.020	0.044	2.671	1.880	1.885	1.875	1.890	1.885	1.899
0.000	0.059	0.005	-0.005	0.005	0.029	0.044	2.705	1.885	1.895	1.880	1.895	1.895	1.899
0.000	0.020	0.000	0.005	0.020	0.020	0.044	2.783	1.899	1.880	1.880	1.895	1.895	1.895
-0.005	0.000	0.000	0.000	-0.010	0.024	0.044	2.651	1.890	1.885	1.880	1.895	1.890	1.899
0.000	0.020	0.005	-0.005	0.005	0.020	0.044	2.671	1.895	1.890	1.885	1.899	1.895	1.895
-0.005	0.010	-0.005	-0.005	0.015	0.029	0.044	2.798	1.909	1.899	1.890	1.904	1.904	1.904
-0.005	-0.010	0.005	0.000	0.034	-0.005	0.044	2.651	1.909	1.899	1.895	1.914	1.909	1.899
0.000	0.005	0.000	0.000	0.024	0.000	0.044	2.656	1.904	1.904	1.899	1.914	1.909	1.904
-0.005	0.000	0.000	0.005	0.015	0.000	0.039	2.671	1.899	1.904	1.899	1.919	1.909	1.909
-0.005	0.020	0.000	0.000	0.005	-0.005	0.044	2.759	1.909	1.909	1.904	1.919	1.909	1.904
-0.005	0.005	-0.005	-0.005	0.000	-0.029	0.044	2.700	1.904	1.909	1.904	1.919	1.904	1.899
0.000	0.010	0.000	0.000	-0.020	-0.010	0.049	2.710	1.909	1.909	1.904	1.919	1.904	1.904
0.010	0.005	0.005	-0.005	-0.029	0.010	0.044	2.754	1.895	1.899	1.899	1.914	1.899	1.909
0.000	0.005	0.000	-0.005	-0.029	-0.024	0.044	2.646	1.885	1.895	1.895	1.914	1.899	1.895
0.000	-0.005	0.000	0.015	-0.024	0.010	0.049	2.715	1.880	1.885	1.890	1.914	1.904	1.899
-0.005	0.000	0.000	0.020	0.005	-0.005	0.049	2.676	1.880	1.880	1.885	1.914	1.909	1.899
0.000	0.010	0.000	0.024	0.010	-0.034	0.044	2.749	1.880	1.875	1.880	1.909	1.904	1.895
0.010	-0.005	0.005	0.020	0.010	0.005	0.039	2.651	1.880	1.875	1.875	1.904	1.909	1.904
0.005	-0.015	0.000	0.015	0.015	0.010	0.044	2.627	1.875	1.870	1.875	1.899	1.899	1.909
-0.005	-0.020	0.000	0.005	-0.010	0.020	0.044	2.676	1.880	1.875	1.870	1.895	1.890	1.904
-0.005	-0.005	0.000	-0.005	-0.005	0.020	0.044	2.681	1.885	1.880	1.875	1.895	1.895	1.904
0.010	0.005	0.000	0.000	0.005	0.000	0.044	2.676	1.895	1.885	1.880	1.899	1.899	1.899
0.015	-0.005	0.000	-0.005	0.010	0.020	0.044	2.681	1.899	1.895	1.885	1.899	1.899	1.909
-0.005	-0.010	0.000	0.000	0.024	0.020	0.044	2.666	1.899	1.895	1.890	1.909	1.909	1.909
0.005	-0.015	0.000	0.005	0.024	0.015	0.049	2.715	1.909	1.899	1.895	1.914	1.909	1.909
0.000	-0.010	0.000	0.005	0.015	-0.005	0.044	2.681	1.904	1.904	1.899	1.914	1.904	1.904
-0.005	-0.010	0.000	0.005	-0.005	0.000	0.044	2.710	1.909	1.904	1.899	1.914	1.904	1.904
0.000	0.000	0.000	0.005	0.010	0.005	0.044	2.686	1.904	1.904	1.904	1.914	1.909	1.904
0.000	-0.010	0.005	0.010	0.000	0.005	0.044	2.705	1.904	1.904	1.899	1.919	1.909	1.909
0.005	0.005	0.000	0.005	-0.010	0.000	0.044	2.686	1.899	1.904	1.899	1.914	1.904	1.904
-0.005	0.000	0.000	0.000	-0.015	0.000	0.044	2.710	1.890	1.890	1.890	1.909	1.899	1.899
0.005	0.000	0.005	0.000	-0.015	-0.010	0.044	2.681	1.890	1.890	1.885	1.904	1.895	1.895
-0.005	-0.005	0.005	-0.005	-0.020	0.000	0.044	2.700	1.880	1.880	1.880	1.899	1.890	1.895
0.000	-0.010	0.005	-0.010	-0.010	0.000	0.044	2.715	1.885	1.875	1.880	1.899	1.895	1.895
0.000	-0.010	0.005	-0.005	0.010	0.005	0.044	2.715	1.885	1.875	1.875	1.895	1.899	1.895
0.000	0.005	0.000	-0.005	0.024	0.000	0.049	2.715	1.890	1.880	1.875	1.895	1.899	1.899
-0.005	-0.005	0.005	0.000	0.020	-0.020	0.044	2.666	1.885	1.880	1.880	1.899	1.895	1.895
0.005	0.010	0.005	-0.005	0.010	-0.005	0.044	2.695	1.895	1.890	1.885	1.899	1.895	1.895
0.000	0.063	0.010	0.000	0.005	0.005	0.044	2.700	1.904	1.914	1.895	1.904	1.899	1.899
0.000	0.063	0.005	0.000	0.010	0.005	0.044	2.710	1.904	1.909	1.904	1.914	1.904	1.904
-0.005	0.005	0.005	0.000	0.000	0.005	0.044	2.666	1.904	1.895	1.899	1.914	1.904	1.904
0.000	-0.010	0.000	0.005	0.005	0.015	0.049	2.690	1.904	1.899	1.899	1.919	1.914	1.914
-0.005	-0.020	0.005	0.005	0.000	0.010	0.044	2.808	1.919	1.904	1.904	1.919	1.914	1.909
-0.010	0.010	-0.005	0.000	-0.005	-0.010	0.044	2.656	1.909	1.914	1.904	1.919	1.914	1.909
0.000	0.010	0.000	-0.005	-0.010	0.005	0.039	2.661	1.904	1.904	1.904	1.924	1.909	1.909
0.005	0.005	0.000	0.000	-0.010	0.005	0.044	2.793	1.909	1.899	1.904	1.919	1.909	1.909
-0.010	0.005	0.000	-0.005	0.000	-0.024	0.044	2.637	1.890	1.899	1.899	1.914	1.909	1.899
-0.005	0.015	0.000	-0.010	0.005	-0.020	0.044	2.651	1.899	1.899	1.890	1.909	1.904	1.899
-0.005	-0.015	-0.005	-0.005	0.005	0.000	0.044	2.671	1.885	1.880	1.885	1.909	1.904	1.904
-0.010	-0.005	0.000	-0.005	0.000	0.005	0.044	2.764	1.885	1.880	1.880	1.904	1.899	1.899
-0.010	-0.010	0.000	0.005	-0.005	0.010	0.044	2.651	1.880	1.880	1.880	1.904	1.899	1.899
0.000	0.015	0.000	0.010	0.000	0.005	0.044	2.686	1.890	1.885	1.880	1.904	1.895	1.899
-0.005	-0.005	0.000	0.015	0.005	0.010	0.044	2.651	1.880	1.875	1.875	1.904	1.899	1.899
0.005	-0.005	-0.005	0.010	0.005	-0.020	0.044	2.617	1.880	1.880	1.880	1.899	1.899	1.890
0.010	0.020	0.000	0.010	0.000	0.015	0.039	2.759	1.899	1.895	1.890	1.904	1.904	1.909
0.005	0.015	0.000	0.010	0.000	0.024	0.039	2.686	1.899	1.895	1.890	1.909	1.904	1.909
0.005	0.010	0.000	0.005	-0.005	0.005	0.044	2.666	1.904	1.899	1.895	1.914	1.904	1.904
0.005	0.015	0.005	0.005	-0.005	-0.005	0.044	2.695	1.904	1.904	1.899	1.919	1.909	1.904
0.010	0.015	0.000	0.005	-0.010	0.029	0.044	2.627	1.904	1.909	1.904	1.919	1.914	1.919
0.005	0.015	0.005	0.000	-0.015	0.010	0.044	2.671	1.899	1.909	1.904	1.919	1.909	1.909
-0.005	0.005	0.005	-0.005	-0.005	0.010	0.044	2.671	1.895	1.899	1.904	1.919	1.914	1.914
0.000	-0.005	0.000	0.000	-0.005	0.000	0.039	2.700	1.895	1.890	1.899	1.919	1.914	1.909
-0.005	-0.010	0.005	0.005	0.000	0.000	0.044	2.681	1.890	1.885	1.895	1.919	1.914	1.909
-0.005	-0.005	0.005	0.000	0.024	-0.010	0.049	2.676	1.885	1.890	1.885	1.909	1.914	1.904
-0.015	0.000	0.005	0.000	0.020	-0.005	0.044	2.710	1.885	1.885	1.885	1.909	1.909	1.909
-0.005	0.000	0.005	0.000	0.000	-0.005	0.044	2.666	1.875	1.875	1.875	1.899	1.899	1.899
0.000	-0.020	0.000	0.000	0.010	-0.015	0.039	2.695	1.875	1.870	1.870	1.895	1.895	1.899
0.015	-0.015	0.005	0.000	0.005	-0.005	0.044	2.671	1.880	1.875	1.875	1.890	1.890	1.895
0.010	-0.005	0.000	0.005	0.010	-0.020	0.044	2.676	1.880	1.875	1.870	1.890	1.890	1.895
0.005	0.005	0.005	0.005	-0.005	0.010	0.049	2.681	1.880	1.880	1.875	1.890	1.885	1.895
0.010	-0.010	0.000	0.000	0.015	0.005	0.044	2.705	1.890	1.875	1.880	1.895	1.895	1.895
0.005	-0.005	0.000	-0.005	0.010	0.015	0.044	2.686	1.895	1.890	1.880	1.899	1.895	1.904
0.005	0.000	-0.005	-0.005	0.005	0.024	0.044	2.710	1.904	1.895	1.885	1.904	1.895	1.904
0.010	0.000	0.000	-0.005	-0.010	0.000	0.039	2.676	1.904	1.899	1.895	1.904	1.895	1.899
0.005	0.010	0.000	-0.010	-0.010	0.005	0.044	2.710	1.909	1.904	1.899	1.909	1.899	1.895
0.005	0.000	0.000	-0.015	0.015	0.005	0.044	2.715	1.909	1.909	1.904	1.914	1.909	1.904
-0.005	0.015	0.005	0.000	0.020	0.005	0.044	2.690	1.909	1.914	1.904	1.924	1.914	1.904
0.000	0.015	0.005	0.005	0.020	-0.010	0.044	2.686	1.904	1.914	1.909	1.929	1.914	1.904
0.000	0.015	0.005	0.015	0.039	0.000	0.044	2.715	1.899	1.904	1.909	1.924	1.919	1.909
0.000	0.015	0.005	0.015	0.020	-0.010	0.049	2.710	1.899	1.899	1.904	1.919	1.909	1.904
0.000	0.015	0.005	0.010	-0.010	-0.015	0.044	2.671	1.890	1.890	1.895	1.914	1.899	1.899
0.005	0.010	0.000	0.005	-0.029	0.010	0.044	2.686	1.885	1.885	1.885	1.909	1.895	1.904
0.000	0.000	0.005	0.005	-0.039	0.029	0.044	2.690	1.890	1.880	1.885	1.904	1.895	1.904
0.000	-0.005	0.000	0.000	-0.054	0.015	0.044	2.646	1.885	1.875	1.875	1.899	1.885	1.890
0.000	-0.005	0.000	0.000	-0.034	0.015	0.044	2.646	1.875	1.875	1.875	1.895	1.895	1.890
0.000	0.000	0.005	0.000	0.010	0.010	0.044	2.793	1.890	1.880	1.880	1.899	1.904	1.895
0.005	0.000	0.005	0.000	0.029	-0.010	0.044	2.642	1.890	1.880	1.880	1.899	1.904	1.895
0.000	-0.010	0.000	0.015	0.044	-0.010	0.044	2.720	1.895	1.885	1.880	1.899	1.909	1.899
0.005	0.005	-0.005	0.005	0.044	0.015	0.044	2.705	1.904	1.895	1.890	1.904	1.914	1.914
0.010	0.010	-0.005	0.005	0.044	-0.024	0.044	2.725	1.909	1.899	1.895	1.909	1.909	1.904
0.010	0.005	0.000	0.005	0.020	0.000	0.044	2.671	1.909	1.909	1.899	1.914	1.909	1.909
0.000	0.000	0.000	0.005	0.000	-0.005	0.044	2.651	1.904	1.909	1.904	1.919	1.899	1.909
0.005	0.000	-0.005	0.000	-0.015	-0.010	0.049	2.764	1.914	1.909	1.904	1.919	1.904	1.909
-0.005	0.000	-0.005	-0.005	0.000	-0.015	0.044	2.656	1.904	1.909	1.909	1.919	1.914	1.904
-0.005	-0.005	-0.005	-0.005	-0.005	-0.015	0.044	2.676	1.890	1.899	1.904	1.919	1.909	1.904
0.000	0.000	-0.005	-0.005	-0.005	0.010	0.044	2.646	1.885	1.895	1.899	1.919	1.909	1.914
0.005	-0.005	0.000	0.005	-0.010	0.005	0.044	2.749	1.890	1.885	1.890	1.919	1.904	1.904
0.000	-0.005	-0.005	0.005	-0.020	0.000	0.044	2.671	1.880	1.885	1.890	1.909	1.904	1.904
0.005	0.005	-0.005	0.005	-0.010	0.005	0.049	2.617	1.870	1.880	1.880	1.904	1.904	1.904
0.005	-0.010	0.000	0.000	-0.015	0.015	0.044	2.695	1.870	1.870	1.875	1.899	1.899	1.899
0.010	0.000	0.000	0.000	-0.005	-0.024	0.039	2.681	1.875	1.870	1.875	1.899	1.895	1.890
0.000	0.005	0.010	0.005	0.000	0.015	0.044	2.671	1.870	1.870	1.870	1.895	1.899	1.899
-0.005	0.000	0.000	0.000	0.010	-0.005	0.044	2.710	1.875	1.870	1.870	1.895	1.899	1.895
0.005	-0.005	0.000	-0.005	0.010	0.015	0.044	2.661	1.885	1.875	1.870	1.890	1.895	1.899
-0.005	0.000	0.005	-0.005	0.015	0.010	0.044	2.715	1.890	1.885	1.875	1.895	1.899	1.899
0.000	-0.005	-0.005	-0.005	0.015	0.015	0.044	2.700	1.899	1.890	1.880	1.899	1.904	1.904
0.005	0.005	0.000	-0.005	0.020	0.000	0.044	2.715	1.904	1.899	1.890	1.904	1.904	1.899
-0.005	-0.005	0.005	-0.005	0.005	-0.015	0.044	2.720	1.909	1.899	1.895	1.909	1.899	1.899
0.000	0.005	0.000	0.000	0.000	0.015	0.044	2.710	1.914	1.909	1.899	1.914	1.904	1.909
0.005	0.000	0.000	0.000	-0.005	0.005	0.044	2.686	1.909	1.914	1.904	1.914	1.904	1.904
-0.015	0.005	-0.005	-0.005	-0.005	0.010	0.049	2.705	1.904	1.909	1.904	1.914	1.909	1.904
0.000	0.000	0.000	-0.005	-0.005	-0.005	0.044	2.671	1.899	1.904	1.904	1.914	1.909	1.899
-0.005	0.005	0.005	-0.015	-0.010	-0.015	0.044	2.681	1.890	1.895	1.899	1.914	1.904	1.899
-0.015	0.000	0.005	-0.005	-0.020	-0.010	0.039	2.676	1.880	1.890	1.890	1.914	1.899	1.895
-0.005	-0.005	0.000	0.010	-0.010	-0.010	0.044	2.705	1.875	1.880	1.885	1.914	1.904	1.899
-0.005	0.000	0.000	0.015	-0.005	0.000	0.044	2.710	1.880	1.875	1.880	1.909	1.904	1.899
-0.010	-0.005	-0.005	0.020	-0.005	-0.005	0.044	2.705	1.875	1.870	1.875	1.904	1.899	1.895
-0.010	-0.005	0.005	0.020	0.000	0.005	0.044	2.681	1.880	1.870	1.870	1.899	1.899	1.895
0.005	0.000	0.000	0.020	0.020	-0.005	0.044	2.705	1.885	1.875	1.875	1.895	1.899	1.895
0.010	0.005	0.005	0.015	0.015	0.010	0.044	2.715	1.890	1.880	1.875	1.895	1.895	1.899
0.000	0.005	0.005	0.015	0.015	0.000	0.044	2.671	1.890	1.885	1.880	1.895	1.895	1.899
0.005	0.010	0.000	0.015	0.010	0.005	0.044	2.690	1.899	1.890	1.885	1.899	1.899	1.899
0.005	0.015	0.000	0.005	-0.005	0.005	0.044	2.798	1.914	1.899	1.890	1.904	1.895	1.904
0.005	-0.005	0.000	0.005	-0.020	0.000	0.044	2.637	1.904	1.904	1.895	1.909	1.895	1.904
0.000	-0.005	0.000	-0.005	-0.020	0.015	0.044	2.661	1.904	1.904	1.899	1.909	1.899	1.909
0.000	-0.010	0.000	-0.005	-0.010	0.010	0.044	2.788	1.919	1.904	1.904	1.914	1.909	1.904
-0.010	-0.005	0.005	-0.005	-0.010	0.010	0.044	2.642	1.904	1.904	1.904	1.914	1.909	1.909
0.010	-0.005	0.000	0.000	0.024	-0.020	0.044	2.734	1.904	1.909	1.909	1.919	1.919	1.904
0.010	0.044	0.005	0.000	0.044	0.005	0.044	2.715	1.904	1.919	1.909	1.924	1.924	1.914
-0.005	0.034	0.000	0.000	0.029	-0.005	0.044	2.725	1.899	1.909	1.899	1.919	1.914	1.909
0.010	-0.010	0.005	-0.005	0.010	0.005	0.044	2.651	1.885	1.885	1.895	1.909	1.904	1.909
0.000	-0.005	0.005	-0.010	0.024	0.000	0.049	2.715	1.885	1.885	1.890	1.909	1.904	1.904
-0.005	0.000	0.005	-0.010	0.015	-0.015	0.049	2.720	1.880	1.875	1.885	1.904	1.895	1.895
0.000	-0.010	0.005	-0.005	0.000	-0.005	0.044	2.754	1.890	1.875	1.880	1.899	1.895	1.899
-0.005	-0.005	0.000	0.005	0.010	-0.015	0.044	2.661	1.880	1.875	1.880	1.899	1.895	1.895
0.005	0.005	0.000	0.005	-0.010	0.020	0.044	2.646	1.880	1.880	1.875	1.899	1.890	1.904
0.005	0.000	-0.005	0.005	-0.005	0.015	0.044	2.661	1.880	1.880	1.880	1.899	1.895	1.899
0.010	0.005	0.005	0.000	0.000	0.010	0.044	2.690	1.890	1.890	1.885	1.899	1.899	1.895
0.005	0.024	0.005	-0.005	0.000	0.020	0.044	2.622	1.890	1.895	1.885	1.904	1.899	1.904
0.010	0.005	0.005	-0.005	-0.005	0.015	0.039	2.666	1.899	1.895	1.890	1.904	1.899	1.904
0.015	-0.010	0.005	-0.010	0.000	0.000	0.044	2.681	1.899	1.895	1.895	1.909	1.904	1.904
0.010	0.005	0.000	-0.010	0.000	0.005	0.044	2.686	1.904	1.904	1.899	1.914	1.909	1.909
0.005	-0.015	0.005	-0.005	-0.010	0.015	0.044	2.671	1.899	1.899	1.899	1.914	1.909	1.909
0.000	0.000	0.000	-0.015	-0.020	-0.005	0.044	2.690	1.899	1.904	1.899	1.914	1.904	1.909
0.005	0.005	0.000	-0.015	-0.024	-0.005	0.044	2.705	1.899	1.899	1.899	1.914	1.904	1.904
-0.005	0.010	0.005	-0.005	-0.015	-0.024	0.044	2.705	1.895	1.895	1.895	1.919	1.904	1.899
-0.015	0.010	0.005	0.005	0.010	-0.020	0.044	2.710	1.885	1.890	1.890	1.914	1.909	1.899
0.000	-0.010	0.000	0.010	0.000	0.005	0.049	2.695	1.885	1.880	1.885	1.909	1.904	1.909
0.000	0.000	0.000	0.015	-0.020	0.020	0.044	2.671	1.880	1.875	1.880	1.904	1.895	1.909
0.005	-0.005	0.005	0.015	-0.020	0.010	0.044	2.710	1.885	1.875	1.875	1.899	1.895	1.899
-0.005	-0.005	0.000	0.010	0.000	-0.005	0.044	2.695	1.880	1.875	1.875	1.895	1.899	1.890
0.000	0.010	0.000	0.010	0.005	-0.010	0.044	2.671	1.880	1.880	1.875	1.895	1.895	1.895
0.000	-0.005	0.005	0.015	-0.005	0.005	0.044	2.700	1.885	1.875	1.875	1.895	1.895	1.895
-0.010	0.000	0.005	0.020	0.024	0.010	0.039	2.715	1.890	1.880	1.875	1.899	1.904	1.904
0.000	0.005	0.000	0.020	0.015	0.000	0.044	2.671	1.895	1.890	1.885	1.899	1.899	1.904
0.015	0.015	0.005	0.020	0.000	-0.010	0.039	2.715	1.904	1.899	1.890	1.904	1.899	1.899
0.005	0.000	0.000	0.020	0.063	0.005	0.039	2.671	1.899	1.899	1.895	1.909	1.919	1.914
0.015	0.000	0.000	0.005	0.078	0.010	0.044	2.676	1.909	1.904	1.895	1.909	1.919	1.914
0.000	0.000	0.005	0.000	0.029	0.005	0.044	2.705	1.909	1.904	1.899	1.914	1.904	1.909
0.005	0.000	0.005	-0.010	0.020	-0.005	0.044	2.715	1.909	1.909	1.899	1.914	1.904	1.904
0.005	-0.005	0.000	-0.015	-0.005	-0.029	0.049	2.671	1.904	1.904	1.904	1.909	1.899	1.895
0.005	0.000	0.000	-0.015	0.024	-0.020	0.049	2.686	1.899	1.904	1.904	1.914	1.909	1.904
0.000	0.005	-0.005	-0.015	0.054	0.000	0.049	2.744	1.904	1.899	1.904	1.914	1.909	1.909
0.000	0.010	-0.005	-0.010	-0.005	0.015	0.044	2.651	1.890	1.895	1.895	1.909	1.895	1.909
0.005	-0.005	0.000	0.000	-0.034	0.010	0.044	2.651	1.880	1.885	1.890	1.909	1.890	1.895
0.005	0.010	0.000	0.005	-0.039	0.010	0.044	2.773	1.885	1.885	1.885	1.904	1.885	1.890
-0.005	-0.005	0.000	0.005	-0.015	0.005	0.044	2.642	1.875	1.875	1.875	1.899	1.895	1.890
0.000	-0.005	0.005	0.000	0.000	0.010	0.044	2.729	1.865	1.870	1.875	1.899	1.899	1.895
-0.005	0.005	0.005	0.000	0.015	-0.010	0.044	2.671	1.870	1.870	1.875	1.895	1.899	1.890
0.000	0.015	0.000	-0.005	0.000	0.005	0.049	2.754	1.890	1.880	1.875	1.895	1.890	1.890
-0.005	-0.024	0.000	0.000	-0.010	-0.010	0.049	2.617	1.885	1.875	1.875	1.895	1.895	1.890
0.005	-0.010	0.000	0.000	-0.015	-0.005	0.049	2.651	1.885	1.880	1.880	1.899	1.895	1.895
0.010	-0.010	0.000	0.000	-0.024	0.010	0.049	2.729	1.904	1.890	1.885	1.899	1.895	1.904
0.010	0.000	0.000	-0.005	-0.010	0.005	0.044	2.642	1.909	1.899	1.890	1.904	1.904	1.899
0.010	0.005	0.005	0.000	-0.010	0.005	0.044	2.754	1.914	1.909	1.899	1.909	1.909	1.904
0.020	0.005	0.000	0.005	0.000	0.010	0.044	2.656	1.914	1.909	1.904	1.919	1.909	1.909
0.010	0.000	0.000	0.020	0.005	-0.024	0.044	2.739	1.909	1.909	1.904	1.924	1.914	1.904
-0.005	0.000	0.000	0.029	0.010	0.000	0.044	2.656	1.895	1.904	1.904	1.924	1.919	1.909
-0.005	0.005	0.005	0.024	0.015	-0.005	0.044	2.617	1.885	1.899	1.904	1.924	1.914	1.914
-0.005	0.000	0.005	0.015	0.005	0.015	0.044	2.705	1.885	1.895	1.895	1.914	1.909	1.914
-0.015	0.000	0.000	0.005	0.000	0.015	0.044	2.671	1.875	1.880	1.885	1.909	1.904	1.904
-0.015	0.015	0.000	0.005	-0.010	0.005	0.044	2.671	1.875	1.880	1.880	1.899	1.895	1.904
-0.029	0.015	0.000	0.005	-0.005	0.005	0.044	2.671	1.870	1.875	1.875	1.899	1.895	1.895
-0.015	0.034	0.000	0.000	-0.010	0.010	0.049	2.661	1.870	1.880	1.875	1.895	1.890	1.899
-0.005	0.029	0.005	0.005	-0.005	0.010	0.049	2.700	1.875	1.870	1.875	1.895	1.890	1.895
-0.005	0.024	0.000	-0.005	0.005	0.000	0.044	2.710	1.880	1.870	1.870	1.890	1.890	1.890
-0.005	0.010	0.005	0.000	0.000	0.000	0.049	2.715	1.890	1.875	1.875	1.895	1.890	1.890
-0.005	0.000	0.010	0.000	0.000	-0.005	0.044	2.705	1.895	1.880	1.875	1.895	1.890	1.890
0.005	0.010	0.000	0.005	-0.039	0.010	0.044	2.700	1.899	1.890	1.880	1.899	1.885	1.895
0.015	0.005	0.010	0.000	-0.029	0.005	0.039	2.705	1.909	1.895	1.885	1.904	1.895	1.899
0.005	0.000	0.010	0.000	-0.015	-0.020	0.044	2.710	1.909	1.899	1.895	1.909	1.904	1.895
0.000	0.000	0.005	-0.005	0.000	0.010	0.044	2.676	1.909	1.904	1.899	1.909	1.909	1.909
0.010	0.005	0.005	-0.005	0.015	-0.010	0.044	2.681	1.909	1.909	1.904	1.914	1.914	1.909
0.005	-0.005	0.000	-0.005	0.029	-0.005	0.044	2.710	1.909	1.904	1.904	1.914	1.914	1.909
0.005	-0.005	0.005	-0.005	0.000	-0.005	0.044	2.700	1.904	1.899	1.904	1.919	1.909	1.909
-0.005	-0.005	0.000	-0.010	0.024	-0.005	0.044	2.705	1.899	1.895	1.895	1.914	1.914	1.909
-0.010	-0.010	0.000	-0.005	0.029	-0.010	0.044	2.666	1.890	1.890	1.890	1.909	1.909	1.904
0.000	0.000	-0.005	-0.005	0.029	-0.005	0.044	2.700	1.890	1.890	1.890	1.909	1.904	1.904
-0.005	0.000	0.000	0.000	0.029	-0.005	0.049	2.715	1.890	1.885	1.885	1.904	1.904	1.904
0.000	-0.005	-0.005	0.000	0.024	-0.005	0.044	2.705	1.885	1.880	1.880	1.899	1.895	1.895
0.010	-0.010	0.000	0.000	0.015	-0.020	0.044	2.661	1.880	1.875	1.875	1.899	1.895	1.895
0.005	-0.005	0.005	0.005	0.000	0.005	0.039	2.690	1.880	1.875	1.875	1.895	1.890	1.895
0.000	0.000	0.000	0.000	-0.005	0.010	0.044	2.681	1.895	1.880	1.875	1.895	1.885	1.890
0.000	0.000	0.010	0.000	-0.010	0.005	0.044	2.656	1.895	1.890	1.880	1.895	1.890	1.890
0.005	0.000	0.010	-0.005	-0.005	0.000	0.044	2.656	1.895	1.890	1.885	1.899	1.890	1.890
0.010	0.000	0.005	0.000	-0.015	0.010	0.044	2.803	1.909	1.899	1.890	1.904	1.895	1.895
0.000	-0.005	0.005	0.000	-0.010	0.005	0.044	2.651	1.904	1.904	1.895	1.909	1.904	1.904
0.000	0.000	0.000	-0.005	-0.005	0.015	0.044	2.651	1.899	1.904	1.904	1.914	1.909	1.909
0.005	0.010	0.005	0.000	-0.005	0.010	0.044	2.695	1.904	1.909	1.909	1.919	1.914	1.909
0.000	0.010	0.000	0.005	-0.005	0.005	0.044	2.715	1.909	1.909	1.904	1.924	1.914	1.909
0.005	-0.005	0.000	0.005	0.000	0.000	0.049	2.695	1.904	1.899	1.904	1.924	1.914	1.909
0.005	-0.010	0.000	0.010	0.000	-0.010	0.044	2.744	1.909	1.904	1.899	1.924	1.914	1.909
-0.005	-0.005	-0.005	0.005	-0.005	0.000	0.044	2.666	1.895	1.899	1.895	1.919	1.914	1.909
0.005	-0.015	0.000	0.005	0.000	0.000	0.049	2.666	1.885	1.890	1.895	1.914	1.909	1.909
0.005	-0.010	-0.005	0.005	0.000	-0.010	0.044	2.744	1.880	1.885	1.885	1.909	1.909	1.904
-0.010	0.049	0.000	0.000	-0.005	0.000	0.044	2.690	1.875	1.895	1.885	1.904	1.904	1.904
-0.010	0.020	0.000	0.000	-0.005	0.000	0.039	2.661	1.870	1.875	1.880	1.899	1.895	1.899
0.005	-0.010	0.000	0.000	0.000	-0.024	0.044	2.651	1.870	1.870	1.875	1.895	1.899	1.895
0.010	-0.005	0.000	0.005	0.005	0.010	0.044	2.617	1.870	1.865	1.870	1.895	1.899	1.899
0.005	-0.005	0.000	0.000	0.010	-0.015	0.044	2.700	1.880	1.870	1.870	1.895	1.895	1.895
0.005	-0.005	0.000	0.005	0.000	0.000	0.044	2.681	1.885	1.875	1.870	1.895	1.895	1.899
0.000	0.020	0.005	0.005	0.005	0.020	0.044	2.676	1.890	1.890	1.880	1.899	1.899	1.904
0.000	0.015	0.005	0.005	0.000	0.005	0.044	2.720	1.899	1.895	1.885	1.904	1.899	1.899
0.000	-0.005	0.005	0.000	0.000	0.010	0.044	2.710	1.909	1.890	1.890	1.909	1.899	1.909
0.010	-0.005	0.000	0.005	0.010	0.010	0.044	2.710	1.914	1.899	1.895	1.909	1.904	1.904
0.005	0.000	0.005	0.005	0.005	0.010	0.049	2.681	1.914	1.909	1.899	1.914	1.909	1.909
0.010	-0.005	0.010	0.000	-0.005	-0.010	0.044	2.710	1.914	1.909	1.904	1.914	1.904	1.899
-0.010	0.000	0.005	0.005	-0.005	-0.015	0.044	2.705	1.909	1.909	1.904	1.919	1.909	1.904
0.000	0.000	0.000	0.000	-0.005	0.015	0.044	2.705	1.904	1.904	1.904	1.914	1.909	1.909
-0.010	0.000	0.005	0.000	0.015	-0.010	0.044	2.700	1.895	1.899	1.899	1.914	1.914	1.904
0.000	-0.005	-0.005	0.000	0.005	0.005	0.044	2.710	1.895	1.890	1.895	1.909	1.904	1.904
-0.005	-0.005	0.005	0.005	-0.005	0.000	0.044	2.671	1.885	1.885	1.890	1.904	1.899	1.899
0.005	0.000	0.000	0.005	0.000	0.005	0.044	2.676	1.880	1.885	1.885	1.904	1.899	1.899
0.015	0.020	0.000	0.005	0.000	0.005	0.044	2.686	1.880	1.885	1.885	1.899	1.895	1.895
-0.005	0.020	0.000	0.000	-0.010	0.000	0.049	2.681	1.880	1.880	1.880	1.899	1.890	1.895
0.005	0.015	0.000	0.010	-0.010	0.000	0.044	2.705	1.885	1.875	1.880	1.899	1.890	1.890
0.010	0.005	0.000	0.000	-0.020	0.000	0.044	2.671	1.890	1.880	1.880	1.899	1.890	1.890
0.015	0.005	0.000	0.000	-0.029	-0.005	0.044	2.705	1.895	1.885	1.880	1.899	1.895	1.895
0.010	0.005	0.000	0.000	-0.005	-0.005	0.044	2.705	1.895	1.890	1.890	1.904	1.899	1.895
0.000	0.005	0.000	0.005	-0.005	0.000	0.044	2.710	1.904	1.895	1.890	1.909	1.904	1.904
-0.020	0.000	0.000	0.000	-0.005	-0.005	0.044	2.676	1.904	1.899	1.895	1.909	1.904	1.904
-0.010	-0.005	0.000	0.005	0.000	0.020	0.049	2.700	1.904	1.904	1.904	1.919	1.914	1.914
-0.005	0.000	0.000	0.005	0.029	-0.010	0.044	2.676	1.919	1.909	1.904	1.919	1.924	1.909
0.005	-0.005	0.010	0.005	0.044	0.005	0.044	2.651	1.914	1.909	1.904	1.924	1.924	1.919
-0.005	-0.005	-0.005	0.005	0.029	0.010	0.044	2.661	1.899	1.904	1.899	1.919	1.919	1.914
-0.010	0.005	0.000	0.005	0.010	0.005	0.044	2.793	1.909	1.909	1.899	1.919	1.909	1.909
-0.005	-0.010	0.000	0.000	-0.005	0.000	0.039	2.637	1.890	1.895	1.895	1.909	1.899	1.909
-0.005	-0.005	0.000	-0.005	-0.005	0.000	0.044	2.744	1.895	1.890	1.890	1.909	1.899	1.899
-0.015	-0.005	0.005	0.000	0.034	0.015	0.044	2.690	1.885	1.885	1.890	1.909	1.909	1.904
0.005	-0.005	0.005	0.000	0.049	0.000	0.044	2.651	1.890	1.885	1.880	1.904	1.904	1.899
-0.005	0.000	0.005	0.005	0.024	-0.024	0.044	2.729	1.890	1.885	1.880	1.899	1.899	1.895
-0.010	0.000	0.000	0.005	0.010	-0.005	0.044	2.729	1.890	1.880	1.880	1.904	1.890	1.895
-0.005	0.005	0.005	0.000	-0.010	0.010	0.044	2.725	1.890	1.885	1.880	1.899	1.890	1.899
0.000	0.000	0.000	0.000	-0.010	0.015	0.044	2.622	1.885	1.885	1.885	1.904	1.890	1.899
0.000	-0.005	0.000	0.005	-0.010	0.015	0.044	2.676	1.890	1.890	1.890	1.904	1.899	1.899
-0.005	0.005	0.000	0.000	-0.005	0.010	0.044	2.700	1.895	1.895	1.890	1.909	1.904	1.904
0.010	0.005	0.000	0.000	-0.005	0.015	0.044	2.646	1.899	1.899	1.895	1.909	1.904	1.904
0.010	0.005	0.000	0.000	0.005	0.010	0.044	2.666	1.899	1.904	1.895	1.919	1.909	1.909
0.000	0.010	-0.005	0.005	-0.005	-0.005	0.044	2.627	1.895	1.904	1.899	1.919	1.909	1.909
0.005	0.010	0.000	0.000	-0.005	-0.010	0.044	2.666	1.895	1.899	1.904	1.919	1.914	1.904
0.010	0.005	0.010	0.010	-0.010	0.010	0.044	2.676	1.899	1.899	1.904	1.919	1.914	1.919
0.000	-0.005	0.005	0.015	-0.005	-0.010	0.044	2.695	1.895	1.895	1.899	1.919	1.914	1.909
-0.005	-0.010	0.000	0.020	-0.010	0.005	0.044	2.666	1.885	1.885	1.890	1.919	1.909	1.909
0.000	0.005	0.000	0.015	0.000	-0.010	0.044	2.666	1.885	1.890	1.890	1.909	1.909	1.904
0.005	0.005	-0.005	0.015	-0.005	0.000	0.049	2.705	1.885	1.880	1.885	1.904	1.904	1.904
-0.005	0.010	-0.005	0.005	0.000	0.000	0.044	2.700	1.880	1.875	1.880	1.899	1.899	1.904
0.005	0.000	0.000	0.000	0.000	-0.015	0.044	2.710	1.880	1.875	1.875	1.895	1.895	1.895
0.005	0.000	0.005	-0.005	-0.020	-0.005	0.044	2.700	1.880	1.875	1.870	1.890	1.885	1.890
0.000	0.005	0.000	-0.005	-0.024	-0.005	0.044	2.681	1.880	1.875	1.870	1.890	1.880	1.890
0.000	0.020	0.000	-0.005	-0.044	-0.010	0.044	2.705	1.890	1.880	1.875	1.890	1.880	1.885
0.063	0.010	0.000	-0.005	-0.049	0.005	0.044	2.715	1.914	1.890	1.880	1.895	1.880	1.890
0.103	0.005	0.005	-0.005	-0.015	0.015	0.044	2.681	1.924	1.904	1.890	1.899	1.899	1.895
0.068	0.010	0.000	-0.005	0.005	-0.005	0.044	2.681	1.904	1.909	1.895	1.909	1.909	1.895
0.020	-0.005	-0.005	0.000	0.015	0.000	0.049	2.710	1.895	1.899	1.899	1.914	1.914	1.899
-0.010	-0.010	0.000	0.000	0.039	0.005	0.044	2.705	1.890	1.899	1.899	1.919	1.924	1.914
-0.039	-0.005	0.000	0.005	0.024	-0.015	0.044	2.705	1.890	1.899	1.904	1.919	1.914	1.909
-0.049	0.010	0.000	0.010	-0.010	0.015	0.044	2.700	1.890	1.899	1.899	1.919	1.904	1.914
-0.059	-0.015	0.005	0.005	-0.029	0.015	0.044	2.700	1.890	1.895	1.899	1.919	1.909	1.909
-0.044	0.000	0.005	0.000	0.073	-0.005	0.039	2.700	1.895	1.895	1.895	1.914	1.934	1.914
-0.029	-0.010	0.005	0.005	0.107	0.000	0.039	2.695	1.895	1.890	1.890	1.914	1.934	1.919
-0.029	0.000	0.000	0.010	0.049	0.000	0.044	2.671	1.890	1.890	1.890	1.909	1.909	1.914
-0.020	0.000	0.010	0.005	0.034	0.015	0.044	2.676	1.885	1.885	1.885	1.904	1.899	1.909
-0.010	0.000	0.005	0.000	0.039	-0.005	0.044	2.656	1.895	1.880	1.880	1.899	1.895	1.895
-0.005	0.005	0.005	0.000	0.034	0.020	0.044	2.651	1.885	1.880	1.875	1.899	1.890	1.899
0.000	0.000	0.000	-0.005	0.015	0.015	0.049	2.651	1.885	1.880	1.875	1.895	1.885	1.895
0.005	0.000	0.000	0.000	-0.010	0.000	0.044	2.798	1.899	1.885	1.875	1.895	1.880	1.890
-0.005	0.000	-0.005	-0.005	-0.005	-0.010	0.044	2.642	1.890	1.885	1.875	1.895	1.885	1.885
-0.005	-0.005	-0.005	-0.005	-0.010	-0.005	0.049	2.744	1.899	1.890	1.880	1.899	1.890	1.890
-0.010	-0.005	0.005	0.000	-0.020	0.010	0.044	2.671	1.895	1.899	1.890	1.904	1.890	1.895
0.005	0.000	0.000	0.000	-0.024	0.005	0.044	2.725	1.904	1.904	1.895	1.909	1.895	1.895
0.000	0.000	0.000	-0.005	-0.024	0.000	0.044	2.651	1.904	1.904	1.899	1.914	1.899	1.899
0.010	0.005	0.005	-0.005	-0.020	-0.015	0.044	2.710	1.904	1.909	1.909	1.914	1.904	1.899
0.020	0.000	0.005	-0.005	-0.015	-0.034	0.044	2.725	1.899	1.904	1.904	1.919	1.914	1.895
0.015	0.000	-0.005	0.000	-0.015	-0.015	0.044	2.622	1.895	1.904	1.904	1.924	1.914	1.904
0.020	-0.010	0.000	0.005	-0.015	0.000	0.044	2.729	1.895	1.895	1.904	1.924	1.919	1.909
0.005	-0.005	-0.005	0.010	-0.010	-0.005	0.044	2.646	1.880	1.890	1.899	1.919	1.914	1.914
0.005	0.010	0.010	0.005	-0.005	-0.005	0.044	2.671	1.890	1.890	1.890	1.914	1.914	1.909
0.005	0.005	-0.005	0.000	-0.015	0.010	0.044	2.661	1.885	1.880	1.885	1.904	1.909	1.909
0.010	0.000	0.000	0.000	0.005	-0.024	0.044	2.627	1.875	1.875	1.880	1.899	1.904	1.899
0.010	0.010	0.000	-0.005	0.005	0.015	0.044	2.671	1.870	1.870	1.875	1.895	1.899	1.909
0.015	0.000	0.000	0.000	0.010	0.000	0.044	2.676	1.875	1.870	1.870	1.895	1.895	1.895
0.005	-0.010	0.005	0.000	0.005	0.015	0.044	2.715	1.880	1.870	1.870	1.890	1.895	1.899
0.000	-0.010	-0.005	0.000	-0.005	0.005	0.044	2.676	1.875	1.870	1.865	1.890	1.885	1.895
0.005	-0.005	0.000	0.000	-0.005	0.005	0.044	2.705	1.885	1.875	1.875	1.895	1.890	1.895
0.000	0.000	0.000	0.000	-0.005	-0.005	0.044	2.720	1.895	1.890	1.875	1.895	1.895	1.895
0.000	0.039	0.000	0.005	-0.005	-0.005	0.044	2.695	1.904	1.904	1.890	1.899	1.895	1.890
0.005	0.073	0.005	0.005	-0.005	0.015	0.044	2.705	1.909	1.914	1.899	1.909	1.899	1.904
0.005	0.005	0.005	0.010	-0.005	0.010	0.044	2.671	1.909	1.899	1.899	1.909	1.909	1.904
0.010	-0.020	0.000	0.000	-0.005	-0.020	0.044	2.705	1.909	1.895	1.899	1.914	1.904	1.899
0.010	-0.020	0.000	0.005	0.000	0.000	0.044	2.686	1.904	1.899	1.899	1.914	1.909	1.899
0.010	-0.015	-0.005	0.005	0.000	0.005	0.044	2.710	1.909	1.899	1.899	1.919	1.909	1.909
0.010	-0.024	0.005	0.005	-0.005	0.010	0.044	2.661	1.899	1.899	1.899	1.919	1.909	1.909
0.005	-0.024	0.000	0.000	0.000	0.005	0.044	2.695	1.895	1.895	1.895	1.914	1.909	1.909
0.000	-0.010	0.000	0.000	0.005	0.000	0.044	2.661	1.885	1.890	1.895	1.909	1.904	1.899
-0.005	0.010	0.000	0.005	0.005	0.005	0.049	2.671	1.880	1.890	1.890	1.904	1.904	1.899
-0.005	0.024	-0.005	0.000	0.005	-0.005	0.044	2.710	1.875	1.885	1.880	1.899	1.899	1.899
0.000	0.020	0.000	0.000	0.005	0.010	0.044	2.710	1.880	1.875	1.875	1.899	1.895	1.899
0.000	-0.005	-0.005	-0.005	0.005	0.015	0.044	2.700	1.880	1.875	1.875	1.895	1.895	1.899
0.005	0.015	-0.005	-0.005	0.005	0.015	0.049	2.710	1.885	1.880	1.875	1.895	1.895	1.899
0.010	0.015	0.000	0.000	0.010	-0.024	0.044	2.710	1.890	1.880	1.880	1.895	1.890	1.885
0.005	0.010	0.000	0.000	0.005	0.010	0.044	2.681	1.890	1.885	1.880	1.899	1.895	1.899
0.005	0.005	0.010	0.005	0.005	0.000	0.044	2.690	1.895	1.890	1.885	1.904	1.899	1.895
0.000	0.000	0.005	0.010	0.005	0.015	0.044	2.676	1.899	1.890	1.890	1.904	1.904	1.904
0.005	-0.005	0.005	0.010	0.000	0.005	0.044	2.642	1.895	1.895	1.895	1.909	1.904	1.904
0.010	-0.005	0.005	0.000	0.000	0.005	0.044	2.651	1.899	1.895	1.895	1.909	1.909	1.904
0.005	0.005	0.000	0.000	0.000	0.010	0.044	2.666	1.914	1.904	1.899	1.909	1.909	1.909
0.005	0.010	0.000	-0.005	0.000	0.010	0.044	2.651	1.909	1.909	1.904	1.914	1.909	1.909
0.000	0.005	0.000	-0.005	0.000	-0.020	0.044	2.734	1.904	1.899	1.899	1.919	1.909	1.904
0.000	-0.005	0.000	0.000	0.005	-0.020	0.044	2.666	1.895	1.895	1.899	1.914	1.909	1.899
0.010	-0.005	0.000	0.000	-0.005	0.010	0.044	2.720	1.895	1.890	1.895	1.914	1.904	1.909
0.000	0.000	0.000	0.005	0.000	0.010	0.044	2.734	1.899	1.890	1.890	1.909	1.904	1.904
0.000	-0.005	0.000	0.005	0.005	-0.010	0.044	2.739	1.885	1.885	1.885	1.909	1.899	1.899
0.010	0.000	0.000	0.000	-0.005	-0.010	0.044	2.632	1.875	1.880	1.880	1.899	1.895	1.895
0.005	-0.005	0.000	0.000	0.005	0.000	0.044	2.656	1.870	1.875	1.875	1.895	1.895	1.899
0.005	0.000	0.000	0.000	0.005	-0.010	0.044	2.622	1.870	1.875	1.875	1.895	1.895	1.895
0.010	-0.020	0.000	-0.005	0.005	0.010	0.044	2.666	1.870	1.865	1.870	1.895	1.890	1.895
0.000	-0.029	-0.005	0.005	0.005	0.000	0.044	2.734	1.880	1.865	1.870	1.895	1.895	1.890
0.010	-0.010	0.000	0.005	0.005	0.010	0.044	2.661	1.885	1.880	1.875	1.895	1.895	1.899
0.005	0.010	0.005	0.005	0.010	0.010	0.044	2.754	1.899	1.890	1.885	1.899	1.899	1.899
-0.010	0.015	0.005	0.000	0.000	0.010	0.044	2.686	1.904	1.899	1.890	1.904	1.899	1.904
-0.010	0.020	0.000	0.005	-0.005	-0.010	0.044	2.686	1.904	1.904	1.895	1.909	1.899	1.895
-0.005	0.005	0.010	0.010	-0.005	-0.020	0.039	2.695	1.904	1.904	1.899	1.914	1.904	1.899
0.000	0.010	0.005	0.000	0.000	0.010	0.044	2.686	1.914	1.904	1.904	1.919	1.909	1.909
0.000	0.000	0.005	0.005	0.000	0.015	0.044	2.661	1.904	1.904	1.899	1.919	1.909	1.914
0.015	0.000	0.005	0.010	0.010	0.000	0.044	2.676	1.904	1.904	1.899	1.919	1.914	1.909
0.000	0.005	0.005	0.005	0.005	0.010	0.044	2.681	1.890	1.895	1.895	1.919	1.909	1.909
0.000	0.005	0.000	0.005	0.000	0.005	0.044	2.715	1.895	1.895	1.890	1.909	1.904	1.904
-0.005	0.010	0.000	0.005	0.005	0.000	0.044	2.700	1.885	1.885	1.885	1.909	1.904	1.899
-0.005	0.010	-0.005	0.005	0.000	0.005	0.044	2.710	1.880	1.885	1.880	1.899	1.899	1.899
-0.005	0.024	0.000	0.000	0.000	0.005	0.044	2.705	1.880	1.880	1.875	1.895	1.895	1.895
0.010	0.029	0.000	0.010	0.005	0.005	0.044	2.710	1.885	1.880	1.880	1.895	1.890	1.895
-0.005	0.015	0.005	-0.005	0.005	0.000	0.044	2.671	1.880	1.875	1.875	1.895	1.895	1.890
0.010	0.000	0.005	0.000	0.005	0.005	0.039	2.671	1.880	1.870	1.875	1.895	1.895	1.895
0.010	-0.005	0.010	0.000	0.000	0.005	0.044	2.710	1.885	1.880	1.875	1.895	1.895	1.895
0.000	-0.005	0.005	0.000	0.005	-0.005	0.044	2.681	1.890	1.880	1.880	1.899	1.895	1.890
0.005	-0.010	0.005	-0.005	0.000	0.015	0.049	2.705	1.904	1.890	1.885	1.904	1.899	1.904
0.010	-0.015	0.005	0.005	0.000	0.010	0.044	2.671	1.904	1.895	1.890	1.909	1.904	1.904
0.000	-0.015	0.000	0.000	0.005	0.010	0.044	2.676	1.899	1.899	1.895	1.909	1.904	1.904
-0.005	-0.005	0.005	0.000	0.005	0.015	0.044	2.686	1.909	1.904	1.899	1.914	1.909	1.909
0.000	0.000	0.005	0.000	0.005	-0.020	0.044	2.705	1.904	1.909	1.899	1.914	1.909	1.899
0.000	0.005	0.000	0.005	0.005	0.005	0.044	2.671	1.899	1.909	1.904	1.914	1.909	1.909
-0.005	0.005	0.000	-0.005	0.010	-0.005	0.044	2.681	1.895	1.904	1.899	1.914	1.909	1.904
0.005	0.005	0.005	-0.005	0.005	-0.020	0.049	2.671	1.909	1.899	1.899	1.914	1.904	1.899
-0.015	-0.010	0.005	-0.005	0.000	-0.039	0.044	2.651	1.890	1.890	1.890	1.909	1.904	1.895
-0.005	-0.010	0.000	-0.005	-0.005	-0.015	0.044	2.656	1.880	1.885	1.885	1.904	1.899	1.899
0.005	-0.010	0.000	0.000	-0.010	0.020	0.044	2.793	1.890	1.875	1.880	1.899	1.895	1.904
0.000	0.000	0.005	0.000	-0.005	0.020	0.049	2.646	1.880	1.880	1.880	1.899	1.895	1.899
0.005	0.063	-0.005	0.000	-0.005	0.010	0.044	2.744	1.885	1.899	1.885	1.899	1.895	1.895
0.000	0.005	-0.005	-0.005	0.005	0.020	0.044	2.671	1.880	1.870	1.880	1.899	1.895	1.899
0.000	-0.015	0.000	0.005	0.005	0.015	0.044	2.744	1.890	1.870	1.875	1.899	1.895	1.895
0.010	-0.015	0.000	0.005	0.005	0.000	0.044	2.622	1.890	1.880	1.875	1.899	1.899	1.890
0.005	0.000	0.000	0.000	-0.005	-0.005	0.044	2.725	1.899	1.890	1.885	1.904	1.895	1.895
0.000	0.024	0.005	0.005	-0.015	-0.024	0.044	2.729	1.904	1.904	1.895	1.904	1.899	1.895
0.000	0.010	0.005	0.005	-0.010	-0.005	0.049	2.622	1.899	1.899	1.895	1.909	1.904	1.904
-0.005	-0.005	0.005	0.005	0.005	0.020	0.044	2.749	1.909	1.899	1.899	1.914	1.914	1.914
0.000	-0.034	0.000	0.005	0.005	0.015	0.044	2.690	1.914	1.899	1.899	1.914	1.914	1.914
0.005	-0.029	0.005	0.005	0.000	0.015	0.044	2.661	1.924	1.909	1.899	1.919	1.914	1.914
0.015	0.010	0.005	0.000	0.000	0.000	0.044	2.695	1.914	1.914	1.904	1.919	1.914	1.909
0.000	0.020	0.005	0.000	0.005	0.005	0.049	2.622	1.899	1.914	1.904	1.919	1.914	1.909
0.010	0.020	0.000	0.005	0.010	-0.015	0.044	2.695	1.895	1.904	1.904	1.919	1.909	1.904
0.005	0.010	0.000	0.005	0.005	0.015	0.044	2.686	1.890	1.895	1.895	1.914	1.909	1.914
0.029	0.000	0.000	0.005	0.000	-0.015	0.044	2.681	1.890	1.885	1.885	1.909	1.904	1.895
0.044	-0.005	-0.005	0.005	0.005	0.015	0.039	2.676	1.885	1.880	1.885	1.904	1.899	1.909
0.059	0.010	0.000	0.005	0.005	0.015	0.044	2.705	1.890	1.885	1.880	1.904	1.899	1.904
0.049	0.005	0.000	0.005	0.000	0.005	0.044	2.705	1.890	1.880	1.880	1.899	1.895	1.899
0.029	0.000	0.000	0.000	0.005	0.010	0.044	2.710	1.885	1.880	1.880	1.899	1.895	1.895
0.020	0.000	0.000	0.005	0.000	0.015	0.044	2.715	1.885	1.880	1.885	1.899	1.899	1.899
-0.005	-0.005	0.000	0.000	0.000	-0.005	0.044	2.700	1.885	1.880	1.880	1.899	1.899	1.895
-0.039	-0.005	0.010	0.005	0.000	0.015	0.044	2.700	1.885	1.885	1.885	1.904	1.904	1.904
-0.049	0.010	0.000	0.000	0.000	0.005	0.044	2.725	1.890	1.890	1.890	1.909	1.904	1.904
-0.073	-0.005	0.000	0.005	0.010	0.010	0.044	2.715	1.899	1.895	1.890	1.914	1.909	1.909
-0.073	-0.005	0.000	0.000	-0.010	-0.010	0.044	2.671	1.899	1.899	1.895	1.909	1.904	1.904
-0.049	-0.005	0.000	0.005	0.000	0.000	0.044	2.700	1.909	1.899	1.895	1.914	1.909	1.909
-0.034	-0.015	0.005	0.000	0.000	0.005	0.044	2.705	1.909	1.895	1.895	1.914	1.909	1.909
-0.039	-0.015	0.005	0.005	0.005	-0.005	0.044	2.676	1.904	1.895	1.895	1.914	1.909	1.909
-0.024	-0.015	0.005	0.000	0.005	0.000	0.049	2.705	1.904	1.899	1.895	1.909	1.909	1.904
-0.034	0.024	0.000	0.000	0.005	-0.005	0.044	2.705	1.904	1.904	1.895	1.909	1.899	1.904
0.005	0.044	0.005	-0.005	0.005	-0.005	0.044	2.705	1.909	1.904	1.895	1.909	1.904	1.899
0.122	0.024	0.000	0.000	0.000	-0.010	0.049	2.695	1.934	1.909	1.899	1.909	1.899	1.899
0.127	0.010	0.000	0.000	0.000	-0.020	0.044	2.700	1.914	1.899	1.895	1.904	1.895	1.890
0.132	-0.005	0.005	0.000	-0.005	0.010	0.049	2.671	1.899	1.895	1.895	1.904	1.895	1.899
0.098	-0.034	0.005	0.005	0.000	0.000	0.044	2.690	1.885	1.880	1.890	1.909	1.899	1.899
0.039	-0.049	0.005	0.005	-0.010	0.015	0.044	2.661	1.870	1.875	1.885	1.904	1.899	1.899
-0.024	-0.020	0.005	0.010	-0.015	0.000	0.039	2.651	1.860	1.875	1.880	1.904	1.899	1.895
-0.078	0.015	-0.005	0.010	-0.005	0.010	0.044	2.661	1.855	1.880	1.885	1.909	1.904	1.904
-0.044	0.024	0.005	0.000	0.000	-0.010	0.044	2.793	1.890	1.885	1.890	1.909	1.904	1.899
-0.044	0.015	0.000	0.000	-0.005	0.000	0.044	2.651	1.885	1.890	1.890	1.909	1.909	1.909
-0.059	-0.010	0.005	0.000	0.005	0.005	0.044	2.744	1.899	1.885	1.890	1.914	1.909	1.909
-0.073	-0.024	0.005	0.000	0.005	0.010	0.044	2.705	1.899	1.885	1.895	1.914	1.914	1.914
-0.078	-0.020	0.000	0.000	0.000	-0.024	0.044	2.720	1.904	1.890	1.890	1.914	1.909	1.909
-0.068	-0.010	0.000	0.000	0.000	0.005	0.044	2.651	1.899	1.899	1.890	1.914	1.909	1.914
-0.063	0.000	0.005	0.000	0.000	0.000	0.039	2.617	1.895	1.895	1.890	1.909	1.909	1.909
-0.044	0.015	0.005	-0.005	0.000	0.005	0.044	2.720	1.890	1.899	1.890	1.909	1.904	1.904
-0.034	0.024	0.000	0.000	0.000	0.000	0.049	2.749	1.895	1.895	1.885	1.904	1.899	1.904
-0.015	0.010	0.005	-0.005	0.000	0.005	0.044	2.661	1.890	1.885	1.885	1.904	1.895	1.899
0.010	0.000	0.005	0.000	0.000	0.010	0.049	2.681	1.890	1.885	1.880	1.899	1.895	1.899
0.015	-0.010	0.000	0.000	0.000	0.000	0.044	2.642	1.885	1.875	1.880	1.899	1.895	1.895
0.034	-0.015	0.000	0.000	0.000	0.010	0.044	2.661	1.885	1.875	1.875	1.895	1.895	1.895
0.039	-0.024	0.000	-0.005	0.000	0.000	0.044	2.617	1.880	1.875	1.875	1.890	1.890	1.890
0.044	0.083	-0.005	-0.005	0.000	0.015	0.044	2.695	1.890	1.914	1.885	1.895	1.890	1.890
0.039	0.093	0.000	0.000	0.005	-0.005	0.044	2.686	1.895	1.909	1.895	1.899	1.895	1.895
0.034	0.010	0.005	0.000	0.005	-0.015	0.044	2.676	1.890	1.885	1.890	1.909	1.895	1.895
0.039	-0.020	0.000	-0.005	0.000	-0.010	0.039	2.676	1.890	1.880	1.890	1.909	1.899	1.895
0.034	-0.049	-0.005	-0.005	0.005	0.010	0.039	2.671	1.895	1.880	1.885	1.909	1.909	1.909
0.029	-0.020	-0.005	-0.005	0.000	0.010	0.044	2.705	1.904	1.899	1.895	1.914	1.909	1.909
0.015	0.015	0.000	0.000	0.005	-0.005	0.044	2.671	1.904	1.909	1.899	1.919	1.909	1.909
0.024	0.034	-0.005	0.005	0.005	-0.005	0.044	2.710	1.899	1.909	1.904	1.919	1.914	1.914
0.015	0.034	0.005	0.010	0.010	-0.024	0.044	2.700	1.899	1.909	1.904	1.919	1.914	1.904
0.010	0.010	0.000	0.015	0.010	-0.029	0.044	2.700	1.890	1.895	1.899	1.919	1.914	1.909
0.005	-0.005	0.000	0.010	0.015	0.000	0.044	2.705	1.890	1.885	1.890	1.914	1.914	1.914
0.015	-0.010	-0.005	0.010	0.015	-0.020	0.044	2.700	1.890	1.880	1.885	1.909	1.909	1.904
0.015	-0.005	0.000	0.005	0.010	-0.005	0.044	2.676	1.880	1.875	1.880	1.899	1.899	1.904
0.005	0.000	0.000	0.000	0.020	0.000	0.044	2.710	1.880	1.875	1.875	1.899	1.899	1.904
0.010	-0.005	0.000	-0.005	0.020	0.000	0.044	2.681	1.880	1.870	1.870	1.890	1.895	1.899
0.015	-0.005	0.005	-0.005	0.020	0.000	0.044	2.715	1.885	1.870	1.870	1.890	1.890	1.895
0.010	0.000	0.010	-0.005	0.015	-0.015	0.044	2.715	1.885	1.875	1.875	1.890	1.890	1.890
0.005	-0.015	0.000	-0.005	0.010	0.000	0.044	2.700	1.885	1.875	1.875	1.890	1.885	1.890
0.005	-0.020	0.000	0.000	0.005	0.000	0.039	2.686	1.890	1.880	1.875	1.895	1.890	1.890
-0.005	-0.010	0.000	0.010	0.005	0.000	0.044	2.710	1.899	1.890	1.880	1.899	1.895	1.890
0.005	-0.010	0.000	0.010	0.000	0.000	0.044	2.705	1.904	1.895	1.885	1.904	1.899	1.895
-0.005	0.005	0.000	0.024	0.005	-0.005	0.044	2.686	1.904	1.909	1.895	1.914	1.904	1.899
0.005	0.020	0.000	0.024	0.010	-0.005	0.044	2.686	1.909	1.914	1.904	1.919	1.909	1.899
0.000	0.029	0.005	0.020	0.005	0.005	0.044	2.671	1.904	1.914	1.904	1.919	1.909	1.909
-0.005	0.024	0.000	0.015	0.010	0.005	0.044	2.651	1.895	1.909	1.909	1.919	1.914	1.909
0.000	0.000	0.000	0.015	0.000	0.010	0.044	2.651	1.895	1.895	1.904	1.919	1.914	1.909
-0.005	-0.005	0.005	0.015	0.000	-0.005	0.044	2.788	1.899	1.895	1.899	1.914	1.909	1.904
0.005	-0.010	0.005	0.010	0.000	-0.005	0.044	2.637	1.890	1.890	1.890	1.914	1.909	1.904
0.010	-0.015	0.000	0.005	-0.005	0.010	0.049	2.720	1.890	1.880	1.885	1.904	1.899	1.904
0.000	-0.005	0.005	0.010	-0.005	0.015	0.044	2.710	1.890	1.880	1.885	1.904	1.899	1.904
-0.005	0.010	0.000	0.005	0.000	0.010	0.049	2.700	1.885	1.885	1.880	1.899	1.899	1.895
-0.005	0.024	0.000	0.000	-0.010	0.015	0.044	2.695	1.880	1.880	1.875	1.895	1.890	1.895
0.005	0.010	0.005	0.005	-0.020	0.005	0.044	2.725	1.890	1.880	1.875	1.895	1.890	1.890
0.010	0.000	0.005	0.000	-0.015	0.005	0.039	2.739	1.885	1.880	1.875	1.890	1.890	1.890
0.015	0.005	0.000	-0.005	-0.015	-0.005	0.044	2.651	1.895	1.885	1.880	1.895	1.890	1.885
0.010	0.015	0.005	-0.015	-0.015	0.005	0.044	2.778	1.904	1.895	1.885	1.899	1.895	1.895
0.005	0.005	0.010	-0.010	-0.024	-0.005	0.044	2.686	1.904	1.899	1.890	1.904	1.895	1.895
0.000	-0.015	0.000	-0.010	-0.024	-0.010	0.044	2.759	1.914	1.899	1.895	1.909	1.899	1.899
-0.010	0.044	0.005	-0.010	-0.034	0.010	0.049	2.661	1.909	1.924	1.909	1.914	1.904	1.909
0.000	0.010	0.000	-0.015	-0.029	0.005	0.044	2.612	1.904	1.904	1.904	1.919	1.904	1.904
0.000	-0.015	-0.005	-0.005	-0.020	0.015	0.044	2.700	1.899	1.899	1.904	1.924	1.914	1.914
0.000	-0.020	0.000	-0.005	0.005	0.005	0.044	2.676	1.899	1.895	1.904	1.924	1.924	1.909
0.000	0.000	0.000	0.000	0.029	-0.015	0.044	2.690	1.895	1.899	1.899	1.924	1.929	1.914
0.000	0.000	-0.005	0.005	0.039	0.000	0.049	2.681	1.895	1.895	1.899	1.919	1.924	1.914
-0.005	-0.005	0.005	0.000	0.044	0.005	0.044	2.710	1.885	1.885	1.890	1.914	1.919	1.919
0.000	-0.020	-0.005	-0.005	0.029	-0.005	0.044	2.700	1.885	1.880	1.885	1.904	1.909	1.904
-0.005	-0.020	0.000	0.000	0.015	0.010	0.044	2.671	1.880	1.875	1.880	1.904	1.899	1.909
0.000	-0.010	0.000	-0.005	0.015	0.015	0.039	2.710	1.880	1.875	1.875	1.895	1.895	1.899
0.000	-0.005	0.005	0.000	0.000	0.015	0.044	2.681	1.875	1.875	1.875	1.895	1.890	1.895
0.000	0.015	0.005	0.000	0.000	0.005	0.044	2.710	1.885	1.885	1.875	1.895	1.890	1.890
-0.005	0.010	0.005	0.005	-0.015	-0.005	0.039	2.710	1.890	1.885	1.880	1.899	1.885	1.890
0.000	0.015	0.010	0.000	-0.020	0.000	0.044	2.705	1.895	1.890	1.885	1.899	1.890	1.890
0.000	0.015	0.005	0.000	-0.015	-0.015	0.044	2.686	1.895	1.895	1.885	1.904	1.895	1.890
0.005	0.010	0.005	0.000	-0.020	-0.010	0.044	2.681	1.899	1.899	1.890	1.904	1.899	1.890
0.000	0.024	0.005	0.000	-0.005	-0.024	0.044	2.705	1.904	1.909	1.899	1.914	1.904	1.899
0.015	0.005	0.005	0.000	-0.005	-0.005	0.044	2.681	1.909	1.904	1.904	1.914	1.909	1.909
0.005	0.000	0.005	0.010	-0.010	-0.005	0.044	2.705	1.909	1.909	1.904	1.919	1.914	1.909
0.005	0.010	-0.005	0.005	-0.005	0.015	0.044	2.681	1.904	1.909	1.904	1.919	1.914	1.919
0.000	0.005	0.000	0.010	0.015	0.015	0.049	2.695	1.899	1.904	1.904	1.919	1.924	1.919
-0.005	0.005	0.005	0.005	0.020	0.020	0.044	2.705	1.899	1.899	1.904	1.919	1.919	1.919
-0.005	-0.005	0.000	0.000	0.020	0.020	0.044	2.700	1.890	1.890	1.895	1.914	1.914	1.914
0.000	0.000	0.000	-0.005	0.000	0.015	0.044	2.676	1.890	1.890	1.890	1.909	1.904	1.909
0.005	-0.010	0.000	0.005	0.005	0.005	0.044	2.690	1.885	1.880	1.880	1.904	1.899	1.904
0.000	-0.005	0.000	0.005	0.005	0.015	0.044	2.666	1.880	1.875	1.880	1.899	1.899	1.899
0.005	-0.015	0.000	0.005	0.005	0.024	0.044	2.656	1.875	1.870	1.875	1.899	1.895	1.899
0.010	-0.020	0.000	0.015	-0.005	0.024	0.044	2.651	1.875	1.870	1.875	1.895	1.895	1.895
0.000	-0.020	0.000	0.005	-0.005	0.005	0.044	2.788	1.885	1.875	1.870	1.890	1.890	1.890
-0.005	0.015	0.000	0.000	0.010	0.024	0.044	2.646	1.880	1.885	1.875	1.890	1.895	1.899
0.005	0.000	0.000	0.000	0.010	0.020	0.044	2.729	1.890	1.890	1.880	1.895	1.895	1.899
-0.005	0.029	-0.005	0.000	0.005	0.015	0.044	2.671	1.895	1.899	1.890	1.904	1.895	1.899
0.010	0.049	-0.005	-0.005	0.015	0.015	0.044	2.720	1.909	1.909	1.895	1.904	1.899	1.899
0.000	0.005	0.005	-0.005	0.015	0.005	0.044	2.729	1.914	1.899	1.899	1.914	1.909	1.899
-0.005	-0.020	-0.005	0.000	0.010	0.020	0.044	2.725	1.919	1.899	1.899	1.919	1.909	1.909
0.005	-0.020	0.000	0.015	0.010	0.010	0.044	2.729	1.919	1.904	1.904	1.924	1.909	1.909
0.005	-0.024	0.000	0.015	0.010	0.015	0.044	2.637	1.904	1.904	1.899	1.924	1.914	1.909
-0.005	-0.015	0.005	0.015	0.005	0.000	0.044	2.656	1.899	1.904	1.899	1.924	1.914	1.904
-0.005	-0.010	0.000	0.015	-0.015	-0.010	0.044	2.690	1.895	1.904	1.895	1.919	1.904	1.899
-0.010	0.000	0.000	0.005	-0.024	-0.015	0.039	2.646	1.880	1.895	1.895	1.914	1.899	1.895
-0.010	0.073	0.000	0.000	-0.039	-0.029	0.044	2.690	1.880	1.909	1.895	1.909	1.895	1.890
-0.010	0.054	0.000	0.005	-0.044	-0.039	0.044	2.617	1.870	1.885	1.890	1.904	1.895	1.880
-0.005	-0.020	0.000	0.005	-0.029	-0.010	0.044	2.690	1.870	1.860	1.875	1.904	1.899	1.895
0.000	-0.039	0.005	0.000	-0.020	-0.020	0.044	2.671	1.865	1.855	1.870	1.895	1.895	1.890
0.000	-0.015	0.000	0.000	0.000	0.015	0.044	2.671	1.870	1.865	1.870	1.895	1.904	1.909
-0.010	-0.010	0.005	-0.005	0.024	0.029	0.044	2.681	1.875	1.870	1.865	1.890	1.904	1.909
0.000	0.010	0.005	0.000	0.068	0.029	0.044	2.671	1.880	1.880	1.870	1.890	1.914	1.909
0.005	0.044	0.005	0.000	0.083	0.024	0.049	2.705	1.895	1.895	1.880	1.895	1.909	1.914
0.010	0.010	0.000	0.000	0.063	0.020	0.044	2.676	1.899	1.890	1.885	1.899	1.904	1.909
0.000	-0.005	0.000	-0.005	0.015	-0.015	0.044	2.720	1.909	1.890	1.885	1.904	1.890	1.899
0.015	-0.010	0.005	0.000	-0.005	-0.010	0.044	2.700	1.909	1.899	1.895	1.904	1.890	1.895
0.005	0.000	0.010	-0.005	-0.015	0.005	0.039	2.681	1.909	1.904	1.899	1.909	1.895	1.899
0.010	-0.005	0.000	0.005	-0.015	-0.005	0.044	2.681	1.909	1.904	1.899	1.914	1.899	1.895
0.010	-0.010	0.000	0.005	-0.010	-0.010	0.044	2.661	1.899	1.904	1.899	1.914	1.904	1.899
0.005	0.000	0.000	0.000	-0.005	-0.020	0.044	2.676	1.899	1.899	1.899	1.919	1.904	1.895
0.000	0.010	0.000	0.005	0.000	-0.005	0.044	2.666	1.885	1.890	1.895	1.914	1.909	1.904
0.000	0.000	-0.005	-0.005	-0.005	0.010	0.044	2.715	1.885	1.885	1.885	1.904	1.904	1.904
-0.005	0.005	-0.005	0.005	-0.010	0.005	0.044	2.700	1.885	1.880	1.885	1.904	1.899	1.899
-0.010	0.000	0.000	0.000	-0.005	0.000	0.049	2.705	1.885	1.875	1.880	1.899	1.895	1.890
-0.005	0.059	0.005	0.000	-0.005	-0.020	0.044	2.666	1.880	1.890	1.880	1.899	1.895	1.885
0.000	0.005	0.000	0.005	0.000	-0.005	0.049	2.695	1.875	1.870	1.875	1.895	1.895	1.890
0.010	-0.020	0.000	0.005	0.005	-0.005	0.044	2.710	1.885	1.870	1.870	1.895	1.895	1.895
0.005	-0.015	0.000	0.000	0.005	-0.010	0.044	2.715	1.890	1.870	1.870	1.895	1.895	1.890
0.000	0.029	0.000	0.005	0.005	-0.015	0.044	2.676	1.890	1.895	1.875	1.895	1.895	1.890
0.010	0.010	0.000	0.000	0.005	-0.054	0.044	2.690	1.895	1.885	1.885	1.895	1.895	1.885
0.000	-0.015	0.005	0.000	0.000	-0.029	0.039	2.686	1.895	1.890	1.890	1.899	1.895	1.890
0.005	-0.015	0.000	0.000	0.000	-0.010	0.044	2.651	1.895	1.890	1.890	1.904	1.904	1.904
0.015	-0.020	0.005	0.000	-0.015	0.005	0.044	2.656	1.899	1.895	1.895	1.909	1.899	1.909
0.005	-0.020	0.000	0.000	-0.005	0.010	0.044	2.783	1.914	1.895	1.890	1.909	1.904	1.909
0.010	-0.034	0.005	0.000	0.000	0.015	0.044	2.651	1.909	1.899	1.899	1.914	1.909	1.914
-0.005	-0.005	-0.005	0.005	-0.010	0.000	0.044	2.632	1.895	1.904	1.895	1.914	1.904	1.909
0.000	0.005	-0.005	0.000	-0.010	0.029	0.044	2.676	1.890	1.904	1.895	1.914	1.904	1.914
-0.010	0.015	0.000	0.000	-0.010	0.029	0.044	2.725	1.890	1.895	1.890	1.909	1.904	1.909
-0.005	0.000	0.005	-0.005	-0.010	0.015	0.044	2.637	1.875	1.885	1.885	1.904	1.899	1.899
-0.010	-0.015	0.005	0.010	0.015	0.015	0.044	2.651	1.870	1.875	1.880	1.904	1.904	1.899
0.000	0.000	0.000	0.015	0.024	0.020	0.049	2.725	1.875	1.875	1.875	1.899	1.904	1.895
0.005	0.005	0.000	0.010	0.024	0.010	0.044	2.642	1.870	1.870	1.870	1.895	1.899	1.895
0.000	0.020	-0.005	0.010	0.000	0.015	0.044	2.656	1.870	1.875	1.870	1.890	1.890	1.895
-0.005	-0.024	0.000	0.005	-0.015	0.015	0.044	2.686	1.875	1.865	1.870	1.890	1.885	1.890
0.000	-0.029	0.005	0.005	-0.005	0.015	0.044	2.749	1.885	1.870	1.870	1.890	1.890	1.890
0.000	-0.015	0.005	-0.005	0.000	0.024	0.039	2.671	1.885	1.875	1.875	1.890	1.890	1.895
-0.005	-0.015	0.005	-0.010	-0.005	0.010	0.044	2.637	1.885	1.885	1.875	1.895	1.890	1.890
0.005	-0.020	0.000	-0.005	-0.005	0.015	0.044	2.700	1.899	1.890	1.880	1.895	1.895	1.895
0.010	0.005	0.000	-0.005	0.005	0.000	0.044	2.681	1.904	1.904	1.890	1.904	1.899	1.895
-0.005	0.024	0.005	0.000	0.005	-0.010	0.049	2.710	1.904	1.909	1.895	1.914	1.904	1.895
0.000	0.005	0.005	0.005	0.010	0.005	0.044	2.695	1.909	1.909	1.904	1.919	1.909	1.904
0.005	0.020	0.000	0.015	0.015	0.005	0.044	2.681	1.904	1.909	1.904	1.919	1.909	1.904
0.000	-0.020	-0.005	0.005	0.000	0.010	0.044	2.695	1.899	1.890	1.899	1.909	1.909	1.909
0.015	-0.024	0.000	0.000	-0.020	0.000	0.044	2.705	1.895	1.890	1.890	1.909	1.895	1.899
-0.005	0.054	-0.005	0.005	-0.029	-0.005	0.049	2.705	1.890	1.909	1.895	1.904	1.895	1.895
0.010	0.063	0.000	-0.005	-0.024	-0.005	0.049	2.700	1.890	1.899	1.895	1.904	1.895	1.895
0.000	0.005	0.000	-0.010	-0.034	-0.010	0.044	2.700	1.875	1.875	1.885	1.899	1.890	1.890
0.005	-0.005	0.000	0.000	-0.039	0.010	0.044	2.671	1.870	1.870	1.880	1.899	1.890	1.890
0.010	0.015	0.000	0.010	-0.068	-0.005	0.044	2.705	1.870	1.870	1.875	1.899	1.880	1.880
0.010	0.015	0.005	0.015	-0.068	-0.034	0.044	2.681	1.875	1.875	1.875	1.895	1.880	1.875
-0.010	0.015	0.005	0.015	-0.049	-0.024	0.044	2.710	1.875	1.870	1.875	1.899	1.895	1.885
-0.010	-0.005	0.005	0.015	-0.020	-0.010	0.039	2.705	1.880	1.875	1.875	1.899	1.904	1.895
0.010	0.000	0.000	0.005	0.063	-0.010	0.039	2.676	1.890	1.880	1.880	1.899	1.924	1.904
0.005	-0.005	0.005	0.005	0.176	-0.015	0.044	2.715	1.899	1.885	1.885	1.904	1.948	1.919
-0.010	-0.005	0.000	-0.005	0.195	0.010	0.044	2.676	1.899	1.890	1.890	1.904	1.943	1.938
0.000	-0.034	0.000	0.000	0.151	0.005	0.044	2.695	1.914	1.895	1.890	1.909	1.924	1.929
0.005	-0.010	-0.005	0.000	0.103	-0.015	0.049	2.700	1.919	1.909	1.899	1.909	1.904	1.919
0.005	0.000	0.000	0.000	0.034	0.024	0.049	2.710	1.919	1.914	1.904	1.914	1.890	1.919
0.005	0.015	0.000	0.000	-0.024	0.020	0.044	2.681	1.919	1.919	1.904	1.914	1.880	1.904
0.005	0.015	0.000	0.000	-0.029	0.000	0.044	2.671	1.899	1.914	1.909	1.914	1.885	1.895
-0.005	0.000	0.000	-0.005	-0.015	0.015	0.044	2.666	1.885	1.899	1.904	1.914	1.890	1.899
0.005	0.005	0.000	0.000	-0.024	0.000	0.044	2.651	1.885	1.890	1.895	1.914	1.895	1.890
0.000	0.015	0.000	-0.005	-0.010	0.020	0.044	2.656	1.875	1.885	1.890	1.909	1.899	1.895
-0.005	0.024	0.005	-0.005	-0.020	0.024	0.044	2.651	1.870	1.880	1.885	1.899	1.895	1.890
0.015	0.029	0.000	-0.010	-0.010	0.015	0.044	2.642	1.870	1.875	1.880	1.899	1.895	1.890
0.010	0.015	0.000	-0.010	0.000	0.020	0.044	2.725	1.875	1.870	1.875	1.895	1.895	1.890
0.005	0.010	-0.005	-0.005	-0.010	0.034	0.044	2.671	1.875	1.870	1.875	1.899	1.890	1.899
0.005	0.000	0.000	-0.005	-0.020	0.029	0.039	2.646	1.875	1.865	1.875	1.895	1.890	1.895
-0.010	-0.010	-0.005	0.000	-0.020	0.034	0.044	2.700	1.885	1.870	1.870	1.895	1.890	1.890
0.005	-0.010	0.000	0.000	-0.029	-0.024	0.044	2.759	1.899	1.885	1.875	1.899	1.890	1.875
0.000	0.029	0.000	0.010	-0.054	-0.034	0.044	2.637	1.895	1.899	1.885	1.904	1.890	1.875
0.005	0.005	0.010	0.020	-0.063	-0.059	0.044	2.617	1.890	1.895	1.890	1.909	1.890	1.880
-0.005	0.000	0.005	0.024	-0.073	-0.034	0.044	2.627	1.880	1.895	1.890	1.914	1.899	1.890
-0.005	0.005	0.000	0.020	-0.049	-0.073	0.049	2.686	1.890	1.895	1.890	1.914	1.909	1.890
-0.020	0.010	0.005	0.000	-0.039	-0.039	0.049	2.651	1.895	1.895	1.895	1.909	1.909	1.904
0.000	-0.005	-0.005	0.000	-0.063	-0.044	0.044	2.695	1.899	1.890	1.890	1.904	1.899	1.904
0.000	-0.005	0.000	0.000	-0.059	-0.029	0.049	2.720	1.899	1.890	1.890	1.909	1.904	1.904
-0.010	0.005	0.000	0.005	0.010	0.000	0.044	2.666	1.885	1.890	1.885	1.904	1.919	1.914
0.000	0.000	0.005	0.010	0.059	0.024	0.044	2.671	1.890	1.880	1.880	1.904	1.924	1.919
0.005	-0.015	0.000	0.010	0.083	0.034	0.049	2.690	1.885	1.875	1.880	1.899	1.919	1.924
0.005	-0.010	0.000	0.005	0.083	0.034	0.044	2.666	1.880	1.875	1.875	1.895	1.909	1.914
0.005	0.010	0.005	0.005	0.107	0.029	0.044	2.686	1.880	1.880	1.875	1.895	1.909	1.909
0.005	0.020	0.005	0.000	0.117	0.024	0.044	2.671	1.880	1.880	1.875	1.890	1.904	1.914
-0.015	0.024	0.000	-0.005	0.098	0.029	0.039	2.676	1.880	1.880	1.875	1.890	1.895	1.904
0.000	0.005	0.000	-0.015	0.039	0.010	0.044	2.715	1.890	1.880	1.875	1.890	1.875	1.890
0.000	0.005	-0.005	-0.010	0.000	0.029	0.044	2.661	1.885	1.880	1.875	1.890	1.870	1.895
0.005	0.005	-0.005	-0.010	-0.010	-0.005	0.044	2.710	1.904	1.885	1.880	1.899	1.875	1.875
0.005	0.000	0.000	-0.010	0.005	0.010	0.044	2.686	1.899	1.895	1.885	1.904	1.890	1.885
0.010	0.000	0.000	0.000	0.010	-0.010	0.044	2.705	1.909	1.899	1.895	1.909	1.899	1.885
0.005	0.005	0.005	0.000	-0.020	0.034	0.044	2.676	1.904	1.904	1.899	1.914	1.895	1.904
0.005	0.010	-0.005	-0.005	-0.039	0.029	0.044	2.710	1.909	1.909	1.904	1.914	1.895	1.899
