-0.020	-0.010	-0.005	-0.005	-0.005	-0.005	0.044	2.690	2.534	2.153	2.061	1.982	1.978	1.982
-0.010	-0.010	-0.005	-0.005	0.000	0.000	0.044	2.695	2.383	2.217	2.095	2.017	1.987	1.982
0.010	-0.005	0.000	0.000	0.000	0.010	0.049	2.681	2.266	2.236	2.134	2.051	2.002	1.987
0.015	0.000	0.000	0.000	0.005	0.000	0.044	2.690	2.178	2.217	2.158	2.080	2.021	1.992
0.010	0.015	0.005	0.000	0.005	-0.020	0.044	2.681	2.114	2.187	2.168	2.109	2.036	1.997
0.005	-0.015	0.000	0.000	0.005	0.005	0.044	2.690	2.070	2.148	2.158	2.129	2.061	2.021
0.005	-0.010	0.000	0.005	0.005	0.005	0.044	2.686	2.041	2.124	2.148	2.139	2.080	2.036
0.000	0.000	0.000	0.000	0.010	0.005	0.044	2.695	2.026	2.100	2.139	2.144	2.100	2.051
0.000	-0.005	0.005	0.000	0.005	-0.005	0.044	2.695	2.021	2.080	2.124	2.144	2.109	2.070
-0.010	0.005	0.000	0.005	0.000	0.000	0.044	2.690	2.021	2.070	2.109	2.144	2.119	2.085
-0.010	-0.005	0.000	0.005	0.005	0.000	0.049	2.695	2.017	2.056	2.095	2.139	2.129	2.100
-0.020	-0.010	0.000	0.005	0.000	-0.005	0.044	2.686	2.017	2.051	2.085	2.129	2.129	2.109
0.000	0.000	0.000	0.005	0.005	-0.029	0.044	2.686	2.026	2.051	2.075	2.124	2.129	2.109
-0.005	0.000	0.000	0.000	0.005	0.005	0.044	2.681	2.026	2.046	2.075	2.119	2.129	2.129
-0.005	0.010	0.000	0.005	0.005	0.020	0.039	2.695	2.026	2.041	2.061	2.109	2.119	2.129
0.010	0.020	0.005	0.005	0.000	0.010	0.044	2.681	2.026	2.046	2.061	2.100	2.114	2.124
0.010	0.010	-0.005	0.005	0.005	0.000	0.044	2.686	2.021	2.031	2.046	2.090	2.104	2.114
0.000	0.010	0.005	0.000	0.005	0.000	0.044	2.695	2.021	2.026	2.041	2.080	2.095	2.109
0.010	0.005	0.005	0.000	0.005	0.005	0.049	2.695	2.017	2.021	2.031	2.065	2.085	2.100
0.015	0.005	0.005	0.005	0.000	-0.020	0.049	2.686	2.007	2.017	2.021	2.056	2.070	2.090
0.015	0.000	0.000	-0.005	0.000	0.005	0.044	2.690	2.002	2.012	2.017	2.046	2.065	2.085
0.015	0.005	0.000	0.000	0.000	0.000	0.044	2.690	2.002	2.007	2.012	2.041	2.051	2.070
0.005	0.005	0.000	0.005	0.000	-0.010	0.049	2.686	1.997	2.002	2.002	2.036	2.046	2.061
0.020	0.000	0.005	0.005	0.000	0.015	0.049	2.686	1.997	2.002	2.002	2.026	2.041	2.061
0.005	0.000	0.000	0.005	0.000	0.010	0.044	2.690	2.002	2.002	2.002	2.026	2.036	2.056
0.039	0.010	0.000	0.005	0.000	0.010	0.044	2.686	2.021	2.012	2.007	2.031	2.036	2.051
0.044	0.000	0.005	0.005	0.005	0.010	0.044	2.686	2.017	2.017	2.012	2.026	2.036	2.051
0.020	0.000	0.000	0.000	0.000	-0.005	0.044	2.695	2.012	2.017	2.017	2.031	2.031	2.046
-0.020	0.005	0.000	0.000	0.000	0.005	0.049	2.690	2.007	2.017	2.017	2.036	2.036	2.046
-0.029	-0.005	0.000	-0.005	0.000	0.005	0.044	2.695	2.012	2.017	2.017	2.036	2.036	2.041
-0.029	0.000	-0.005	0.000	0.000	0.000	0.044	2.695	2.012	2.021	2.017	2.036	2.036	2.036
-0.039	0.010	-0.005	0.000	0.000	0.000	0.044	2.676	2.002	2.017	2.017	2.036	2.036	2.041
-0.020	0.005	0.000	0.000	0.000	0.000	0.044	2.686	2.007	2.012	2.017	2.036	2.036	2.041
-0.024	0.005	0.005	0.000	0.005	0.015	0.049	2.695	2.007	2.012	2.012	2.036	2.036	2.036
-0.020	0.005	0.005	0.005	0.005	0.005	0.044	2.690	2.002	2.007	2.007	2.031	2.031	2.036
0.015	0.010	0.000	0.000	0.005	-0.015	0.049	2.686	2.002	2.002	2.002	2.026	2.021	2.026
0.015	0.005	0.000	0.000	0.000	0.005	0.039	2.690	1.992	1.992	1.992	2.021	2.017	2.026
0.005	0.000	0.000	0.000	0.000	-0.005	0.044	2.681	1.987	1.987	1.992	2.012	2.012	2.021
0.010	0.005	0.005	0.005	0.000	0.015	0.049	2.681	1.982	1.982	1.987	2.012	2.012	2.021
0.005	0.000	0.010	0.000	0.000	0.005	0.044	2.690	1.978	1.982	1.982	2.007	2.007	2.017
0.005	0.000	0.000	0.000	0.000	-0.024	0.044	2.690	1.978	1.978	1.982	2.007	2.007	2.007
0.010	0.005	0.000	0.000	0.000	0.015	0.044	2.690	1.982	1.982	1.982	2.007	2.007	2.012
0.005	-0.024	0.005	0.000	0.005	0.010	0.044	2.681	1.992	1.978	1.982	2.007	2.007	2.012
0.020	-0.010	0.000	0.005	0.005	0.010	0.044	2.695	1.992	1.992	1.987	2.007	2.007	2.012
0.015	-0.010	0.005	0.005	0.010	0.010	0.044	2.681	1.992	1.992	1.992	2.012	2.012	2.017
0.015	-0.015	0.000	0.000	0.005	-0.005	0.044	2.695	2.002	2.002	1.992	2.012	2.012	2.012
0.034	-0.005	0.000	0.000	0.000	-0.010	0.039	2.686	2.002	2.012	1.997	2.017	2.017	2.017
0.020	0.015	0.005	0.010	0.005	0.005	0.044	2.686	1.992	2.007	2.002	2.017	2.012	2.017
0.000	0.024	0.000	0.005	-0.005	-0.020	0.049	2.690	1.987	2.007	2.007	2.021	2.012	2.012
-0.020	0.010	0.000	0.005	0.005	-0.020	0.044	2.690	1.973	1.987	1.997	2.021	2.017	2.012
-0.039	0.000	0.000	0.005	0.000	0.015	0.044	2.686	1.968	1.982	1.992	2.017	2.012	2.017
-0.034	0.000	0.005	0.000	0.005	0.015	0.049	2.681	1.968	1.973	1.987	2.007	2.007	2.012
-0.020	-0.005	0.000	0.000	0.005	0.010	0.044	2.690	1.968	1.968	1.978	2.002	2.002	2.007
-0.015	0.000	0.000	0.000	0.005	0.005	0.039	2.681	1.963	1.963	1.968	1.997	1.997	2.002
0.000	0.005	-0.005	0.000	0.010	-0.010	0.044	2.686	1.968	1.963	1.963	1.987	1.992	1.997
0.010	-0.015	0.000	0.005	0.000	-0.015	0.044	2.681	1.963	1.958	1.958	1.982	1.987	1.987
0.010	-0.005	0.000	0.000	-0.005	0.000	0.044	2.690	1.963	1.958	1.958	1.982	1.982	1.992
0.034	-0.005	0.010	0.000	-0.005	0.024	0.044	2.695	1.968	1.963	1.963	1.982	1.982	1.997
0.034	0.000	0.005	0.000	0.000	0.024	0.044	2.690	1.973	1.973	1.963	1.982	1.982	1.992
0.034	0.020	0.000	0.005	0.000	0.005	0.044	2.686	1.982	1.982	1.973	1.987	1.987	1.987
0.034	0.015	0.000	0.000	0.010	-0.024	0.049	2.690	1.978	1.987	1.978	1.992	1.987	1.987
0.020	0.015	-0.005	0.000	0.000	-0.005	0.044	2.690	1.978	1.982	1.982	1.997	1.992	1.992
0.000	0.005	0.005	0.005	0.000	-0.005	0.049	2.695	1.978	1.978	1.982	2.002	1.997	1.992
-0.015	0.005	0.005	0.000	0.000	-0.010	0.044	2.695	1.978	1.982	1.987	2.002	1.997	1.992
-0.015	0.000	0.005	0.005	0.005	-0.029	0.039	2.700	1.978	1.978	1.982	2.007	1.997	1.992
-0.015	0.010	0.005	0.005	0.005	0.005	0.044	2.681	1.968	1.978	1.982	2.002	1.997	2.002
-0.024	0.005	0.005	0.005	0.000	-0.020	0.049	2.686	1.968	1.973	1.978	1.997	1.992	1.997
-0.024	0.010	0.000	0.000	0.000	0.024	0.049	2.695	1.963	1.968	1.968	1.997	1.992	2.002
-0.010	0.005	0.005	0.005	0.000	0.020	0.049	2.686	1.958	1.963	1.963	1.992	1.987	1.997
-0.010	-0.005	0.005	0.005	0.000	0.015	0.044	2.681	1.948	1.953	1.958	1.987	1.982	1.992
-0.005	0.005	-0.005	0.005	0.000	0.015	0.049	2.690	1.953	1.948	1.953	1.978	1.978	1.982
-0.005	-0.005	-0.005	0.000	0.000	0.000	0.044	2.686	1.948	1.943	1.948	1.973	1.978	1.978
0.010	-0.010	0.000	0.005	0.000	0.000	0.044	2.686	1.948	1.943	1.943	1.968	1.968	1.978
0.010	-0.005	0.000	0.005	0.000	-0.015	0.044	2.690	1.948	1.943	1.943	1.968	1.968	1.968
-0.005	-0.005	0.005	0.000	0.000	0.000	0.049	2.690	1.948	1.948	1.943	1.963	1.968	1.968
0.000	-0.005	0.000	0.000	0.000	0.000	0.044	2.690	1.953	1.953	1.948	1.968	1.968	1.973
0.000	0.005	0.000	0.000	0.000	-0.015	0.049	2.686	1.963	1.958	1.953	1.973	1.968	1.968
0.005	0.005	0.000	0.000	0.000	0.015	0.039	2.690	1.968	1.963	1.958	1.978	1.968	1.978
0.000	0.000	0.000	0.005	-0.005	0.020	0.049	2.695	1.963	1.968	1.963	1.978	1.978	1.982
0.005	0.015	0.010	0.000	0.005	0.005	0.044	2.686	1.968	1.973	1.973	1.982	1.982	1.978
0.000	0.005	0.000	0.000	0.015	0.005	0.044	2.690	1.963	1.968	1.973	1.987	1.982	1.982
0.015	0.000	0.000	-0.005	0.005	0.005	0.039	2.695	1.968	1.968	1.968	1.987	1.982	1.982
0.000	0.000	0.000	0.000	0.005	0.010	0.044	2.690	1.963	1.968	1.968	1.987	1.982	1.982
0.015	0.010	-0.005	0.000	0.005	-0.010	0.044	2.686	1.958	1.963	1.963	1.982	1.978	1.978
0.000	0.005	0.005	0.005	0.000	0.010	0.044	2.690	1.948	1.958	1.958	1.978	1.973	1.978
0.015	-0.005	0.000	0.000	0.000	0.005	0.044	2.695	1.943	1.948	1.953	1.978	1.973	1.973
0.015	-0.015	0.005	0.005	0.000	0.000	0.044	2.690	1.943	1.938	1.948	1.968	1.968	1.963
0.029	-0.015	0.000	0.005	0.000	-0.020	0.039	2.676	1.938	1.938	1.938	1.963	1.963	1.963
0.024	-0.005	0.000	0.005	0.005	0.010	0.044	2.681	1.938	1.938	1.938	1.958	1.963	1.968
0.049	-0.005	0.000	0.005	0.005	0.010	0.044	2.681	1.943	1.938	1.934	1.958	1.958	1.963
0.044	0.000	0.005	0.000	0.000	-0.005	0.044	2.690	1.938	1.938	1.934	1.958	1.953	1.958
0.010	0.005	0.005	0.005	0.000	0.005	0.044	2.686	1.929	1.938	1.938	1.958	1.953	1.963
-0.020	0.015	-0.005	0.000	0.005	0.005	0.044	2.690	1.934	1.938	1.938	1.963	1.958	1.963
-0.034	0.020	0.005	0.000	0.005	0.005	0.044	2.695	1.938	1.938	1.943	1.963	1.963	1.963
-0.044	0.015	0.000	0.000	0.000	0.005	0.049	2.686	1.938	1.948	1.943	1.963	1.963	1.963
-0.044	0.005	0.000	0.005	0.005	0.000	0.049	2.690	1.943	1.948	1.948	1.968	1.968	1.963
-0.049	0.010	0.000	0.000	0.010	0.000	0.044	2.686	1.953	1.953	1.948	1.973	1.968	1.973
-0.034	0.005	0.005	0.000	0.000	0.005	0.044	2.690	1.953	1.953	1.953	1.973	1.963	1.973
-0.020	0.005	0.000	-0.005	0.005	-0.005	0.044	2.686	1.958	1.953	1.948	1.973	1.968	1.968
-0.010	0.005	0.005	0.005	-0.005	0.000	0.049	2.676	1.958	1.958	1.953	1.968	1.963	1.968
0.005	0.000	0.000	0.000	0.000	0.005	0.049	2.686	1.953	1.948	1.948	1.968	1.963	1.968
0.029	0.010	0.000	0.000	-0.005	0.000	0.044	2.690	1.953	1.953	1.943	1.963	1.958	1.963
0.039	0.005	0.005	0.000	0.000	0.000	0.044	2.690	1.943	1.943	1.943	1.963	1.958	1.958
0.015	-0.024	0.000	0.000	-0.005	-0.024	0.049	2.681	1.929	1.929	1.938	1.958	1.953	1.948
0.005	-0.020	0.000	0.005	0.000	0.005	0.044	2.681	1.924	1.924	1.929	1.953	1.953	1.953
0.010	-0.005	0.000	0.000	0.000	0.010	0.044	2.690	1.929	1.929	1.924	1.948	1.948	1.953
0.020	0.000	0.005	0.000	0.000	0.005	0.049	2.681	1.924	1.924	1.924	1.948	1.948	1.948
0.020	0.010	0.005	0.005	0.005	0.010	0.044	2.690	1.929	1.929	1.929	1.948	1.943	1.948
0.005	0.010	0.000	0.000	0.005	0.010	0.044	2.690	1.938	1.934	1.929	1.948	1.943	1.948
0.010	0.010	0.000	0.005	0.005	0.000	0.044	2.686	1.943	1.938	1.934	1.953	1.948	1.943
0.010	0.010	0.000	0.005	0.000	0.010	0.044	2.686	1.938	1.943	1.938	1.953	1.953	1.958
0.000	-0.010	0.000	0.005	0.000	0.015	0.044	2.686	1.943	1.938	1.943	1.958	1.953	1.958
0.005	0.005	0.000	0.005	0.005	0.010	0.044	2.690	1.948	1.948	1.948	1.963	1.958	1.958
-0.005	0.010	0.000	0.000	0.000	-0.005	0.049	2.686	1.953	1.953	1.948	1.968	1.958	1.958
0.005	-0.005	0.005	0.005	0.000	0.005	0.049	2.695	1.948	1.953	1.948	1.968	1.958	1.958
0.015	0.000	0.005	0.000	0.000	-0.020	0.044	2.686	1.948	1.953	1.948	1.968	1.958	1.958
0.010	0.010	0.000	0.005	0.005	0.005	0.044	2.695	1.943	1.953	1.948	1.968	1.963	1.963
-0.005	0.005	-0.005	0.000	-0.005	0.010	0.044	2.676	1.929	1.943	1.938	1.963	1.958	1.963
0.000	-0.005	0.000	0.005	0.005	0.010	0.044	2.671	1.924	1.934	1.938	1.958	1.953	1.958
-0.005	0.000	0.000	0.000	0.000	0.005	0.049	2.686	1.924	1.924	1.929	1.953	1.948	1.953
0.010	0.005	0.000	0.000	0.000	-0.010	0.049	2.690	1.929	1.919	1.924	1.948	1.943	1.943
0.020	0.000	-0.005	0.000	0.005	0.000	0.049	2.695	1.924	1.919	1.919	1.943	1.943	1.943
0.039	-0.005	-0.005	0.005	-0.005	-0.024	0.044	2.690	1.924	1.919	1.919	1.938	1.934	1.934
0.068	-0.015	0.000	0.005	0.010	0.010	0.049	2.690	1.938	1.919	1.914	1.938	1.943	1.943
0.059	-0.020	0.000	0.000	0.000	0.005	0.044	2.695	1.934	1.924	1.919	1.938	1.938	1.943
0.005	-0.005	0.000	0.000	0.000	0.005	0.049	2.695	1.924	1.929	1.924	1.938	1.938	1.943
-0.020	-0.005	0.005	0.005	-0.005	-0.020	0.044	2.686	1.919	1.929	1.924	1.943	1.938	1.938
-0.049	0.000	0.000	0.005	0.005	0.010	0.044	2.695	1.919	1.929	1.929	1.948	1.943	1.953
-0.073	0.000	0.000	-0.005	-0.005	0.015	0.044	2.695	1.924	1.929	1.929	1.948	1.943	1.953
-0.083	0.010	-0.005	0.000	-0.005	0.010	0.044	2.705	1.934	1.938	1.934	1.953	1.948	1.953
-0.063	0.000	0.000	0.000	-0.005	-0.010	0.044	2.690	1.938	1.938	1.938	1.958	1.948	1.953
-0.044	0.010	0.000	0.005	0.000	0.020	0.044	2.686	1.943	1.938	1.938	1.953	1.953	1.958
-0.034	-0.005	0.000	-0.005	0.000	0.005	0.044	2.700	1.953	1.943	1.938	1.958	1.953	1.953
-0.010	0.024	0.005	0.000	0.005	-0.005	0.044	2.681	1.948	1.948	1.943	1.953	1.948	1.943
0.015	0.020	-0.005	0.000	-0.005	0.010	0.049	2.676	1.943	1.943	1.938	1.953	1.943	1.948
0.020	0.015	0.005	0.000	0.000	0.005	0.049	2.686	1.934	1.938	1.934	1.948	1.943	1.948
0.029	0.005	0.000	0.000	0.015	0.000	0.044	2.681	1.929	1.929	1.929	1.948	1.943	1.943
0.029	-0.005	0.005	0.000	0.005	-0.005	0.044	2.690	1.919	1.919	1.924	1.943	1.938	1.934
0.034	-0.005	0.000	0.000	0.000	0.020	0.044	2.705	1.919	1.919	1.919	1.938	1.938	1.943
0.024	-0.005	0.005	0.005	0.005	0.010	0.044	2.676	1.914	1.914	1.919	1.938	1.934	1.938
0.020	-0.005	0.000	0.000	0.010	0.005	0.044	2.695	1.914	1.914	1.914	1.938	1.934	1.938
0.005	-0.005	0.005	0.000	0.010	-0.015	0.044	2.700	1.919	1.914	1.919	1.938	1.934	1.929
0.015	-0.010	0.000	0.005	0.000	-0.020	0.044	2.700	1.929	1.924	1.919	1.938	1.934	1.929
0.029	-0.005	-0.005	0.005	0.005	-0.005	0.044	2.681	1.934	1.929	1.924	1.943	1.938	1.943
0.034	0.005	-0.005	0.005	0.000	-0.005	0.044	2.695	1.938	1.938	1.929	1.943	1.938	1.943
0.024	0.000	0.000	0.000	0.005	0.015	0.044	2.700	1.938	1.938	1.934	1.948	1.948	1.948
0.015	0.010	0.005	0.005	0.000	-0.005	0.044	2.690	1.943	1.943	1.938	1.953	1.948	1.948
0.049	0.000	0.000	0.005	0.005	-0.020	0.044	2.700	1.948	1.943	1.938	1.958	1.948	1.948
0.015	0.005	0.000	0.000	0.005	0.020	0.044	2.690	1.934	1.943	1.943	1.958	1.953	1.958
-0.010	0.010	0.000	0.000	-0.005	0.020	0.044	2.686	1.929	1.938	1.938	1.958	1.953	1.953
-0.039	0.005	0.000	0.005	-0.005	0.010	0.044	2.686	1.909	1.929	1.934	1.953	1.943	1.948
-0.044	0.005	0.005	0.000	0.000	0.010	0.049	2.690	1.914	1.919	1.929	1.948	1.948	1.948
-0.044	0.005	0.010	0.000	0.000	0.005	0.044	2.686	1.909	1.909	1.919	1.943	1.943	1.943
-0.044	0.000	0.005	0.005	0.010	0.010	0.044	2.681	1.904	1.909	1.909	1.938	1.938	1.938
-0.029	0.005	-0.005	0.000	0.005	-0.005	0.044	2.690	1.909	1.904	1.909	1.929	1.934	1.929
0.000	0.015	0.000	0.000	-0.005	0.000	0.044	2.686	1.919	1.909	1.904	1.929	1.924	1.934
0.000	0.005	0.005	0.005	0.005	-0.020	0.044	2.700	1.919	1.909	1.904	1.929	1.929	1.924
0.010	0.000	0.005	0.005	0.005	0.000	0.044	2.686	1.919	1.909	1.904	1.924	1.924	1.934
0.010	0.000	0.005	0.005	0.000	0.000	0.044	2.686	1.919	1.914	1.909	1.929	1.929	1.934
0.020	0.005	0.005	0.000	0.000	0.010	0.044	2.695	1.929	1.919	1.914	1.929	1.929	1.938
0.020	0.000	0.005	-0.005	0.000	0.010	0.049	2.695	1.934	1.924	1.919	1.934	1.929	1.934
0.015	-0.005	0.000	0.005	0.000	0.010	0.044	2.686	1.934	1.934	1.924	1.938	1.938	1.938
0.005	0.000	0.000	0.000	0.010	0.010	0.044	2.690	1.934	1.938	1.934	1.943	1.938	1.938
0.000	0.005	0.000	0.005	0.010	0.005	0.044	2.690	1.938	1.938	1.934	1.948	1.943	1.938
0.000	0.005	0.000	0.000	0.000	-0.005	0.044	2.695	1.934	1.938	1.938	1.948	1.943	1.938
0.000	0.010	0.005	0.000	-0.005	-0.020	0.049	2.690	1.929	1.934	1.934	1.948	1.938	1.934
-0.005	0.000	-0.005	0.010	-0.005	0.000	0.049	2.690	1.924	1.929	1.929	1.948	1.943	1.943
0.000	-0.005	0.000	0.005	0.000	0.000	0.044	2.671	1.919	1.924	1.929	1.943	1.943	1.943
0.005	0.005	0.000	0.000	-0.005	0.005	0.044	2.686	1.914	1.914	1.924	1.943	1.934	1.938
0.005	-0.020	0.000	0.005	0.000	0.010	0.044	2.700	1.914	1.904	1.914	1.938	1.934	1.934
0.000	-0.015	0.005	0.000	0.015	0.005	0.044	2.686	1.909	1.904	1.909	1.934	1.934	1.934
-0.005	-0.010	0.005	0.005	0.005	-0.010	0.049	2.690	1.909	1.904	1.904	1.929	1.929	1.929
0.000	-0.005	0.005	0.005	0.005	-0.015	0.049	2.686	1.909	1.904	1.904	1.924	1.924	1.924
0.005	0.000	0.000	0.005	-0.005	0.000	0.049	2.690	1.909	1.904	1.904	1.924	1.919	1.924
0.000	0.010	0.005	0.005	0.000	0.010	0.044	2.681	1.909	1.909	1.904	1.924	1.924	1.929
-0.010	0.000	-0.005	0.000	0.005	0.015	0.049	2.695	1.919	1.909	1.909	1.929	1.924	1.934
0.005	-0.005	0.000	-0.005	0.000	0.005	0.044	2.681	1.924	1.919	1.909	1.929	1.924	1.924
0.005	0.015	0.000	0.000	0.000	0.000	0.044	2.686	1.924	1.929	1.919	1.934	1.929	1.934
0.000	0.010	-0.005	0.000	0.005	0.005	0.049	2.695	1.934	1.934	1.924	1.938	1.934	1.934
0.000	0.010	0.000	0.000	0.000	0.000	0.049	2.690	1.934	1.934	1.929	1.943	1.934	1.938
0.005	0.000	0.000	0.000	0.010	-0.005	0.049	2.695	1.938	1.938	1.934	1.948	1.943	1.934
0.015	0.020	0.005	0.005	0.005	0.005	0.044	2.686	1.938	1.943	1.934	1.948	1.943	1.943
0.015	0.010	-0.005	0.000	0.005	0.010	0.044	2.695	1.934	1.934	1.934	1.948	1.938	1.943
0.015	0.010	0.000	0.005	0.000	0.005	0.044	2.690	1.929	1.929	1.934	1.948	1.938	1.938
0.015	0.010	0.005	0.000	-0.005	-0.015	0.049	2.690	1.919	1.924	1.924	1.943	1.938	1.934
0.010	0.005	0.000	0.000	-0.005	0.005	0.049	2.690	1.914	1.914	1.919	1.938	1.934	1.934
0.005	0.000	0.000	0.000	-0.005	0.000	0.044	2.690	1.904	1.904	1.909	1.934	1.929	1.929
-0.010	-0.010	0.000	0.000	0.000	0.000	0.044	2.690	1.899	1.899	1.904	1.929	1.929	1.924
-0.005	-0.005	0.005	0.000	-0.005	-0.015	0.044	2.676	1.899	1.899	1.904	1.924	1.924	1.924
-0.005	-0.010	0.000	0.000	-0.005	0.015	0.044	2.690	1.895	1.895	1.899	1.924	1.924	1.929
-0.015	-0.005	0.005	-0.005	0.000	-0.005	0.044	2.690	1.899	1.899	1.895	1.919	1.924	1.919
-0.010	0.010	0.010	0.005	0.005	-0.015	0.049	2.690	1.909	1.909	1.899	1.919	1.919	1.919
-0.010	-0.010	0.000	0.005	0.000	0.005	0.049	2.690	1.919	1.904	1.904	1.924	1.919	1.929
0.000	-0.020	0.000	0.000	0.005	0.015	0.044	2.690	1.919	1.909	1.909	1.929	1.924	1.929
-0.010	-0.005	0.005	0.005	0.005	0.010	0.044	2.686	1.929	1.924	1.914	1.929	1.929	1.929
-0.010	-0.005	0.005	0.000	0.000	-0.010	0.044	2.690	1.934	1.929	1.919	1.934	1.929	1.929
0.000	0.005	0.005	0.005	0.005	0.010	0.044	2.690	1.938	1.934	1.929	1.943	1.934	1.934
-0.005	0.000	0.005	0.000	0.005	0.020	0.044	2.690	1.934	1.938	1.929	1.943	1.934	1.938
0.020	0.000	0.005	0.000	0.005	0.000	0.044	2.686	1.938	1.938	1.929	1.943	1.934	1.934
0.015	0.010	0.005	0.000	0.000	0.000	0.049	2.690	1.924	1.934	1.934	1.943	1.938	1.934
0.005	-0.010	-0.005	0.000	0.005	-0.005	0.044	2.676	1.914	1.919	1.924	1.943	1.938	1.934
-0.005	0.010	0.005	0.000	0.000	0.000	0.044	2.690	1.909	1.914	1.919	1.938	1.934	1.929
-0.010	0.005	0.000	0.000	0.000	0.000	0.049	2.695	1.904	1.909	1.914	1.934	1.929	1.924
-0.005	0.010	0.005	0.000	0.005	0.010	0.044	2.681	1.899	1.904	1.909	1.929	1.929	1.929
0.015	0.000	0.000	0.005	0.000	0.005	0.049	2.676	1.904	1.899	1.904	1.924	1.919	1.924
0.015	0.005	0.005	0.005	-0.005	0.005	0.049	2.686	1.899	1.899	1.899	1.919	1.914	1.919
0.000	-0.005	0.000	0.005	0.005	0.000	0.044	2.686	1.899	1.895	1.895	1.919	1.919	1.919
0.005	0.000	0.005	0.005	0.000	0.005	0.044	2.690	1.904	1.899	1.895	1.919	1.919	1.919
0.010	0.010	0.000	0.010	0.005	0.000	0.044	2.690	1.914	1.904	1.904	1.924	1.919	1.924
0.005	0.000	-0.005	0.000	0.005	0.010	0.044	2.686	1.914	1.909	1.904	1.924	1.919	1.929
0.005	-0.005	-0.005	0.000	0.005	0.010	0.044	2.695	1.924	1.914	1.909	1.924	1.919	1.924
0.005	-0.005	0.000	0.000	0.005	0.005	0.049	2.695	1.929	1.919	1.914	1.934	1.929	1.924
0.010	0.000	0.000	0.005	-0.005	-0.010	0.044	2.681	1.929	1.929	1.919	1.934	1.929	1.924
0.020	0.010	0.005	0.005	0.000	-0.005	0.044	2.690	1.934	1.934	1.929	1.938	1.934	1.934
0.010	0.005	0.005	-0.005	0.000	0.000	0.044	2.690	1.929	1.929	1.929	1.938	1.934	1.934
-0.005	0.000	0.005	-0.005	0.005	0.005	0.039	2.690	1.919	1.929	1.929	1.943	1.938	1.934
-0.005	0.005	0.000	0.005	-0.005	-0.024	0.044	2.681	1.919	1.924	1.924	1.943	1.934	1.924
-0.005	0.000	-0.005	0.000	0.000	-0.010	0.049	2.690	1.909	1.914	1.919	1.934	1.934	1.929
0.000	-0.010	-0.005	-0.005	0.000	0.005	0.049	2.695	1.909	1.904	1.909	1.934	1.934	1.934
0.020	0.000	0.000	0.005	0.000	0.000	0.049	2.690	1.914	1.909	1.904	1.934	1.929	1.929
0.005	-0.010	0.000	0.000	-0.005	-0.005	0.044	2.690	1.904	1.899	1.904	1.924	1.919	1.919
0.000	-0.010	0.000	0.000	-0.005	0.000	0.049	2.690	1.899	1.899	1.899	1.919	1.919	1.924
-0.005	-0.005	0.005	0.005	0.005	-0.020	0.044	2.676	1.890	1.895	1.895	1.914	1.919	1.914
0.010	0.010	0.005	0.000	0.005	0.010	0.044	2.690	1.909	1.899	1.895	1.914	1.914	1.924
0.000	-0.005	0.005	0.005	0.005	0.024	0.044	2.690	1.909	1.899	1.895	1.914	1.914	1.924
-0.005	0.000	0.000	0.005	-0.005	0.010	0.044	2.690	1.909	1.909	1.899	1.919	1.914	1.919
-0.015	0.000	0.005	0.000	0.005	-0.015	0.044	2.695	1.909	1.909	1.904	1.919	1.919	1.914
-0.034	0.005	0.005	0.000	-0.005	0.005	0.044	2.690	1.914	1.914	1.909	1.929	1.919	1.924
-0.044	0.000	0.010	0.000	-0.005	0.010	0.044	2.686	1.914	1.919	1.914	1.934	1.924	1.929
-0.024	0.000	0.000	0.000	0.010	0.010	0.044	2.695	1.924	1.924	1.919	1.934	1.929	1.929
0.000	0.005	0.005	0.005	0.005	-0.015	0.044	2.690	1.934	1.929	1.924	1.938	1.934	1.924
0.000	0.000	0.000	0.000	0.010	0.015	0.049	2.700	1.934	1.934	1.919	1.938	1.934	1.938
0.020	0.000	0.000	0.000	0.000	0.015	0.044	2.681	1.929	1.929	1.924	1.938	1.929	1.938
0.024	0.005	0.000	0.000	0.000	0.010	0.044	2.681	1.924	1.929	1.924	1.938	1.929	1.934
0.029	0.005	0.005	0.005	0.000	-0.005	0.044	2.686	1.919	1.924	1.919	1.938	1.929	1.929
0.015	-0.005	0.000	0.000	-0.005	0.005	0.039	2.681	1.909	1.909	1.914	1.934	1.924	1.924
-0.005	0.000	0.000	0.005	0.000	0.005	0.049	2.690	1.895	1.904	1.909	1.929	1.924	1.919
-0.010	-0.005	0.005	0.000	0.000	0.005	0.044	2.695	1.895	1.895	1.904	1.924	1.919	1.919
-0.005	0.000	0.000	0.000	0.000	0.000	0.044	2.686	1.890	1.895	1.895	1.919	1.919	1.914
-0.010	0.005	0.000	0.005	0.005	0.000	0.044	2.686	1.895	1.895	1.895	1.919	1.914	1.919
-0.010	0.005	-0.005	0.000	0.000	-0.020	0.044	2.695	1.899	1.890	1.895	1.919	1.909	1.914
0.000	0.000	0.000	0.005	0.005	0.000	0.044	2.700	1.909	1.899	1.895	1.914	1.914	1.914
0.015	0.000	0.005	0.005	0.005	-0.005	0.044	2.705	1.914	1.904	1.899	1.919	1.919	1.919
0.005	0.010	0.005	0.005	0.000	0.015	0.044	2.681	1.914	1.914	1.909	1.919	1.919	1.929
0.005	-0.010	0.000	-0.005	0.000	0.015	0.044	2.695	1.924	1.914	1.909	1.924	1.924	1.924
0.010	-0.005	0.000	0.005	0.000	0.000	0.044	2.695	1.929	1.924	1.914	1.934	1.924	1.924
0.020	-0.005	0.000	-0.005	0.000	-0.010	0.044	2.695	1.934	1.924	1.919	1.934	1.929	1.924
0.015	0.000	0.000	0.000	0.000	0.015	0.044	2.686	1.934	1.934	1.924	1.938	1.934	1.934
0.005	0.005	0.005	0.005	-0.005	0.010	0.049	2.681	1.924	1.929	1.929	1.938	1.929	1.934
0.020	0.010	0.005	0.000	0.000	0.010	0.049	2.695	1.929	1.929	1.929	1.938	1.934	1.934
0.034	0.000	0.000	0.000	0.005	0.000	0.049	2.705	1.924	1.924	1.924	1.938	1.934	1.929
-0.005	0.000	0.000	0.000	0.000	0.005	0.044	2.690	1.899	1.914	1.914	1.934	1.929	1.929
-0.010	-0.005	0.000	0.000	0.000	0.000	0.044	2.676	1.895	1.904	1.909	1.929	1.924	1.924
-0.024	0.000	0.005	0.000	0.005	0.000	0.044	2.690	1.890	1.895	1.904	1.929	1.924	1.919
-0.039	0.000	0.005	0.000	0.005	0.005	0.049	2.695	1.890	1.890	1.895	1.919	1.919	1.919
-0.034	-0.005	0.005	0.005	0.005	0.000	0.049	2.695	1.895	1.890	1.890	1.914	1.919	1.914
-0.020	0.000	0.005	0.005	0.005	-0.005	0.049	2.681	1.899	1.890	1.890	1.914	1.914	1.919
-0.010	-0.005	0.000	0.010	0.000	0.000	0.044	2.686	1.904	1.890	1.890	1.914	1.909	1.914
0.000	0.005	0.005	0.005	0.000	0.005	0.049	2.695	1.914	1.899	1.895	1.914	1.909	1.914
0.000	0.005	0.005	0.000	0.000	-0.005	0.044	2.700	1.919	1.904	1.899	1.914	1.914	1.914
0.010	-0.005	0.000	0.000	0.005	-0.029	0.044	2.710	1.929	1.914	1.904	1.924	1.919	1.914
0.010	0.000	0.000	0.005	0.000	-0.020	0.044	2.690	1.929	1.924	1.914	1.929	1.919	1.919
0.010	0.000	0.005	0.000	0.005	0.015	0.049	2.695	1.929	1.924	1.919	1.934	1.924	1.934
0.010	0.000	0.005	0.000	0.005	0.000	0.049	2.686	1.929	1.929	1.929	1.934	1.929	1.934
0.000	-0.005	0.010	0.000	0.000	0.005	0.044	2.690	1.929	1.929	1.924	1.938	1.929	1.934
0.010	-0.010	0.005	0.005	0.005	0.015	0.049	2.681	1.924	1.929	1.924	1.938	1.934	1.934
0.015	0.000	0.000	0.005	0.005	0.015	0.044	2.690	1.924	1.924	1.924	1.938	1.929	1.934
0.010	0.005	0.000	0.005	0.000	0.000	0.044	2.690	1.914	1.914	1.919	1.938	1.929	1.929
0.015	0.005	0.000	0.000	0.000	0.015	0.044	2.686	1.909	1.914	1.914	1.934	1.924	1.924
0.010	-0.005	0.005	0.000	-0.005	0.000	0.044	2.681	1.899	1.904	1.909	1.929	1.924	1.919
0.010	0.000	-0.005	0.000	0.005	0.005	0.049	2.686	1.899	1.899	1.899	1.924	1.924	1.919
0.010	0.010	0.000	0.005	0.010	-0.005	0.044	2.695	1.895	1.899	1.899	1.919	1.919	1.914
-0.005	0.000	-0.005	0.005	0.000	-0.005	0.044	2.695	1.895	1.895	1.895	1.919	1.914	1.909
0.010	0.000	0.000	0.000	0.000	0.005	0.044	2.681	1.899	1.895	1.895	1.914	1.914	1.914
0.020	0.005	0.005	0.005	0.005	0.005	0.044	2.690	1.904	1.899	1.895	1.914	1.914	1.914
0.020	0.015	-0.005	0.005	0.000	0.005	0.044	2.690	1.909	1.904	1.899	1.919	1.914	1.919
0.010	0.005	0.005	0.000	-0.005	-0.005	0.044	2.690	1.909	1.909	1.904	1.924	1.919	1.914
-0.015	0.010	0.000	0.005	0.000	0.010	0.049	2.700	1.909	1.909	1.909	1.929	1.924	1.924
-0.029	0.010	0.005	0.005	-0.005	0.015	0.044	2.695	1.914	1.919	1.909	1.934	1.924	1.929
-0.029	-0.005	0.000	0.005	0.005	0.010	0.044	2.695	1.914	1.914	1.914	1.934	1.929	1.929
-0.020	0.005	0.005	0.005	0.005	0.005	0.044	2.671	1.919	1.919	1.919	1.934	1.934	1.929
-0.024	0.000	0.005	0.000	0.005	0.005	0.039	2.690	1.924	1.919	1.914	1.934	1.929	1.929
-0.020	0.010	0.005	-0.005	0.005	-0.005	0.049	2.690	1.924	1.924	1.919	1.934	1.934	1.929
-0.005	0.000	0.000	0.000	-0.005	0.000	0.044	2.681	1.919	1.919	1.914	1.934	1.929	1.929
-0.005	0.000	0.000	0.000	0.000	-0.005	0.044	2.686	1.909	1.914	1.909	1.929	1.924	1.929
0.005	-0.010	-0.005	0.005	0.005	-0.005	0.049	2.686	1.909	1.909	1.909	1.929	1.924	1.919
-0.005	0.005	0.005	0.000	0.000	0.005	0.044	2.690	1.904	1.904	1.904	1.919	1.914	1.919
0.005	0.015	-0.005	-0.005	0.000	-0.010	0.044	2.690	1.899	1.904	1.899	1.919	1.914	1.909
0.005	0.005	0.000	0.005	0.000	-0.005	0.044	2.686	1.895	1.895	1.895	1.914	1.914	1.914
0.010	0.010	0.000	0.000	0.000	-0.005	0.044	2.686	1.899	1.895	1.899	1.914	1.909	1.914
0.029	0.010	0.000	0.000	0.000	-0.024	0.044	2.686	1.904	1.899	1.895	1.914	1.909	1.904
0.024	0.000	0.000	0.000	0.000	0.020	0.044	2.695	1.909	1.899	1.899	1.919	1.914	1.924
0.029	0.005	0.000	0.000	-0.005	0.010	0.044	2.690	1.909	1.909	1.899	1.919	1.914	1.914
0.010	0.000	-0.005	0.000	0.000	0.010	0.044	2.686	1.909	1.909	1.904	1.924	1.919	1.924
0.039	0.000	0.000	0.005	0.010	0.015	0.049	2.695	1.929	1.919	1.914	1.929	1.924	1.924
0.024	0.015	0.000	0.005	0.005	0.015	0.049	2.695	1.929	1.924	1.919	1.934	1.924	1.924
-0.005	0.010	0.005	0.000	0.005	0.015	0.044	2.690	1.919	1.924	1.919	1.934	1.934	1.929
-0.015	0.005	0.005	0.000	0.005	0.010	0.044	2.686	1.914	1.924	1.924	1.938	1.934	1.934
-0.024	-0.005	0.000	0.000	0.005	0.010	0.044	2.681	1.909	1.919	1.919	1.938	1.934	1.934
-0.044	0.000	0.000	0.000	0.000	-0.010	0.044	2.690	1.909	1.914	1.919	1.938	1.929	1.924
-0.029	-0.010	0.000	0.000	0.000	0.005	0.044	2.681	1.909	1.909	1.909	1.934	1.929	1.929
-0.024	-0.005	-0.005	0.000	0.000	0.000	0.044	2.686	1.899	1.904	1.904	1.929	1.924	1.924
-0.024	-0.005	0.000	0.000	-0.005	0.010	0.044	2.690	1.899	1.899	1.899	1.924	1.919	1.924
-0.010	-0.010	0.005	0.000	0.000	0.010	0.044	2.686	1.904	1.895	1.895	1.919	1.919	1.919
0.005	-0.010	0.000	0.000	0.000	0.005	0.044	2.690	1.899	1.895	1.890	1.914	1.909	1.914
0.010	-0.010	0.000	0.005	-0.005	-0.010	0.044	2.681	1.899	1.895	1.890	1.909	1.909	1.909
0.015	0.005	0.000	0.005	0.005	0.010	0.044	2.686	1.904	1.899	1.890	1.909	1.909	1.919
0.024	0.000	0.005	0.005	0.005	0.005	0.044	2.695	1.904	1.899	1.895	1.909	1.909	1.909
0.015	0.000	0.005	0.000	0.005	0.010	0.044	2.695	1.909	1.904	1.899	1.914	1.909	1.914
0.020	0.010	0.005	0.000	-0.005	0.005	0.044	2.690	1.914	1.909	1.899	1.919	1.914	1.914
0.015	0.000	0.010	0.000	0.005	0.005	0.044	2.676	1.914	1.914	1.909	1.924	1.919	1.919
0.005	0.000	0.000	0.000	0.000	0.000	0.044	2.686	1.919	1.919	1.909	1.929	1.919	1.914
0.000	0.000	0.000	-0.005	0.010	0.010	0.044	2.700	1.924	1.919	1.914	1.934	1.929	1.924
0.024	0.005	0.000	0.000	0.005	0.000	0.044	2.686	1.924	1.929	1.924	1.934	1.929	1.929
0.015	0.010	0.000	0.005	-0.005	0.000	0.044	2.681	1.924	1.929	1.924	1.938	1.929	1.929
0.005	0.005	0.000	0.000	-0.005	-0.029	0.044	2.681	1.914	1.924	1.924	1.938	1.924	1.919
-0.005	0.010	0.005	0.000	0.000	0.000	0.044	2.695	1.909	1.919	1.919	1.938	1.929	1.929
-0.005	0.000	0.005	0.000	0.000	-0.005	0.044	2.686	1.904	1.909	1.914	1.934	1.929	1.924
-0.010	0.000	0.000	0.005	0.005	0.010	0.044	2.666	1.890	1.899	1.909	1.929	1.929	1.929
-0.015	0.000	0.000	0.005	0.005	0.005	0.044	2.681	1.895	1.895	1.899	1.924	1.924	1.924
-0.005	0.000	0.000	0.005	0.005	0.000	0.049	2.690	1.895	1.890	1.895	1.919	1.919	1.919
-0.005	0.000	0.005	0.000	0.000	0.005	0.044	2.690	1.895	1.890	1.890	1.914	1.914	1.914
0.005	-0.020	0.000	0.005	0.005	0.005	0.044	2.686	1.895	1.885	1.885	1.909	1.909	1.914
0.010	-0.010	-0.005	0.005	0.010	0.000	0.049	2.690	1.899	1.890	1.885	1.909	1.909	1.909
0.005	0.000	0.005	0.000	0.005	0.015	0.049	2.700	1.904	1.899	1.890	1.909	1.909	1.914
0.010	-0.005	-0.005	0.000	0.000	0.005	0.044	2.690	1.909	1.904	1.890	1.909	1.909	1.914
0.010	-0.005	0.005	0.005	0.000	0.010	0.044	2.690	1.914	1.909	1.899	1.914	1.909	1.909
0.015	-0.005	0.005	0.005	0.005	0.015	0.044	2.681	1.924	1.919	1.909	1.919	1.914	1.919
0.005	0.000	0.000	0.005	0.005	0.000	0.049	2.686	1.919	1.919	1.914	1.924	1.919	1.914
-0.005	0.005	0.005	0.005	0.000	-0.005	0.044	2.695	1.924	1.924	1.919	1.934	1.924	1.919
-0.010	0.000	-0.005	0.000	0.000	-0.010	0.044	2.690	1.924	1.924	1.919	1.934	1.929	1.919
-0.010	-0.010	0.005	0.005	0.010	-0.005	0.044	2.681	1.919	1.924	1.924	1.938	1.934	1.924
0.005	-0.005	0.005	0.005	-0.005	-0.005	0.044	2.681	1.919	1.924	1.919	1.934	1.929	1.919
0.000	-0.005	0.000	0.000	-0.010	0.015	0.044	2.690	1.914	1.919	1.914	1.934	1.924	1.929
0.005	0.000	0.000	0.000	-0.005	-0.010	0.044	2.676	1.909	1.919	1.909	1.929	1.924	1.919
0.000	0.000	0.005	0.005	0.005	0.010	0.044	2.690	1.904	1.909	1.909	1.929	1.924	1.924
0.000	0.005	0.000	0.000	-0.005	-0.005	0.044	2.681	1.895	1.904	1.904	1.924	1.919	1.919
0.010	0.010	0.005	0.005	0.000	-0.024	0.049	2.690	1.899	1.899	1.899	1.919	1.919	1.909
0.005	0.010	0.000	0.000	0.000	-0.010	0.044	2.690	1.895	1.895	1.895	1.914	1.914	1.914
0.010	0.000	0.005	0.000	0.005	-0.005	0.044	2.686	1.895	1.890	1.895	1.914	1.914	1.914
0.005	0.015	0.000	0.005	0.005	0.000	0.049	2.695	1.899	1.895	1.890	1.914	1.914	1.914
0.000	0.010	0.005	0.000	0.005	-0.015	0.044	2.695	1.904	1.899	1.895	1.914	1.914	1.909
0.005	0.000	0.000	0.005	-0.005	0.015	0.039	2.686	1.909	1.899	1.895	1.919	1.914	1.924
0.005	-0.005	0.005	0.005	0.005	0.010	0.044	2.705	1.919	1.904	1.899	1.919	1.919	1.924
-0.005	0.000	0.000	0.005	0.000	0.020	0.044	2.686	1.919	1.914	1.904	1.924	1.919	1.924
0.005	0.015	0.000	-0.005	0.005	0.015	0.044	2.690	1.924	1.924	1.914	1.924	1.924	1.924
0.000	0.010	0.005	-0.005	0.005	0.010	0.044	2.705	1.929	1.929	1.914	1.934	1.924	1.924
0.000	0.010	0.005	0.000	-0.005	0.005	0.044	2.676	1.924	1.929	1.919	1.934	1.929	1.929
-0.005	0.010	0.000	0.005	0.005	-0.005	0.044	2.681	1.919	1.929	1.919	1.938	1.929	1.929
0.000	0.010	-0.005	0.005	0.005	0.000	0.044	2.690	1.914	1.919	1.919	1.938	1.929	1.929
0.000	0.000	0.005	0.000	0.000	0.005	0.044	2.686	1.914	1.914	1.914	1.934	1.929	1.924
-0.005	0.000	0.005	0.000	-0.005	0.000	0.044	2.686	1.904	1.909	1.909	1.934	1.924	1.924
-0.005	-0.005	0.000	0.000	0.000	-0.005	0.044	2.681	1.899	1.904	1.904	1.924	1.919	1.919
0.005	-0.005	0.000	0.005	0.000	-0.010	0.039	2.686	1.895	1.895	1.899	1.919	1.919	1.919
-0.005	0.000	0.005	0.005	0.005	0.010	0.049	2.700	1.890	1.890	1.895	1.914	1.914	1.914
0.000	0.024	0.000	0.000	0.000	-0.010	0.049	2.695	1.895	1.899	1.895	1.909	1.909	1.909
-0.005	0.005	0.005	0.005	0.000	0.010	0.044	2.690	1.895	1.890	1.890	1.914	1.909	1.914
0.000	0.005	0.000	0.000	-0.005	0.020	0.049	2.690	1.899	1.890	1.890	1.914	1.909	1.914
0.005	0.000	0.000	0.005	0.000	0.024	0.049	2.686	1.904	1.895	1.890	1.914	1.909	1.914
0.005	0.005	0.005	0.000	0.000	0.015	0.049	2.695	1.914	1.904	1.899	1.919	1.914	1.914
0.015	0.005	0.000	0.005	0.010	-0.024	0.049	2.690	1.919	1.914	1.904	1.924	1.919	1.909
0.000	-0.005	-0.005	0.000	0.000	0.005	0.044	2.695	1.919	1.909	1.904	1.924	1.919	1.919
0.000	0.000	0.000	0.000	0.000	-0.015	0.044	2.695	1.919	1.919	1.909	1.929	1.924	1.919
0.024	-0.005	0.005	0.000	0.000	0.005	0.044	2.690	1.934	1.924	1.919	1.934	1.924	1.929
0.015	-0.005	0.000	0.000	0.005	-0.015	0.044	2.690	1.924	1.924	1.919	1.934	1.929	1.919
0.010	0.000	0.000	-0.005	0.000	0.010	0.044	2.705	1.929	1.924	1.919	1.934	1.929	1.934
0.029	-0.005	0.000	0.010	0.010	-0.005	0.049	2.686	1.924	1.924	1.914	1.934	1.929	1.924
0.010	0.000	0.000	0.000	0.015	0.005	0.044	2.681	1.904	1.919	1.914	1.929	1.929	1.929
-0.015	0.010	0.000	0.000	0.005	0.010	0.044	2.686	1.899	1.909	1.909	1.929	1.924	1.924
-0.034	0.000	-0.005	0.000	0.005	0.005	0.044	2.681	1.890	1.895	1.904	1.924	1.919	1.919
-0.029	-0.010	0.000	0.005	0.000	0.010	0.049	2.686	1.885	1.885	1.895	1.919	1.914	1.919
-0.039	-0.005	0.000	0.000	0.010	-0.015	0.044	2.686	1.885	1.885	1.890	1.914	1.909	1.904
-0.034	-0.005	0.000	0.005	0.005	-0.024	0.049	2.690	1.890	1.885	1.885	1.914	1.909	1.904
-0.024	0.000	0.000	0.000	0.000	-0.015	0.049	2.700	1.899	1.890	1.885	1.909	1.909	1.909
-0.010	-0.010	0.000	0.000	0.000	-0.005	0.044	2.681	1.904	1.890	1.890	1.909	1.909	1.914
0.034	0.000	0.000	0.005	0.005	0.015	0.044	2.695	1.914	1.904	1.890	1.909	1.909	1.914
0.024	0.010	0.005	0.005	0.000	0.020	0.044	2.695	1.919	1.909	1.899	1.919	1.909	1.919
0.015	0.005	0.005	0.005	-0.005	0.005	0.044	2.700	1.919	1.919	1.904	1.919	1.914	1.919
0.024	0.005	0.005	0.005	0.005	0.005	0.044	2.686	1.919	1.919	1.914	1.924	1.919	1.919
0.000	0.005	0.005	0.005	0.005	0.010	0.044	2.690	1.919	1.924	1.919	1.929	1.924	1.929
-0.020	0.000	0.005	0.000	0.000	0.000	0.044	2.690	1.914	1.924	1.919	1.929	1.924	1.924
-0.015	0.005	0.005	0.005	-0.005	0.005	0.044	2.695	1.919	1.924	1.919	1.934	1.929	1.924
-0.005	-0.015	0.005	0.000	0.005	0.005	0.049	2.681	1.919	1.919	1.919	1.934	1.929	1.929
0.000	-0.015	0.000	0.005	0.005	0.005	0.044	2.686	1.909	1.914	1.914	1.934	1.929	1.929
-0.005	0.000	0.000	0.000	0.000	0.010	0.044	2.695	1.909	1.914	1.909	1.929	1.924	1.924
0.010	0.005	0.000	0.005	0.005	0.005	0.044	2.686	1.909	1.909	1.904	1.929	1.924	1.919
0.015	0.000	0.000	0.005	0.000	-0.024	0.049	2.686	1.904	1.904	1.904	1.919	1.914	1.909
0.010	-0.005	0.000	0.005	0.000	-0.024	0.044	2.686	1.895	1.895	1.895	1.919	1.909	1.904
0.000	-0.005	0.000	0.000	-0.005	-0.005	0.044	2.690	1.890	1.895	1.895	1.914	1.909	1.914
0.024	0.020	0.005	0.005	-0.005	0.010	0.049	2.686	1.899	1.899	1.895	1.909	1.909	1.914
-0.005	0.020	0.000	0.000	0.000	0.005	0.044	2.690	1.895	1.895	1.895	1.914	1.909	1.914
0.000	0.010	0.000	0.005	0.000	-0.010	0.044	2.681	1.899	1.895	1.895	1.914	1.909	1.904
0.000	0.005	0.005	0.000	0.005	0.005	0.044	2.690	1.904	1.895	1.899	1.914	1.914	1.919
0.000	-0.010	0.010	0.005	0.005	-0.015	0.039	2.686	1.914	1.904	1.899	1.919	1.919	1.909
0.020	-0.005	0.005	0.000	0.010	0.005	0.049	2.681	1.919	1.909	1.904	1.919	1.919	1.924
0.015	0.005	0.000	0.000	0.010	0.005	0.049	2.690	1.919	1.919	1.909	1.929	1.924	1.924
0.015	0.000	0.000	-0.005	0.005	0.015	0.044	2.695	1.929	1.919	1.914	1.934	1.924	1.929
0.039	0.005	0.000	0.000	0.010	0.000	0.049	2.686	1.934	1.924	1.919	1.934	1.929	1.929
0.020	0.010	0.005	0.005	0.010	0.000	0.044	2.695	1.929	1.929	1.919	1.938	1.929	1.929
0.015	0.000	0.005	0.000	0.005	0.000	0.049	2.686	1.919	1.924	1.924	1.938	1.929	1.929
0.015	0.005	-0.005	0.000	0.000	0.000	0.044	2.686	1.914	1.914	1.919	1.934	1.924	1.924
0.000	0.005	0.000	0.005	0.000	0.005	0.044	2.690	1.904	1.904	1.909	1.929	1.924	1.924
-0.020	0.000	-0.005	0.005	0.000	-0.020	0.049	2.695	1.899	1.899	1.904	1.924	1.919	1.909
-0.024	0.005	0.000	0.005	-0.005	-0.010	0.044	2.681	1.890	1.895	1.899	1.924	1.919	1.919
-0.039	0.005	-0.005	0.000	-0.005	-0.005	0.044	2.690	1.880	1.890	1.895	1.919	1.914	1.914
-0.054	0.024	0.000	0.000	0.000	0.010	0.044	2.690	1.885	1.890	1.885	1.914	1.914	1.919
-0.029	-0.005	0.000	0.005	0.005	0.010	0.049	2.690	1.895	1.885	1.885	1.909	1.914	1.914
-0.015	-0.005	-0.005	0.005	-0.005	-0.020	0.044	2.686	1.899	1.890	1.890	1.909	1.904	1.904
-0.005	-0.010	0.000	0.005	0.000	0.005	0.044	2.686	1.904	1.890	1.890	1.909	1.909	1.919
-0.010	0.000	0.005	0.000	-0.005	0.015	0.039	2.695	1.914	1.904	1.895	1.914	1.909	1.914
0.005	-0.005	0.005	0.005	-0.005	0.015	0.049	2.686	1.924	1.914	1.904	1.919	1.914	1.919
0.010	0.005	0.005	0.000	0.005	0.000	0.044	2.690	1.924	1.924	1.909	1.924	1.919	1.919
0.034	0.000	0.000	0.000	0.000	0.010	0.044	2.690	1.934	1.924	1.919	1.929	1.919	1.924
0.054	0.005	0.010	0.000	0.005	0.005	0.044	2.690	1.938	1.934	1.919	1.934	1.924	1.919
0.020	-0.005	0.000	0.000	0.000	0.010	0.049	2.690	1.924	1.929	1.924	1.938	1.929	1.929
0.029	-0.020	0.005	0.000	0.000	0.005	0.049	2.686	1.924	1.924	1.924	1.938	1.934	1.929
0.029	-0.010	-0.005	0.000	0.000	0.005	0.044	2.686	1.919	1.919	1.919	1.938	1.929	1.929
-0.010	-0.005	-0.005	0.000	0.000	-0.005	0.044	2.695	1.899	1.914	1.914	1.934	1.929	1.924
-0.039	-0.005	0.000	0.000	0.005	-0.020	0.049	2.695	1.890	1.904	1.909	1.929	1.924	1.914
-0.029	-0.005	0.005	0.005	-0.005	0.005	0.049	2.686	1.895	1.899	1.904	1.929	1.924	1.919
0.010	0.000	0.000	0.000	0.005	0.005	0.044	2.681	1.899	1.899	1.899	1.919	1.919	1.924
0.005	0.005	0.005	0.005	0.000	-0.005	0.049	2.686	1.899	1.890	1.895	1.914	1.914	1.909
-0.010	0.020	0.000	0.005	0.000	-0.005	0.049	2.686	1.895	1.895	1.895	1.914	1.914	1.914
-0.024	0.020	0.005	0.000	0.000	0.005	0.044	2.695	1.895	1.895	1.890	1.914	1.914	1.919
0.010	0.015	0.000	0.000	0.000	0.005	0.044	2.686	1.909	1.895	1.895	1.909	1.909	1.914
0.024	0.020	-0.005	0.000	0.010	0.005	0.044	2.686	1.914	1.904	1.899	1.914	1.909	1.919
0.005	0.005	0.000	0.000	0.005	0.015	0.044	2.695	1.914	1.909	1.904	1.919	1.914	1.919
-0.034	0.015	0.000	0.005	0.000	-0.015	0.044	2.700	1.909	1.914	1.909	1.924	1.914	1.914
-0.039	0.005	0.000	0.005	0.000	0.015	0.049	2.695	1.909	1.914	1.909	1.929	1.924	1.924
-0.039	0.000	0.000	0.000	0.000	-0.010	0.044	2.681	1.919	1.919	1.914	1.929	1.924	1.924
-0.020	0.000	-0.005	0.005	0.000	0.015	0.044	2.686	1.924	1.919	1.919	1.934	1.929	1.934
0.000	0.015	0.000	0.005	0.000	0.015	0.044	2.690	1.934	1.924	1.919	1.934	1.929	1.929
0.024	0.010	0.005	0.010	-0.005	0.005	0.044	2.686	1.929	1.929	1.919	1.938	1.929	1.924
0.029	0.000	0.005	0.005	0.000	-0.005	0.044	2.681	1.919	1.924	1.919	1.934	1.929	1.924
0.024	0.005	0.010	0.010	0.005	0.000	0.049	2.686	1.909	1.919	1.919	1.934	1.929	1.924
0.015	0.005	0.000	0.005	-0.005	-0.005	0.049	2.690	1.909	1.909	1.909	1.934	1.924	1.919
0.015	-0.010	0.005	0.005	-0.005	-0.010	0.049	2.686	1.899	1.899	1.904	1.924	1.919	1.914
0.020	0.010	0.005	0.005	0.000	-0.010	0.049	2.686	1.895	1.899	1.899	1.919	1.919	1.919
0.015	-0.015	0.005	0.000	0.000	-0.005	0.049	2.686	1.895	1.885	1.890	1.914	1.914	1.914
0.000	-0.015	0.000	0.000	0.000	-0.005	0.044	2.695	1.895	1.890	1.890	1.914	1.914	1.914
0.015	-0.015	0.000	0.005	0.000	-0.010	0.049	2.681	1.895	1.890	1.890	1.909	1.909	1.914
0.010	-0.010	0.000	0.005	0.000	0.005	0.049	2.690	1.895	1.895	1.895	1.909	1.914	1.919
0.015	-0.005	0.000	0.000	0.000	0.000	0.044	2.695	1.909	1.904	1.899	1.914	1.914	1.919
0.015	0.005	-0.005	-0.005	-0.005	-0.005	0.049	2.690	1.914	1.909	1.899	1.914	1.909	1.919
-0.005	0.000	0.000	-0.005	0.000	0.000	0.044	2.700	1.919	1.914	1.909	1.924	1.919	1.919
0.005	-0.005	0.000	0.000	0.005	-0.005	0.044	2.671	1.919	1.919	1.914	1.929	1.924	1.924
0.005	0.005	0.000	0.000	0.010	0.015	0.049	2.690	1.924	1.924	1.919	1.934	1.924	1.929
0.005	0.005	0.005	0.000	0.005	0.020	0.044	2.695	1.929	1.924	1.924	1.938	1.929	1.934
-0.010	0.005	0.000	0.000	-0.005	0.015	0.044	2.700	1.924	1.924	1.924	1.938	1.929	1.929
-0.015	0.000	0.000	0.005	0.000	0.005	0.039	2.700	1.919	1.919	1.919	1.938	1.929	1.924
-0.005	-0.005	0.000	0.005	0.005	0.010	0.044	2.671	1.909	1.914	1.919	1.934	1.929	1.929
0.000	0.005	0.000	0.005	0.010	-0.024	0.044	2.681	1.904	1.909	1.909	1.929	1.924	1.914
0.000	0.005	0.000	0.000	0.010	-0.020	0.049	2.690	1.904	1.904	1.904	1.929	1.924	1.919
0.063	-0.005	0.000	0.010	0.000	0.015	0.044	2.686	1.924	1.904	1.904	1.924	1.919	1.929
0.122	-0.005	0.000	0.005	0.000	0.010	0.044	2.681	1.924	1.909	1.904	1.919	1.914	1.919
0.083	0.005	0.000	0.000	0.000	0.005	0.044	2.695	1.904	1.904	1.904	1.919	1.909	1.914
0.044	0.005	0.000	0.005	0.000	0.015	0.049	2.686	1.890	1.899	1.899	1.919	1.914	1.914
-0.020	0.000	0.005	0.015	-0.005	-0.010	0.044	2.690	1.875	1.890	1.895	1.914	1.914	1.914
-0.063	0.020	0.000	0.005	0.000	0.010	0.049	2.690	1.875	1.890	1.895	1.914	1.914	1.919
-0.093	0.010	0.000	0.000	0.000	0.005	0.044	2.695	1.885	1.890	1.895	1.914	1.914	1.914
-0.093	0.010	0.005	0.005	0.000	0.020	0.044	2.695	1.895	1.895	1.895	1.919	1.919	1.919
-0.073	0.010	0.000	0.000	0.000	0.015	0.044	2.686	1.909	1.899	1.899	1.919	1.919	1.924
-0.054	0.005	0.000	0.005	-0.010	0.010	0.044	2.695	1.924	1.909	1.904	1.924	1.919	1.924
-0.034	0.005	0.000	0.000	0.000	-0.010	0.044	2.695	1.934	1.919	1.904	1.924	1.924	1.924
-0.029	-0.005	0.005	0.000	0.000	0.015	0.044	2.690	1.934	1.919	1.909	1.929	1.924	1.929
-0.020	0.000	0.000	0.005	-0.005	-0.015	0.044	2.690	1.929	1.929	1.914	1.929	1.924	1.919
-0.005	0.000	0.000	0.005	0.000	0.005	0.049	2.681	1.924	1.924	1.914	1.929	1.924	1.929
0.010	0.005	0.005	0.000	-0.005	-0.020	0.044	2.686	1.924	1.919	1.914	1.929	1.919	1.914
0.024	-0.005	0.005	0.000	0.000	0.010	0.044	2.676	1.914	1.914	1.914	1.924	1.919	1.924
0.024	-0.010	0.005	0.000	-0.005	-0.005	0.044	2.681	1.909	1.909	1.909	1.924	1.919	1.909
0.020	-0.010	0.005	0.000	-0.010	-0.010	0.044	2.681	1.899	1.899	1.899	1.919	1.909	1.914
0.024	-0.005	0.000	0.000	0.000	0.015	0.044	2.686	1.899	1.899	1.899	1.914	1.914	1.914
0.034	-0.010	0.000	0.000	0.000	0.015	0.044	2.690	1.895	1.895	1.895	1.914	1.914	1.914
0.063	-0.005	0.005	-0.005	0.000	0.010	0.044	2.690	1.904	1.899	1.895	1.914	1.914	1.909
0.049	-0.005	0.005	0.000	0.000	0.015	0.049	2.690	1.899	1.899	1.895	1.914	1.909	1.914
0.039	0.005	0.000	-0.005	0.000	0.010	0.044	2.686	1.904	1.904	1.899	1.914	1.909	1.914
0.024	0.015	0.000	-0.005	0.000	0.005	0.049	2.695	1.909	1.914	1.904	1.919	1.914	1.914
0.010	-0.005	0.005	-0.005	0.000	-0.015	0.044	2.705	1.909	1.904	1.904	1.924	1.919	1.914
-0.005	-0.010	0.005	0.000	0.000	0.015	0.049	2.681	1.904	1.909	1.909	1.929	1.924	1.929
-0.015	0.005	0.000	0.000	0.005	0.010	0.044	2.690	1.914	1.914	1.914	1.934	1.929	1.929
-0.010	-0.005	0.005	0.000	0.005	0.015	0.044	2.695	1.924	1.914	1.914	1.934	1.929	1.929
-0.005	-0.005	0.000	0.005	0.000	0.010	0.044	2.690	1.924	1.919	1.914	1.934	1.929	1.929
-0.005	0.005	0.000	0.005	0.015	-0.020	0.044	2.686	1.919	1.924	1.919	1.938	1.934	1.924
-0.010	0.015	0.000	0.010	0.010	-0.010	0.044	2.681	1.909	1.919	1.914	1.934	1.929	1.929
0.005	0.020	-0.005	0.005	0.015	-0.005	0.049	2.690	1.914	1.914	1.914	1.929	1.929	1.929
-0.005	0.020	0.005	0.005	0.015	-0.005	0.044	2.695	1.904	1.909	1.909	1.924	1.924	1.924
-0.015	0.005	0.005	0.005	0.020	-0.010	0.049	2.681	1.895	1.899	1.904	1.924	1.924	1.919
-0.015	-0.010	0.000	0.005	0.020	-0.020	0.044	2.676	1.890	1.890	1.895	1.919	1.919	1.914
0.000	-0.010	0.005	0.005	0.029	-0.010	0.044	2.690	1.895	1.885	1.890	1.914	1.914	1.919
-0.005	-0.005	0.005	0.005	0.024	0.005	0.044	2.695	1.895	1.890	1.890	1.914	1.909	1.919
-0.005	0.005	0.005	0.010	0.015	-0.005	0.049	2.690	1.899	1.895	1.890	1.909	1.909	1.909
0.005	0.005	0.000	0.010	0.005	0.000	0.049	2.686	1.904	1.899	1.895	1.909	1.909	1.914
0.020	0.000	0.000	0.005	0.010	-0.010	0.049	2.690	1.914	1.899	1.899	1.914	1.909	1.909
0.010	0.005	0.000	0.000	0.000	-0.005	0.044	2.695	1.919	1.909	1.899	1.914	1.909	1.909
0.054	0.010	0.000	0.005	0.000	-0.039	0.044	2.686	1.934	1.924	1.909	1.924	1.914	1.904
0.146	-0.015	-0.005	0.000	0.010	-0.010	0.044	2.695	1.953	1.929	1.919	1.929	1.924	1.924
0.171	-0.005	0.000	0.010	0.010	-0.005	0.044	2.690	1.953	1.948	1.929	1.934	1.924	1.929
0.098	-0.015	0.000	0.005	0.000	-0.010	0.049	2.700	1.929	1.938	1.929	1.943	1.929	1.924
0.015	-0.010	0.005	0.005	0.000	0.000	0.044	2.700	1.899	1.929	1.924	1.943	1.929	1.934
-0.073	-0.005	0.005	0.005	0.000	0.015	0.044	2.676	1.870	1.909	1.924	1.938	1.934	1.938
-0.127	-0.010	0.000	0.005	0.005	-0.024	0.044	2.690	1.865	1.890	1.909	1.934	1.929	1.924
-0.161	-0.005	0.000	0.000	0.015	0.010	0.044	2.681	1.860	1.880	1.895	1.929	1.929	1.929
-0.161	0.005	0.000	0.005	0.010	-0.020	0.049	2.686	1.865	1.875	1.890	1.919	1.919	1.919
-0.137	0.000	-0.005	0.000	0.000	0.000	0.044	2.690	1.880	1.875	1.880	1.909	1.914	1.924
-0.093	0.000	0.000	0.000	-0.005	0.010	0.044	2.690	1.899	1.880	1.875	1.904	1.904	1.914
-0.044	0.024	0.005	0.000	-0.005	0.015	0.049	2.686	1.909	1.890	1.880	1.899	1.904	1.909
-0.024	0.020	0.005	0.000	0.000	0.005	0.049	2.695	1.914	1.899	1.880	1.904	1.899	1.909
-0.020	0.024	0.005	-0.005	-0.010	0.034	0.049	2.695	1.914	1.899	1.885	1.899	1.899	1.909
0.010	0.005	0.005	-0.005	-0.010	0.005	0.044	2.686	1.919	1.909	1.890	1.899	1.899	1.904
0.034	0.000	0.000	0.000	-0.010	-0.010	0.044	2.690	1.929	1.914	1.899	1.909	1.904	1.899
0.039	-0.010	0.000	0.000	-0.015	0.000	0.044	2.681	1.924	1.919	1.909	1.919	1.909	1.909
0.049	-0.005	0.000	-0.005	-0.015	0.000	0.044	2.695	1.934	1.924	1.914	1.924	1.909	1.909
0.034	-0.005	0.000	-0.005	-0.005	-0.015	0.044	2.700	1.929	1.929	1.919	1.929	1.924	1.909
0.034	-0.010	0.005	0.010	-0.010	0.005	0.044	2.686	1.924	1.929	1.924	1.938	1.924	1.924
0.039	-0.010	0.010	0.000	-0.005	0.015	0.049	2.690	1.929	1.929	1.929	1.938	1.929	1.929
0.044	-0.005	0.005	0.005	0.000	0.020	0.044	2.690	1.924	1.929	1.929	1.943	1.934	1.929
0.039	0.000	0.000	0.005	0.000	0.020	0.044	2.686	1.914	1.929	1.924	1.938	1.934	1.929
0.034	0.010	0.000	0.005	0.000	0.005	0.049	2.690	1.909	1.924	1.919	1.938	1.934	1.924
0.024	-0.005	-0.005	0.010	0.000	0.010	0.044	2.686	1.899	1.904	1.909	1.938	1.929	1.929
0.024	0.005	0.000	0.010	-0.005	0.039	0.044	2.690	1.895	1.904	1.909	1.929	1.924	1.934
0.010	0.010	0.000	0.005	-0.015	0.029	0.044	2.676	1.885	1.895	1.899	1.924	1.919	1.924
0.005	0.015	0.000	0.005	0.005	0.049	0.044	2.686	1.890	1.895	1.895	1.919	1.919	1.929
0.000	0.010	0.005	0.000	-0.005	0.029	0.044	2.690	1.890	1.890	1.890	1.914	1.914	1.919
0.010	0.015	-0.005	0.000	-0.005	0.010	0.044	2.695	1.895	1.890	1.890	1.909	1.914	1.909
0.015	0.015	-0.005	0.000	-0.005	0.015	0.044	2.686	1.899	1.890	1.895	1.909	1.909	1.914
0.015	0.010	0.005	-0.005	-0.005	-0.005	0.044	2.686	1.904	1.899	1.895	1.914	1.914	1.909
0.029	-0.010	0.000	0.005	-0.010	-0.044	0.044	2.681	1.914	1.899	1.899	1.919	1.914	1.904
0.034	-0.005	0.000	0.000	0.000	-0.029	0.044	2.681	1.914	1.909	1.904	1.919	1.914	1.909
0.005	0.005	0.005	0.000	0.005	-0.044	0.044	2.690	1.909	1.914	1.909	1.929	1.919	1.909
-0.005	-0.005	0.000	0.010	0.000	-0.024	0.044	2.695	1.904	1.914	1.909	1.929	1.924	1.919
-0.010	0.005	0.005	0.005	0.005	-0.015	0.049	2.671	1.909	1.919	1.914	1.929	1.929	1.929
-0.024	0.005	0.000	0.000	-0.005	-0.015	0.049	2.690	1.909	1.914	1.914	1.929	1.924	1.929
-0.015	-0.005	0.000	-0.005	-0.010	0.000	0.044	2.695	1.914	1.909	1.909	1.929	1.924	1.929
0.024	-0.010	-0.005	-0.010	0.005	-0.010	0.044	2.690	1.924	1.909	1.909	1.924	1.924	1.924
0.039	0.000	0.000	-0.005	0.015	0.000	0.049	2.695	1.924	1.909	1.909	1.924	1.924	1.924
0.073	-0.005	0.000	0.000	0.020	-0.010	0.044	2.686	1.924	1.914	1.904	1.924	1.924	1.924
0.034	0.005	0.005	0.000	0.015	0.015	0.049	2.681	1.904	1.904	1.904	1.919	1.919	1.924
-0.020	0.000	0.005	0.000	0.015	0.020	0.044	2.690	1.885	1.895	1.895	1.914	1.914	1.919
-0.049	-0.024	0.000	0.005	0.015	-0.010	0.044	2.681	1.875	1.880	1.890	1.909	1.909	1.909
-0.063	-0.015	0.005	0.010	0.000	0.024	0.044	2.681	1.875	1.875	1.885	1.909	1.904	1.914
-0.083	0.020	0.000	0.010	0.000	-0.010	0.044	2.690	1.875	1.885	1.885	1.909	1.899	1.904
-0.088	0.020	0.000	0.005	-0.015	0.010	0.044	2.695	1.890	1.885	1.885	1.909	1.899	1.909
-0.068	0.010	0.000	0.000	-0.010	0.015	0.044	2.690	1.904	1.890	1.890	1.909	1.904	1.909
-0.024	0.010	0.005	0.005	-0.005	0.000	0.044	2.690	1.919	1.904	1.895	1.909	1.909	1.909
-0.010	0.005	0.000	0.000	0.005	-0.010	0.044	2.690	1.924	1.909	1.899	1.914	1.914	1.909
0.000	0.000	0.000	0.000	0.005	-0.015	0.044	2.686	1.929	1.919	1.909	1.919	1.919	1.909
0.010	0.000	0.000	-0.005	0.005	0.010	0.044	2.690	1.934	1.924	1.914	1.924	1.919	1.924
0.015	0.000	0.000	0.000	0.015	0.020	0.044	2.690	1.929	1.929	1.919	1.929	1.924	1.929
0.029	0.015	0.000	0.000	0.010	0.010	0.039	2.686	1.924	1.934	1.924	1.934	1.924	1.924
0.034	0.000	-0.005	0.000	0.000	0.010	0.044	2.695	1.924	1.929	1.924	1.934	1.924	1.924
0.024	0.005	0.005	0.000	0.005	-0.024	0.044	2.690	1.914	1.924	1.919	1.934	1.924	1.914
0.049	0.000	0.000	0.005	0.000	0.015	0.049	2.676	1.909	1.914	1.919	1.934	1.924	1.924
0.044	-0.010	0.000	0.000	0.010	0.000	0.044	2.681	1.899	1.899	1.909	1.929	1.919	1.919
0.015	0.000	0.005	0.005	0.010	0.000	0.049	2.690	1.890	1.895	1.904	1.924	1.919	1.914
-0.020	-0.005	0.000	0.000	0.000	0.005	0.044	2.690	1.875	1.885	1.895	1.919	1.909	1.914
0.010	-0.010	0.000	0.005	0.000	0.000	0.044	2.686	1.890	1.890	1.890	1.914	1.914	1.914
0.020	0.010	0.005	0.000	0.000	-0.005	0.049	2.690	1.890	1.890	1.890	1.909	1.909	1.909
-0.005	0.020	0.000	-0.005	-0.010	0.015	0.044	2.690	1.885	1.890	1.890	1.909	1.909	1.914
-0.029	0.015	0.005	0.005	0.010	0.020	0.049	2.681	1.890	1.895	1.890	1.914	1.914	1.914
-0.034	0.005	0.005	0.005	0.015	0.020	0.049	2.705	1.899	1.895	1.895	1.919	1.914	1.919
-0.029	-0.005	0.000	0.000	0.010	-0.005	0.044	2.690	1.904	1.899	1.895	1.919	1.914	1.919
-0.015	0.005	-0.005	0.000	-0.020	0.024	0.044	2.690	1.919	1.904	1.899	1.919	1.909	1.919
-0.010	0.000	0.000	0.000	-0.010	0.005	0.044	2.686	1.924	1.914	1.909	1.924	1.914	1.924
0.000	-0.005	0.000	0.000	-0.024	0.024	0.044	2.686	1.929	1.919	1.909	1.929	1.914	1.924
0.015	-0.005	0.000	0.000	-0.020	0.010	0.044	2.690	1.929	1.924	1.914	1.929	1.919	1.919
0.020	0.000	0.000	0.000	-0.005	0.005	0.044	2.681	1.924	1.924	1.914	1.929	1.924	1.919
0.015	0.005	0.000	0.000	0.005	0.005	0.044	2.695	1.919	1.924	1.914	1.929	1.929	1.919
0.015	0.000	0.005	0.005	0.015	-0.005	0.044	2.695	1.914	1.914	1.914	1.934	1.929	1.919
0.024	-0.005	0.005	0.005	0.059	-0.024	0.044	2.671	1.904	1.909	1.909	1.929	1.938	1.919
0.020	0.005	0.000	0.005	0.059	-0.044	0.044	2.690	1.895	1.904	1.904	1.924	1.924	1.914
0.015	0.000	0.000	-0.005	0.034	-0.059	0.044	2.690	1.895	1.895	1.899	1.919	1.914	1.909
0.000	0.005	0.000	0.005	-0.005	-0.015	0.039	2.700	1.890	1.890	1.890	1.914	1.904	1.919
0.005	-0.005	0.005	0.005	-0.024	-0.005	0.044	2.671	1.885	1.885	1.890	1.914	1.899	1.914
0.015	-0.005	-0.005	0.005	-0.039	-0.005	0.044	2.686	1.895	1.885	1.885	1.909	1.895	1.909
0.039	0.000	0.015	0.000	-0.068	0.000	0.049	2.695	1.904	1.890	1.890	1.909	1.890	1.899
0.039	0.000	0.010	0.000	-0.093	0.010	0.044	2.686	1.909	1.899	1.895	1.909	1.895	1.904
0.024	0.000	0.000	0.000	-0.039	0.024	0.044	2.681	1.904	1.904	1.899	1.914	1.914	1.919
-0.010	0.000	0.005	-0.005	0.054	0.044	0.044	2.695	1.904	1.904	1.904	1.924	1.943	1.929
-0.020	0.005	0.010	-0.005	0.083	0.044	0.044	2.695	1.909	1.909	1.904	1.924	1.948	1.938
-0.015	0.010	0.000	-0.005	0.083	0.034	0.044	2.690	1.919	1.914	1.909	1.929	1.938	1.938
-0.020	-0.005	0.005	0.005	0.049	0.020	0.044	2.681	1.919	1.914	1.914	1.929	1.929	1.934
-0.010	0.000	0.000	0.005	0.020	-0.015	0.044	2.681	1.919	1.919	1.914	1.929	1.919	1.919
-0.005	0.010	-0.010	0.010	0.015	0.000	0.044	2.690	1.919	1.924	1.914	1.934	1.919	1.924
-0.010	0.000	-0.005	0.010	0.005	0.000	0.044	2.681	1.919	1.919	1.909	1.934	1.919	1.919
-0.005	0.005	0.000	0.010	0.000	-0.015	0.044	2.676	1.909	1.909	1.909	1.929	1.919	1.914
0.000	0.000	-0.005	0.010	0.005	-0.034	0.044	2.686	1.904	1.904	1.904	1.924	1.914	1.904
0.010	0.000	0.005	0.000	-0.005	0.000	0.049	2.695	1.899	1.899	1.899	1.919	1.909	1.914
0.010	0.000	0.000	0.005	0.010	-0.005	0.044	2.690	1.895	1.895	1.895	1.914	1.914	1.909
0.005	0.000	0.000	-0.005	0.010	0.005	0.044	2.686	1.895	1.895	1.895	1.909	1.909	1.909
0.000	-0.010	0.000	0.000	0.005	-0.010	0.049	2.686	1.885	1.885	1.890	1.904	1.904	1.909
0.005	0.000	0.005	0.000	-0.010	0.005	0.044	2.690	1.895	1.890	1.890	1.909	1.899	1.909
0.024	0.000	0.005	-0.005	-0.029	0.005	0.049	2.710	1.909	1.895	1.890	1.909	1.899	1.904
0.034	0.005	0.005	0.005	-0.039	0.005	0.044	2.661	1.914	1.904	1.899	1.914	1.899	1.904
0.049	0.005	0.000	0.005	-0.020	0.015	0.049	2.690	1.919	1.909	1.904	1.914	1.914	1.914
0.020	-0.005	0.000	0.000	-0.015	0.020	0.044	2.700	1.914	1.909	1.904	1.924	1.919	1.919
0.059	-0.010	-0.005	-0.005	0.000	0.005	0.039	2.700	1.929	1.919	1.909	1.924	1.919	1.919
0.020	0.005	0.000	-0.015	-0.005	0.000	0.044	2.690	1.919	1.929	1.914	1.924	1.924	1.919
-0.034	0.015	0.000	-0.010	0.000	0.005	0.044	2.690	1.899	1.924	1.919	1.934	1.924	1.924
-0.078	0.000	-0.005	-0.005	0.010	0.015	0.044	2.690	1.895	1.909	1.914	1.938	1.929	1.929
-0.088	0.000	0.005	-0.005	0.010	0.005	0.049	2.690	1.899	1.904	1.909	1.934	1.929	1.924
-0.078	-0.005	0.005	-0.005	-0.005	-0.005	0.044	2.690	1.899	1.899	1.904	1.929	1.924	1.924
-0.039	-0.010	0.000	0.000	-0.005	-0.005	0.044	2.681	1.904	1.895	1.899	1.924	1.919	1.919
-0.020	-0.005	-0.005	0.010	0.000	-0.005	0.049	2.671	1.904	1.895	1.895	1.919	1.914	1.919
0.000	-0.005	0.000	0.010	0.000	0.000	0.044	2.686	1.899	1.895	1.895	1.919	1.914	1.914
0.005	-0.005	0.000	0.015	0.000	-0.005	0.039	2.686	1.904	1.895	1.890	1.914	1.914	1.914
0.015	-0.005	0.010	0.015	0.010	-0.010	0.044	2.681	1.899	1.895	1.890	1.909	1.914	1.909
0.034	-0.010	0.005	0.010	0.000	-0.010	0.044	2.690	1.904	1.895	1.890	1.909	1.909	1.909
0.010	-0.005	0.005	0.010	-0.010	-0.010	0.049	2.681	1.895	1.895	1.895	1.909	1.899	1.904
-0.010	0.005	0.005	0.005	-0.029	0.010	0.049	2.690	1.895	1.899	1.895	1.909	1.899	1.909
0.000	0.005	0.005	0.010	-0.020	0.010	0.049	2.695	1.909	1.899	1.899	1.914	1.909	1.909
0.020	0.000	0.005	0.005	-0.020	0.005	0.049	2.686	1.919	1.909	1.904	1.919	1.909	1.914
0.010	0.000	0.000	0.005	-0.015	0.005	0.044	2.681	1.914	1.909	1.909	1.924	1.919	1.919
0.000	0.010	0.000	0.005	0.005	0.015	0.049	2.686	1.919	1.919	1.914	1.929	1.924	1.924
-0.005	0.005	0.005	0.010	-0.005	0.020	0.049	2.700	1.924	1.919	1.919	1.934	1.929	1.929
-0.015	-0.005	0.005	0.005	-0.010	0.010	0.044	2.690	1.914	1.914	1.914	1.929	1.929	1.924
-0.024	0.005	-0.005	0.005	0.000	0.000	0.044	2.686	1.909	1.914	1.914	1.934	1.929	1.919
-0.029	0.000	0.005	0.010	0.034	0.005	0.044	2.690	1.909	1.914	1.914	1.934	1.938	1.934
-0.029	0.000	0.000	0.015	0.024	0.000	0.044	2.695	1.909	1.909	1.909	1.934	1.929	1.924
-0.034	0.015	0.000	0.005	0.005	-0.010	0.044	2.686	1.904	1.909	1.904	1.924	1.924	1.919
0.000	0.015	-0.005	0.005	0.015	-0.024	0.044	2.671	1.904	1.904	1.899	1.919	1.919	1.914
0.020	0.020	0.005	0.010	0.024	0.000	0.044	2.686	1.899	1.899	1.899	1.919	1.919	1.919
0.024	0.010	-0.005	0.005	0.005	0.005	0.044	2.681	1.895	1.895	1.895	1.914	1.909	1.919
0.029	0.005	0.000	0.000	-0.005	0.005	0.044	2.690	1.899	1.890	1.890	1.909	1.904	1.914
0.044	0.005	-0.005	0.000	-0.024	0.020	0.044	2.690	1.904	1.895	1.890	1.909	1.899	1.909
0.039	0.000	0.000	0.000	-0.020	-0.015	0.044	2.690	1.899	1.895	1.890	1.909	1.899	1.899
0.029	0.005	0.005	-0.005	-0.005	-0.005	0.049	2.690	1.904	1.899	1.899	1.909	1.909	1.904
0.015	0.000	0.005	-0.010	-0.010	0.005	0.044	2.695	1.904	1.904	1.899	1.919	1.909	1.914
0.020	0.005	0.000	-0.005	0.005	0.005	0.044	2.681	1.904	1.909	1.904	1.919	1.914	1.914
0.044	-0.005	-0.005	-0.005	-0.005	0.000	0.044	2.690	1.924	1.914	1.909	1.924	1.914	1.914
0.073	0.005	0.000	0.000	0.039	0.015	0.044	2.695	1.934	1.924	1.914	1.934	1.938	1.934
0.054	0.005	0.005	0.000	0.054	0.034	0.044	2.690	1.929	1.929	1.919	1.934	1.938	1.938
0.054	0.015	0.005	-0.005	0.015	0.010	0.044	2.690	1.929	1.929	1.924	1.938	1.929	1.929
0.068	0.020	-0.005	-0.005	0.024	0.020	0.044	2.690	1.929	1.929	1.924	1.938	1.929	1.934
0.020	0.000	0.000	0.000	0.015	0.015	0.044	2.686	1.904	1.914	1.919	1.934	1.929	1.929
0.015	0.000	0.000	0.000	0.024	0.005	0.044	2.686	1.899	1.904	1.909	1.934	1.924	1.924
-0.029	-0.005	0.000	0.005	0.024	0.010	0.044	2.676	1.880	1.890	1.904	1.929	1.924	1.919
-0.112	0.000	0.000	0.000	0.020	0.000	0.044	2.695	1.865	1.880	1.895	1.924	1.919	1.919
-0.137	-0.029	0.000	0.010	0.005	0.000	0.044	2.681	1.860	1.865	1.880	1.914	1.909	1.909
-0.117	-0.024	0.000	0.010	-0.005	0.000	0.044	2.690	1.870	1.865	1.875	1.904	1.904	1.909
-0.093	-0.005	0.000	0.005	-0.005	-0.015	0.044	2.686	1.890	1.875	1.870	1.899	1.899	1.899
-0.063	0.010	0.005	-0.005	-0.005	-0.015	0.044	2.690	1.899	1.890	1.875	1.899	1.899	1.899
-0.039	0.000	0.000	0.005	-0.005	-0.010	0.044	2.686	1.904	1.890	1.880	1.899	1.899	1.904
-0.034	-0.005	0.000	0.010	0.000	-0.015	0.049	2.690	1.914	1.899	1.890	1.904	1.899	1.899
-0.015	0.000	0.000	0.000	-0.005	-0.010	0.044	2.686	1.919	1.909	1.895	1.909	1.904	1.904
0.010	-0.005	0.000	-0.005	-0.005	-0.005	0.044	2.690	1.929	1.914	1.904	1.914	1.909	1.909
0.020	0.000	0.005	-0.005	-0.005	-0.005	0.044	2.690	1.934	1.929	1.914	1.919	1.909	1.909
0.010	0.000	0.010	-0.010	-0.005	-0.029	0.044	2.695	1.929	1.929	1.924	1.929	1.914	1.909
0.024	0.000	0.005	0.000	0.000	0.005	0.044	2.695	1.929	1.929	1.924	1.934	1.924	1.924
0.029	0.010	0.005	-0.005	0.005	0.005	0.049	2.695	1.929	1.929	1.924	1.938	1.924	1.924
0.049	-0.005	-0.005	0.005	-0.010	0.005	0.044	2.676	1.924	1.929	1.924	1.938	1.924	1.924
0.044	0.020	0.000	0.015	0.005	0.005	0.044	2.681	1.914	1.929	1.924	1.938	1.929	1.924
0.029	0.020	0.005	0.010	-0.010	0.015	0.044	2.690	1.904	1.914	1.919	1.934	1.919	1.924
0.015	0.015	0.000	0.005	-0.015	-0.024	0.044	2.686	1.890	1.904	1.909	1.929	1.919	1.909
0.005	0.005	0.000	0.010	-0.024	0.010	0.044	2.686	1.890	1.895	1.904	1.924	1.914	1.919
-0.005	0.005	-0.005	0.010	0.000	-0.015	0.044	2.690	1.885	1.885	1.895	1.924	1.919	1.909
0.010	0.005	0.005	0.010	0.010	0.015	0.049	2.700	1.890	1.890	1.890	1.919	1.919	1.919
0.020	-0.005	-0.005	0.005	0.005	0.005	0.044	2.681	1.890	1.885	1.890	1.914	1.914	1.919
0.020	0.000	0.000	0.000	0.010	0.010	0.044	2.686	1.899	1.890	1.890	1.909	1.914	1.919
0.015	0.005	0.000	0.000	0.005	0.010	0.049	2.700	1.909	1.895	1.890	1.909	1.909	1.914
0.020	0.005	0.000	-0.005	0.005	-0.015	0.044	2.690	1.909	1.904	1.890	1.909	1.909	1.909
0.010	0.000	0.005	0.000	-0.005	-0.010	0.049	2.690	1.909	1.909	1.899	1.914	1.914	1.914
0.005	0.000	0.010	-0.005	0.000	-0.005	0.044	2.686	1.914	1.914	1.904	1.919	1.914	1.919
0.005	0.000	0.000	0.000	0.000	0.000	0.049	2.686	1.919	1.919	1.909	1.929	1.924	1.924
0.010	0.005	0.005	-0.005	0.015	-0.005	0.044	2.686	1.919	1.919	1.914	1.929	1.924	1.924
0.015	0.005	0.000	-0.005	0.015	-0.024	0.049	2.700	1.924	1.924	1.919	1.934	1.924	1.919
0.010	-0.005	0.000	-0.005	0.000	0.000	0.044	2.681	1.914	1.919	1.914	1.934	1.924	1.929
0.005	0.005	0.000	0.000	-0.010	-0.020	0.049	2.690	1.909	1.914	1.914	1.934	1.919	1.919
0.005	-0.005	-0.005	-0.005	0.000	0.015	0.044	2.690	1.909	1.909	1.909	1.929	1.924	1.929
0.005	0.000	-0.005	-0.010	0.000	0.020	0.044	2.690	1.904	1.904	1.904	1.924	1.924	1.924
-0.005	0.010	0.005	-0.010	0.000	0.010	0.049	2.695	1.899	1.904	1.904	1.919	1.919	1.919
0.000	-0.020	0.000	-0.005	0.000	0.010	0.044	2.681	1.890	1.890	1.895	1.919	1.914	1.919
-0.005	0.005	0.000	0.005	0.005	0.010	0.049	2.690	1.890	1.895	1.895	1.919	1.914	1.914
0.000	0.015	0.005	0.015	0.005	0.000	0.044	2.690	1.890	1.890	1.890	1.919	1.909	1.909
0.010	0.005	0.000	0.020	-0.005	-0.005	0.049	2.690	1.895	1.890	1.890	1.914	1.909	1.904
0.000	-0.005	0.000	0.020	0.005	-0.005	0.044	2.676	1.895	1.890	1.890	1.914	1.914	1.909
0.000	0.000	0.000	0.015	0.010	-0.005	0.044	2.690	1.899	1.895	1.895	1.914	1.914	1.914
0.000	0.005	0.005	0.010	0.000	0.015	0.044	2.690	1.909	1.904	1.899	1.914	1.914	1.919
0.000	-0.005	0.005	0.005	-0.010	0.015	0.039	2.705	1.919	1.909	1.904	1.919	1.914	1.919
0.000	0.000	0.000	0.000	-0.024	0.000	0.044	2.690	1.924	1.914	1.904	1.919	1.909	1.909
0.000	-0.005	0.000	0.000	-0.005	0.005	0.044	2.690	1.924	1.919	1.914	1.929	1.919	1.924
0.005	0.005	0.000	-0.005	0.005	0.000	0.044	2.690	1.924	1.924	1.914	1.929	1.924	1.924
-0.005	0.005	0.005	-0.005	0.000	-0.010	0.049	2.705	1.919	1.924	1.919	1.934	1.929	1.919
0.000	0.000	0.000	-0.005	0.010	-0.005	0.044	2.686	1.919	1.924	1.919	1.929	1.929	1.929
0.005	0.005	0.000	-0.005	0.020	-0.005	0.049	2.686	1.914	1.919	1.919	1.934	1.929	1.924
0.000	0.005	-0.005	0.000	0.005	-0.005	0.044	2.676	1.909	1.909	1.914	1.929	1.919	1.924
-0.015	0.005	0.000	0.000	-0.005	0.010	0.049	2.695	1.895	1.899	1.909	1.929	1.919	1.919
-0.010	0.000	0.000	0.010	-0.015	0.000	0.044	2.681	1.895	1.895	1.899	1.924	1.914	1.914
-0.015	-0.005	0.000	0.005	-0.005	0.024	0.044	2.681	1.890	1.890	1.895	1.919	1.914	1.919
-0.005	0.000	-0.005	0.005	0.005	0.010	0.049	2.690	1.895	1.890	1.890	1.914	1.909	1.914
-0.005	0.005	0.005	0.005	-0.005	0.010	0.044	2.700	1.899	1.890	1.890	1.914	1.909	1.909
0.000	-0.005	0.000	0.005	0.024	-0.010	0.049	2.690	1.899	1.890	1.890	1.909	1.914	1.909
0.000	0.010	0.005	-0.005	0.029	0.000	0.044	2.690	1.899	1.895	1.890	1.909	1.914	1.919
-0.005	-0.005	0.005	0.000	0.020	0.010	0.044	2.700	1.909	1.895	1.895	1.914	1.914	1.919
0.015	0.000	0.005	0.005	0.005	-0.005	0.049	2.681	1.919	1.909	1.899	1.914	1.909	1.914
0.010	0.000	0.000	-0.005	0.015	-0.005	0.044	2.686	1.919	1.914	1.909	1.919	1.914	1.919
0.000	0.005	0.000	-0.010	0.010	0.000	0.044	2.695	1.924	1.919	1.909	1.924	1.919	1.919
0.000	0.000	0.000	-0.010	0.005	-0.010	0.044	2.690	1.924	1.919	1.914	1.929	1.919	1.914
0.010	-0.015	0.000	0.000	0.000	-0.029	0.044	2.690	1.924	1.919	1.919	1.934	1.919	1.909
0.000	0.000	0.005	0.000	-0.015	-0.010	0.049	2.690	1.924	1.924	1.919	1.934	1.924	1.924
0.005	-0.020	0.000	0.015	-0.024	-0.034	0.049	2.681	1.919	1.919	1.914	1.934	1.919	1.914
0.005	-0.010	0.005	0.010	-0.029	-0.010	0.044	2.695	1.914	1.919	1.914	1.934	1.924	1.924
0.000	-0.005	0.005	0.020	-0.020	-0.005	0.044	2.686	1.904	1.914	1.909	1.934	1.924	1.919
0.015	0.000	0.005	0.015	0.000	0.029	0.044	2.686	1.899	1.909	1.909	1.929	1.929	1.934
0.010	0.059	0.000	0.005	0.015	0.024	0.044	2.690	1.899	1.914	1.909	1.929	1.924	1.924
0.005	0.029	0.005	0.005	0.010	0.015	0.044	2.676	1.895	1.895	1.899	1.919	1.919	1.919
0.010	-0.010	0.000	0.000	0.010	0.005	0.044	2.700	1.895	1.885	1.890	1.914	1.914	1.914
-0.005	-0.024	0.000	-0.005	0.005	0.000	0.044	2.686	1.890	1.880	1.890	1.909	1.909	1.914
0.000	-0.010	0.000	-0.010	0.000	0.000	0.044	2.681	1.895	1.890	1.890	1.909	1.909	1.914
-0.010	0.000	0.000	-0.005	0.005	-0.010	0.049	2.695	1.904	1.895	1.890	1.909	1.909	1.909
-0.005	-0.015	0.005	0.000	0.010	0.010	0.044	2.695	1.904	1.899	1.895	1.914	1.914	1.914
-0.010	-0.005	0.015	0.005	0.005	-0.020	0.044	2.695	1.909	1.909	1.904	1.919	1.914	1.909
0.005	-0.015	0.005	0.010	0.000	0.015	0.049	2.695	1.924	1.914	1.904	1.929	1.919	1.924
-0.015	0.000	0.005	0.010	0.015	0.029	0.049	2.690	1.924	1.919	1.909	1.934	1.924	1.934
-0.010	-0.005	0.000	0.010	0.000	0.024	0.044	2.700	1.929	1.924	1.914	1.934	1.924	1.924
0.005	-0.005	0.000	0.010	-0.005	0.029	0.044	2.686	1.924	1.924	1.919	1.934	1.924	1.929
0.005	0.000	0.005	0.015	-0.005	0.010	0.044	2.695	1.919	1.924	1.919	1.934	1.924	1.929
-0.015	0.054	0.000	0.010	0.000	0.000	0.044	2.690	1.919	1.938	1.924	1.934	1.924	1.919
-0.010	0.034	0.000	0.005	-0.005	-0.029	0.044	2.690	1.909	1.919	1.919	1.934	1.924	1.909
0.005	-0.005	0.005	0.000	-0.044	-0.024	0.044	2.695	1.904	1.904	1.909	1.929	1.914	1.909
0.005	-0.020	0.000	-0.005	-0.024	-0.024	0.044	2.690	1.899	1.895	1.904	1.924	1.919	1.909
0.015	-0.005	0.000	-0.005	-0.015	-0.015	0.044	2.690	1.899	1.895	1.899	1.914	1.914	1.914
0.010	0.000	0.000	-0.005	-0.005	-0.010	0.049	2.695	1.895	1.890	1.895	1.914	1.914	1.909
0.010	0.000	0.000	0.000	-0.029	-0.010	0.044	2.690	1.895	1.895	1.890	1.909	1.904	1.909
0.005	0.000	0.000	0.005	0.000	-0.024	0.044	2.700	1.895	1.895	1.890	1.914	1.919	1.909
0.010	-0.005	0.000	0.005	0.039	0.005	0.044	2.681	1.899	1.895	1.895	1.914	1.924	1.924
0.010	0.000	0.005	0.000	0.034	0.000	0.044	2.681	1.899	1.899	1.895	1.914	1.924	1.924
0.005	0.005	0.000	0.000	0.020	0.024	0.044	2.690	1.909	1.904	1.899	1.914	1.914	1.929
0.000	0.000	0.000	-0.005	0.000	0.029	0.049	2.690	1.919	1.914	1.904	1.924	1.914	1.929
-0.005	0.000	0.000	-0.005	0.010	0.010	0.044	2.690	1.919	1.914	1.909	1.924	1.919	1.924
0.000	-0.005	0.000	0.000	0.005	0.020	0.044	2.676	1.919	1.919	1.914	1.929	1.919	1.929
0.005	0.005	0.005	-0.010	0.000	0.029	0.049	2.695	1.924	1.924	1.919	1.934	1.919	1.929
-0.005	0.005	0.000	-0.005	-0.010	0.029	0.044	2.700	1.924	1.924	1.919	1.934	1.924	1.929
0.000	0.010	0.000	-0.005	0.020	0.024	0.044	2.690	1.924	1.919	1.919	1.934	1.934	1.929
0.005	0.005	0.000	0.000	0.024	-0.010	0.044	2.700	1.919	1.919	1.914	1.934	1.934	1.919
0.000	-0.005	0.000	0.005	0.034	-0.005	0.049	2.686	1.904	1.909	1.909	1.934	1.929	1.924
0.000	0.000	-0.005	0.005	0.015	0.000	0.044	2.681	1.904	1.904	1.909	1.929	1.919	1.924
0.005	0.000	-0.005	0.005	-0.010	0.010	0.044	2.690	1.899	1.899	1.899	1.924	1.909	1.919
0.005	0.010	0.000	0.010	-0.034	0.000	0.044	2.700	1.899	1.899	1.895	1.924	1.904	1.904
0.005	0.005	-0.005	0.010	0.005	0.010	0.044	2.686	1.890	1.890	1.895	1.914	1.919	1.919
0.000	0.005	0.005	0.010	0.005	0.015	0.049	2.700	1.890	1.890	1.890	1.914	1.909	1.909
0.010	0.000	0.000	0.015	-0.024	-0.020	0.049	2.690	1.899	1.890	1.890	1.909	1.904	1.899
-0.005	-0.005	0.005	0.015	-0.034	-0.039	0.044	2.676	1.899	1.895	1.890	1.914	1.904	1.899
0.010	0.005	0.010	0.010	-0.024	0.000	0.044	2.690	1.904	1.899	1.895	1.914	1.909	1.909
0.005	0.000	0.010	0.005	0.005	0.015	0.044	2.695	1.914	1.904	1.904	1.919	1.924	1.919
-0.005	0.010	0.005	-0.005	0.044	0.020	0.044	2.690	1.914	1.914	1.909	1.919	1.934	1.929
0.005	0.010	0.000	-0.005	0.000	-0.005	0.039	2.690	1.919	1.919	1.909	1.924	1.914	1.919
0.005	0.015	0.005	-0.005	-0.068	0.029	0.044	2.690	1.924	1.924	1.914	1.929	1.904	1.929
0.010	-0.005	0.000	0.000	0.049	-0.010	0.049	2.695	1.924	1.919	1.919	1.934	1.948	1.924
-0.005	0.000	0.000	0.000	0.137	0.010	0.044	2.690	1.924	1.919	1.919	1.938	1.963	1.943
0.000	-0.005	0.000	0.015	0.103	0.000	0.044	2.681	1.919	1.919	1.914	1.938	1.943	1.938
0.015	0.005	0.005	0.015	0.029	-0.005	0.044	2.676	1.914	1.919	1.919	1.934	1.919	1.929
0.005	0.005	0.000	0.020	-0.020	-0.005	0.044	2.676	1.909	1.914	1.914	1.934	1.909	1.919
0.005	0.015	0.005	0.010	-0.020	-0.024	0.044	2.676	1.899	1.909	1.909	1.924	1.909	1.909
-0.005	0.010	0.000	0.005	-0.010	0.010	0.049	2.681	1.890	1.895	1.904	1.919	1.909	1.919
-0.010	-0.005	0.000	0.000	-0.005	0.015	0.044	2.686	1.885	1.885	1.895	1.914	1.909	1.914
-0.005	-0.005	0.000	-0.005	-0.010	0.005	0.044	2.695	1.890	1.885	1.890	1.909	1.909	1.909
-0.005	-0.005	0.000	-0.010	-0.005	0.005	0.044	2.690	1.890	1.880	1.890	1.904	1.909	1.909
-0.005	-0.005	0.000	-0.015	-0.005	-0.005	0.049	2.686	1.895	1.885	1.885	1.904	1.899	1.904
0.000	-0.010	0.005	-0.015	-0.015	0.000	0.049	2.700	1.904	1.895	1.890	1.909	1.904	1.909
-0.005	-0.010	-0.005	-0.005	-0.020	0.010	0.044	2.681	1.899	1.899	1.890	1.909	1.904	1.909
0.000	0.005	0.000	0.005	-0.015	0.000	0.044	2.690	1.909	1.909	1.899	1.914	1.909	1.909
-0.005	-0.005	0.005	0.005	-0.010	0.005	0.044	2.700	1.914	1.909	1.904	1.924	1.914	1.914
0.000	-0.010	0.005	0.005	-0.010	0.005	0.044	2.690	1.919	1.919	1.909	1.929	1.919	1.914
0.000	-0.010	0.005	0.010	-0.015	0.000	0.044	2.686	1.919	1.919	1.914	1.929	1.924	1.919
0.005	0.005	0.000	0.000	-0.010	0.000	0.044	2.686	1.919	1.924	1.914	1.934	1.924	1.924
-0.005	0.005	0.000	0.000	-0.020	0.000	0.044	2.686	1.919	1.924	1.914	1.934	1.924	1.919
0.005	0.015	0.005	0.005	-0.015	-0.005	0.044	2.695	1.914	1.919	1.914	1.934	1.924	1.919
0.000	0.000	0.005	0.005	-0.015	0.015	0.049	2.681	1.909	1.914	1.914	1.929	1.924	1.924
-0.010	0.000	0.005	0.000	0.000	0.015	0.044	2.686	1.899	1.904	1.909	1.929	1.924	1.924
0.000	-0.005	-0.005	0.000	0.000	0.005	0.044	2.686	1.899	1.899	1.899	1.919	1.919	1.914
0.000	-0.005	-0.010	0.005	0.000	-0.005	0.044	2.681	1.895	1.895	1.895	1.919	1.914	1.909
-0.010	0.000	0.005	0.000	0.010	-0.005	0.049	2.686	1.890	1.890	1.895	1.914	1.914	1.914
0.005	0.005	0.000	-0.005	0.010	0.000	0.049	2.690	1.895	1.890	1.890	1.909	1.909	1.914
-0.005	0.000	0.010	0.000	0.005	-0.015	0.044	2.690	1.895	1.890	1.890	1.909	1.909	1.904
0.005	0.010	0.010	0.000	0.010	-0.020	0.049	2.700	1.899	1.899	1.895	1.909	1.909	1.904
0.010	0.024	0.010	0.000	-0.010	0.005	0.044	2.681	1.904	1.909	1.899	1.914	1.909	1.914
0.005	0.010	0.000	0.000	0.005	0.000	0.044	2.686	1.904	1.904	1.899	1.914	1.914	1.914
0.010	-0.005	0.000	0.000	0.005	0.010	0.044	2.695	1.909	1.904	1.904	1.919	1.914	1.919
-0.005	0.020	0.000	0.000	0.000	0.015	0.044	2.700	1.919	1.919	1.909	1.924	1.919	1.924
0.005	0.010	0.000	0.000	0.000	0.005	0.044	2.686	1.924	1.919	1.909	1.929	1.919	1.924
0.000	0.000	-0.005	0.005	-0.015	0.020	0.044	2.686	1.919	1.919	1.914	1.934	1.919	1.929
0.005	0.005	-0.005	0.005	-0.029	-0.015	0.044	2.690	1.924	1.924	1.919	1.934	1.919	1.914
0.024	0.000	0.000	0.005	-0.024	-0.020	0.044	2.686	1.929	1.919	1.919	1.934	1.924	1.914
0.034	0.015	0.000	0.000	-0.020	-0.029	0.044	2.690	1.919	1.919	1.919	1.934	1.924	1.914
0.020	-0.005	0.000	0.000	-0.024	-0.029	0.049	2.690	1.904	1.909	1.914	1.929	1.919	1.914
0.005	-0.015	0.000	0.005	0.000	0.000	0.044	2.686	1.895	1.899	1.909	1.929	1.929	1.929
-0.015	-0.010	0.005	0.000	0.000	-0.005	0.044	2.690	1.890	1.895	1.899	1.924	1.924	1.919
-0.020	0.000	0.000	0.005	0.049	-0.015	0.044	2.690	1.885	1.890	1.890	1.919	1.934	1.914
-0.020	-0.015	0.000	0.005	0.063	-0.010	0.044	2.676	1.885	1.880	1.890	1.914	1.924	1.924
-0.015	-0.020	0.000	-0.005	0.000	-0.024	0.044	2.690	1.890	1.880	1.880	1.904	1.899	1.909
-0.005	0.005	0.005	-0.005	-0.015	-0.020	0.049	2.686	1.899	1.890	1.885	1.904	1.895	1.904
-0.010	-0.005	0.000	0.000	0.034	-0.010	0.044	2.686	1.899	1.890	1.885	1.904	1.914	1.914
0.000	-0.010	-0.005	0.000	0.034	0.000	0.044	2.690	1.909	1.899	1.890	1.909	1.914	1.919
0.005	0.010	0.000	-0.005	0.029	0.024	0.044	2.690	1.914	1.909	1.899	1.909	1.914	1.929
-0.010	0.005	0.000	-0.005	0.010	0.029	0.044	2.695	1.919	1.914	1.904	1.919	1.909	1.924
0.015	0.020	0.000	0.000	0.029	0.049	0.044	2.695	1.929	1.924	1.914	1.924	1.919	1.929
0.015	0.020	0.005	0.000	0.010	0.039	0.044	2.695	1.934	1.929	1.919	1.934	1.919	1.924
0.005	0.010	0.000	0.010	-0.034	0.020	0.044	2.676	1.924	1.929	1.919	1.934	1.909	1.914
0.034	0.010	0.000	0.010	-0.024	-0.010	0.049	2.690	1.934	1.929	1.924	1.938	1.919	1.909
0.044	0.005	0.000	0.015	-0.015	0.005	0.044	2.686	1.924	1.924	1.924	1.938	1.929	1.919
0.015	-0.005	0.005	0.015	0.005	0.020	0.044	2.681	1.904	1.914	1.919	1.938	1.934	1.924
0.005	0.005	0.005	0.015	0.029	0.010	0.044	2.686	1.899	1.909	1.914	1.934	1.934	1.924
0.015	0.005	0.005	0.010	0.015	-0.020	0.049	2.695	1.904	1.904	1.904	1.929	1.924	1.914
0.049	0.005	0.005	0.005	0.024	0.005	0.044	2.686	1.904	1.904	1.904	1.919	1.924	1.919
0.034	0.034	0.000	0.000	0.005	0.000	0.049	2.686	1.895	1.904	1.904	1.914	1.909	1.914
-0.020	0.020	0.000	-0.005	-0.024	-0.005	0.044	2.686	1.875	1.890	1.895	1.914	1.899	1.909
-0.054	0.020	0.000	-0.005	0.005	-0.039	0.044	2.695	1.875	1.880	1.890	1.909	1.914	1.899
-0.093	0.000	0.000	0.000	0.054	-0.005	0.049	2.686	1.870	1.875	1.885	1.909	1.924	1.914
-0.098	0.000	0.000	-0.005	0.034	0.000	0.044	2.690	1.880	1.875	1.880	1.909	1.914	1.919
-0.088	0.000	0.000	-0.005	0.024	0.020	0.049	2.686	1.895	1.885	1.885	1.909	1.909	1.924
-0.063	0.005	0.000	0.000	-0.010	0.005	0.044	2.690	1.909	1.895	1.890	1.909	1.904	1.919
-0.044	-0.005	0.000	-0.005	-0.015	0.024	0.049	2.690	1.924	1.904	1.895	1.914	1.904	1.914
-0.015	-0.005	0.005	0.010	-0.034	-0.010	0.049	2.690	1.934	1.919	1.904	1.919	1.904	1.904
-0.005	-0.010	0.000	0.005	-0.049	-0.005	0.049	2.690	1.934	1.919	1.909	1.924	1.909	1.914
-0.005	-0.010	0.000	0.000	0.000	0.005	0.044	2.695	1.929	1.924	1.914	1.929	1.924	1.919
0.005	-0.010	0.000	-0.005	0.024	0.000	0.044	2.705	1.929	1.924	1.914	1.929	1.934	1.924
0.015	-0.020	-0.005	0.005	-0.005	0.015	0.049	2.690	1.924	1.924	1.914	1.929	1.919	1.924
0.044	-0.015	0.000	-0.005	-0.034	0.005	0.044	2.686	1.924	1.924	1.914	1.924	1.909	1.919
0.054	-0.015	0.000	0.000	-0.049	0.015	0.044	2.695	1.914	1.919	1.909	1.924	1.909	1.914
0.044	-0.020	0.000	0.000	0.000	0.015	0.044	2.695	1.909	1.909	1.904	1.924	1.924	1.914
0.039	-0.015	0.005	0.000	-0.005	-0.015	0.044	2.676	1.895	1.904	1.904	1.919	1.914	1.904
0.044	0.005	0.005	0.000	0.010	0.000	0.049	2.700	1.895	1.904	1.904	1.919	1.914	1.909
0.039	-0.020	0.000	0.000	-0.005	-0.015	0.044	2.686	1.890	1.890	1.899	1.914	1.909	1.909
0.034	-0.010	0.000	0.000	0.029	-0.029	0.044	2.695	1.895	1.890	1.895	1.914	1.919	1.904
0.020	0.015	0.005	0.005	0.005	-0.015	0.044	2.705	1.895	1.899	1.899	1.914	1.914	1.909
0.020	0.010	0.000	0.005	-0.005	-0.010	0.044	2.681	1.899	1.904	1.899	1.914	1.914	1.914
0.015	0.010	0.005	0.005	0.034	-0.005	0.044	2.690	1.904	1.899	1.904	1.919	1.929	1.924
0.005	0.015	0.000	0.005	0.054	0.010	0.044	2.695	1.909	1.909	1.904	1.924	1.929	1.934
0.000	0.020	0.000	0.000	0.020	0.000	0.044	2.690	1.914	1.914	1.909	1.929	1.924	1.924
0.010	0.015	0.010	0.000	0.015	0.010	0.049	2.700	1.924	1.919	1.914	1.934	1.924	1.929
0.005	0.005	-0.005	0.005	-0.039	0.010	0.044	2.686	1.919	1.919	1.914	1.934	1.914	1.924
0.005	0.005	0.000	0.000	-0.010	0.000	0.044	2.686	1.919	1.919	1.919	1.934	1.924	1.929
0.000	0.010	0.000	0.000	0.024	0.000	0.044	2.690	1.919	1.919	1.919	1.934	1.938	1.929
0.005	-0.005	0.000	0.010	0.034	0.015	0.044	2.690	1.914	1.909	1.914	1.934	1.934	1.934
0.005	0.005	0.000	0.010	-0.015	0.015	0.049	2.681	1.909	1.909	1.909	1.929	1.919	1.929
0.000	-0.020	-0.005	0.000	-0.039	0.010	0.044	2.686	1.899	1.895	1.904	1.924	1.909	1.919
-0.005	-0.005	-0.005	0.000	-0.049	0.015	0.044	2.686	1.895	1.895	1.899	1.919	1.904	1.914
-0.005	-0.005	0.005	0.005	-0.044	0.010	0.044	2.700	1.890	1.890	1.895	1.914	1.909	1.904
0.000	-0.005	0.005	0.000	-0.049	0.005	0.044	2.676	1.890	1.890	1.890	1.909	1.899	1.904
0.005	0.000	0.005	0.005	-0.024	0.000	0.049	2.686	1.890	1.890	1.890	1.909	1.909	1.904
0.000	0.005	0.000	0.000	0.000	-0.005	0.049	2.681	1.895	1.890	1.890	1.909	1.914	1.909
0.000	0.000	0.000	0.000	0.034	-0.020	0.049	2.676	1.895	1.890	1.885	1.909	1.919	1.909
-0.005	0.000	0.000	-0.005	0.063	-0.029	0.049	2.686	1.899	1.899	1.890	1.909	1.929	1.914
-0.005	0.015	0.000	-0.005	0.049	-0.034	0.044	2.690	1.909	1.904	1.899	1.914	1.919	1.914
0.000	0.005	0.000	-0.005	0.059	0.005	0.044	2.695	1.919	1.909	1.904	1.919	1.924	1.929
0.005	-0.020	0.000	0.005	0.024	0.029	0.044	2.686	1.924	1.914	1.909	1.924	1.919	1.934
-0.005	0.000	0.005	0.005	0.024	0.024	0.044	2.690	1.919	1.919	1.914	1.929	1.924	1.934
0.000	0.010	0.005	0.005	0.024	0.005	0.049	2.700	1.929	1.929	1.919	1.934	1.919	1.924
0.000	0.005	0.005	0.005	-0.015	0.015	0.044	2.695	1.924	1.924	1.919	1.934	1.914	1.924
0.005	0.005	0.005	0.005	-0.015	-0.005	0.044	2.686	1.919	1.924	1.919	1.934	1.919	1.919
-0.005	-0.010	0.005	0.010	-0.005	0.005	0.044	2.695	1.909	1.914	1.914	1.934	1.924	1.919
-0.005	0.005	0.010	0.000	-0.010	0.000	0.044	2.695	1.909	1.914	1.909	1.929	1.914	1.914
-0.010	0.010	0.005	0.000	-0.020	0.010	0.044	2.676	1.895	1.904	1.904	1.924	1.914	1.914
-0.005	0.000	-0.005	0.005	-0.005	0.005	0.044	2.686	1.895	1.895	1.899	1.924	1.919	1.914
0.005	0.005	0.000	0.000	0.024	0.000	0.049	2.676	1.890	1.890	1.895	1.919	1.919	1.914
0.000	0.010	0.000	0.000	0.005	0.000	0.044	2.686	1.890	1.885	1.890	1.914	1.909	1.909
0.000	0.010	0.010	0.000	-0.010	-0.015	0.044	2.690	1.890	1.890	1.885	1.909	1.904	1.904
0.010	-0.005	0.000	0.005	-0.005	0.010	0.049	2.681	1.895	1.885	1.885	1.909	1.909	1.914
0.010	-0.005	0.005	0.005	-0.005	0.010	0.044	2.695	1.899	1.890	1.890	1.909	1.909	1.914
0.010	0.015	0.000	0.005	-0.020	0.005	0.044	2.690	1.909	1.904	1.895	1.914	1.904	1.909
0.000	0.005	0.000	0.000	-0.029	-0.005	0.044	2.695	1.909	1.909	1.899	1.919	1.909	1.909
0.000	0.020	0.000	0.000	-0.015	-0.005	0.044	2.686	1.919	1.914	1.904	1.919	1.914	1.909
0.000	0.010	0.000	0.000	0.010	-0.010	0.049	2.690	1.919	1.919	1.914	1.924	1.924	1.919
0.005	0.000	0.000	0.000	-0.005	-0.015	0.044	2.695	1.924	1.919	1.914	1.929	1.924	1.919
0.010	-0.005	0.005	0.005	-0.034	-0.005	0.044	2.690	1.924	1.919	1.914	1.929	1.919	1.919
0.000	-0.005	0.010	0.005	0.000	0.020	0.044	2.686	1.919	1.919	1.919	1.934	1.934	1.934
0.010	0.005	0.005	0.005	0.024	0.020	0.049	2.686	1.914	1.919	1.914	1.934	1.934	1.934
-0.005	-0.010	0.000	0.000	0.000	0.000	0.044	2.690	1.909	1.909	1.909	1.929	1.919	1.919
-0.005	-0.010	0.005	0.000	-0.015	0.015	0.044	2.686	1.904	1.904	1.904	1.924	1.919	1.924
-0.005	-0.010	0.005	0.005	-0.020	0.010	0.044	2.681	1.899	1.899	1.899	1.919	1.914	1.914
0.010	-0.015	0.000	0.005	-0.010	0.010	0.044	2.681	1.895	1.895	1.895	1.919	1.914	1.919
-0.005	0.010	0.000	0.005	0.015	0.010	0.044	2.676	1.890	1.895	1.890	1.909	1.914	1.914
0.000	0.054	0.005	0.000	0.020	-0.005	0.044	2.686	1.895	1.904	1.895	1.914	1.914	1.909
-0.010	0.020	0.005	-0.005	0.005	-0.005	0.044	2.690	1.895	1.895	1.890	1.909	1.909	1.909
0.000	-0.010	0.000	0.000	0.005	0.005	0.049	2.690	1.899	1.890	1.890	1.909	1.909	1.909
0.005	-0.015	-0.005	0.005	0.049	0.024	0.049	2.695	1.904	1.890	1.890	1.914	1.924	1.919
0.010	-0.005	0.000	0.000	0.063	-0.015	0.044	2.695	1.914	1.904	1.895	1.914	1.924	1.914
0.005	0.029	0.000	0.005	0.044	-0.005	0.044	2.690	1.919	1.919	1.909	1.919	1.919	1.924
0.000	0.005	0.000	0.000	0.010	-0.010	0.044	2.695	1.919	1.914	1.909	1.924	1.914	1.919
0.000	-0.005	0.000	0.005	-0.010	-0.005	0.044	2.690	1.924	1.919	1.909	1.929	1.914	1.919
0.000	0.000	0.000	0.000	-0.010	-0.010	0.049	2.686	1.924	1.924	1.919	1.929	1.919	1.924
0.000	0.000	0.005	0.000	-0.010	0.000	0.044	2.690	1.924	1.924	1.919	1.934	1.919	1.929
0.005	-0.005	0.005	0.000	-0.024	-0.005	0.044	2.686	1.919	1.919	1.919	1.934	1.919	1.919
0.010	-0.005	-0.005	0.000	-0.020	-0.005	0.044	2.690	1.919	1.919	1.914	1.934	1.924	1.924
0.005	0.024	0.000	0.000	0.005	0.000	0.044	2.681	1.909	1.924	1.914	1.929	1.929	1.924
0.000	0.020	0.005	0.000	0.005	0.000	0.044	2.690	1.904	1.914	1.914	1.929	1.924	1.919
0.005	-0.005	0.000	0.000	-0.015	0.000	0.044	2.695	1.899	1.895	1.899	1.929	1.919	1.919
0.005	-0.020	0.000	0.005	-0.024	0.010	0.044	2.676	1.890	1.890	1.895	1.919	1.914	1.914
-0.005	-0.010	-0.005	0.005	0.000	0.015	0.044	2.690	1.890	1.885	1.890	1.914	1.919	1.914
0.000	-0.010	0.000	0.000	0.005	-0.010	0.044	2.686	1.890	1.885	1.885	1.909	1.914	1.904
-0.005	-0.005	0.000	0.005	0.000	-0.010	0.044	2.681	1.895	1.890	1.890	1.909	1.909	1.909
0.000	-0.010	0.000	0.000	0.005	-0.010	0.044	2.690	1.899	1.890	1.890	1.909	1.909	1.909
0.000	-0.005	0.000	0.000	0.005	0.000	0.044	2.695	1.904	1.899	1.890	1.914	1.914	1.914
0.000	0.015	0.000	0.000	0.015	0.020	0.044	2.700	1.914	1.909	1.899	1.914	1.919	1.924
-0.005	0.015	0.005	0.005	0.015	0.024	0.044	2.700	1.919	1.914	1.904	1.924	1.919	1.929
0.010	0.010	0.000	0.005	0.010	0.029	0.044	2.676	1.924	1.924	1.914	1.924	1.924	1.929
0.005	0.010	0.000	0.000	0.015	0.020	0.049	2.690	1.924	1.929	1.919	1.934	1.929	1.934
0.005	0.010	0.000	0.005	-0.005	0.039	0.044	2.686	1.924	1.929	1.924	1.934	1.924	1.934
-0.005	0.005	0.000	-0.005	-0.010	0.024	0.044	2.686	1.924	1.924	1.924	1.934	1.924	1.924
0.005	-0.015	0.005	0.005	-0.010	0.020	0.044	2.671	1.914	1.914	1.919	1.934	1.929	1.924
0.005	0.015	0.000	0.000	-0.015	0.005	0.044	2.686	1.914	1.919	1.919	1.934	1.919	1.919
0.005	-0.005	-0.005	0.000	-0.024	-0.024	0.044	2.686	1.909	1.904	1.909	1.929	1.919	1.904
0.005	-0.010	0.005	0.000	0.000	-0.054	0.049	2.686	1.899	1.904	1.904	1.924	1.924	1.904
0.000	-0.010	0.000	0.000	0.015	-0.039	0.044	2.681	1.890	1.895	1.899	1.919	1.924	1.909
0.010	0.000	0.005	0.005	0.000	-0.029	0.044	2.676	1.890	1.890	1.895	1.919	1.914	1.914
-0.005	-0.005	0.000	0.000	0.000	-0.005	0.044	2.690	1.890	1.885	1.890	1.914	1.914	1.914
0.005	-0.005	-0.005	0.010	0.024	0.000	0.044	2.690	1.895	1.890	1.890	1.909	1.919	1.924
0.010	-0.005	0.005	0.000	0.039	0.000	0.044	2.686	1.899	1.895	1.890	1.909	1.919	1.919
0.000	0.005	0.000	0.000	0.029	0.015	0.044	2.690	1.899	1.899	1.895	1.909	1.914	1.924
0.005	0.000	0.005	0.000	0.010	0.015	0.044	2.700	1.909	1.899	1.895	1.914	1.909	1.924
-0.005	0.015	0.005	0.000	0.005	-0.010	0.049	2.686	1.914	1.914	1.904	1.919	1.914	1.914
0.005	0.020	0.000	0.005	0.010	0.020	0.044	2.690	1.919	1.914	1.909	1.924	1.919	1.929
-0.005	0.015	0.000	0.010	0.005	0.024	0.044	2.700	1.924	1.919	1.914	1.929	1.919	1.924
-0.005	0.015	0.005	0.000	0.000	0.005	0.049	2.690	1.924	1.924	1.914	1.934	1.924	1.919
-0.005	0.005	0.005	0.000	0.005	0.005	0.039	2.676	1.924	1.924	1.919	1.934	1.924	1.924
0.000	0.005	0.010	0.000	0.000	0.005	0.044	2.690	1.924	1.919	1.919	1.938	1.924	1.924
0.000	0.000	0.000	-0.005	-0.005	0.005	0.049	2.686	1.919	1.919	1.919	1.934	1.924	1.924
0.005	-0.010	-0.005	0.000	-0.005	0.000	0.044	2.686	1.909	1.909	1.909	1.929	1.924	1.924
0.010	-0.005	0.005	0.005	0.000	-0.020	0.044	2.676	1.909	1.909	1.909	1.929	1.924	1.914
0.010	-0.010	0.000	0.000	0.000	0.015	0.044	2.695	1.904	1.904	1.904	1.924	1.919	1.924
0.005	0.000	0.000	0.000	0.005	0.024	0.044	2.690	1.895	1.899	1.895	1.919	1.919	1.924
0.010	0.000	0.000	0.000	0.000	0.034	0.044	2.690	1.895	1.895	1.890	1.914	1.909	1.919
0.039	-0.020	0.000	0.005	0.010	0.029	0.044	2.686	1.899	1.890	1.890	1.914	1.909	1.914
0.034	-0.010	0.005	-0.005	0.005	0.020	0.044	2.690	1.904	1.895	1.890	1.909	1.909	1.909
0.039	-0.005	0.005	-0.005	0.000	0.005	0.044	2.695	1.904	1.899	1.890	1.909	1.904	1.904
0.015	-0.010	-0.005	-0.005	0.005	-0.029	0.044	2.686	1.899	1.899	1.899	1.914	1.904	1.899
-0.015	0.024	0.000	0.000	-0.005	-0.054	0.044	2.681	1.895	1.909	1.899	1.914	1.909	1.899
-0.034	0.010	-0.005	0.010	-0.010	-0.044	0.044	2.690	1.899	1.904	1.904	1.924	1.909	1.904
-0.054	0.010	0.000	0.010	-0.010	-0.044	0.044	2.690	1.904	1.909	1.909	1.929	1.919	1.914
-0.063	0.000	0.000	0.020	0.005	-0.010	0.044	2.690	1.909	1.904	1.909	1.934	1.929	1.924
-0.068	-0.010	0.000	0.010	-0.044	0.000	0.049	2.690	1.909	1.904	1.909	1.929	1.914	1.929
-0.063	-0.020	-0.005	0.005	-0.039	0.020	0.044	2.695	1.919	1.904	1.909	1.929	1.924	1.929
-0.029	-0.005	-0.005	0.005	0.000	0.020	0.044	2.681	1.924	1.919	1.909	1.929	1.934	1.929
-0.010	-0.005	0.000	0.000	0.010	0.010	0.044	2.681	1.919	1.919	1.909	1.929	1.934	1.929
0.010	0.010	-0.005	0.000	0.015	0.000	0.044	2.681	1.919	1.924	1.909	1.924	1.929	1.924
0.015	0.015	0.000	0.005	0.024	0.024	0.044	2.690	1.914	1.919	1.909	1.924	1.924	1.924
0.015	0.010	0.010	0.005	0.034	0.005	0.044	2.690	1.909	1.909	1.909	1.924	1.919	1.914
0.015	0.005	0.005	0.000	0.034	-0.010	0.049	2.705	1.904	1.904	1.899	1.919	1.919	1.914
0.034	0.000	0.010	0.005	0.010	0.010	0.049	2.686	1.904	1.899	1.895	1.914	1.904	1.914
0.039	-0.005	0.005	0.000	0.000	0.015	0.044	2.676	1.904	1.895	1.895	1.914	1.904	1.914
0.044	-0.015	0.000	0.000	-0.005	-0.005	0.049	2.690	1.899	1.890	1.895	1.914	1.904	1.904
0.029	0.005	0.005	0.000	0.000	-0.010	0.044	2.700	1.904	1.904	1.895	1.914	1.904	1.904
0.044	0.005	0.005	-0.005	-0.010	0.024	0.044	2.686	1.909	1.904	1.899	1.914	1.909	1.919
0.034	-0.015	0.000	-0.005	-0.010	0.015	0.044	2.690	1.914	1.904	1.904	1.919	1.914	1.914
0.020	-0.005	0.000	0.010	-0.005	0.010	0.049	2.695	1.914	1.914	1.904	1.929	1.919	1.914
0.010	-0.005	0.005	0.005	0.000	0.000	0.044	2.671	1.909	1.919	1.914	1.929	1.924	1.919
0.000	-0.005	0.000	0.010	0.000	-0.005	0.044	2.695	1.914	1.919	1.919	1.934	1.929	1.924
0.000	0.000	0.000	0.000	-0.005	0.020	0.049	2.695	1.919	1.919	1.919	1.934	1.929	1.934
-0.005	0.010	0.000	0.000	0.000	0.010	0.044	2.695	1.919	1.924	1.919	1.938	1.929	1.929
-0.005	0.029	0.000	0.000	-0.005	-0.010	0.044	2.700	1.919	1.929	1.919	1.938	1.929	1.919
0.005	0.024	0.005	0.000	-0.005	0.015	0.049	2.671	1.909	1.919	1.919	1.934	1.929	1.929
0.000	0.010	0.000	-0.005	0.000	0.015	0.044	2.695	1.904	1.904	1.909	1.934	1.924	1.929
-0.010	0.015	0.000	0.000	0.000	0.005	0.044	2.690	1.899	1.899	1.904	1.929	1.924	1.924
0.005	0.005	0.000	0.005	0.005	0.005	0.049	2.695	1.895	1.895	1.895	1.924	1.924	1.919
-0.010	0.015	0.005	0.005	0.005	-0.020	0.049	2.676	1.890	1.895	1.895	1.914	1.914	1.909
-0.010	0.010	0.000	0.005	0.005	0.000	0.044	2.686	1.885	1.885	1.890	1.909	1.914	1.919
-0.010	0.010	0.000	0.000	-0.005	-0.010	0.044	2.686	1.890	1.885	1.890	1.909	1.904	1.909
0.000	-0.029	0.000	0.005	0.005	0.000	0.044	2.686	1.899	1.875	1.885	1.909	1.909	1.914
0.005	0.000	0.005	-0.005	-0.005	0.015	0.044	2.695	1.904	1.895	1.890	1.909	1.904	1.914
0.005	0.005	0.010	-0.005	0.000	0.020	0.049	2.700	1.914	1.904	1.895	1.909	1.909	1.919
0.000	0.005	0.005	0.000	0.005	0.010	0.049	2.700	1.919	1.909	1.899	1.914	1.914	1.919
0.000	-0.005	-0.005	0.000	0.010	0.010	0.049	2.695	1.919	1.914	1.904	1.919	1.914	1.919
0.000	-0.005	0.000	-0.005	0.005	0.005	0.044	2.690	1.924	1.919	1.909	1.924	1.919	1.919
0.000	-0.005	0.000	0.000	0.000	0.000	0.044	2.695	1.929	1.919	1.914	1.929	1.919	1.919
0.005	-0.005	0.005	0.000	-0.005	0.000	0.044	2.690	1.924	1.929	1.919	1.929	1.924	1.919
-0.005	0.000	0.005	0.000	0.005	0.000	0.049	2.686	1.914	1.924	1.919	1.934	1.929	1.924
0.010	0.000	0.000	0.000	0.000	-0.005	0.049	2.695	1.914	1.919	1.919	1.934	1.924	1.919
-0.005	0.000	0.005	0.000	0.005	0.000	0.049	2.690	1.909	1.914	1.914	1.934	1.924	1.919
0.000	-0.005	0.005	0.000	0.005	0.010	0.044	2.686	1.904	1.909	1.909	1.929	1.924	1.924
0.010	0.000	0.005	0.000	0.010	0.010	0.044	2.676	1.899	1.904	1.904	1.924	1.924	1.919
0.010	0.010	0.000	-0.005	0.000	0.010	0.044	2.690	1.895	1.895	1.899	1.919	1.914	1.914
0.010	0.005	0.005	0.000	-0.005	0.005	0.044	2.695	1.895	1.890	1.895	1.914	1.909	1.909
0.000	0.010	0.000	0.005	-0.005	0.005	0.044	2.681	1.890	1.890	1.890	1.914	1.909	1.909
0.000	0.000	0.000	-0.005	0.005	0.015	0.049	2.690	1.890	1.885	1.890	1.909	1.909	1.914
0.010	-0.005	0.000	0.005	0.000	0.010	0.044	2.690	1.899	1.890	1.890	1.914	1.909	1.909
0.005	-0.005	0.000	0.000	0.000	-0.005	0.044	2.686	1.904	1.890	1.890	1.914	1.909	1.904
-0.010	-0.015	0.000	0.005	0.000	0.010	0.044	2.700	1.909	1.899	1.895	1.914	1.914	1.914
-0.005	-0.020	0.005	0.000	0.000	0.000	0.044	2.681	1.909	1.904	1.899	1.919	1.914	1.914
0.000	-0.005	0.000	0.000	0.000	0.005	0.044	2.686	1.914	1.914	1.904	1.919	1.919	1.919
0.000	0.020	0.000	0.000	0.005	0.010	0.044	2.690	1.919	1.924	1.909	1.929	1.924	1.924
-0.005	0.024	0.005	0.000	0.000	0.010	0.044	2.695	1.929	1.929	1.919	1.934	1.924	1.924
-0.005	0.005	0.000	0.005	0.005	0.000	0.044	2.671	1.919	1.919	1.919	1.934	1.924	1.924
0.000	0.000	0.000	0.005	0.005	-0.005	0.044	2.686	1.914	1.914	1.924	1.934	1.929	1.924
-0.005	-0.005	0.005	0.005	0.010	0.000	0.044	2.690	1.909	1.909	1.914	1.934	1.929	1.924
0.010	-0.010	0.005	0.005	0.000	0.010	0.044	2.676	1.909	1.904	1.909	1.929	1.924	1.924
0.000	-0.005	0.005	0.005	0.005	0.000	0.044	2.695	1.904	1.904	1.904	1.924	1.924	1.919
0.005	0.005	0.000	0.005	0.000	-0.005	0.044	2.676	1.899	1.899	1.899	1.919	1.919	1.919
0.005	0.010	0.005	0.000	0.005	0.005	0.044	2.690	1.895	1.899	1.899	1.914	1.914	1.909
0.005	0.005	0.005	0.000	0.005	0.005	0.044	2.690	1.895	1.890	1.895	1.909	1.909	1.914
0.000	0.005	0.005	0.000	0.000	0.010	0.044	2.686	1.895	1.890	1.890	1.909	1.909	1.909
0.000	0.000	0.000	-0.010	0.000	0.010	0.044	2.686	1.895	1.890	1.890	1.909	1.904	1.909
0.005	0.005	0.000	-0.005	0.000	0.010	0.044	2.695	1.895	1.895	1.890	1.909	1.904	1.909
0.000	0.000	0.005	-0.005	0.000	0.010	0.044	2.695	1.904	1.895	1.895	1.909	1.909	1.914
-0.005	0.000	0.000	0.005	0.000	0.015	0.044	2.686	1.909	1.904	1.899	1.919	1.914	1.914
-0.005	0.005	0.000	0.010	0.000	0.000	0.044	2.686	1.909	1.909	1.904	1.924	1.914	1.914
-0.010	0.005	-0.005	0.005	-0.005	-0.005	0.044	2.695	1.914	1.914	1.909	1.924	1.919	1.919
-0.010	0.015	-0.005	0.005	-0.005	0.000	0.044	2.681	1.919	1.919	1.914	1.929	1.924	1.924
-0.010	0.010	0.000	0.010	0.000	-0.005	0.044	2.695	1.919	1.919	1.914	1.934	1.929	1.924
0.000	0.005	0.005	0.010	0.005	0.005	0.044	2.681	1.919	1.919	1.914	1.934	1.929	1.924
0.000	-0.010	0.000	0.005	0.010	0.010	0.044	2.681	1.914	1.914	1.914	1.934	1.929	1.929
0.000	-0.005	0.000	0.000	0.000	0.010	0.044	2.686	1.914	1.909	1.909	1.929	1.919	1.929
-0.005	0.000	0.005	0.010	0.000	0.005	0.044	2.690	1.909	1.909	1.909	1.929	1.919	1.919
0.005	0.005	-0.005	0.005	-0.005	0.005	0.044	2.690	1.904	1.904	1.904	1.919	1.914	1.919
0.000	0.000	0.005	0.000	0.010	0.005	0.044	2.690	1.895	1.895	1.899	1.919	1.919	1.914
0.005	0.015	0.010	-0.005	0.010	-0.010	0.044	2.690	1.899	1.899	1.899	1.914	1.914	1.909
0.005	0.000	0.000	-0.005	-0.005	-0.005	0.049	2.681	1.895	1.890	1.890	1.909	1.904	1.909
0.000	0.000	0.000	0.000	-0.005	-0.005	0.044	2.690	1.890	1.890	1.890	1.909	1.904	1.904
0.010	0.005	0.000	0.000	0.005	0.010	0.044	2.690	1.895	1.890	1.890	1.909	1.909	1.909
0.005	-0.005	0.000	0.005	0.000	0.010	0.044	2.681	1.899	1.890	1.890	1.909	1.909	1.914
0.005	-0.005	-0.005	0.000	-0.005	0.000	0.044	2.690	1.909	1.899	1.895	1.914	1.909	1.909
0.005	0.000	0.000	0.000	-0.005	0.000	0.044	2.690	1.909	1.904	1.899	1.919	1.914	1.914
0.005	0.005	0.005	0.000	-0.005	0.005	0.044	2.681	1.914	1.914	1.904	1.919	1.919	1.919
0.000	0.005	0.005	0.000	-0.005	0.005	0.044	2.686	1.919	1.914	1.909	1.924	1.919	1.919
-0.005	0.000	0.005	0.000	0.000	0.005	0.044	2.695	1.919	1.919	1.914	1.929	1.924	1.924
-0.005	0.000	0.005	-0.005	0.005	0.010	0.049	2.695	1.919	1.919	1.919	1.934	1.929	1.929
-0.005	0.005	0.000	-0.005	-0.005	-0.020	0.044	2.686	1.914	1.919	1.914	1.934	1.924	1.919
-0.005	0.015	0.000	-0.005	-0.005	0.015	0.044	2.681	1.914	1.919	1.914	1.934	1.924	1.929
0.005	0.024	0.005	0.005	0.000	0.020	0.044	2.690	1.914	1.919	1.914	1.934	1.924	1.929
0.000	0.010	0.000	0.010	-0.005	0.029	0.044	2.681	1.909	1.909	1.909	1.934	1.924	1.924
0.005	0.005	0.000	0.005	0.000	0.015	0.044	2.681	1.895	1.899	1.904	1.929	1.924	1.919
0.010	0.000	0.000	0.000	-0.005	0.010	0.044	2.686	1.895	1.895	1.899	1.924	1.914	1.914
0.000	0.000	0.000	0.000	-0.005	0.010	0.044	2.681	1.890	1.885	1.890	1.914	1.914	1.909
0.005	0.010	0.005	0.000	0.000	-0.005	0.044	2.700	1.899	1.890	1.890	1.914	1.909	1.904
0.015	0.005	0.000	0.005	0.005	0.005	0.049	2.690	1.899	1.890	1.890	1.909	1.914	1.914
0.010	0.005	-0.005	0.005	0.000	-0.010	0.049	2.690	1.899	1.890	1.890	1.909	1.909	1.909
0.015	0.000	0.000	0.000	0.005	0.015	0.049	2.695	1.904	1.895	1.895	1.909	1.909	1.914
-0.005	-0.010	0.000	-0.005	0.010	0.005	0.044	2.695	1.909	1.899	1.895	1.914	1.914	1.914
0.000	-0.005	-0.005	-0.005	0.015	-0.005	0.049	2.686	1.909	1.904	1.899	1.914	1.914	1.919
-0.005	-0.010	-0.005	-0.010	0.024	0.000	0.044	2.690	1.914	1.909	1.904	1.919	1.919	1.919
-0.005	0.000	0.000	-0.020	0.024	0.000	0.044	2.690	1.924	1.919	1.909	1.924	1.919	1.924
-0.015	-0.010	0.005	-0.005	0.020	-0.029	0.049	2.695	1.919	1.919	1.914	1.929	1.924	1.919
-0.005	-0.005	0.005	0.005	0.010	-0.005	0.049	2.671	1.919	1.924	1.919	1.934	1.924	1.924
-0.005	-0.005	0.005	0.010	0.020	-0.010	0.044	2.676	1.909	1.919	1.919	1.934	1.929	1.924
0.000	0.005	-0.005	0.015	0.029	-0.015	0.044	2.695	1.914	1.919	1.914	1.938	1.929	1.924
0.000	0.000	0.000	0.024	0.024	0.005	0.044	2.681	1.909	1.909	1.909	1.934	1.929	1.929
0.000	0.010	0.000	0.024	0.015	-0.010	0.049	2.690	1.904	1.904	1.904	1.929	1.919	1.919
0.015	-0.024	0.000	0.020	0.000	-0.010	0.049	2.676	1.895	1.890	1.899	1.919	1.914	1.914
0.005	-0.015	0.005	0.015	-0.005	-0.020	0.049	2.686	1.895	1.890	1.895	1.914	1.904	1.909
-0.005	-0.005	0.005	0.010	-0.005	-0.029	0.044	2.690	1.895	1.890	1.890	1.909	1.909	1.904
-0.010	-0.010	0.005	0.015	0.015	-0.039	0.044	2.690	1.890	1.885	1.890	1.909	1.909	1.904
-0.029	-0.005	0.000	0.020	0.005	-0.034	0.044	2.686	1.885	1.890	1.885	1.909	1.909	1.904
-0.029	0.054	0.000	0.015	0.000	-0.015	0.044	2.690	1.899	1.909	1.895	1.909	1.904	1.909
0.000	0.034	0.010	0.010	-0.005	0.005	0.044	2.690	1.914	1.904	1.899	1.909	1.909	1.919
0.010	-0.005	0.005	0.005	-0.010	-0.015	0.044	2.681	1.914	1.899	1.899	1.914	1.904	1.914
0.005	-0.010	0.000	0.000	-0.005	0.005	0.049	2.695	1.914	1.904	1.899	1.919	1.914	1.919
-0.010	0.000	0.000	-0.005	-0.015	0.000	0.044	2.690	1.914	1.914	1.909	1.919	1.914	1.919
-0.010	0.005	0.000	-0.005	-0.005	0.024	0.044	2.681	1.919	1.919	1.914	1.924	1.919	1.929
-0.010	-0.010	0.000	-0.010	0.000	0.024	0.039	2.695	1.919	1.914	1.914	1.924	1.924	1.929
-0.005	0.000	-0.005	-0.020	0.010	0.020	0.039	2.686	1.919	1.919	1.914	1.929	1.924	1.924
0.005	0.005	0.005	-0.015	0.000	0.015	0.049	2.690	1.919	1.924	1.914	1.929	1.924	1.924
0.000	0.000	0.005	-0.010	-0.010	0.010	0.044	2.690	1.909	1.914	1.914	1.929	1.919	1.924
0.000	-0.010	0.000	-0.005	-0.010	0.024	0.044	2.676	1.904	1.904	1.909	1.929	1.914	1.924
0.010	0.000	0.000	0.005	-0.005	0.020	0.044	2.695	1.909	1.904	1.904	1.929	1.914	1.914
0.015	0.000	0.000	0.010	0.000	0.015	0.049	2.686	1.899	1.899	1.899	1.924	1.919	1.914
0.020	0.005	0.000	0.010	-0.005	0.010	0.044	2.676	1.895	1.890	1.895	1.919	1.914	1.909
0.015	0.005	0.000	-0.005	-0.005	0.010	0.044	2.681	1.890	1.890	1.890	1.909	1.909	1.909
0.020	0.000	0.005	-0.005	-0.005	0.000	0.044	2.695	1.895	1.890	1.890	1.909	1.904	1.904
0.024	0.000	0.000	-0.005	-0.010	0.005	0.049	2.681	1.899	1.890	1.890	1.909	1.909	1.909
0.015	-0.005	0.000	0.010	0.000	0.010	0.044	2.681	1.899	1.895	1.890	1.914	1.909	1.909
0.005	0.000	0.000	0.010	-0.005	0.000	0.044	2.700	1.909	1.899	1.895	1.919	1.909	1.909
-0.005	0.005	0.005	0.015	-0.005	0.020	0.049	2.695	1.909	1.909	1.899	1.924	1.919	1.919
-0.010	0.010	0.005	0.015	-0.005	0.010	0.044	2.690	1.909	1.909	1.904	1.924	1.919	1.924
-0.010	0.024	-0.005	0.000	0.000	-0.005	0.044	2.695	1.919	1.924	1.914	1.924	1.919	1.914
-0.015	0.005	-0.005	0.000	-0.005	0.010	0.044	2.690	1.919	1.919	1.914	1.929	1.924	1.924
0.005	-0.005	0.005	-0.005	-0.005	0.010	0.044	2.695	1.924	1.914	1.914	1.929	1.924	1.924
0.024	-0.005	-0.005	-0.005	0.000	0.005	0.049	2.695	1.924	1.919	1.914	1.929	1.924	1.924
0.020	0.000	-0.005	-0.010	0.005	0.000	0.049	2.686	1.919	1.919	1.919	1.929	1.924	1.924
0.005	0.010	0.000	-0.015	0.000	0.005	0.044	2.686	1.904	1.914	1.909	1.929	1.919	1.919
0.000	-0.005	0.000	-0.005	0.000	0.005	0.049	2.686	1.899	1.904	1.904	1.924	1.919	1.919
-0.005	-0.010	0.000	-0.005	0.005	-0.020	0.044	2.686	1.895	1.895	1.904	1.919	1.919	1.909
-0.010	-0.015	0.000	0.000	0.000	-0.005	0.044	2.681	1.885	1.890	1.895	1.919	1.914	1.914
-0.029	-0.010	0.005	0.000	0.000	-0.029	0.044	2.690	1.885	1.885	1.890	1.914	1.909	1.904
-0.010	-0.005	0.000	-0.005	0.005	-0.010	0.044	2.690	1.890	1.885	1.885	1.909	1.909	1.909
-0.015	-0.005	0.005	0.000	0.010	0.005	0.049	2.700	1.895	1.885	1.885	1.909	1.909	1.914
0.000	-0.005	0.000	0.005	0.010	0.010	0.049	2.681	1.899	1.890	1.885	1.904	1.909	1.914
-0.005	0.000	0.000	0.000	0.010	0.015	0.044	2.690	1.909	1.895	1.890	1.909	1.909	1.914
0.005	0.000	0.000	0.005	0.015	-0.015	0.044	2.695	1.914	1.904	1.895	1.914	1.909	1.904
0.015	-0.005	0.000	0.010	0.005	0.005	0.044	2.676	1.914	1.909	1.899	1.914	1.914	1.919
0.015	0.000	-0.005	0.020	0.005	0.024	0.049	2.690	1.919	1.919	1.909	1.924	1.914	1.924
0.005	0.024	0.000	0.020	0.010	-0.005	0.049	2.695	1.924	1.934	1.919	1.934	1.919	1.919
-0.010	0.073	0.005	0.015	0.000	-0.015	0.049	2.695	1.924	1.938	1.924	1.934	1.924	1.914
0.015	0.015	0.005	0.010	0.000	0.015	0.049	2.671	1.919	1.924	1.924	1.934	1.929	1.929
0.015	-0.005	0.000	0.000	0.010	0.010	0.054	2.690	1.919	1.914	1.919	1.934	1.929	1.924
0.005	-0.020	0.005	-0.005	0.005	0.020	0.049	2.686	1.914	1.909	1.914	1.934	1.929	1.924
-0.005	-0.020	0.000	-0.005	0.005	0.000	0.049	2.686	1.904	1.904	1.909	1.929	1.924	1.919
0.000	-0.015	0.000	-0.005	0.000	-0.005	0.049	2.681	1.899	1.899	1.904	1.924	1.919	1.914
0.005	-0.010	0.010	0.000	0.005	-0.005	0.049	2.690	1.895	1.895	1.899	1.919	1.919	1.914
0.005	-0.005	0.000	0.000	0.000	-0.005	0.049	2.686	1.895	1.890	1.895	1.919	1.909	1.909
0.000	0.000	0.005	0.000	0.000	0.000	0.054	2.676	1.890	1.890	1.890	1.909	1.909	1.909
0.010	0.034	0.000	-0.005	0.000	0.000	0.049	2.686	1.895	1.895	1.890	1.904	1.904	1.904
0.015	0.015	0.000	-0.005	0.005	0.015	0.059	2.681	1.895	1.890	1.890	1.909	1.904	1.909
-0.005	0.024	-0.005	0.000	0.005	0.005	0.054	2.690	1.895	1.895	1.890	1.909	1.904	1.909
-0.010	-0.005	0.000	0.005	-0.005	0.010	0.059	2.681	1.899	1.890	1.890	1.914	1.909	1.909
0.000	-0.005	0.000	0.015	0.005	0.010	0.054	2.695	1.914	1.899	1.895	1.919	1.914	1.914
0.005	-0.005	0.005	0.015	0.005	0.005	0.059	2.690	1.914	1.909	1.904	1.919	1.914	1.914
-0.005	-0.010	-0.005	0.010	-0.005	-0.005	0.049	2.690	1.919	1.914	1.909	1.924	1.919	1.919
-0.010	0.000	0.000	0.000	0.000	-0.005	0.073	2.690	1.919	1.919	1.909	1.924	1.924	1.919
0.000	-0.010	0.000	-0.010	0.000	-0.005	0.063	2.690	1.924	1.919	1.914	1.924	1.919	1.919
0.010	0.005	-0.005	-0.005	0.010	0.000	0.073	2.686	1.924	1.924	1.914	1.929	1.929	1.924
0.000	0.000	0.000	-0.005	0.000	0.000	0.063	2.690	1.919	1.924	1.919	1.929	1.919	1.919
0.005	0.029	0.000	0.000	0.000	0.000	0.068	2.695	1.914	1.924	1.919	1.929	1.924	1.919
0.005	0.015	0.000	0.000	-0.005	-0.020	0.059	2.695	1.914	1.914	1.909	1.929	1.919	1.914
0.010	0.010	0.005	0.005	0.000	0.005	0.063	2.686	1.899	1.904	1.909	1.929	1.919	1.919
0.005	0.010	0.005	0.000	0.005	0.000	0.068	2.681	1.895	1.899	1.904	1.924	1.919	1.914
0.005	0.010	0.000	0.000	0.010	-0.010	0.068	2.690	1.895	1.895	1.899	1.919	1.914	1.909
0.005	-0.005	0.000	0.005	0.005	0.000	0.063	2.690	1.890	1.885	1.890	1.914	1.909	1.914
-0.005	0.000	0.005	0.000	0.000	0.015	0.073	2.686	1.885	1.885	1.890	1.909	1.909	1.914
0.010	-0.005	0.000	0.010	0.000	0.005	0.063	2.676	1.895	1.890	1.885	1.909	1.909	1.914
0.005	0.015	0.000	0.005	-0.005	0.010	0.068	2.681	1.899	1.899	1.895	1.909	1.909	1.914
0.000	0.010	0.000	0.005	-0.005	0.010	0.063	2.695	1.904	1.904	1.895	1.914	1.909	1.909
0.010	0.005	0.005	0.000	0.005	0.010	0.073	2.690	1.914	1.909	1.899	1.914	1.914	1.914
0.024	0.005	0.005	0.005	0.010	0.010	0.068	2.700	1.929	1.914	1.904	1.924	1.919	1.919
0.039	-0.015	0.005	-0.005	0.015	0.020	0.068	2.700	1.929	1.919	1.914	1.924	1.924	1.924
0.015	-0.005	0.000	0.005	0.010	-0.015	0.068	2.690	1.924	1.924	1.914	1.929	1.924	1.914
0.059	-0.010	0.005	0.005	-0.005	0.005	0.073	2.681	1.934	1.929	1.924	1.934	1.924	1.924
0.049	0.015	0.000	0.005	-0.010	0.010	0.068	2.681	1.919	1.929	1.924	1.938	1.929	1.924
0.010	0.005	0.005	0.010	-0.010	0.010	0.068	2.681	1.904	1.919	1.924	1.938	1.924	1.924
-0.024	0.005	-0.005	0.010	-0.005	0.015	0.063	2.686	1.895	1.909	1.914	1.934	1.924	1.924
-0.059	0.005	0.005	0.005	0.005	0.005	0.068	2.646	1.880	1.899	1.909	1.929	1.929	1.924
-0.059	-0.005	0.005	0.005	0.024	-0.015	0.068	2.646	1.875	1.885	1.899	1.924	1.929	1.919
-0.078	-0.005	0.005	-0.010	0.010	-0.005	0.068	2.715	1.880	1.875	1.890	1.909	1.914	1.914
-0.054	-0.005	0.005	-0.005	-0.005	-0.029	0.068	2.637	1.880	1.875	1.880	1.904	1.904	1.904
-0.039	-0.005	0.005	-0.005	-0.005	-0.015	0.073	2.739	1.890	1.875	1.880	1.904	1.904	1.899
-0.029	-0.020	0.000	0.005	-0.005	-0.010	0.068	2.681	1.895	1.880	1.875	1.904	1.904	1.909
-0.015	-0.010	0.000	0.015	0.005	-0.020	0.068	2.725	1.904	1.890	1.880	1.904	1.904	1.904
-0.010	-0.010	0.000	0.015	0.010	0.005	0.068	2.666	1.904	1.899	1.890	1.904	1.909	1.914
0.000	-0.005	-0.005	0.010	0.005	0.000	0.068	2.729	1.919	1.904	1.890	1.909	1.909	1.914
0.010	0.000	0.005	0.005	0.000	0.024	0.068	2.651	1.919	1.914	1.904	1.914	1.909	1.919
0.020	-0.005	0.005	-0.005	0.000	0.015	0.073	2.661	1.924	1.919	1.909	1.919	1.914	1.919
0.024	-0.005	0.000	-0.005	0.005	0.024	0.068	2.720	1.934	1.924	1.919	1.924	1.914	1.924
0.020	-0.005	0.005	-0.010	0.000	0.020	0.073	2.734	1.909	1.924	1.919	1.929	1.919	1.924
0.010	0.010	0.005	-0.015	-0.005	0.020	0.083	2.734	1.919	1.924	1.924	1.934	1.919	1.919
0.010	0.010	0.005	-0.010	-0.005	0.005	0.088	2.749	1.924	1.924	1.919	1.934	1.924	1.919
0.010	0.010	0.000	-0.010	0.000	-0.005	0.088	2.744	1.924	1.924	1.919	1.934	1.924	1.919
0.024	-0.005	0.000	0.000	0.010	0.010	0.093	2.651	1.914	1.914	1.914	1.934	1.929	1.919
0.024	0.005	0.005	0.005	0.005	0.010	0.083	2.671	1.904	1.909	1.909	1.934	1.924	1.919
0.015	0.000	0.005	0.015	0.000	0.005	0.088	2.661	1.895	1.899	1.909	1.929	1.919	1.919
0.015	0.005	0.005	0.015	-0.005	0.000	0.083	2.705	1.895	1.895	1.899	1.924	1.914	1.909
0.015	0.000	0.000	0.015	-0.005	-0.005	0.093	2.661	1.890	1.890	1.890	1.919	1.914	1.909
0.015	0.000	0.000	0.010	0.005	-0.024	0.088	2.710	1.890	1.890	1.890	1.914	1.909	1.904
0.020	0.005	0.000	-0.005	0.005	-0.029	0.093	2.671	1.895	1.890	1.890	1.909	1.914	1.904
0.005	-0.005	0.000	0.000	0.000	-0.020	0.088	2.686	1.895	1.890	1.890	1.909	1.914	1.914
0.000	-0.010	0.005	0.005	0.005	0.005	0.103	2.666	1.899	1.895	1.890	1.914	1.914	1.919
0.000	0.005	0.000	0.000	0.005	0.000	0.103	2.695	1.904	1.899	1.895	1.914	1.914	1.919
0.000	0.000	0.005	0.000	0.015	0.024	0.107	2.671	1.909	1.904	1.899	1.919	1.919	1.929
0.000	0.039	0.010	0.010	0.010	0.015	0.093	2.671	1.914	1.924	1.909	1.924	1.919	1.924
0.005	0.098	0.005	0.005	0.005	0.005	0.098	2.671	1.924	1.938	1.924	1.929	1.924	1.924
0.015	0.015	0.000	0.000	0.000	0.015	0.088	2.681	1.919	1.914	1.919	1.934	1.924	1.929
0.015	-0.020	-0.005	-0.005	-0.015	-0.005	0.103	2.676	1.914	1.909	1.914	1.934	1.924	1.919
0.000	-0.015	-0.005	-0.005	0.000	-0.024	0.093	2.661	1.909	1.909	1.909	1.934	1.924	1.914
-0.010	-0.005	-0.005	0.000	0.000	-0.010	0.103	2.671	1.904	1.909	1.909	1.929	1.924	1.924
-0.005	0.005	0.000	-0.005	-0.005	-0.010	0.093	2.681	1.899	1.904	1.904	1.924	1.924	1.919
0.005	-0.005	0.000	-0.005	0.000	-0.010	0.098	2.695	1.899	1.895	1.899	1.919	1.914	1.919
0.005	-0.005	0.000	0.000	0.000	-0.015	0.093	2.710	1.895	1.890	1.895	1.919	1.914	1.909
-0.010	-0.010	0.000	0.000	-0.015	-0.005	0.093	2.705	1.890	1.885	1.885	1.914	1.904	1.909
0.000	0.000	0.000	0.005	-0.020	-0.005	0.083	2.700	1.890	1.890	1.885	1.909	1.899	1.909
0.000	-0.005	0.000	0.000	-0.015	0.020	0.093	2.686	1.895	1.885	1.885	1.904	1.904	1.909
-0.005	-0.010	0.005	0.000	-0.005	0.010	0.093	2.695	1.899	1.890	1.890	1.909	1.904	1.909
-0.005	0.000	0.005	0.000	0.005	0.000	0.103	2.651	1.899	1.895	1.890	1.909	1.909	1.909
0.010	0.000	0.005	0.005	0.010	0.010	0.093	2.661	1.904	1.899	1.895	1.909	1.909	1.914
0.010	-0.005	0.005	0.005	0.005	0.010	0.093	2.778	1.914	1.904	1.895	1.914	1.909	1.914
0.005	-0.005	0.000	-0.005	0.005	0.000	0.093	2.651	1.914	1.909	1.904	1.914	1.914	1.914
-0.005	-0.005	0.000	0.005	0.005	0.010	0.098	2.744	1.924	1.919	1.909	1.924	1.919	1.919
0.005	-0.005	0.005	0.005	0.005	0.010	0.088	2.695	1.929	1.924	1.914	1.929	1.924	1.919
0.000	0.000	0.000	0.005	0.005	0.005	0.098	2.705	1.924	1.924	1.914	1.934	1.924	1.924
-0.005	0.005	0.005	0.015	0.005	0.005	0.083	2.681	1.919	1.924	1.914	1.934	1.929	1.919
0.000	0.000	0.000	0.010	0.000	0.005	0.093	2.705	1.919	1.919	1.919	1.934	1.924	1.924
-0.005	0.000	0.000	0.005	0.005	0.005	0.088	2.637	1.909	1.914	1.919	1.929	1.924	1.924
-0.010	-0.005	0.000	0.000	0.010	0.005	0.093	2.622	1.890	1.904	1.909	1.924	1.919	1.919
0.000	0.010	0.005	0.000	0.000	0.000	0.088	2.720	1.895	1.904	1.904	1.924	1.914	1.919
0.000	0.000	0.000	0.005	0.000	-0.024	0.088	2.705	1.895	1.895	1.895	1.919	1.914	1.909
0.005	0.000	0.000	0.000	-0.005	-0.005	0.088	2.754	1.899	1.890	1.890	1.914	1.909	1.909
0.024	0.000	0.000	0.000	0.000	-0.005	0.093	2.617	1.899	1.895	1.890	1.914	1.909	1.909
0.034	0.005	0.005	0.000	0.000	-0.010	0.083	2.754	1.904	1.895	1.890	1.909	1.904	1.909
0.020	-0.005	0.005	0.005	0.000	0.005	0.093	2.690	1.904	1.895	1.895	1.914	1.909	1.914
0.005	0.000	0.000	0.000	0.000	-0.005	0.088	2.666	1.899	1.899	1.890	1.914	1.909	1.909
-0.010	0.010	0.000	0.000	0.005	0.020	0.088	2.710	1.904	1.904	1.899	1.919	1.914	1.924
-0.015	-0.005	0.000	0.005	0.005	-0.015	0.088	2.695	1.904	1.904	1.904	1.919	1.914	1.914
-0.029	-0.015	0.000	0.000	0.000	0.010	0.088	2.676	1.904	1.904	1.904	1.924	1.919	1.924
-0.034	-0.010	0.000	0.000	0.000	0.015	0.083	2.671	1.919	1.914	1.909	1.929	1.919	1.924
-0.034	0.005	0.005	0.005	0.000	0.010	0.083	2.710	1.919	1.924	1.914	1.929	1.924	1.924
-0.024	0.010	0.005	0.000	0.000	-0.029	0.093	2.695	1.919	1.924	1.919	1.929	1.924	1.914
-0.015	0.010	0.005	0.000	0.005	0.010	0.088	2.681	1.924	1.924	1.919	1.934	1.929	1.929
-0.015	0.015	-0.005	0.005	0.000	0.010	0.083	2.700	1.919	1.919	1.914	1.934	1.924	1.924
-0.005	0.020	-0.005	0.020	0.000	0.000	0.088	2.686	1.909	1.919	1.914	1.934	1.924	1.924
0.010	0.010	-0.005	0.024	0.005	0.000	0.078	2.671	1.909	1.909	1.909	1.929	1.924	1.919
0.020	0.000	0.000	0.020	0.005	-0.010	0.078	2.676	1.904	1.904	1.904	1.929	1.919	1.919
0.020	0.000	0.000	0.020	-0.005	-0.024	0.073	2.700	1.895	1.895	1.899	1.919	1.914	1.909
0.029	0.005	0.000	0.010	0.000	0.000	0.068	2.710	1.895	1.895	1.895	1.914	1.909	1.914
0.039	0.000	0.005	-0.005	0.000	-0.005	0.068	2.676	1.899	1.895	1.895	1.909	1.909	1.909
0.039	0.000	0.000	-0.010	0.005	0.000	0.078	2.700	1.899	1.890	1.895	1.904	1.909	1.914
0.024	-0.005	0.000	-0.010	0.010	0.005	0.078	2.710	1.904	1.895	1.895	1.909	1.909	1.914
0.005	0.005	0.000	-0.005	-0.005	-0.029	0.073	2.715	1.904	1.899	1.895	1.914	1.909	1.909
-0.010	0.000	0.010	-0.005	0.005	0.010	0.054	2.676	1.899	1.904	1.904	1.919	1.914	1.919
-0.029	0.000	0.000	-0.005	0.005	-0.010	0.063	2.705	1.904	1.904	1.904	1.919	1.914	1.914
-0.039	-0.005	0.005	-0.005	0.005	-0.005	0.054	2.676	1.909	1.909	1.909	1.929	1.919	1.919
-0.039	0.000	0.000	0.000	0.000	0.020	0.054	2.705	1.914	1.914	1.914	1.929	1.924	1.934
-0.020	-0.005	0.000	-0.005	0.000	-0.010	0.049	2.695	1.924	1.914	1.914	1.929	1.924	1.919
0.000	0.000	0.005	-0.005	-0.005	-0.005	0.059	2.690	1.929	1.924	1.914	1.934	1.924	1.924
-0.005	0.000	0.000	-0.010	0.005	0.020	0.049	2.681	1.919	1.919	1.914	1.934	1.929	1.934
-0.005	0.000	0.005	0.000	0.000	0.010	0.054	2.686	1.914	1.914	1.914	1.934	1.924	1.924
-0.005	0.000	0.000	0.000	0.000	0.005	0.049	2.661	1.904	1.909	1.909	1.929	1.919	1.919
0.010	0.000	0.000	0.000	0.000	0.010	0.054	2.695	1.904	1.904	1.904	1.924	1.919	1.919
0.015	-0.005	0.005	0.005	0.005	0.005	0.049	2.695	1.899	1.899	1.904	1.919	1.914	1.914
0.029	-0.005	-0.005	0.000	0.005	0.000	0.054	2.681	1.899	1.899	1.895	1.914	1.914	1.914
0.029	0.000	-0.010	0.000	0.000	0.000	0.049	2.686	1.899	1.895	1.895	1.914	1.909	1.909
0.034	0.010	-0.005	-0.005	0.000	-0.010	0.054	2.686	1.899	1.895	1.890	1.909	1.909	1.904
0.020	0.015	0.005	-0.005	0.000	0.000	0.049	2.690	1.895	1.895	1.895	1.909	1.904	1.909
0.005	0.010	0.000	0.000	0.000	0.000	0.049	2.690	1.899	1.895	1.895	1.914	1.909	1.909
-0.010	0.000	0.000	-0.005	0.000	0.000	0.049	2.686	1.899	1.895	1.899	1.914	1.914	1.914
-0.005	-0.005	0.000	-0.005	-0.005	0.000	0.049	2.690	1.904	1.899	1.899	1.919	1.914	1.914
-0.020	-0.005	-0.005	0.005	0.000	-0.005	0.044	2.690	1.909	1.904	1.904	1.924	1.919	1.914
-0.024	0.000	0.005	0.005	0.005	0.010	0.044	2.681	1.919	1.914	1.909	1.929	1.924	1.924
-0.015	-0.015	-0.005	0.010	0.000	0.000	0.049	2.686	1.919	1.914	1.909	1.934	1.929	1.924
-0.010	0.000	0.000	0.015	0.005	-0.024	0.049	2.666	1.914	1.919	1.914	1.934	1.929	1.919
-0.015	0.083	0.000	0.010	0.000	0.005	0.049	2.681	1.919	1.943	1.919	1.934	1.929	1.929
-0.015	0.020	0.005	0.010	0.005	-0.024	0.049	2.676	1.914	1.914	1.919	1.934	1.929	1.919
-0.005	-0.015	0.000	0.000	0.000	-0.029	0.044	2.681	1.904	1.899	1.909	1.929	1.924	1.919
-0.005	-0.015	-0.005	0.000	0.000	-0.015	0.044	2.671	1.899	1.895	1.904	1.924	1.919	1.924
0.010	0.000	0.005	0.000	-0.005	0.005	0.044	2.676	1.899	1.899	1.899	1.919	1.919	1.924
0.015	0.000	0.005	0.000	0.000	0.015	0.044	2.681	1.899	1.895	1.895	1.914	1.914	1.919
0.005	0.000	0.005	0.005	0.010	0.000	0.044	2.676	1.885	1.890	1.890	1.909	1.914	1.914
0.000	-0.015	0.010	0.000	0.005	-0.005	0.044	2.686	1.890	1.880	1.890	1.909	1.909	1.909
0.024	-0.020	0.005	0.005	0.010	0.010	0.049	2.681	1.890	1.885	1.885	1.904	1.909	1.919
0.015	-0.010	0.005	-0.005	0.005	-0.005	0.049	2.690	1.899	1.890	1.880	1.904	1.904	1.904
0.005	-0.005	0.005	0.000	0.000	0.010	0.044	2.661	1.899	1.895	1.890	1.904	1.904	1.909
0.015	-0.005	0.000	0.005	0.015	0.024	0.049	2.681	1.904	1.899	1.895	1.909	1.914	1.914
0.005	0.000	0.000	0.005	0.005	-0.005	0.044	2.686	1.909	1.909	1.899	1.914	1.909	1.909
-0.010	-0.005	0.000	0.010	-0.005	-0.010	0.044	2.690	1.909	1.914	1.904	1.919	1.909	1.909
0.000	0.005	0.000	0.005	-0.005	0.010	0.044	2.695	1.919	1.914	1.909	1.924	1.919	1.919
0.010	0.015	0.005	0.000	-0.010	0.005	0.049	2.690	1.924	1.924	1.914	1.929	1.919	1.919
0.000	0.020	0.000	-0.005	-0.010	-0.005	0.044	2.676	1.919	1.924	1.914	1.929	1.919	1.919
0.000	0.015	0.000	-0.005	-0.005	-0.010	0.044	2.676	1.909	1.919	1.919	1.929	1.924	1.919
-0.010	0.010	0.000	-0.005	-0.005	-0.020	0.044	2.690	1.904	1.909	1.914	1.929	1.919	1.914
0.000	0.010	-0.005	-0.005	0.000	-0.015	0.044	2.686	1.904	1.904	1.909	1.929	1.924	1.919
0.000	0.000	0.000	0.000	0.015	0.010	0.044	2.695	1.899	1.895	1.904	1.924	1.924	1.924
-0.005	0.000	0.000	0.000	0.034	0.005	0.049	2.686	1.895	1.890	1.895	1.924	1.924	1.924
-0.005	0.005	-0.005	0.005	-0.005	-0.015	0.044	2.671	1.890	1.890	1.890	1.914	1.904	1.909
-0.005	0.000	0.000	0.010	0.000	0.024	0.044	2.686	1.890	1.885	1.885	1.909	1.909	1.919
-0.005	0.000	0.000	0.005	0.000	0.005	0.049	2.690	1.890	1.885	1.885	1.904	1.904	1.909
-0.005	-0.010	-0.005	0.000	-0.005	0.015	0.044	2.681	1.895	1.880	1.880	1.899	1.899	1.909
0.005	-0.015	0.000	0.000	-0.015	0.005	0.044	2.686	1.899	1.885	1.880	1.899	1.895	1.899
-0.005	-0.010	0.005	0.000	-0.024	0.000	0.039	2.700	1.904	1.895	1.885	1.904	1.895	1.904
0.005	-0.005	0.000	0.005	-0.034	-0.005	0.044	2.686	1.904	1.904	1.895	1.909	1.899	1.904
-0.005	0.005	-0.005	0.005	-0.054	-0.010	0.049	2.686	1.909	1.909	1.899	1.914	1.899	1.899
-0.005	0.000	-0.005	0.010	-0.059	0.010	0.044	2.690	1.914	1.909	1.904	1.919	1.904	1.909
-0.005	-0.005	-0.005	0.005	0.000	0.010	0.044	2.686	1.914	1.914	1.909	1.924	1.934	1.919
0.005	0.005	0.000	0.005	0.098	0.015	0.049	2.671	1.924	1.924	1.919	1.934	1.958	1.934
0.005	0.000	0.000	0.000	0.083	0.010	0.044	2.671	1.919	1.919	1.919	1.929	1.943	1.934
0.005	0.000	0.005	0.005	0.049	0.005	0.044	2.695	1.919	1.919	1.914	1.934	1.929	1.929
0.010	0.000	0.000	0.000	0.029	-0.010	0.044	2.686	1.909	1.914	1.909	1.929	1.919	1.919
0.000	-0.010	0.005	0.000	0.020	-0.005	0.044	2.681	1.904	1.904	1.909	1.924	1.914	1.919
0.015	0.000	0.005	0.000	0.005	0.000	0.049	2.671	1.904	1.904	1.899	1.919	1.909	1.914
0.015	0.005	0.005	0.000	0.015	0.005	0.049	2.681	1.895	1.899	1.899	1.919	1.909	1.914
0.010	0.015	0.000	0.000	0.005	0.005	0.049	2.671	1.890	1.895	1.895	1.914	1.904	1.914
-0.005	0.010	0.005	0.000	-0.005	0.005	0.044	2.686	1.885	1.890	1.890	1.909	1.899	1.909
0.000	0.015	0.005	0.000	-0.010	0.010	0.044	2.686	1.890	1.885	1.890	1.909	1.899	1.904
0.005	0.000	0.005	0.005	-0.005	0.010	0.039	2.686	1.895	1.885	1.890	1.909	1.904	1.904
0.000	-0.010	0.005	0.010	0.000	0.015	0.044	2.676	1.899	1.885	1.890	1.909	1.909	1.909
-0.005	-0.010	0.010	0.005	0.000	0.010	0.044	2.690	1.904	1.895	1.890	1.914	1.909	1.909
0.000	-0.010	0.000	0.005	0.000	0.015	0.044	2.671	1.904	1.899	1.895	1.914	1.914	1.909
-0.005	-0.005	0.005	0.005	-0.005	0.015	0.044	2.690	1.919	1.909	1.899	1.919	1.914	1.914
-0.005	0.000	0.000	0.010	-0.010	-0.005	0.044	2.671	1.919	1.919	1.909	1.924	1.914	1.914
-0.005	0.000	0.000	0.005	-0.005	0.010	0.044	2.676	1.914	1.919	1.909	1.924	1.919	1.919
-0.005	0.000	0.005	-0.005	-0.005	0.015	0.044	2.690	1.919	1.919	1.914	1.929	1.924	1.919
-0.005	0.015	0.005	-0.005	0.000	0.015	0.044	2.676	1.914	1.924	1.914	1.929	1.924	1.924
-0.010	0.005	-0.005	-0.015	0.010	-0.010	0.044	2.681	1.909	1.914	1.914	1.924	1.924	1.914
0.005	0.005	0.005	-0.005	-0.005	-0.010	0.049	2.671	1.904	1.909	1.914	1.929	1.919	1.914
0.005	0.005	0.005	0.000	0.005	-0.034	0.044	2.681	1.899	1.904	1.904	1.924	1.919	1.909
-0.005	0.020	0.000	0.000	0.005	-0.020	0.044	2.671	1.890	1.899	1.899	1.924	1.914	1.914
0.000	0.000	0.005	0.005	-0.005	-0.020	0.044	2.681	1.890	1.890	1.895	1.919	1.914	1.909
0.010	-0.010	0.000	0.010	0.010	-0.005	0.049	2.686	1.890	1.880	1.890	1.914	1.914	1.914
0.010	-0.010	0.000	0.005	0.000	-0.010	0.044	2.686	1.890	1.880	1.885	1.909	1.904	1.909
0.005	0.000	-0.005	0.005	0.000	-0.034	0.044	2.676	1.885	1.885	1.885	1.904	1.904	1.904
0.000	0.005	0.000	-0.005	0.005	-0.010	0.044	2.671	1.885	1.885	1.885	1.899	1.904	1.909
-0.005	0.000	0.000	0.000	-0.005	-0.029	0.049	2.695	1.895	1.890	1.885	1.904	1.904	1.899
0.000	-0.005	0.000	-0.005	-0.010	-0.005	0.044	2.690	1.899	1.890	1.890	1.909	1.904	1.914
0.000	0.000	-0.005	0.000	-0.015	-0.010	0.044	2.686	1.909	1.899	1.895	1.914	1.904	1.914
0.005	0.000	-0.005	0.010	-0.020	0.015	0.049	2.671	1.914	1.909	1.904	1.919	1.909	1.919
0.000	0.005	0.000	0.005	-0.024	0.020	0.049	2.695	1.919	1.914	1.909	1.924	1.914	1.924
0.000	-0.005	0.000	0.005	-0.015	0.024	0.044	2.700	1.919	1.914	1.909	1.929	1.919	1.929
0.000	-0.005	0.000	0.000	-0.010	0.024	0.044	2.681	1.914	1.914	1.914	1.924	1.919	1.924
0.000	-0.005	0.005	0.000	-0.020	0.020	0.039	2.686	1.914	1.914	1.914	1.929	1.919	1.919
0.000	-0.010	0.000	0.005	-0.015	0.020	0.044	2.676	1.909	1.909	1.909	1.929	1.919	1.919
0.010	-0.010	0.000	0.005	-0.010	0.005	0.044	2.686	1.904	1.904	1.904	1.924	1.919	1.914
0.000	-0.010	0.000	0.000	0.000	0.005	0.039	2.676	1.895	1.899	1.899	1.919	1.919	1.914
0.005	0.000	0.000	0.005	0.015	0.000	0.044	2.676	1.895	1.895	1.899	1.914	1.914	1.909
0.005	-0.010	0.005	-0.005	0.015	0.005	0.044	2.671	1.890	1.890	1.895	1.909	1.914	1.914
0.000	0.034	0.000	-0.005	0.020	0.000	0.044	2.676	1.885	1.899	1.890	1.909	1.909	1.904
0.005	0.054	0.000	-0.005	0.020	0.000	0.049	2.661	1.885	1.895	1.890	1.904	1.904	1.904
0.015	0.005	0.005	-0.005	0.015	0.000	0.049	2.681	1.885	1.880	1.885	1.904	1.904	1.904
0.000	-0.005	0.005	-0.005	0.015	0.010	0.049	2.686	1.890	1.880	1.885	1.909	1.904	1.909
0.000	0.000	0.005	0.000	0.005	0.005	0.044	2.690	1.899	1.890	1.890	1.909	1.904	1.909
-0.005	0.005	0.000	0.000	0.010	0.005	0.039	2.695	1.904	1.895	1.895	1.914	1.909	1.909
-0.005	-0.005	0.005	0.000	0.000	0.010	0.044	2.695	1.914	1.899	1.899	1.914	1.909	1.914
-0.005	0.000	0.000	0.010	0.000	-0.015	0.044	2.695	1.919	1.909	1.904	1.924	1.914	1.909
-0.005	0.015	0.005	0.020	0.005	0.010	0.049	2.676	1.919	1.919	1.909	1.929	1.919	1.924
-0.010	0.005	0.000	0.015	0.000	0.005	0.044	2.676	1.914	1.914	1.909	1.929	1.924	1.919
-0.010	0.000	0.005	0.010	0.005	0.005	0.044	2.690	1.914	1.914	1.914	1.929	1.924	1.924
-0.005	-0.005	0.005	0.010	0.005	0.005	0.044	2.686	1.914	1.914	1.914	1.929	1.924	1.919
0.000	-0.015	0.000	0.005	0.000	0.000	0.044	2.695	1.914	1.904	1.909	1.929	1.919	1.919
0.000	0.010	-0.005	0.005	0.005	0.005	0.044	2.681	1.904	1.909	1.904	1.919	1.919	1.919
0.000	-0.005	-0.005	0.000	0.000	-0.005	0.044	2.676	1.899	1.895	1.899	1.914	1.914	1.909
0.010	-0.015	0.000	0.000	0.010	0.005	0.049	2.686	1.899	1.890	1.895	1.914	1.909	1.914
0.000	-0.005	-0.005	-0.005	0.005	-0.005	0.044	2.686	1.895	1.890	1.890	1.904	1.909	1.909
0.005	0.005	0.000	-0.005	0.000	0.000	0.044	2.671	1.890	1.890	1.890	1.904	1.904	1.904
0.005	-0.010	-0.005	-0.010	0.000	-0.005	0.044	2.690	1.890	1.885	1.885	1.904	1.899	1.904
0.005	-0.005	0.000	-0.005	0.000	-0.024	0.044	2.671	1.885	1.885	1.885	1.904	1.899	1.895
0.000	0.005	0.000	-0.005	0.010	0.005	0.049	2.681	1.895	1.895	1.890	1.904	1.904	1.909
0.000	0.005	0.000	-0.005	0.005	0.010	0.044	2.690	1.899	1.899	1.890	1.909	1.904	1.909
0.005	0.005	0.000	0.000	0.000	0.010	0.039	2.690	1.904	1.904	1.895	1.914	1.909	1.909
-0.005	0.000	-0.005	0.000	0.000	-0.005	0.044	2.676	1.909	1.904	1.899	1.914	1.914	1.909
-0.010	-0.005	0.000	-0.005	0.005	-0.010	0.044	2.690	1.914	1.904	1.904	1.924	1.914	1.914
-0.005	0.005	0.005	-0.005	0.005	0.010	0.044	2.690	1.919	1.914	1.909	1.929	1.919	1.919
-0.005	0.010	0.010	0.005	0.000	-0.015	0.044	2.676	1.914	1.919	1.909	1.929	1.919	1.914
0.005	-0.005	0.005	0.000	-0.005	0.005	0.049	2.686	1.914	1.914	1.914	1.929	1.924	1.919
0.005	-0.010	0.000	0.000	-0.005	0.005	0.044	2.690	1.914	1.909	1.909	1.929	1.919	1.924
0.010	-0.015	0.000	0.005	0.000	0.005	0.044	2.671	1.904	1.904	1.904	1.929	1.924	1.919
0.000	-0.015	0.005	0.000	0.015	0.000	0.044	2.671	1.895	1.899	1.899	1.919	1.919	1.919
0.000	0.000	0.005	0.005	0.024	0.015	0.044	2.686	1.895	1.895	1.899	1.919	1.919	1.919
0.000	0.000	0.000	0.005	0.015	0.000	0.049	2.686	1.890	1.895	1.890	1.914	1.909	1.914
-0.005	0.000	0.000	0.010	-0.005	0.005	0.044	2.676	1.885	1.885	1.885	1.909	1.899	1.909
-0.005	0.010	-0.005	0.015	-0.010	0.005	0.044	2.676	1.880	1.890	1.885	1.909	1.899	1.904
0.015	0.005	0.010	0.015	0.000	0.010	0.044	2.686	1.895	1.885	1.885	1.909	1.904	1.904
0.000	0.000	0.005	0.010	-0.015	0.015	0.044	2.656	1.890	1.885	1.885	1.904	1.895	1.904
0.010	0.005	-0.005	-0.005	-0.073	0.020	0.044	2.808	1.914	1.895	1.890	1.899	1.885	1.904
0.015	0.029	0.000	-0.005	-0.073	0.005	0.044	2.651	1.909	1.904	1.895	1.904	1.890	1.899
0.029	0.029	0.000	-0.005	-0.054	-0.005	0.044	2.847	1.938	1.919	1.904	1.914	1.899	1.904
0.015	0.020	0.005	-0.005	-0.054	-0.015	0.044	2.686	1.934	1.919	1.909	1.919	1.904	1.895
0.010	0.000	0.000	-0.010	-0.044	-0.039	0.044	2.686	1.924	1.919	1.914	1.929	1.914	1.904
-0.010	0.010	0.005	-0.005	-0.049	-0.039	0.044	2.676	1.914	1.924	1.919	1.929	1.919	1.909
-0.015	0.000	0.000	-0.005	-0.034	-0.015	0.044	2.666	1.909	1.919	1.919	1.934	1.929	1.919
-0.020	-0.010	0.000	-0.005	0.010	-0.015	0.044	2.656	1.909	1.914	1.914	1.934	1.943	1.924
-0.024	0.000	0.000	0.000	0.049	0.005	0.039	2.666	1.899	1.909	1.914	1.934	1.948	1.943
-0.020	0.000	-0.005	0.005	0.044	-0.005	0.044	2.666	1.895	1.904	1.904	1.929	1.934	1.934
-0.020	0.000	-0.005	0.005	-0.020	-0.005	0.044	2.651	1.895	1.895	1.899	1.924	1.914	1.919
-0.005	-0.005	0.000	0.005	0.068	-0.010	0.044	2.651	1.890	1.890	1.895	1.919	1.938	1.929
-0.010	0.000	0.005	0.005	0.195	-0.005	0.044	2.651	1.885	1.885	1.890	1.919	1.963	1.938
0.005	0.005	0.005	0.005	0.190	0.015	0.044	2.690	1.890	1.885	1.890	1.909	1.938	1.943
0.005	0.000	0.005	0.000	0.127	0.044	0.044	2.666	1.895	1.880	1.885	1.909	1.914	1.938
0.000	0.000	-0.005	0.005	0.093	0.034	0.049	2.646	1.895	1.885	1.880	1.904	1.904	1.924
-0.005	0.005	0.005	0.005	0.068	0.034	0.044	2.837	1.919	1.895	1.885	1.904	1.895	1.919
0.000	0.005	0.000	0.005	0.024	0.020	0.044	2.686	1.919	1.904	1.895	1.909	1.885	1.909
0.010	0.005	0.000	0.000	-0.024	0.024	0.044	2.686	1.919	1.909	1.899	1.909	1.880	1.899
0.010	0.000	0.005	0.000	-0.039	0.020	0.049	2.676	1.924	1.919	1.904	1.914	1.885	1.895
0.005	0.010	0.000	0.000	-0.068	0.000	0.044	2.681	1.924	1.924	1.909	1.924	1.890	1.895
0.000	0.010	0.005	0.000	-0.049	-0.010	0.049	2.676	1.919	1.924	1.919	1.929	1.904	1.895
-0.005	0.010	0.000	0.000	-0.010	0.000	0.039	2.666	1.914	1.919	1.919	1.934	1.924	1.909
-0.005	0.005	0.000	0.000	-0.010	-0.005	0.049	2.671	1.909	1.919	1.919	1.934	1.924	1.909
-0.005	0.000	0.000	0.000	-0.039	0.020	0.044	2.656	1.909	1.914	1.914	1.934	1.919	1.919
0.010	0.000	0.000	0.000	-0.029	0.029	0.049	2.651	1.904	1.909	1.914	1.929	1.924	1.919
0.005	0.005	0.000	0.000	-0.024	0.015	0.044	2.656	1.890	1.899	1.904	1.929	1.924	1.919
0.000	0.005	0.005	-0.005	-0.010	0.000	0.044	2.671	1.890	1.895	1.899	1.919	1.924	1.909
-0.005	0.000	0.010	0.000	-0.005	-0.015	0.044	2.651	1.885	1.885	1.895	1.919	1.914	1.909
0.000	0.005	0.005	0.005	-0.010	-0.024	0.044	2.646	1.875	1.880	1.885	1.914	1.909	1.904
0.005	-0.005	0.000	0.005	-0.024	-0.020	0.044	2.778	1.895	1.880	1.880	1.904	1.904	1.899
0.010	0.005	0.000	0.010	-0.015	-0.005	0.044	2.686	1.895	1.885	1.885	1.904	1.904	1.909
0.010	0.000	0.000	0.000	-0.015	-0.005	0.044	2.676	1.899	1.885	1.885	1.904	1.904	1.909
0.005	-0.005	-0.005	0.000	-0.029	0.000	0.044	2.681	1.895	1.890	1.885	1.899	1.899	1.909
0.024	0.000	0.000	0.000	-0.029	-0.015	0.044	2.676	1.904	1.895	1.890	1.904	1.904	1.904
0.054	-0.005	0.005	0.000	-0.039	-0.010	0.039	2.671	1.919	1.904	1.895	1.909	1.899	1.904
0.039	0.000	0.000	0.000	-0.063	0.000	0.044	2.671	1.914	1.914	1.904	1.914	1.899	1.909
0.010	-0.005	0.000	0.005	-0.078	-0.010	0.049	2.676	1.904	1.909	1.904	1.919	1.904	1.904
-0.020	-0.010	0.000	0.000	-0.039	0.000	0.044	2.671	1.899	1.909	1.909	1.924	1.919	1.914
-0.029	-0.005	0.000	0.005	-0.010	0.005	0.049	2.656	1.895	1.909	1.909	1.924	1.929	1.924
-0.039	-0.010	0.000	0.000	0.020	0.005	0.044	2.627	1.890	1.904	1.909	1.924	1.938	1.924
-0.039	0.000	0.000	0.000	0.024	0.005	0.044	2.671	1.890	1.899	1.904	1.924	1.934	1.929
-0.024	0.068	0.005	0.005	0.073	0.000	0.049	2.808	1.914	1.919	1.909	1.924	1.943	1.929
-0.015	0.024	0.000	0.000	0.073	0.005	0.049	2.827	1.924	1.904	1.904	1.919	1.929	1.929
-0.005	-0.020	0.005	-0.005	0.039	0.015	0.044	2.822	1.914	1.890	1.895	1.914	1.914	1.924
-0.005	-0.029	-0.005	0.005	0.015	0.010	0.044	2.686	1.904	1.890	1.885	1.909	1.904	1.914
0.010	-0.015	0.000	0.000	0.015	0.015	0.049	2.676	1.899	1.895	1.890	1.904	1.904	1.914
0.005	-0.005	0.000	-0.005	0.010	0.010	0.044	2.686	1.895	1.895	1.885	1.904	1.895	1.904
0.005	-0.005	-0.005	0.005	-0.010	0.010	0.044	2.676	1.895	1.890	1.885	1.904	1.890	1.899
0.010	0.005	0.000	0.000	-0.010	0.020	0.044	2.671	1.904	1.895	1.890	1.904	1.895	1.899
0.000	0.005	-0.005	0.000	-0.010	0.015	0.044	2.676	1.895	1.899	1.895	1.909	1.899	1.904
-0.020	-0.005	0.000	0.000	0.005	0.010	0.044	2.676	1.895	1.899	1.895	1.914	1.909	1.904
-0.010	0.010	0.000	0.000	0.015	-0.010	0.039	2.681	1.909	1.909	1.899	1.919	1.914	1.909
-0.005	0.015	0.010	0.000	0.005	-0.005	0.044	2.661	1.914	1.914	1.909	1.924	1.914	1.909
0.010	0.000	0.000	0.005	0.020	-0.005	0.044	2.651	1.914	1.914	1.909	1.929	1.924	1.914
0.000	-0.010	0.005	0.000	0.000	-0.029	0.049	2.651	1.909	1.914	1.914	1.929	1.919	1.909
0.010	-0.005	0.000	0.005	-0.010	-0.010	0.049	2.808	1.929	1.919	1.914	1.934	1.919	1.919
0.015	0.000	0.000	0.005	-0.015	-0.020	0.049	2.642	1.919	1.919	1.914	1.929	1.919	1.914
0.005	0.005	0.000	0.000	-0.024	-0.034	0.044	2.646	1.904	1.914	1.914	1.929	1.914	1.909
0.005	-0.015	0.005	0.000	-0.024	-0.044	0.044	2.681	1.899	1.904	1.909	1.924	1.914	1.909
