-0.010	0.000	0.000	0.005	0.010	0.010	0.176	2.676	5.269	3.437	3.047	2.637	2.710	2.495
0.005	0.000	-0.005	0.000	0.005	-0.010	0.186	2.700	4.507	3.760	3.237	2.798	2.725	2.549
0.000	-0.005	0.010	0.000	0.005	0.015	0.176	2.676	3.940	3.828	3.398	2.959	2.783	2.622
-0.010	0.000	0.000	0.005	0.000	-0.034	0.181	2.710	3.540	3.760	3.496	3.110	2.861	2.671
-0.005	-0.005	0.000	0.000	0.000	-0.005	0.176	2.710	3.257	3.623	3.540	3.228	2.954	2.754
0.000	0.005	0.000	0.000	0.000	-0.029	0.181	2.710	3.052	3.477	3.525	3.315	3.052	2.827
0.005	0.015	0.005	0.005	0.005	0.015	0.176	2.705	2.905	3.320	3.472	3.364	3.135	2.915
0.000	0.000	0.000	0.000	0.005	0.010	0.181	2.676	2.803	3.179	3.394	3.379	3.198	2.988
0.000	0.005	0.000	0.000	-0.005	0.010	0.176	2.676	2.739	3.062	3.306	3.364	3.242	3.057
0.000	-0.010	0.005	0.000	-0.005	0.000	0.186	2.710	2.705	2.964	3.213	3.330	3.267	3.110
0.005	-0.010	0.000	0.000	0.005	-0.010	0.176	2.715	2.686	2.891	3.125	3.281	3.271	3.154
0.010	-0.005	0.000	0.010	0.010	-0.020	0.186	2.686	2.681	2.842	3.052	3.228	3.267	3.184
0.000	-0.005	0.000	0.000	0.005	0.000	0.176	2.686	2.676	2.803	2.983	3.169	3.242	3.208
0.000	-0.005	0.005	0.000	0.005	0.010	0.181	2.715	2.686	2.778	2.935	3.115	3.208	3.213
0.010	-0.005	0.005	0.005	0.005	0.005	0.181	2.715	2.690	2.764	2.886	3.062	3.169	3.203
0.010	0.020	0.000	0.000	0.000	0.010	0.181	2.715	2.695	2.754	2.852	3.008	3.125	3.184
-0.005	-0.015	0.000	0.000	-0.005	0.010	0.181	2.690	2.690	2.739	2.822	2.964	3.086	3.159
0.000	-0.005	0.005	0.005	0.005	0.010	0.176	2.686	2.686	2.725	2.793	2.925	3.042	3.130
-0.005	0.005	0.000	0.000	0.005	0.010	0.176	2.690	2.676	2.720	2.773	2.886	2.993	3.096
0.000	0.005	0.000	0.000	0.000	-0.015	0.181	2.710	2.671	2.710	2.754	2.856	2.954	3.047
-0.005	0.000	0.005	0.000	0.000	0.015	0.176	2.681	2.656	2.695	2.734	2.822	2.920	3.022
0.005	0.005	0.005	0.000	-0.005	0.015	0.181	2.710	2.651	2.686	2.720	2.798	2.876	2.979
0.005	0.005	0.005	0.000	-0.010	-0.020	0.176	2.695	2.637	2.671	2.700	2.773	2.847	2.930
0.005	0.000	0.000	0.000	0.000	-0.015	0.181	2.646	2.612	2.651	2.686	2.749	2.817	2.900
0.000	-0.005	0.005	0.005	0.005	0.000	0.181	2.661	2.598	2.637	2.671	2.729	2.793	2.871
0.005	0.005	0.005	0.005	0.000	0.010	0.181	2.788	2.603	2.632	2.661	2.715	2.769	2.852
0.000	0.005	0.000	0.000	0.010	0.015	0.171	2.646	2.588	2.622	2.646	2.705	2.754	2.822
-0.005	0.010	0.000	0.005	0.015	0.000	0.181	2.686	2.578	2.617	2.642	2.690	2.734	2.798
0.005	0.020	0.000	0.000	0.005	0.000	0.181	2.744	2.583	2.612	2.637	2.681	2.720	2.773
0.000	0.015	0.000	0.000	0.005	0.015	0.181	2.734	2.583	2.607	2.632	2.676	2.710	2.764
0.005	0.015	0.005	0.010	0.000	0.010	0.176	2.749	2.583	2.607	2.627	2.671	2.700	2.749
0.005	0.005	0.000	0.000	0.000	-0.010	0.181	2.754	2.578	2.598	2.622	2.661	2.686	2.729
0.000	-0.034	0.005	0.000	-0.005	0.015	0.181	2.676	2.559	2.583	2.612	2.656	2.681	2.720
0.000	-0.034	0.000	0.000	0.000	-0.005	0.176	2.729	2.559	2.578	2.603	2.651	2.671	2.705
0.000	-0.005	0.000	0.000	0.000	0.005	0.176	2.671	2.544	2.583	2.598	2.642	2.661	2.695
0.005	0.005	0.005	0.005	0.005	0.005	0.176	2.710	2.529	2.573	2.593	2.632	2.651	2.686
0.005	0.000	-0.005	0.000	0.005	0.010	0.181	2.671	2.515	2.554	2.578	2.622	2.642	2.676
0.005	0.010	0.000	0.000	0.000	0.015	0.181	2.715	2.510	2.544	2.563	2.607	2.627	2.661
0.000	0.010	0.005	0.005	0.000	-0.010	0.181	2.769	2.500	2.529	2.554	2.598	2.617	2.642
0.000	0.020	0.005	0.000	0.000	0.005	0.181	2.739	2.495	2.520	2.544	2.583	2.603	2.632
0.010	0.000	0.005	0.005	-0.005	-0.010	0.181	2.671	2.476	2.500	2.524	2.573	2.593	2.617
0.005	-0.015	0.000	0.000	0.000	0.010	0.181	2.710	2.461	2.480	2.510	2.559	2.578	2.607
0.005	-0.005	0.000	0.005	-0.005	0.010	0.181	2.676	2.456	2.480	2.500	2.549	2.568	2.598
0.005	-0.005	0.000	0.000	0.000	0.000	0.181	2.666	2.441	2.471	2.495	2.534	2.559	2.588
0.010	-0.010	0.000	0.000	0.005	-0.015	0.181	2.676	2.437	2.466	2.485	2.529	2.549	2.573
0.000	0.010	-0.005	0.000	0.010	-0.005	0.176	2.720	2.437	2.466	2.485	2.524	2.544	2.573
0.000	0.029	0.005	0.005	0.005	-0.005	0.186	2.710	2.441	2.471	2.485	2.520	2.539	2.563
0.000	-0.024	0.005	0.005	0.005	0.020	0.186	2.686	2.437	2.451	2.476	2.515	2.534	2.563
0.005	-0.029	0.000	0.000	0.000	0.010	0.181	2.676	2.427	2.446	2.471	2.505	2.524	2.554
0.000	0.000	-0.005	0.000	0.000	0.015	0.181	2.705	2.427	2.451	2.466	2.505	2.520	2.549
0.000	0.005	0.005	0.000	0.000	-0.010	0.186	2.705	2.422	2.446	2.466	2.495	2.515	2.529
-0.005	0.010	0.000	0.000	0.010	0.005	0.186	2.681	2.407	2.437	2.456	2.490	2.505	2.529
0.000	0.010	0.005	0.000	-0.005	-0.020	0.186	2.686	2.402	2.427	2.451	2.485	2.495	2.510
0.000	0.005	0.000	0.005	-0.010	-0.029	0.181	2.681	2.383	2.412	2.437	2.476	2.490	2.505
-0.005	0.010	0.000	0.005	0.000	0.015	0.186	2.715	2.373	2.402	2.422	2.461	2.480	2.505
0.000	0.029	0.000	0.005	0.005	0.015	0.176	2.700	2.358	2.393	2.412	2.451	2.471	2.495
0.005	0.005	0.000	0.000	0.005	0.010	0.181	2.686	2.344	2.368	2.393	2.437	2.461	2.480
0.000	0.010	0.000	0.000	0.005	0.000	0.181	2.700	2.334	2.358	2.383	2.427	2.446	2.471
0.000	0.005	-0.005	0.005	0.015	0.005	0.181	2.666	2.329	2.349	2.373	2.417	2.437	2.461
0.000	0.005	0.005	0.005	0.005	-0.015	0.181	2.705	2.329	2.339	2.363	2.407	2.422	2.446
0.015	0.005	0.005	0.005	-0.005	0.010	0.186	2.681	2.319	2.339	2.354	2.402	2.422	2.451
0.010	-0.005	0.005	0.005	0.005	-0.015	0.176	2.661	2.319	2.334	2.354	2.393	2.412	2.432
0.000	0.000	0.000	0.005	0.000	0.015	0.181	2.690	2.314	2.329	2.349	2.388	2.402	2.437
0.005	-0.005	0.005	-0.005	-0.005	0.010	0.176	2.651	2.314	2.329	2.349	2.383	2.397	2.422
0.005	-0.010	0.005	0.000	0.005	0.010	0.186	2.661	2.310	2.324	2.344	2.378	2.397	2.417
0.000	-0.020	0.005	0.000	0.010	0.005	0.176	2.783	2.319	2.329	2.339	2.373	2.393	2.412
0.005	0.034	0.000	0.005	0.005	0.005	0.190	2.651	2.314	2.344	2.344	2.373	2.388	2.412
-0.010	0.034	0.005	0.000	0.000	0.005	0.181	2.734	2.310	2.334	2.339	2.368	2.383	2.402
-0.005	-0.005	0.000	-0.005	0.000	0.005	0.181	2.739	2.300	2.310	2.329	2.363	2.373	2.393
-0.005	-0.020	-0.005	0.000	0.000	-0.005	0.181	2.637	2.285	2.300	2.319	2.354	2.368	2.388
-0.005	-0.029	-0.005	0.000	0.005	0.000	0.181	2.622	2.271	2.285	2.305	2.344	2.358	2.378
0.000	-0.015	0.000	0.000	0.005	0.005	0.181	2.754	2.271	2.285	2.300	2.339	2.349	2.368
0.015	-0.005	0.005	0.005	0.005	0.000	0.181	2.642	2.256	2.275	2.290	2.324	2.344	2.358
0.000	0.005	0.000	0.000	0.010	0.010	0.176	2.637	2.236	2.266	2.285	2.319	2.334	2.354
0.005	0.005	0.005	0.005	0.005	0.010	0.181	2.690	2.231	2.251	2.271	2.305	2.324	2.344
0.000	0.015	0.000	0.000	0.010	0.000	0.176	2.710	2.231	2.246	2.266	2.300	2.314	2.329
-0.005	0.010	0.000	0.000	0.005	0.005	0.186	2.695	2.231	2.241	2.256	2.295	2.305	2.324
-0.005	0.000	0.000	0.005	-0.005	-0.010	0.181	2.622	2.217	2.236	2.251	2.290	2.295	2.314
0.005	-0.005	0.000	0.005	0.000	0.005	0.186	2.783	2.231	2.236	2.246	2.285	2.300	2.314
0.005	0.010	0.010	0.000	0.000	0.000	0.181	2.656	2.227	2.241	2.251	2.280	2.295	2.314
0.000	0.010	0.000	0.005	-0.005	0.005	0.181	2.671	2.227	2.241	2.246	2.280	2.290	2.310
0.005	0.015	0.000	0.000	0.000	0.010	0.181	2.705	2.231	2.241	2.251	2.280	2.290	2.310
0.005	-0.005	0.005	0.000	0.000	0.010	0.186	2.690	2.222	2.236	2.246	2.275	2.290	2.305
-0.010	-0.005	0.000	0.005	0.005	0.015	0.181	2.700	2.217	2.236	2.246	2.275	2.285	2.305
-0.005	0.005	0.005	0.000	0.005	-0.005	0.186	2.705	2.217	2.231	2.241	2.271	2.280	2.295
0.005	0.000	0.005	0.005	0.000	0.005	0.181	2.681	2.212	2.222	2.236	2.266	2.275	2.285
0.000	0.010	0.000	0.005	0.005	0.005	0.186	2.710	2.197	2.217	2.227	2.256	2.266	2.285
0.000	0.005	0.005	0.005	-0.005	0.000	0.186	2.705	2.192	2.207	2.217	2.251	2.261	2.275
-0.010	0.020	0.005	0.005	0.000	0.005	0.190	2.681	2.183	2.202	2.212	2.241	2.256	2.266
-0.005	0.020	0.000	0.000	0.010	0.000	0.181	2.676	2.168	2.187	2.202	2.231	2.246	2.261
-0.005	0.000	0.000	0.005	0.000	0.000	0.186	2.705	2.163	2.178	2.192	2.227	2.236	2.251
-0.005	0.000	0.005	0.000	-0.005	0.000	0.176	2.686	2.158	2.168	2.183	2.217	2.227	2.236
0.000	0.010	0.005	0.005	0.000	0.005	0.186	2.690	2.158	2.168	2.183	2.207	2.222	2.236
0.005	0.015	-0.005	0.000	0.005	-0.010	0.176	2.671	2.153	2.163	2.173	2.207	2.217	2.227
0.010	0.020	0.005	0.005	0.005	0.015	0.181	2.725	2.158	2.168	2.173	2.202	2.217	2.231
0.005	-0.005	0.010	0.005	0.000	0.020	0.176	2.720	2.158	2.163	2.173	2.202	2.212	2.227
0.000	0.000	0.000	0.000	0.005	0.000	0.181	2.681	2.158	2.163	2.173	2.202	2.212	2.222
0.000	0.005	0.000	0.005	0.005	0.010	0.181	2.700	2.163	2.168	2.173	2.197	2.207	2.222
0.005	-0.005	0.000	0.005	0.010	-0.005	0.186	2.676	2.158	2.168	2.173	2.197	2.207	2.217
-0.010	0.010	0.010	0.000	0.005	-0.005	0.176	2.686	2.158	2.168	2.173	2.197	2.202	2.217
0.000	-0.010	0.005	-0.005	-0.005	0.005	0.181	2.666	2.153	2.163	2.173	2.197	2.202	2.212
0.000	-0.020	0.000	0.000	0.010	0.005	0.181	2.671	2.148	2.153	2.168	2.192	2.197	2.212
0.000	-0.024	0.000	0.000	0.005	0.000	0.181	2.700	2.139	2.148	2.158	2.187	2.192	2.202
-0.005	-0.005	0.000	0.000	0.000	-0.020	0.176	2.656	2.129	2.148	2.153	2.183	2.187	2.192
-0.005	0.010	-0.005	0.000	0.005	0.010	0.186	2.642	2.114	2.139	2.148	2.173	2.183	2.192
0.000	0.020	0.000	0.005	0.005	0.010	0.181	2.793	2.119	2.134	2.144	2.168	2.178	2.187
0.010	0.020	0.000	0.005	-0.010	0.005	0.181	2.646	2.104	2.124	2.134	2.163	2.163	2.183
0.010	0.005	0.000	0.000	-0.005	0.000	0.181	2.734	2.104	2.114	2.124	2.153	2.163	2.173
0.005	-0.015	0.000	0.005	0.000	0.005	0.181	2.734	2.104	2.104	2.114	2.148	2.158	2.168
0.005	-0.010	-0.005	-0.005	0.000	0.000	0.176	2.637	2.095	2.104	2.109	2.144	2.148	2.163
0.005	0.005	0.000	0.000	0.000	-0.029	0.186	2.681	2.090	2.104	2.109	2.139	2.144	2.148
-0.005	-0.005	0.000	0.000	0.000	-0.015	0.176	2.749	2.100	2.100	2.109	2.139	2.144	2.158
-0.005	-0.005	0.000	0.000	0.005	0.020	0.181	2.686	2.100	2.100	2.109	2.139	2.148	2.163
-0.005	-0.015	-0.005	0.005	0.005	-0.010	0.176	2.632	2.100	2.104	2.109	2.139	2.144	2.153
0.005	0.015	0.000	0.005	0.000	0.024	0.181	2.681	2.100	2.109	2.114	2.139	2.144	2.158
0.000	0.010	0.010	0.000	0.000	0.020	0.176	2.734	2.104	2.109	2.114	2.139	2.144	2.153
0.005	0.000	0.005	0.000	0.000	0.010	0.181	2.705	2.109	2.114	2.114	2.139	2.144	2.153
0.005	-0.005	0.000	0.005	0.000	0.005	0.181	2.622	2.095	2.104	2.114	2.139	2.144	2.148
0.005	-0.005	-0.005	0.000	0.005	-0.005	0.181	2.778	2.100	2.104	2.114	2.139	2.139	2.139
0.000	0.010	0.000	0.000	0.000	-0.020	0.176	2.651	2.085	2.100	2.109	2.134	2.134	2.139
0.000	0.005	0.005	0.000	-0.005	-0.005	0.186	2.715	2.080	2.090	2.100	2.129	2.129	2.129
0.000	0.010	0.000	0.005	0.005	0.005	0.181	2.700	2.075	2.085	2.095	2.119	2.124	2.134
0.005	0.010	0.000	0.000	-0.005	-0.015	0.181	2.681	2.065	2.070	2.085	2.114	2.114	2.119
-0.005	0.005	0.005	0.000	-0.005	0.005	0.176	2.681	2.056	2.065	2.075	2.104	2.109	2.119
0.005	-0.020	0.005	0.000	-0.005	0.010	0.181	2.705	2.056	2.051	2.065	2.100	2.104	2.114
0.005	-0.005	0.000	0.000	0.000	0.000	0.181	2.676	2.051	2.056	2.065	2.090	2.100	2.109
0.000	-0.010	0.005	0.005	0.005	0.000	0.181	2.705	2.051	2.051	2.061	2.090	2.090	2.104
-0.005	-0.005	0.005	-0.005	0.000	-0.005	0.176	2.676	2.046	2.051	2.056	2.085	2.095	2.100
0.005	0.000	0.005	0.005	0.005	-0.010	0.181	2.710	2.061	2.061	2.061	2.085	2.095	2.100
0.005	0.010	-0.005	0.005	0.015	0.000	0.181	2.710	2.061	2.065	2.065	2.085	2.095	2.104
0.005	0.020	0.000	0.005	0.010	0.010	0.181	2.710	2.065	2.070	2.070	2.090	2.090	2.100
0.005	0.010	0.000	0.005	0.005	0.015	0.176	2.676	2.065	2.065	2.070	2.095	2.095	2.100
0.005	-0.010	0.005	0.000	0.005	0.010	0.176	2.710	2.065	2.065	2.070	2.095	2.095	2.100
0.005	-0.005	0.000	0.005	0.005	0.000	0.181	2.710	2.065	2.070	2.070	2.095	2.095	2.100
0.000	0.005	0.000	0.000	0.000	0.000	0.181	2.715	2.065	2.070	2.070	2.090	2.090	2.100
0.005	0.000	0.005	0.000	0.005	0.000	0.186	2.720	2.061	2.065	2.070	2.090	2.090	2.095
-0.005	0.005	0.000	0.000	0.000	0.000	0.181	2.681	2.041	2.061	2.065	2.085	2.085	2.090
0.000	-0.005	0.000	0.005	0.000	0.010	0.181	2.705	2.041	2.046	2.056	2.080	2.080	2.090
0.010	0.000	0.005	0.000	0.000	0.010	0.176	2.676	2.036	2.041	2.051	2.075	2.075	2.080
0.000	0.020	0.005	0.000	-0.005	0.005	0.176	2.676	2.021	2.036	2.041	2.070	2.070	2.080
0.000	0.029	0.000	0.005	0.000	0.005	0.176	2.681	2.012	2.031	2.036	2.065	2.065	2.070
-0.005	0.000	0.005	0.000	0.005	-0.015	0.181	2.666	2.007	2.012	2.026	2.056	2.061	2.061
-0.005	-0.015	0.000	0.000	0.005	0.015	0.181	2.695	2.017	2.012	2.021	2.051	2.056	2.070
-0.005	0.010	0.000	-0.005	0.005	-0.005	0.181	2.651	2.012	2.017	2.021	2.046	2.056	2.061
-0.005	-0.005	0.005	0.000	0.000	0.005	0.181	2.661	2.012	2.012	2.017	2.046	2.051	2.061
0.005	0.005	0.005	0.005	0.005	-0.020	0.186	2.788	2.036	2.026	2.021	2.046	2.051	2.056
-0.010	0.010	0.000	0.000	0.005	0.010	0.186	2.646	2.026	2.026	2.026	2.046	2.056	2.065
0.000	0.010	0.000	0.005	0.005	0.005	0.186	2.739	2.036	2.031	2.026	2.051	2.051	2.061
0.005	0.000	-0.005	-0.005	0.005	0.005	0.176	2.651	2.031	2.031	2.031	2.056	2.056	2.061
-0.005	-0.005	-0.005	0.000	-0.005	0.000	0.186	2.739	2.036	2.036	2.031	2.056	2.051	2.061
0.000	0.000	-0.005	0.000	0.005	-0.015	0.181	2.632	2.026	2.036	2.031	2.056	2.051	2.056
0.010	0.005	-0.005	0.000	0.000	0.005	0.181	2.622	2.026	2.031	2.036	2.051	2.051	2.061
0.015	0.005	0.000	0.000	0.000	0.005	0.176	2.681	2.021	2.031	2.031	2.051	2.051	2.056
0.005	-0.005	0.000	0.000	0.005	0.010	0.181	2.637	2.012	2.021	2.026	2.051	2.046	2.051
0.000	-0.005	0.000	0.000	0.000	0.010	0.176	2.666	2.002	2.012	2.021	2.046	2.041	2.046
0.005	0.005	-0.005	0.005	0.005	0.000	0.186	2.632	1.987	2.002	2.012	2.041	2.036	2.041
0.005	0.005	0.000	0.005	0.000	-0.005	0.176	2.686	1.987	1.997	2.007	2.031	2.031	2.036
0.005	0.000	0.000	0.005	-0.005	-0.020	0.186	2.720	1.987	1.987	1.997	2.026	2.026	2.026
0.000	0.000	0.010	0.000	-0.005	0.000	0.181	2.798	1.997	1.987	1.992	2.021	2.026	2.026
0.000	-0.005	0.000	0.010	-0.010	0.005	0.186	2.617	1.997	1.992	1.992	2.021	2.021	2.026
0.000	0.005	0.005	0.000	0.000	0.000	0.181	2.710	1.997	1.992	1.992	2.017	2.021	2.026
0.010	0.010	0.000	0.005	0.010	-0.005	0.181	2.715	2.007	1.997	1.997	2.017	2.021	2.026
-0.010	0.015	0.005	0.000	0.005	0.005	0.176	2.686	2.002	2.002	2.002	2.017	2.021	2.026
0.000	-0.005	0.010	0.010	0.005	-0.005	0.186	2.715	2.007	2.002	2.007	2.026	2.021	2.021
0.010	-0.005	0.010	0.000	0.000	0.015	0.181	2.690	2.012	2.007	2.007	2.021	2.021	2.031
0.000	-0.005	0.000	0.000	0.000	0.010	0.186	2.720	2.007	2.012	2.012	2.026	2.026	2.026
0.000	-0.005	0.000	0.000	-0.005	0.015	0.176	2.700	2.012	2.012	2.012	2.026	2.026	2.031
0.000	0.005	0.005	0.005	0.000	0.015	0.190	2.720	2.012	2.017	2.017	2.031	2.026	2.026
0.000	-0.005	0.005	0.005	0.005	0.010	0.176	2.686	1.997	2.012	2.012	2.031	2.026	2.026
-0.005	-0.005	0.005	0.000	0.005	-0.010	0.186	2.710	1.997	2.007	2.007	2.031	2.026	2.026
0.005	0.015	0.000	0.005	0.005	0.010	0.181	2.715	1.997	2.002	2.002	2.026	2.021	2.026
0.005	0.015	0.005	0.000	0.000	0.005	0.186	2.671	1.987	1.997	2.002	2.021	2.021	2.021
0.000	0.034	0.005	0.000	0.000	-0.024	0.176	2.700	1.973	1.992	1.992	2.017	2.012	2.012
0.005	-0.010	0.000	0.000	0.005	0.005	0.186	2.700	1.968	1.968	1.982	2.012	2.007	2.017
-0.010	-0.005	0.000	0.005	0.000	0.010	0.181	2.681	1.963	1.968	1.973	2.002	2.007	2.007
-0.005	0.000	0.005	0.005	0.005	-0.015	0.190	2.705	1.973	1.968	1.973	2.002	2.002	2.002
0.005	-0.010	0.005	0.000	0.000	0.000	0.176	2.676	1.968	1.963	1.968	1.997	1.997	2.007
0.000	-0.015	0.005	0.000	0.005	0.000	0.186	2.671	1.968	1.963	1.973	1.992	2.002	2.002
0.010	0.015	0.000	0.000	0.005	-0.005	0.181	2.710	1.978	1.978	1.973	1.992	1.997	2.002
-0.005	-0.005	0.000	0.000	0.005	0.000	0.186	2.700	1.982	1.978	1.973	1.992	1.997	2.002
0.010	-0.015	-0.005	0.005	0.010	0.005	0.181	2.681	1.987	1.982	1.978	1.997	2.002	2.007
0.005	-0.010	-0.005	0.005	0.000	0.000	0.181	2.666	1.982	1.987	1.982	2.002	2.002	2.007
0.010	-0.005	0.000	0.010	0.000	0.000	0.181	2.700	1.987	1.992	1.987	2.007	2.002	2.007
0.000	0.010	0.005	0.005	0.005	0.010	0.186	2.642	1.978	1.992	1.992	2.007	2.002	2.012
-0.010	0.005	0.000	0.005	0.000	0.010	0.176	2.651	1.973	1.987	1.987	2.007	2.002	2.007
0.010	0.015	0.000	0.010	0.000	-0.005	0.186	2.773	1.987	1.987	1.987	2.007	2.002	2.002
0.000	-0.015	0.005	0.005	0.000	0.000	0.181	2.651	1.973	1.973	1.982	2.002	2.002	2.002
-0.010	-0.005	0.005	0.000	0.000	0.005	0.181	2.725	1.948	1.968	1.973	1.997	1.997	2.002
-0.005	0.000	0.000	0.005	0.005	0.010	0.181	2.729	1.953	1.963	1.968	1.992	1.992	1.992
0.005	0.005	-0.005	0.000	0.000	-0.015	0.181	2.671	1.948	1.958	1.958	1.987	1.987	1.982
-0.005	0.005	0.000	0.000	-0.005	0.005	0.181	2.656	1.943	1.948	1.953	1.978	1.982	1.987
0.000	0.000	0.005	0.000	0.000	0.000	0.181	2.754	1.953	1.943	1.948	1.978	1.978	1.982
0.010	0.010	0.005	0.005	0.000	0.010	0.181	2.681	1.948	1.948	1.948	1.973	1.973	1.982
0.000	0.010	0.000	0.005	0.000	0.000	0.181	2.725	1.953	1.948	1.948	1.973	1.973	1.978
0.010	0.010	0.000	0.000	0.010	0.010	0.176	2.700	1.958	1.953	1.948	1.973	1.973	1.978
0.005	0.015	0.000	0.000	0.005	-0.020	0.181	2.720	1.968	1.963	1.953	1.973	1.973	1.973
0.000	0.020	0.000	0.000	0.005	0.005	0.176	2.686	1.968	1.968	1.958	1.978	1.978	1.982
0.000	-0.015	0.005	0.000	0.005	0.010	0.181	2.622	1.973	1.963	1.963	1.978	1.978	1.987
-0.005	-0.010	0.005	0.000	-0.005	0.010	0.181	2.793	1.982	1.973	1.963	1.982	1.978	1.982
0.000	-0.005	0.005	0.005	0.000	0.000	0.181	2.661	1.992	1.978	1.973	1.987	1.982	1.982
-0.005	-0.015	0.005	0.000	0.010	0.000	0.176	2.710	1.982	1.978	1.973	1.992	1.987	1.982
0.000	-0.010	0.000	0.005	0.000	0.000	0.181	2.705	1.978	1.978	1.973	1.992	1.982	1.982
-0.005	-0.010	0.005	0.000	0.005	-0.010	0.186	2.676	1.968	1.978	1.973	1.992	1.987	1.982
0.005	0.000	0.005	0.005	0.005	-0.024	0.186	2.676	1.963	1.973	1.973	1.987	1.982	1.978
-0.005	0.010	0.000	0.010	0.005	0.010	0.186	2.695	1.948	1.968	1.968	1.987	1.982	1.987
-0.005	0.010	0.000	0.000	0.000	0.005	0.181	2.676	1.938	1.953	1.963	1.978	1.978	1.982
0.000	0.010	0.000	0.000	0.005	0.000	0.181	2.700	1.943	1.948	1.958	1.973	1.973	1.973
0.000	0.010	-0.005	0.000	-0.005	-0.005	0.181	2.690	1.934	1.943	1.948	1.968	1.968	1.968
0.000	0.024	-0.005	0.005	-0.005	0.005	0.186	2.676	1.934	1.943	1.943	1.968	1.968	1.968
0.005	0.010	0.000	0.000	0.000	0.015	0.186	2.666	1.934	1.934	1.938	1.963	1.963	1.973
0.005	-0.024	0.000	0.005	0.000	0.010	0.181	2.715	1.938	1.924	1.934	1.963	1.963	1.968
0.005	-0.024	0.000	0.000	0.000	0.010	0.181	2.671	1.943	1.934	1.938	1.958	1.963	1.968
0.005	-0.024	0.000	0.005	0.005	0.000	0.181	2.676	1.943	1.938	1.938	1.963	1.963	1.968
0.000	0.000	0.000	0.005	0.000	0.000	0.186	2.710	1.953	1.953	1.943	1.963	1.968	1.968
0.005	0.000	0.000	0.000	0.000	-0.015	0.181	2.705	1.958	1.953	1.948	1.968	1.963	1.968
0.000	0.010	-0.005	0.005	0.005	0.000	0.186	2.715	1.963	1.963	1.953	1.973	1.968	1.973
0.005	0.015	0.005	0.010	0.005	-0.010	0.181	2.681	1.963	1.968	1.963	1.978	1.973	1.973
-0.005	0.000	0.005	0.000	0.005	0.020	0.181	2.686	1.953	1.963	1.963	1.978	1.973	1.978
0.005	0.005	0.005	0.000	0.000	-0.015	0.181	2.676	1.953	1.958	1.963	1.978	1.973	1.973
0.000	0.005	0.000	0.000	0.000	-0.020	0.181	2.676	1.943	1.953	1.953	1.973	1.968	1.963
-0.005	0.015	0.000	0.000	0.010	0.000	0.181	2.676	1.938	1.948	1.953	1.973	1.968	1.973
0.005	0.029	0.000	-0.005	-0.005	0.000	0.176	2.705	1.938	1.948	1.948	1.968	1.963	1.968
0.000	0.020	0.000	0.000	0.000	-0.005	0.181	2.690	1.929	1.934	1.938	1.963	1.958	1.963
0.005	0.010	0.000	0.000	0.000	0.000	0.181	2.642	1.919	1.919	1.934	1.958	1.953	1.958
-0.005	-0.034	-0.005	-0.005	0.005	-0.034	0.181	2.656	1.909	1.909	1.924	1.953	1.953	1.948
-0.010	-0.010	0.000	0.000	0.010	0.010	0.181	2.788	1.924	1.919	1.919	1.948	1.953	1.958
0.005	0.005	0.000	0.000	0.010	0.015	0.181	2.646	1.924	1.919	1.919	1.943	1.948	1.958
-0.005	0.010	0.005	0.000	0.005	0.005	0.176	2.739	1.934	1.929	1.924	1.943	1.943	1.953
0.000	0.015	0.000	0.000	0.005	0.000	0.181	2.720	1.938	1.934	1.924	1.948	1.948	1.948
0.000	0.000	0.005	0.000	0.005	-0.005	0.181	2.656	1.943	1.934	1.934	1.948	1.948	1.948
0.005	0.010	0.000	0.000	-0.005	-0.005	0.190	2.642	1.938	1.938	1.938	1.953	1.948	1.953
0.000	0.010	0.000	0.005	0.000	0.005	0.181	2.734	1.948	1.948	1.943	1.958	1.953	1.958
0.000	0.005	0.000	0.005	0.005	-0.005	0.181	2.642	1.943	1.948	1.943	1.963	1.958	1.953
0.000	0.010	0.005	0.000	0.000	0.000	0.181	2.637	1.938	1.943	1.943	1.963	1.958	1.958
0.000	0.024	0.005	0.005	0.005	0.005	0.186	2.666	1.938	1.948	1.948	1.968	1.958	1.963
0.010	0.015	0.010	0.000	0.000	-0.010	0.176	2.720	1.943	1.948	1.948	1.963	1.963	1.958
0.005	0.010	0.015	0.010	0.005	0.010	0.186	2.700	1.938	1.938	1.943	1.958	1.958	1.963
0.000	0.010	0.005	0.005	0.000	0.005	0.181	2.617	1.924	1.934	1.938	1.953	1.953	1.953
0.000	0.005	0.000	0.010	-0.005	0.000	0.181	2.773	1.929	1.924	1.929	1.953	1.948	1.948
0.000	0.005	0.005	0.000	-0.005	0.005	0.181	2.661	1.919	1.919	1.924	1.948	1.943	1.948
0.010	0.015	-0.005	0.005	0.000	0.010	0.190	2.705	1.919	1.919	1.919	1.943	1.943	1.948
0.005	0.029	-0.005	0.005	-0.005	0.010	0.181	2.705	1.919	1.919	1.919	1.938	1.938	1.938
-0.005	-0.024	0.000	0.000	-0.005	0.005	0.181	2.676	1.909	1.899	1.909	1.934	1.934	1.938
0.005	-0.024	0.000	-0.005	0.000	-0.015	0.181	2.715	1.919	1.909	1.909	1.934	1.934	1.934
0.000	-0.005	-0.005	-0.005	0.005	-0.005	0.186	2.676	1.919	1.914	1.909	1.934	1.929	1.938
-0.005	-0.005	0.000	0.000	0.000	0.005	0.186	2.705	1.929	1.919	1.919	1.934	1.938	1.943
-0.005	-0.005	0.000	0.000	0.005	0.024	0.186	2.715	1.929	1.924	1.919	1.938	1.938	1.943
0.000	0.000	0.005	0.005	0.005	0.015	0.181	2.676	1.938	1.934	1.929	1.943	1.943	1.948
-0.005	0.010	0.000	0.000	0.000	0.005	0.186	2.681	1.943	1.938	1.929	1.948	1.943	1.943
0.005	0.000	0.000	0.000	0.005	0.000	0.181	2.686	1.943	1.943	1.934	1.948	1.948	1.943
0.005	0.010	0.000	-0.005	0.000	0.000	0.186	2.715	1.943	1.943	1.938	1.953	1.948	1.948
0.000	-0.010	0.005	-0.005	0.000	0.000	0.181	2.676	1.938	1.938	1.938	1.953	1.948	1.943
0.010	0.000	0.000	0.000	0.005	-0.005	0.186	2.676	1.929	1.938	1.943	1.953	1.948	1.943
0.000	-0.005	0.005	0.000	0.000	0.000	0.181	2.710	1.929	1.929	1.934	1.953	1.943	1.948
-0.005	0.000	0.005	-0.005	0.000	-0.005	0.181	2.715	1.924	1.924	1.929	1.948	1.943	1.943
0.000	0.010	0.005	0.005	-0.015	-0.010	0.181	2.720	1.924	1.924	1.924	1.948	1.938	1.938
0.000	0.029	0.005	0.000	-0.005	0.010	0.186	2.676	1.914	1.924	1.924	1.938	1.934	1.938
0.010	0.005	0.005	0.000	0.000	0.010	0.181	2.681	1.914	1.909	1.914	1.938	1.938	1.934
0.000	0.005	0.005	0.000	-0.015	0.010	0.186	2.715	1.909	1.904	1.909	1.934	1.929	1.929
0.015	-0.005	0.000	0.000	-0.005	-0.005	0.181	2.671	1.909	1.904	1.909	1.929	1.929	1.929
0.010	-0.005	0.000	0.000	0.000	0.015	0.190	2.676	1.909	1.904	1.904	1.929	1.934	1.934
-0.005	-0.034	0.000	0.000	0.000	0.000	0.176	2.715	1.919	1.904	1.904	1.929	1.934	1.929
0.000	0.005	0.005	0.005	0.015	0.015	0.190	2.695	1.924	1.924	1.914	1.934	1.938	1.943
0.005	0.044	0.000	0.000	0.010	0.015	0.176	2.661	1.929	1.934	1.919	1.934	1.938	1.938
0.005	0.015	0.005	0.005	0.015	0.010	0.181	2.661	1.929	1.929	1.929	1.943	1.938	1.938
0.000	-0.005	0.005	0.005	0.010	0.000	0.181	2.793	1.938	1.929	1.929	1.943	1.938	1.938
-0.010	-0.010	-0.005	0.005	0.020	-0.010	0.186	2.651	1.934	1.929	1.929	1.948	1.948	1.938
-0.005	0.000	-0.005	0.005	0.015	-0.020	0.176	2.734	1.934	1.934	1.929	1.948	1.943	1.938
-0.005	-0.015	-0.005	0.005	0.029	-0.039	0.181	2.734	1.934	1.924	1.929	1.948	1.948	1.938
0.005	-0.010	0.005	0.005	0.029	-0.010	0.181	2.637	1.924	1.929	1.929	1.943	1.943	1.943
0.000	-0.010	0.005	0.010	0.024	-0.015	0.181	2.622	1.909	1.919	1.924	1.943	1.943	1.938
0.005	0.000	0.005	0.005	0.020	-0.020	0.181	2.749	1.919	1.919	1.919	1.938	1.938	1.938
0.000	0.000	0.000	0.005	0.015	-0.015	0.181	2.686	1.909	1.909	1.914	1.934	1.934	1.934
0.000	-0.010	0.005	0.010	0.010	-0.015	0.176	2.622	1.899	1.904	1.909	1.929	1.929	1.934
-0.005	0.005	0.005	0.005	0.010	0.000	0.181	2.690	1.895	1.904	1.904	1.929	1.924	1.929
0.000	0.020	0.005	0.000	0.005	-0.010	0.181	2.725	1.904	1.904	1.904	1.924	1.919	1.924
0.000	-0.029	0.000	0.000	0.005	0.005	0.186	2.681	1.904	1.890	1.899	1.919	1.919	1.924
0.005	-0.005	0.005	0.000	0.000	-0.024	0.176	2.632	1.909	1.904	1.895	1.919	1.919	1.919
0.000	0.005	0.000	0.005	0.005	0.005	0.186	2.769	1.919	1.909	1.904	1.924	1.919	1.929
0.005	0.005	0.000	0.005	0.000	0.010	0.176	2.646	1.914	1.919	1.909	1.924	1.919	1.929
0.005	0.010	0.005	0.005	0.005	0.005	0.181	2.720	1.929	1.924	1.914	1.934	1.929	1.929
0.000	0.000	0.005	0.005	0.000	0.005	0.176	2.710	1.929	1.929	1.924	1.934	1.929	1.929
-0.005	0.000	0.000	0.010	0.005	0.005	0.186	2.681	1.929	1.929	1.924	1.943	1.934	1.934
0.000	0.000	-0.005	0.005	0.005	0.000	0.181	2.705	1.934	1.929	1.924	1.943	1.934	1.934
0.010	0.005	0.005	0.000	-0.005	0.005	0.186	2.710	1.934	1.929	1.929	1.943	1.934	1.938
0.010	0.005	0.005	0.000	-0.010	0.015	0.181	2.710	1.929	1.929	1.929	1.943	1.934	1.934
0.005	0.000	0.005	0.005	-0.010	0.024	0.181	2.695	1.924	1.929	1.924	1.943	1.938	1.938
0.000	0.005	0.000	0.005	-0.005	0.015	0.186	2.671	1.914	1.919	1.919	1.938	1.934	1.934
-0.005	0.000	0.000	-0.005	-0.005	0.015	0.181	2.705	1.914	1.914	1.914	1.934	1.929	1.929
-0.005	0.000	0.000	0.000	-0.020	0.015	0.176	2.710	1.909	1.909	1.909	1.929	1.924	1.929
0.010	0.000	0.000	0.000	-0.015	0.015	0.181	2.700	1.909	1.904	1.909	1.924	1.919	1.924
0.000	0.015	0.000	0.000	-0.010	0.015	0.176	2.676	1.904	1.904	1.904	1.924	1.919	1.919
-0.005	0.005	0.005	0.000	-0.010	0.020	0.181	2.705	1.899	1.899	1.899	1.919	1.919	1.919
0.010	-0.005	0.005	0.000	-0.005	0.010	0.176	2.705	1.909	1.899	1.899	1.919	1.919	1.919
-0.005	-0.005	0.010	0.005	0.000	0.000	0.181	2.710	1.909	1.899	1.904	1.924	1.919	1.914
0.000	0.010	0.000	0.005	-0.005	0.000	0.176	2.705	1.919	1.914	1.909	1.929	1.924	1.919
0.005	0.020	0.000	0.000	-0.005	0.000	0.181	2.686	1.919	1.919	1.909	1.929	1.924	1.919
0.005	0.010	0.000	0.000	-0.015	-0.020	0.176	2.710	1.924	1.919	1.914	1.934	1.924	1.919
-0.005	0.005	0.000	0.005	-0.020	-0.039	0.181	2.671	1.924	1.924	1.919	1.934	1.924	1.919
0.005	-0.005	0.005	0.005	-0.010	-0.029	0.176	2.705	1.924	1.924	1.924	1.938	1.934	1.929
-0.005	-0.010	0.000	0.005	0.000	0.020	0.181	2.676	1.924	1.924	1.924	1.943	1.938	1.943
0.000	0.000	0.005	0.000	-0.010	0.020	0.181	2.676	1.919	1.924	1.924	1.938	1.934	1.938
-0.005	-0.005	0.000	0.000	-0.010	0.024	0.181	2.690	1.919	1.919	1.924	1.938	1.934	1.938
0.000	0.005	0.000	0.000	0.010	0.015	0.181	2.661	1.909	1.919	1.919	1.938	1.934	1.934
0.000	0.010	0.000	0.005	0.015	0.010	0.176	2.651	1.899	1.909	1.914	1.934	1.938	1.934
0.000	0.005	0.000	0.005	0.015	-0.005	0.181	2.788	1.909	1.904	1.904	1.929	1.929	1.929
-0.005	-0.005	0.005	0.000	0.000	-0.020	0.181	2.651	1.895	1.895	1.899	1.919	1.919	1.919
0.000	0.005	0.000	0.000	-0.005	0.010	0.181	2.720	1.895	1.895	1.895	1.919	1.919	1.924
0.015	0.005	0.000	0.000	0.000	0.000	0.181	2.720	1.909	1.899	1.895	1.914	1.919	1.919
0.005	0.005	0.000	0.000	-0.005	0.005	0.181	2.769	1.909	1.899	1.895	1.914	1.909	1.914
0.005	0.010	0.005	0.000	0.000	0.010	0.181	2.617	1.899	1.899	1.899	1.914	1.914	1.919
0.000	0.005	0.005	0.000	0.020	0.015	0.181	2.734	1.909	1.899	1.899	1.919	1.919	1.919
-0.005	-0.010	0.000	0.005	0.010	0.015	0.176	2.651	1.909	1.899	1.899	1.919	1.919	1.924
0.005	-0.024	-0.005	0.005	0.010	0.005	0.181	2.725	1.919	1.904	1.899	1.924	1.919	1.919
0.005	-0.015	0.000	0.000	-0.005	0.010	0.181	2.695	1.924	1.919	1.909	1.924	1.919	1.924
0.010	0.005	0.000	0.000	-0.005	0.000	0.181	2.622	1.938	1.934	1.919	1.929	1.924	1.924
0.010	0.010	0.005	0.005	0.000	0.010	0.181	2.710	1.938	1.934	1.924	1.938	1.929	1.929
0.000	0.005	0.005	0.005	0.010	0.005	0.181	2.637	1.924	1.929	1.929	1.938	1.934	1.929
0.000	0.005	0.000	0.005	0.000	-0.015	0.181	2.788	1.929	1.934	1.924	1.938	1.934	1.924
0.000	0.015	0.000	0.005	0.005	0.000	0.186	2.656	1.919	1.929	1.924	1.938	1.934	1.934
0.000	0.010	-0.005	0.000	0.005	0.000	0.181	2.695	1.909	1.919	1.924	1.938	1.929	1.929
0.005	0.005	0.005	0.000	0.010	0.015	0.186	2.715	1.909	1.914	1.919	1.934	1.929	1.929
-0.005	0.010	-0.005	0.005	0.000	0.005	0.181	2.671	1.890	1.904	1.909	1.929	1.924	1.924
0.005	0.000	-0.005	0.005	0.010	0.015	0.186	2.705	1.890	1.890	1.899	1.924	1.919	1.924
-0.005	-0.010	0.000	0.000	0.010	0.015	0.186	2.690	1.890	1.890	1.895	1.919	1.919	1.919
0.000	0.005	0.005	0.000	0.005	0.010	0.186	2.656	1.890	1.890	1.895	1.914	1.914	1.919
0.000	0.000	0.000	0.005	0.005	0.000	0.181	2.705	1.890	1.885	1.890	1.914	1.914	1.919
0.000	-0.005	0.005	0.000	0.000	0.000	0.181	2.715	1.904	1.890	1.895	1.914	1.909	1.914
-0.005	0.000	0.000	0.005	0.000	-0.005	0.181	2.695	1.914	1.899	1.895	1.914	1.909	1.914
0.000	-0.005	0.000	0.000	-0.005	-0.020	0.181	2.700	1.914	1.904	1.899	1.914	1.914	1.914
-0.005	-0.005	-0.005	0.005	0.005	0.005	0.181	2.720	1.919	1.909	1.904	1.924	1.914	1.919
0.005	0.005	0.010	0.000	0.000	0.005	0.186	2.686	1.924	1.919	1.909	1.924	1.919	1.924
-0.005	0.005	0.005	0.005	0.000	-0.010	0.176	2.671	1.919	1.924	1.914	1.929	1.924	1.919
0.000	0.005	0.000	0.000	0.010	-0.005	0.181	2.710	1.924	1.924	1.919	1.934	1.929	1.929
0.000	0.005	0.005	0.000	-0.005	0.010	0.186	2.725	1.924	1.924	1.919	1.934	1.929	1.934
0.005	0.015	0.005	0.005	0.005	0.005	0.186	2.705	1.924	1.929	1.924	1.934	1.929	1.929
0.005	0.005	0.000	0.000	-0.005	-0.005	0.181	2.681	1.909	1.914	1.914	1.934	1.929	1.929
0.000	-0.005	0.000	0.000	0.005	0.010	0.186	2.710	1.914	1.909	1.909	1.934	1.924	1.924
0.005	-0.005	0.005	0.005	0.010	0.005	0.176	2.681	1.904	1.904	1.909	1.929	1.924	1.919
0.000	0.005	0.000	0.000	0.000	-0.005	0.186	2.676	1.890	1.904	1.899	1.924	1.919	1.914
0.000	0.005	0.000	0.005	0.005	-0.005	0.181	2.671	1.885	1.890	1.895	1.919	1.914	1.914
0.010	0.005	0.000	0.000	0.000	-0.005	0.181	2.676	1.890	1.890	1.890	1.914	1.909	1.909
0.000	0.005	0.005	0.000	0.000	0.000	0.176	2.681	1.885	1.885	1.890	1.909	1.909	1.909
0.000	-0.010	0.005	0.010	-0.005	-0.005	0.186	2.661	1.885	1.880	1.885	1.914	1.909	1.909
0.000	0.005	0.005	0.000	0.000	-0.015	0.186	2.651	1.890	1.890	1.890	1.909	1.909	1.904
-0.005	0.034	0.000	0.000	-0.010	0.010	0.181	2.798	1.914	1.904	1.895	1.914	1.909	1.919
0.000	0.000	0.000	0.000	-0.005	-0.005	0.181	2.646	1.909	1.899	1.895	1.914	1.914	1.914
0.005	-0.005	0.005	0.000	0.000	-0.029	0.186	2.739	1.919	1.904	1.899	1.919	1.914	1.909
-0.010	-0.010	-0.005	0.005	0.010	-0.005	0.181	2.734	1.924	1.909	1.904	1.924	1.924	1.924
-0.010	-0.010	0.005	0.000	0.010	0.015	0.186	2.773	1.934	1.919	1.914	1.929	1.924	1.929
0.000	-0.029	0.000	0.005	0.005	0.010	0.181	2.749	1.938	1.924	1.914	1.929	1.924	1.924
0.000	0.005	0.005	0.000	0.005	0.010	0.186	2.725	1.929	1.934	1.919	1.934	1.924	1.924
0.000	0.010	0.000	0.000	0.000	0.005	0.176	2.651	1.924	1.929	1.919	1.934	1.924	1.924
0.000	0.000	0.000	0.000	0.010	-0.024	0.181	2.627	1.904	1.924	1.919	1.934	1.924	1.914
0.005	0.015	0.000	0.005	-0.005	0.015	0.176	2.671	1.899	1.914	1.914	1.929	1.924	1.924
0.005	0.000	-0.005	0.000	-0.005	0.020	0.181	2.622	1.895	1.899	1.909	1.924	1.919	1.919
-0.005	-0.005	-0.005	0.000	-0.005	0.015	0.176	2.666	1.890	1.895	1.899	1.924	1.919	1.919
0.000	0.000	-0.005	0.000	0.000	0.000	0.181	2.622	1.880	1.885	1.890	1.914	1.914	1.909
0.010	0.000	0.000	0.000	0.000	0.020	0.186	2.808	1.895	1.885	1.890	1.914	1.909	1.909
0.005	0.005	0.005	0.005	0.000	0.005	0.186	2.656	1.890	1.890	1.890	1.914	1.909	1.904
0.005	0.010	0.005	0.000	0.000	0.005	0.181	2.681	1.890	1.890	1.890	1.909	1.909	1.909
-0.005	0.010	0.005	0.000	0.000	-0.005	0.186	2.710	1.904	1.895	1.890	1.909	1.909	1.909
-0.005	0.005	0.005	0.005	0.000	0.005	0.181	2.686	1.904	1.899	1.895	1.919	1.909	1.914
0.005	-0.005	0.005	0.000	0.005	0.005	0.181	2.700	1.914	1.899	1.895	1.919	1.914	1.914
-0.005	0.010	0.000	0.000	0.005	0.005	0.176	2.715	1.919	1.914	1.904	1.919	1.919	1.919
0.005	0.015	0.005	0.000	0.000	0.000	0.181	2.686	1.929	1.924	1.909	1.924	1.919	1.919
0.010	0.015	0.000	0.000	0.000	0.000	0.181	2.715	1.929	1.924	1.914	1.934	1.919	1.919
0.000	0.015	0.005	0.000	0.000	0.000	0.186	2.681	1.919	1.924	1.919	1.934	1.924	1.924
0.000	-0.015	0.005	0.000	0.000	-0.005	0.171	2.671	1.914	1.914	1.914	1.934	1.924	1.919
-0.005	-0.020	0.005	0.005	-0.005	-0.005	0.181	2.710	1.909	1.909	1.909	1.934	1.924	1.919
0.005	-0.005	0.005	0.000	0.000	-0.010	0.181	2.710	1.909	1.909	1.909	1.929	1.924	1.914
0.000	0.005	0.000	0.000	-0.005	0.000	0.181	2.671	1.899	1.904	1.904	1.924	1.919	1.919
0.005	0.005	0.000	0.005	0.005	0.010	0.181	2.686	1.895	1.899	1.899	1.919	1.919	1.919
0.000	0.000	-0.005	0.005	0.010	0.015	0.181	2.695	1.895	1.890	1.890	1.914	1.914	1.919
-0.010	0.005	0.000	0.000	0.005	-0.015	0.181	2.715	1.895	1.890	1.895	1.909	1.909	1.909
0.005	0.010	0.000	0.000	0.000	0.010	0.181	2.710	1.895	1.890	1.890	1.909	1.909	1.909
0.000	0.000	0.000	0.005	-0.010	-0.010	0.181	2.686	1.895	1.885	1.890	1.909	1.904	1.899
-0.010	-0.010	0.005	0.005	-0.005	-0.015	0.186	2.686	1.895	1.885	1.885	1.909	1.904	1.904
0.005	-0.020	0.010	0.005	0.000	0.015	0.181	2.695	1.899	1.890	1.890	1.909	1.909	1.914
0.005	-0.015	0.005	0.005	0.000	0.015	0.181	2.710	1.909	1.899	1.895	1.909	1.909	1.919
0.010	-0.020	0.000	0.005	0.000	-0.020	0.176	2.676	1.909	1.909	1.899	1.914	1.914	1.904
0.000	0.005	0.005	0.000	0.000	0.010	0.181	2.681	1.909	1.914	1.904	1.919	1.914	1.919
-0.005	0.039	0.005	0.005	0.010	0.005	0.176	2.690	1.914	1.924	1.914	1.924	1.919	1.924
0.005	0.000	0.000	0.000	0.010	-0.010	0.181	2.642	1.909	1.914	1.914	1.934	1.924	1.924
0.010	-0.005	0.005	0.000	0.000	-0.005	0.176	2.656	1.909	1.914	1.909	1.929	1.924	1.914
-0.005	0.000	0.000	0.005	0.000	-0.010	0.176	2.793	1.919	1.914	1.914	1.929	1.924	1.919
-0.010	-0.005	0.000	-0.005	0.005	0.010	0.176	2.642	1.904	1.904	1.909	1.924	1.924	1.924
-0.005	0.010	0.000	0.000	0.000	-0.010	0.181	2.725	1.904	1.904	1.904	1.924	1.919	1.919
0.000	-0.010	-0.005	0.000	0.005	0.020	0.181	2.646	1.895	1.890	1.895	1.919	1.919	1.919
0.005	-0.020	0.000	0.000	0.000	0.015	0.181	2.632	1.885	1.885	1.890	1.914	1.909	1.914
0.005	-0.010	0.000	0.000	0.000	0.005	0.181	2.725	1.899	1.890	1.885	1.909	1.904	1.914
0.000	0.020	0.000	0.005	-0.005	0.010	0.186	2.754	1.904	1.895	1.885	1.909	1.904	1.904
0.010	-0.005	-0.005	0.000	0.000	-0.005	0.176	2.656	1.890	1.885	1.885	1.904	1.899	1.904
0.005	0.005	0.005	0.005	-0.005	0.005	0.186	2.627	1.890	1.895	1.890	1.909	1.904	1.904
0.000	0.044	0.005	0.000	0.005	-0.020	0.181	2.700	1.895	1.904	1.895	1.909	1.904	1.904
0.005	0.029	0.000	0.005	0.005	-0.015	0.181	2.666	1.890	1.895	1.895	1.909	1.909	1.904
0.005	0.020	0.005	0.005	0.000	0.010	0.181	2.710	1.904	1.899	1.899	1.919	1.909	1.914
-0.005	0.010	-0.005	0.000	0.005	0.005	0.181	2.700	1.909	1.899	1.899	1.919	1.914	1.914
0.000	0.000	0.000	0.005	0.005	0.010	0.186	2.817	1.929	1.909	1.904	1.924	1.919	1.919
0.000	-0.015	0.005	0.000	0.000	0.005	0.181	2.617	1.919	1.914	1.914	1.929	1.919	1.919
0.005	-0.010	0.000	0.005	-0.005	0.005	0.181	2.700	1.909	1.914	1.909	1.929	1.919	1.919
-0.005	-0.020	0.005	0.000	0.005	-0.020	0.181	2.705	1.909	1.909	1.909	1.929	1.924	1.914
0.000	-0.029	0.000	0.000	0.005	-0.024	0.181	2.676	1.904	1.904	1.909	1.929	1.919	1.914
0.000	-0.005	0.000	0.000	0.005	0.010	0.181	2.715	1.904	1.909	1.904	1.924	1.919	1.924
0.000	0.020	-0.005	0.005	0.000	0.015	0.181	2.676	1.904	1.909	1.904	1.919	1.914	1.919
0.005	0.034	-0.005	0.005	0.005	-0.005	0.181	2.710	1.899	1.904	1.899	1.919	1.914	1.909
0.005	0.029	0.000	0.000	0.005	0.000	0.186	2.715	1.895	1.899	1.899	1.914	1.909	1.914
0.005	-0.015	0.000	0.000	0.000	0.000	0.181	2.676	1.885	1.880	1.890	1.909	1.904	1.909
0.000	-0.020	-0.005	0.000	0.000	0.005	0.186	2.700	1.885	1.875	1.885	1.909	1.904	1.904
0.005	-0.010	-0.005	0.005	0.000	-0.005	0.181	2.681	1.885	1.885	1.885	1.904	1.904	1.899
0.005	0.000	0.000	0.005	0.005	0.000	0.186	2.720	1.895	1.890	1.885	1.904	1.904	1.904
-0.005	0.010	0.000	0.000	0.000	-0.005	0.176	2.686	1.895	1.890	1.885	1.904	1.899	1.904
-0.005	-0.020	0.000	0.000	0.005	-0.015	0.181	2.671	1.895	1.885	1.890	1.909	1.904	1.904
0.005	-0.015	0.005	0.010	0.000	0.005	0.186	2.715	1.904	1.899	1.895	1.914	1.909	1.914
0.010	-0.005	0.005	0.000	0.000	-0.024	0.186	2.690	1.914	1.909	1.899	1.914	1.909	1.909
-0.005	0.005	0.005	0.005	0.005	0.005	0.181	2.686	1.914	1.914	1.909	1.924	1.919	1.924
0.005	0.034	0.005	0.000	0.010	0.010	0.186	2.681	1.919	1.924	1.914	1.924	1.924	1.924
0.000	0.015	0.000	0.005	0.010	0.015	0.181	2.676	1.914	1.919	1.914	1.929	1.924	1.924
0.005	0.010	0.000	0.005	0.005	0.005	0.186	2.686	1.909	1.914	1.914	1.929	1.919	1.919
-0.005	0.005	-0.005	0.005	-0.005	0.010	0.176	2.710	1.904	1.909	1.909	1.929	1.919	1.919
0.000	0.024	-0.005	0.000	-0.005	0.015	0.181	2.705	1.904	1.904	1.904	1.924	1.914	1.919
0.005	0.000	0.000	0.000	0.005	0.005	0.176	2.710	1.899	1.895	1.899	1.919	1.914	1.909
-0.005	-0.010	-0.005	0.000	0.005	-0.005	0.181	2.690	1.890	1.890	1.890	1.914	1.914	1.909
-0.005	-0.010	0.000	-0.005	0.000	-0.005	0.181	2.642	1.880	1.880	1.890	1.909	1.904	1.904
0.000	0.000	0.000	0.000	-0.005	-0.015	0.181	2.656	1.880	1.885	1.885	1.904	1.899	1.899
0.005	0.010	0.000	0.005	0.000	-0.020	0.181	2.783	1.895	1.885	1.880	1.904	1.904	1.899
0.000	0.005	0.005	0.000	0.005	0.000	0.186	2.646	1.885	1.880	1.885	1.904	1.904	1.904
0.000	0.005	0.000	0.005	0.005	-0.020	0.181	2.729	1.895	1.885	1.885	1.904	1.899	1.899
-0.005	0.010	0.000	0.005	-0.005	0.015	0.181	2.734	1.899	1.890	1.890	1.904	1.899	1.909
0.005	0.015	0.000	0.000	0.000	0.015	0.181	2.720	1.914	1.904	1.895	1.914	1.904	1.909
0.010	0.015	0.000	-0.005	0.000	-0.005	0.186	2.729	1.919	1.904	1.899	1.914	1.909	1.904
0.005	0.005	0.005	0.000	0.005	0.000	0.176	2.769	1.929	1.914	1.909	1.919	1.914	1.914
0.000	0.005	0.000	0.000	0.000	0.000	0.186	2.681	1.919	1.919	1.914	1.924	1.919	1.914
0.005	-0.005	0.005	0.000	0.000	0.015	0.176	2.729	1.924	1.919	1.914	1.934	1.919	1.919
0.005	0.000	0.000	-0.005	0.005	0.010	0.176	2.705	1.919	1.919	1.914	1.934	1.924	1.919
0.000	-0.024	0.000	0.000	0.005	-0.020	0.176	2.705	1.914	1.914	1.914	1.929	1.924	1.914
-0.005	-0.029	0.005	0.005	0.005	0.000	0.186	2.690	1.909	1.909	1.909	1.929	1.924	1.924
0.000	-0.015	0.000	0.005	0.005	-0.005	0.176	2.622	1.895	1.909	1.904	1.924	1.924	1.919
0.005	0.000	-0.005	0.000	0.000	0.005	0.186	2.783	1.899	1.904	1.899	1.924	1.919	1.914
0.000	0.005	0.010	0.000	-0.005	0.005	0.181	2.661	1.890	1.895	1.899	1.919	1.909	1.914
-0.005	0.005	0.010	0.005	0.000	0.020	0.186	2.710	1.885	1.890	1.895	1.914	1.909	1.914
-0.005	0.005	0.000	0.005	0.005	-0.005	0.176	2.700	1.885	1.885	1.890	1.914	1.909	1.909
0.000	0.000	0.010	0.000	0.005	0.010	0.186	2.686	1.890	1.885	1.885	1.909	1.909	1.909
0.000	0.005	0.000	0.005	0.005	-0.005	0.176	2.715	1.890	1.890	1.885	1.904	1.904	1.909
0.000	-0.005	0.000	0.000	0.000	0.005	0.186	2.705	1.899	1.890	1.885	1.909	1.904	1.909
0.005	0.005	0.005	0.005	0.000	-0.005	0.181	2.676	1.899	1.899	1.890	1.909	1.904	1.909
0.000	0.005	0.005	0.005	-0.005	0.020	0.181	2.705	1.904	1.899	1.899	1.914	1.909	1.914
-0.005	-0.005	0.005	-0.005	0.000	0.015	0.181	2.686	1.909	1.899	1.899	1.919	1.914	1.914
-0.005	0.010	0.000	0.000	0.000	-0.015	0.181	2.681	1.909	1.909	1.904	1.919	1.914	1.909
0.005	-0.015	0.000	0.000	0.005	0.000	0.181	2.700	1.914	1.909	1.909	1.924	1.919	1.914
-0.005	-0.015	0.005	0.000	0.005	0.005	0.186	2.715	1.914	1.909	1.909	1.929	1.919	1.919
0.000	-0.005	0.005	0.005	0.000	0.005	0.181	2.686	1.914	1.914	1.914	1.929	1.924	1.919
0.010	0.000	0.000	0.005	0.005	0.000	0.186	2.695	1.914	1.914	1.909	1.929	1.919	1.919
0.000	0.015	0.005	0.005	0.010	0.000	0.181	2.710	1.909	1.909	1.909	1.929	1.919	1.914
0.005	0.015	0.000	0.005	0.010	0.005	0.186	2.705	1.899	1.904	1.904	1.924	1.919	1.919
0.000	0.015	0.000	0.000	0.000	0.005	0.181	2.715	1.895	1.899	1.899	1.919	1.909	1.914
0.005	0.000	0.000	0.000	0.000	0.000	0.181	2.671	1.890	1.890	1.895	1.909	1.909	1.909
0.000	-0.020	0.000	0.005	0.000	-0.005	0.176	2.690	1.885	1.880	1.890	1.909	1.904	1.904
0.005	-0.015	-0.005	0.000	0.005	0.010	0.186	2.681	1.885	1.875	1.885	1.904	1.904	1.909
0.000	0.020	0.000	0.005	0.000	0.000	0.176	2.686	1.890	1.890	1.885	1.904	1.904	1.904
0.000	0.015	0.000	0.005	0.000	-0.005	0.181	2.681	1.885	1.890	1.885	1.904	1.899	1.904
0.010	0.010	-0.005	0.005	0.000	0.010	0.181	2.710	1.899	1.890	1.885	1.904	1.904	1.904
0.005	0.005	0.005	0.000	0.005	0.010	0.186	2.695	1.899	1.895	1.895	1.909	1.909	1.909
-0.005	-0.015	0.005	0.005	0.005	0.015	0.176	2.666	1.899	1.890	1.895	1.914	1.909	1.914
0.000	-0.005	0.005	0.005	0.000	0.000	0.186	2.656	1.904	1.899	1.895	1.914	1.909	1.909
-0.005	0.005	-0.005	0.000	0.000	-0.005	0.176	2.798	1.919	1.914	1.899	1.914	1.909	1.909
0.010	0.005	-0.005	0.000	-0.005	-0.005	0.186	2.651	1.919	1.914	1.909	1.919	1.914	1.914
0.000	0.005	0.000	0.005	-0.010	-0.010	0.176	2.666	1.914	1.914	1.909	1.924	1.914	1.914
0.005	0.010	0.005	0.000	-0.005	0.000	0.186	2.637	1.919	1.914	1.909	1.924	1.914	1.914
-0.005	0.010	0.005	0.005	0.000	-0.020	0.181	2.754	1.919	1.914	1.909	1.924	1.919	1.909
-0.005	0.000	0.000	0.005	0.000	-0.015	0.181	2.720	1.909	1.909	1.904	1.924	1.919	1.914
0.000	0.005	0.005	0.005	-0.005	0.005	0.176	2.729	1.909	1.904	1.904	1.919	1.914	1.914
0.005	0.015	-0.005	0.005	-0.005	-0.005	0.181	2.642	1.899	1.904	1.899	1.919	1.909	1.909
0.000	-0.010	-0.005	0.000	0.010	-0.015	0.181	2.627	1.880	1.885	1.895	1.914	1.914	1.904
0.005	-0.015	-0.005	0.005	0.005	-0.005	0.181	2.686	1.875	1.880	1.885	1.909	1.904	1.909
0.010	0.010	0.000	0.000	-0.005	0.005	0.176	2.725	1.890	1.890	1.885	1.904	1.899	1.909
0.000	0.000	0.000	0.000	0.010	0.024	0.181	2.705	1.890	1.885	1.885	1.909	1.909	1.909
-0.005	-0.010	0.000	0.005	0.024	0.020	0.181	2.651	1.890	1.880	1.885	1.909	1.909	1.909
0.000	-0.010	0.000	0.000	0.020	0.000	0.181	2.778	1.904	1.890	1.885	1.904	1.909	1.904
0.015	-0.010	0.005	0.000	0.005	0.005	0.181	2.666	1.904	1.895	1.890	1.909	1.904	1.909
-0.005	0.049	0.005	0.000	-0.015	0.010	0.186	2.715	1.914	1.919	1.899	1.914	1.899	1.909
-0.005	0.010	0.000	0.000	-0.010	-0.010	0.176	2.705	1.914	1.909	1.904	1.919	1.909	1.904
-0.005	-0.015	0.005	0.010	0.000	0.015	0.186	2.676	1.914	1.909	1.909	1.924	1.919	1.919
0.010	-0.005	0.000	0.000	-0.005	0.010	0.181	2.695	1.919	1.914	1.909	1.929	1.919	1.919
0.000	-0.010	0.000	0.005	-0.010	0.005	0.181	2.715	1.914	1.914	1.909	1.924	1.919	1.914
0.005	0.005	0.005	0.005	-0.005	0.010	0.176	2.705	1.914	1.919	1.914	1.929	1.919	1.919
-0.005	0.015	0.005	0.005	0.005	0.010	0.181	2.700	1.904	1.909	1.914	1.929	1.924	1.919
0.000	-0.005	0.000	0.000	0.005	0.000	0.176	2.681	1.899	1.899	1.904	1.924	1.919	1.914
0.010	0.000	-0.005	0.000	0.015	-0.010	0.181	2.710	1.899	1.899	1.899	1.919	1.919	1.909
0.000	0.005	0.000	0.005	0.015	-0.015	0.181	2.705	1.890	1.890	1.895	1.914	1.914	1.909
0.005	0.000	0.000	0.005	0.005	-0.020	0.181	2.700	1.895	1.890	1.890	1.909	1.909	1.904
0.005	-0.005	-0.005	0.000	0.005	0.015	0.181	2.676	1.885	1.880	1.885	1.904	1.904	1.909
0.005	0.015	0.005	0.005	0.005	-0.005	0.181	2.686	1.890	1.890	1.885	1.904	1.899	1.899
0.005	0.005	0.000	0.005	0.000	0.000	0.181	2.686	1.885	1.885	1.880	1.904	1.899	1.899
0.000	0.000	0.005	0.005	0.000	0.005	0.186	2.705	1.890	1.890	1.885	1.904	1.904	1.909
0.005	0.005	0.000	0.000	0.000	0.010	0.181	2.715	1.904	1.895	1.890	1.909	1.904	1.909
0.005	-0.005	0.000	0.005	0.005	0.015	0.186	2.690	1.904	1.899	1.890	1.914	1.909	1.909
-0.005	0.005	0.000	0.000	0.000	0.005	0.186	2.686	1.904	1.904	1.899	1.909	1.909	1.914
-0.005	0.015	0.005	0.010	0.000	0.005	0.181	2.705	1.914	1.914	1.904	1.919	1.914	1.914
-0.005	0.020	0.005	0.000	0.000	0.010	0.181	2.715	1.914	1.919	1.909	1.924	1.914	1.919
0.000	0.020	0.005	0.005	0.005	0.010	0.181	2.690	1.919	1.919	1.909	1.929	1.924	1.919
0.005	-0.010	0.000	0.005	0.010	0.005	0.181	2.671	1.914	1.909	1.909	1.924	1.924	1.924
0.005	0.029	0.000	0.005	0.005	-0.020	0.176	2.695	1.909	1.919	1.909	1.929	1.919	1.909
0.005	0.015	0.000	0.005	0.005	0.010	0.186	2.656	1.895	1.904	1.909	1.924	1.919	1.919
0.005	-0.020	-0.005	0.005	0.000	0.005	0.181	2.656	1.890	1.890	1.899	1.919	1.914	1.914
0.010	-0.020	0.000	0.005	0.000	0.000	0.181	2.778	1.899	1.890	1.895	1.914	1.909	1.914
-0.010	-0.010	0.000	0.005	-0.005	-0.015	0.181	2.646	1.885	1.885	1.890	1.909	1.904	1.904
-0.005	0.034	0.005	0.000	0.000	-0.015	0.181	2.720	1.885	1.890	1.885	1.909	1.904	1.899
0.000	0.000	0.000	0.000	0.000	0.010	0.176	2.729	1.890	1.880	1.885	1.904	1.899	1.909
0.005	0.020	0.010	0.005	-0.005	0.010	0.181	2.632	1.895	1.890	1.885	1.904	1.899	1.904
0.005	0.005	0.005	0.005	0.000	0.024	0.181	2.754	1.904	1.890	1.885	1.904	1.904	1.909
0.010	-0.039	-0.005	0.005	0.005	0.015	0.186	2.729	1.909	1.880	1.880	1.904	1.899	1.904
0.005	-0.024	-0.005	0.005	0.005	0.015	0.181	2.671	1.904	1.895	1.890	1.904	1.904	1.909
0.000	-0.005	0.000	0.000	0.005	-0.010	0.186	2.642	1.904	1.909	1.899	1.914	1.904	1.899
0.000	0.000	0.000	0.000	0.005	0.020	0.181	2.700	1.909	1.914	1.904	1.919	1.909	1.914
0.000	-0.005	0.005	0.000	0.000	0.015	0.181	2.676	1.914	1.914	1.904	1.919	1.914	1.914
0.005	0.005	0.005	0.000	0.000	0.015	0.181	2.676	1.914	1.924	1.914	1.929	1.919	1.919
0.000	0.005	0.000	0.000	0.000	0.010	0.186	2.617	1.904	1.919	1.914	1.929	1.914	1.914
0.010	0.015	0.000	0.000	0.005	0.000	0.176	2.783	1.914	1.914	1.914	1.929	1.919	1.914
-0.005	-0.005	0.000	0.000	0.000	-0.005	0.186	2.651	1.899	1.904	1.909	1.929	1.919	1.919
0.010	0.000	0.005	0.005	0.005	0.005	0.176	2.661	1.895	1.904	1.904	1.924	1.919	1.914
0.005	0.005	-0.005	0.000	-0.005	-0.034	0.181	2.695	1.895	1.895	1.899	1.919	1.909	1.904
0.000	0.005	0.000	0.005	0.000	-0.010	0.176	2.676	1.890	1.890	1.895	1.919	1.909	1.909
0.000	0.000	0.005	0.005	0.005	0.005	0.186	2.686	1.880	1.885	1.885	1.909	1.909	1.909
0.000	0.005	0.000	0.010	0.005	-0.029	0.181	2.710	1.885	1.875	1.880	1.909	1.909	1.899
0.000	0.005	0.000	0.000	0.005	0.005	0.186	2.700	1.885	1.880	1.880	1.904	1.899	1.904
0.000	-0.005	-0.005	0.000	0.000	0.000	0.176	2.700	1.890	1.880	1.880	1.899	1.899	1.904
0.000	0.005	-0.005	0.000	0.005	0.000	0.181	2.676	1.890	1.885	1.880	1.899	1.904	1.909
0.010	0.010	-0.005	0.000	0.000	0.000	0.181	2.695	1.899	1.890	1.885	1.904	1.899	1.904
0.010	0.005	-0.005	0.000	0.005	0.000	0.181	2.676	1.904	1.899	1.890	1.909	1.904	1.904
0.000	0.010	0.000	0.000	0.000	-0.024	0.186	2.720	1.909	1.904	1.895	1.914	1.909	1.899
0.005	0.000	0.005	0.005	0.000	0.010	0.181	2.676	1.914	1.909	1.899	1.919	1.909	1.914
0.000	0.010	0.005	0.000	0.000	-0.010	0.176	2.676	1.909	1.909	1.909	1.919	1.909	1.909
0.005	0.010	0.010	0.010	0.000	0.010	0.186	2.695	1.914	1.914	1.909	1.924	1.914	1.919
0.000	0.000	0.005	0.010	0.005	0.024	0.176	2.720	1.914	1.914	1.909	1.929	1.924	1.924
0.000	-0.015	0.000	0.005	-0.010	0.015	0.181	2.715	1.914	1.909	1.904	1.924	1.919	1.919
0.005	0.000	0.000	0.000	-0.005	-0.010	0.176	2.676	1.904	1.909	1.904	1.919	1.914	1.909
0.000	0.000	0.000	0.000	0.005	0.015	0.186	2.700	1.904	1.909	1.904	1.919	1.919	1.914
0.000	0.005	-0.005	0.000	0.010	0.005	0.181	2.681	1.895	1.899	1.899	1.914	1.914	1.909
0.000	0.000	0.000	0.005	0.005	-0.005	0.181	2.700	1.885	1.890	1.895	1.914	1.909	1.904
0.015	0.000	-0.005	0.005	0.005	0.010	0.181	2.676	1.885	1.885	1.885	1.909	1.904	1.909
0.010	-0.005	0.005	0.000	0.005	-0.010	0.186	2.676	1.880	1.875	1.885	1.904	1.899	1.899
0.010	-0.010	0.000	0.005	0.005	-0.020	0.181	2.681	1.880	1.880	1.880	1.904	1.899	1.895
0.000	-0.005	-0.005	0.005	0.010	0.015	0.181	2.651	1.880	1.880	1.880	1.904	1.899	1.909
0.000	-0.005	-0.005	0.005	0.000	0.015	0.176	2.666	1.885	1.880	1.880	1.899	1.899	1.904
0.010	-0.005	0.000	0.000	-0.005	0.015	0.186	2.793	1.899	1.890	1.885	1.904	1.899	1.904
0.000	0.000	0.000	0.000	-0.020	0.005	0.181	2.651	1.904	1.895	1.890	1.909	1.899	1.904
0.000	0.000	0.005	0.005	-0.010	-0.005	0.181	2.646	1.909	1.904	1.895	1.914	1.904	1.904
0.005	0.000	0.005	0.005	-0.005	-0.020	0.176	2.637	1.899	1.904	1.899	1.919	1.909	1.904
0.000	0.015	0.000	0.000	0.000	-0.029	0.181	2.744	1.909	1.909	1.904	1.919	1.919	1.904
-0.005	0.010	-0.005	0.000	0.015	0.020	0.181	2.637	1.904	1.909	1.909	1.924	1.919	1.924
0.010	0.000	0.000	0.005	0.010	0.005	0.186	2.744	1.914	1.909	1.909	1.924	1.919	1.919
0.000	0.000	0.005	0.005	0.000	-0.024	0.181	2.646	1.904	1.909	1.904	1.924	1.914	1.909
-0.005	-0.010	0.000	0.005	-0.005	0.005	0.181	2.637	1.899	1.899	1.904	1.924	1.914	1.919
0.005	0.010	0.005	0.005	-0.005	0.010	0.176	2.661	1.890	1.895	1.899	1.914	1.914	1.919
0.000	0.015	0.000	0.005	0.000	-0.005	0.181	2.627	1.880	1.895	1.895	1.914	1.909	1.909
0.005	0.000	0.000	0.000	0.010	0.000	0.181	2.695	1.885	1.885	1.890	1.909	1.909	1.909
0.005	0.015	-0.005	0.005	0.005	0.010	0.181	2.715	1.875	1.880	1.880	1.904	1.899	1.904
0.010	0.015	0.000	0.000	0.010	0.000	0.181	2.812	1.895	1.880	1.880	1.899	1.904	1.899
0.000	0.024	0.000	0.000	0.005	0.015	0.176	2.744	1.890	1.880	1.880	1.899	1.899	1.904
0.005	0.039	0.005	0.000	0.005	-0.005	0.176	2.705	1.895	1.890	1.880	1.899	1.895	1.899
0.010	0.005	0.005	0.000	0.000	0.010	0.181	2.705	1.899	1.885	1.885	1.899	1.899	1.904
0.005	0.005	0.005	0.000	0.000	-0.005	0.176	2.681	1.899	1.890	1.885	1.904	1.899	1.899
0.000	-0.005	0.000	0.005	-0.005	0.010	0.181	2.715	1.904	1.899	1.890	1.909	1.904	1.904
0.000	-0.005	0.000	0.005	0.000	0.010	0.181	2.710	1.909	1.904	1.899	1.914	1.909	1.904
0.005	-0.020	0.000	0.005	-0.005	0.005	0.181	2.671	1.909	1.904	1.899	1.914	1.909	1.914
0.000	-0.024	0.000	0.005	0.005	-0.005	0.181	2.705	1.909	1.909	1.899	1.919	1.914	1.914
-0.005	0.000	0.000	0.005	0.005	0.010	0.186	2.686	1.909	1.914	1.904	1.919	1.919	1.919
0.005	0.010	-0.005	0.005	0.000	0.015	0.181	2.676	1.909	1.919	1.904	1.919	1.914	1.914
0.000	-0.005	0.005	0.000	0.000	0.010	0.186	2.715	1.904	1.904	1.909	1.919	1.914	1.914
-0.005	0.015	0.005	0.005	0.005	0.010	0.186	2.710	1.899	1.909	1.904	1.919	1.914	1.914
0.005	0.000	0.000	0.010	0.005	0.000	0.181	2.700	1.899	1.899	1.899	1.919	1.914	1.909
0.005	-0.015	0.005	0.000	-0.005	0.005	0.176	2.671	1.885	1.885	1.890	1.914	1.909	1.909
0.000	-0.015	0.005	0.000	-0.005	-0.005	0.181	2.671	1.885	1.885	1.890	1.909	1.899	1.899
0.005	0.005	-0.005	0.000	-0.005	0.005	0.181	2.710	1.885	1.885	1.880	1.904	1.899	1.899
0.005	-0.005	0.000	0.000	0.000	0.010	0.176	2.705	1.885	1.880	1.880	1.899	1.899	1.895
0.005	-0.005	-0.005	0.000	-0.005	0.005	0.181	2.671	1.885	1.880	1.880	1.899	1.899	1.899
0.005	0.000	0.005	0.000	0.005	-0.010	0.181	2.666	1.890	1.885	1.885	1.904	1.899	1.895
0.000	0.010	0.005	0.005	0.005	0.000	0.186	2.676	1.890	1.890	1.890	1.904	1.904	1.904
0.010	0.005	0.005	0.005	0.000	0.000	0.181	2.705	1.899	1.895	1.890	1.909	1.904	1.899
-0.005	0.000	0.005	0.005	0.000	-0.020	0.186	2.676	1.899	1.895	1.895	1.909	1.904	1.899
0.000	0.005	0.005	0.005	0.000	0.000	0.186	2.676	1.899	1.899	1.895	1.914	1.909	1.909
0.010	0.000	0.000	0.000	0.000	0.015	0.181	2.686	1.904	1.904	1.899	1.914	1.914	1.914
0.000	-0.005	0.000	0.005	0.000	0.000	0.181	2.632	1.899	1.904	1.904	1.919	1.914	1.914
0.000	0.005	0.000	0.005	0.000	0.005	0.176	2.651	1.899	1.904	1.904	1.919	1.914	1.914
0.005	0.010	0.000	0.000	0.000	-0.010	0.181	2.788	1.909	1.909	1.904	1.919	1.914	1.909
0.005	0.020	0.005	0.005	0.000	-0.020	0.181	2.651	1.899	1.904	1.904	1.919	1.914	1.904
0.005	-0.005	0.000	0.000	0.005	-0.020	0.181	2.700	1.895	1.890	1.895	1.914	1.909	1.909
0.000	-0.010	0.000	0.000	0.000	0.015	0.181	2.642	1.899	1.890	1.890	1.909	1.909	1.914
0.005	-0.010	0.005	0.000	0.000	0.015	0.176	2.627	1.885	1.880	1.885	1.904	1.904	1.909
0.005	0.005	0.005	0.000	-0.005	0.015	0.181	2.715	1.885	1.885	1.880	1.904	1.899	1.899
0.000	-0.005	0.000	0.005	0.005	0.005	0.181	2.749	1.885	1.880	1.880	1.899	1.899	1.895
0.005	0.000	-0.005	-0.005	0.000	0.005	0.181	2.646	1.885	1.880	1.875	1.895	1.895	1.895
0.005	0.024	-0.005	0.005	0.000	0.010	0.176	2.690	1.880	1.885	1.880	1.895	1.895	1.899
0.005	0.005	0.005	0.005	0.005	0.015	0.186	2.671	1.880	1.885	1.880	1.899	1.899	1.899
0.000	-0.010	0.000	0.000	0.000	0.005	0.181	2.622	1.880	1.880	1.885	1.899	1.899	1.899
0.020	-0.010	0.000	0.005	0.005	-0.020	0.186	2.671	1.890	1.890	1.885	1.904	1.899	1.895
0.000	-0.010	0.005	0.000	0.000	0.005	0.176	2.637	1.890	1.890	1.890	1.904	1.904	1.899
0.000	0.010	0.010	0.005	0.005	0.015	0.181	2.798	1.904	1.899	1.895	1.914	1.909	1.909
0.000	-0.005	0.000	0.000	0.005	0.010	0.176	2.656	1.904	1.899	1.895	1.914	1.909	1.909
-0.005	-0.010	0.000	0.000	0.000	-0.005	0.181	2.695	1.904	1.899	1.899	1.914	1.909	1.904
-0.005	-0.010	0.005	0.005	0.005	0.010	0.181	2.700	1.904	1.904	1.899	1.919	1.914	1.914
-0.005	0.020	0.000	0.005	0.005	0.005	0.181	2.676	1.899	1.909	1.899	1.914	1.914	1.909
0.005	0.029	0.000	0.000	0.005	0.005	0.181	2.695	1.899	1.904	1.899	1.914	1.909	1.909
0.000	-0.020	-0.005	0.000	0.000	-0.015	0.186	2.705	1.904	1.890	1.890	1.909	1.904	1.904
0.000	-0.029	0.000	0.000	0.000	-0.034	0.181	2.666	1.890	1.885	1.885	1.904	1.899	1.895
-0.005	-0.010	0.000	0.000	0.000	0.005	0.186	2.700	1.885	1.880	1.885	1.904	1.899	1.904
0.010	0.005	0.000	0.000	0.000	-0.005	0.176	2.676	1.880	1.885	1.880	1.899	1.895	1.899
0.005	0.029	0.010	0.000	0.010	0.005	0.190	2.705	1.885	1.890	1.880	1.899	1.895	1.895
0.005	-0.005	0.000	0.000	0.005	-0.010	0.176	2.710	1.885	1.875	1.875	1.895	1.895	1.895
0.010	-0.020	0.005	0.000	0.000	-0.005	0.181	2.715	1.890	1.875	1.875	1.895	1.890	1.895
0.005	-0.010	0.000	0.000	0.000	0.000	0.176	2.681	1.890	1.880	1.880	1.899	1.890	1.895
0.005	0.000	0.000	0.000	0.005	-0.010	0.181	2.676	1.895	1.890	1.885	1.904	1.899	1.895
0.005	0.010	0.005	0.000	0.010	0.010	0.181	2.710	1.904	1.899	1.895	1.909	1.904	1.904
-0.005	0.015	0.005	0.000	0.005	0.010	0.181	2.715	1.904	1.904	1.899	1.914	1.909	1.909
0.005	0.015	0.005	0.000	0.005	0.005	0.176	2.715	1.914	1.909	1.904	1.914	1.909	1.909
0.000	0.015	0.005	0.005	-0.005	0.005	0.181	2.690	1.914	1.914	1.909	1.924	1.914	1.909
0.000	0.024	0.000	0.000	0.000	0.020	0.181	2.681	1.914	1.914	1.909	1.924	1.914	1.914
0.005	0.000	0.005	0.000	-0.005	0.015	0.186	2.681	1.909	1.904	1.909	1.924	1.914	1.914
0.000	-0.005	0.005	0.000	0.000	0.010	0.181	2.705	1.904	1.904	1.904	1.924	1.919	1.914
-0.005	0.000	0.005	0.000	0.000	0.015	0.181	2.681	1.895	1.899	1.899	1.919	1.914	1.909
-0.010	0.020	0.000	0.000	0.000	0.005	0.181	2.710	1.890	1.899	1.895	1.919	1.909	1.909
0.000	0.010	0.000	0.005	0.005	0.005	0.186	2.695	1.890	1.890	1.890	1.914	1.909	1.904
0.000	0.000	0.005	0.005	0.000	0.000	0.181	2.642	1.875	1.880	1.885	1.909	1.904	1.904
0.000	-0.005	0.005	0.000	-0.005	-0.005	0.186	2.642	1.870	1.875	1.880	1.899	1.899	1.895
0.000	-0.005	0.000	0.005	0.005	-0.005	0.181	2.788	1.885	1.875	1.875	1.899	1.899	1.899
0.005	0.005	0.005	0.000	-0.005	-0.010	0.181	2.646	1.880	1.875	1.875	1.899	1.895	1.895
0.005	0.015	-0.005	0.005	0.000	-0.005	0.181	2.729	1.885	1.880	1.880	1.899	1.899	1.899
0.010	0.015	0.000	0.000	0.000	-0.005	0.181	2.725	1.899	1.885	1.880	1.899	1.895	1.895
0.005	0.005	0.005	0.000	-0.005	0.000	0.176	2.666	1.899	1.895	1.890	1.904	1.899	1.899
0.005	0.010	0.005	0.000	0.000	-0.020	0.186	2.739	1.909	1.899	1.890	1.909	1.904	1.899
0.005	0.015	0.000	0.005	-0.005	-0.005	0.176	2.656	1.904	1.904	1.895	1.909	1.909	1.909
0.005	0.005	0.000	0.000	0.005	-0.005	0.186	2.651	1.904	1.909	1.904	1.914	1.914	1.909
-0.005	0.005	0.005	0.000	-0.005	0.000	0.181	2.725	1.909	1.909	1.904	1.924	1.914	1.914
-0.010	0.005	0.010	0.000	0.000	0.000	0.186	2.656	1.899	1.904	1.909	1.919	1.914	1.914
0.000	-0.015	0.005	0.005	0.015	0.000	0.176	2.715	1.904	1.899	1.904	1.924	1.919	1.914
0.000	-0.005	-0.005	0.000	0.010	0.000	0.176	2.671	1.899	1.899	1.899	1.919	1.914	1.914
0.000	-0.024	0.000	0.010	0.005	0.010	0.176	2.725	1.899	1.890	1.890	1.914	1.909	1.909
0.005	-0.029	0.000	0.005	0.000	-0.015	0.186	2.817	1.904	1.890	1.885	1.909	1.909	1.899
0.010	-0.005	0.005	0.005	0.000	0.020	0.181	2.661	1.890	1.895	1.885	1.904	1.904	1.909
0.005	0.005	0.000	0.000	0.010	0.010	0.181	2.671	1.880	1.885	1.885	1.904	1.899	1.899
0.000	0.015	0.000	0.000	-0.005	0.005	0.176	2.705	1.885	1.890	1.880	1.899	1.890	1.895
-0.005	0.020	0.005	0.005	-0.005	0.005	0.181	2.681	1.880	1.885	1.885	1.899	1.890	1.895
0.000	-0.034	0.005	0.005	0.000	-0.005	0.176	2.700	1.880	1.870	1.880	1.899	1.895	1.895
-0.005	-0.039	0.005	0.005	0.000	0.000	0.181	2.681	1.880	1.875	1.880	1.899	1.895	1.895
-0.005	0.005	0.005	0.000	0.000	0.005	0.176	2.715	1.895	1.890	1.885	1.904	1.899	1.899
0.005	0.015	0.000	0.005	0.010	0.015	0.186	2.715	1.909	1.904	1.890	1.909	1.904	1.904
0.000	0.000	0.000	0.000	0.005	0.005	0.176	2.705	1.904	1.899	1.895	1.909	1.904	1.904
0.010	0.005	0.000	0.005	0.005	0.000	0.181	2.681	1.904	1.909	1.904	1.919	1.909	1.904
-0.005	0.010	0.010	-0.005	0.005	-0.010	0.181	2.715	1.914	1.914	1.904	1.919	1.914	1.904
0.000	0.000	0.005	0.000	0.005	0.015	0.186	2.715	1.914	1.914	1.909	1.924	1.914	1.919
0.000	0.073	0.000	0.005	0.000	-0.015	0.181	2.676	1.909	1.934	1.914	1.924	1.914	1.909
-0.005	0.010	0.000	0.000	-0.005	0.005	0.181	2.705	1.899	1.899	1.909	1.924	1.914	1.914
-0.005	-0.024	0.005	0.000	-0.005	0.005	0.181	2.710	1.895	1.890	1.904	1.924	1.914	1.914
-0.010	-0.015	0.000	0.000	-0.005	-0.010	0.186	2.715	1.895	1.890	1.895	1.919	1.909	1.904
0.005	-0.010	0.000	0.005	0.000	-0.005	0.181	2.710	1.895	1.890	1.890	1.909	1.909	1.909
0.010	0.005	0.000	0.000	0.000	0.010	0.181	2.666	1.885	1.890	1.885	1.909	1.904	1.909
0.015	0.005	0.000	0.000	0.000	0.005	0.176	2.700	1.885	1.880	1.880	1.904	1.904	1.904
-0.005	-0.005	0.000	0.000	0.000	0.010	0.181	2.681	1.880	1.880	1.875	1.899	1.899	1.899
0.000	-0.010	0.000	0.000	0.005	0.015	0.176	2.671	1.875	1.875	1.875	1.899	1.899	1.904
0.000	-0.020	0.000	0.005	0.000	0.015	0.181	2.676	1.880	1.875	1.875	1.899	1.895	1.899
0.010	0.000	0.005	0.000	0.000	0.005	0.181	2.715	1.895	1.890	1.880	1.899	1.895	1.899
0.000	0.020	0.005	0.005	0.000	0.000	0.181	2.705	1.899	1.899	1.885	1.904	1.899	1.899
-0.005	0.020	0.005	0.000	0.000	0.000	0.181	2.666	1.899	1.899	1.890	1.909	1.904	1.904
-0.005	-0.015	0.000	0.005	0.000	-0.010	0.181	2.651	1.895	1.890	1.890	1.909	1.904	1.904
0.000	-0.015	0.000	0.000	0.005	0.005	0.181	2.798	1.914	1.895	1.895	1.914	1.909	1.909
-0.005	0.000	-0.005	0.005	0.010	0.005	0.186	2.642	1.914	1.914	1.904	1.919	1.914	1.914
-0.005	0.005	0.005	0.000	0.000	0.000	0.176	2.725	1.919	1.914	1.909	1.919	1.914	1.914
-0.005	-0.005	-0.005	0.000	0.010	0.010	0.181	2.700	1.914	1.909	1.909	1.924	1.914	1.914
-0.005	-0.015	0.005	0.000	0.010	0.005	0.181	2.661	1.904	1.904	1.904	1.924	1.914	1.909
0.000	0.000	0.000	0.005	0.005	0.005	0.181	2.627	1.895	1.904	1.904	1.919	1.914	1.909
-0.005	0.005	0.005	0.005	0.005	-0.020	0.181	2.764	1.899	1.904	1.899	1.914	1.909	1.904
0.000	0.010	0.000	0.000	0.005	0.010	0.186	2.651	1.885	1.890	1.895	1.914	1.904	1.909
0.005	0.000	-0.005	0.000	0.005	0.000	0.181	2.656	1.880	1.885	1.885	1.909	1.904	1.904
0.000	0.005	-0.005	0.005	0.000	-0.005	0.181	2.681	1.875	1.880	1.880	1.904	1.899	1.899
-0.005	0.005	0.000	0.000	-0.005	0.000	0.186	2.627	1.875	1.875	1.880	1.899	1.895	1.899
0.005	0.034	0.000	0.005	0.000	0.010	0.181	2.710	1.880	1.885	1.880	1.899	1.899	1.899
0.000	0.005	0.005	0.000	-0.005	-0.015	0.186	2.632	1.875	1.875	1.880	1.899	1.895	1.895
0.005	0.010	0.005	0.000	-0.005	0.000	0.181	2.778	1.890	1.880	1.880	1.904	1.899	1.899
0.000	0.005	0.005	0.005	0.000	0.010	0.181	2.651	1.890	1.890	1.885	1.904	1.904	1.904
0.005	0.015	0.005	0.005	0.005	0.005	0.181	2.681	1.899	1.895	1.890	1.909	1.909	1.909
0.010	0.010	0.005	0.005	0.000	0.015	0.186	2.715	1.914	1.899	1.890	1.914	1.909	1.904
0.005	-0.005	0.010	0.005	-0.010	0.015	0.176	2.671	1.909	1.904	1.899	1.914	1.909	1.914
0.000	0.010	0.005	0.005	0.000	0.010	0.181	2.705	1.914	1.914	1.899	1.919	1.909	1.909
0.000	-0.005	-0.005	0.000	0.000	-0.010	0.181	2.715	1.914	1.904	1.904	1.919	1.914	1.904
0.000	-0.034	-0.005	0.000	-0.005	-0.029	0.181	2.681	1.904	1.895	1.899	1.919	1.914	1.904
0.000	-0.015	0.005	0.000	0.005	-0.005	0.181	2.715	1.904	1.904	1.899	1.919	1.919	1.909
0.015	-0.024	-0.005	0.005	0.015	-0.024	0.181	2.681	1.899	1.895	1.895	1.914	1.909	1.909
0.000	-0.005	0.005	0.000	0.015	-0.020	0.176	2.681	1.890	1.895	1.895	1.909	1.909	1.904
-0.010	0.015	-0.005	0.000	0.010	-0.015	0.186	2.676	1.880	1.890	1.890	1.909	1.904	1.904
0.005	-0.015	0.005	0.005	0.005	0.015	0.176	2.705	1.880	1.880	1.880	1.904	1.904	1.909
0.010	-0.005	-0.005	0.005	0.010	0.005	0.181	2.705	1.885	1.880	1.880	1.904	1.895	1.904
0.005	0.000	0.005	0.005	0.000	0.010	0.181	2.695	1.885	1.880	1.880	1.899	1.895	1.899
-0.005	0.068	0.000	0.000	-0.005	-0.020	0.181	2.710	1.890	1.899	1.880	1.899	1.890	1.890
-0.005	0.010	0.000	0.005	0.000	-0.005	0.181	2.710	1.890	1.880	1.880	1.899	1.895	1.895
0.000	-0.020	0.000	0.000	0.010	-0.005	0.186	2.715	1.899	1.875	1.885	1.904	1.899	1.895
0.005	-0.020	0.000	0.000	0.005	-0.005	0.186	2.695	1.904	1.890	1.885	1.909	1.904	1.899
0.000	0.005	0.000	0.010	0.010	0.020	0.190	2.686	1.904	1.904	1.895	1.914	1.909	1.914
-0.005	-0.005	0.000	0.005	-0.005	-0.010	0.181	2.676	1.904	1.904	1.899	1.919	1.909	1.904
0.000	-0.015	0.000	0.005	-0.015	0.015	0.186	2.715	1.914	1.904	1.904	1.919	1.904	1.914
-0.005	0.005	0.005	0.000	-0.010	0.000	0.176	2.681	1.909	1.914	1.904	1.919	1.909	1.909
0.000	0.029	0.000	0.000	-0.005	0.015	0.186	2.671	1.904	1.919	1.909	1.924	1.919	1.914
0.010	0.024	0.000	0.005	0.000	0.015	0.181	2.690	1.904	1.909	1.909	1.924	1.919	1.914
0.000	0.015	0.005	0.005	-0.015	-0.005	0.186	2.661	1.895	1.904	1.909	1.924	1.914	1.909
0.010	0.010	0.000	0.000	-0.005	0.015	0.176	2.642	1.885	1.895	1.899	1.919	1.914	1.914
0.005	0.010	0.005	0.005	0.010	0.000	0.186	2.788	1.890	1.890	1.895	1.914	1.914	1.909
0.005	-0.005	0.000	0.000	0.015	0.015	0.181	2.646	1.880	1.880	1.885	1.909	1.909	1.909
0.000	-0.005	0.005	0.005	0.015	-0.005	0.181	2.627	1.870	1.875	1.880	1.904	1.904	1.899
0.000	0.000	0.005	0.005	0.020	0.020	0.181	2.651	1.870	1.875	1.875	1.899	1.904	1.904
0.000	-0.005	0.000	-0.005	0.005	-0.010	0.176	2.651	1.870	1.870	1.875	1.899	1.895	1.895
0.005	-0.005	0.000	0.000	0.000	0.000	0.181	2.720	1.875	1.870	1.875	1.895	1.890	1.899
0.000	0.000	0.005	0.000	0.000	0.000	0.186	2.725	1.890	1.880	1.875	1.895	1.895	1.899
0.005	-0.005	0.005	0.000	0.000	-0.005	0.181	2.676	1.895	1.885	1.880	1.899	1.895	1.899
0.005	0.005	0.005	0.000	-0.005	0.005	0.186	2.671	1.899	1.890	1.885	1.899	1.895	1.899
0.010	0.005	0.000	0.005	0.000	0.005	0.176	2.681	1.904	1.899	1.890	1.909	1.904	1.899
0.010	-0.010	0.000	0.005	0.000	-0.010	0.181	2.632	1.899	1.895	1.895	1.909	1.904	1.899
-0.005	-0.024	0.000	0.000	0.005	-0.005	0.171	2.705	1.899	1.895	1.895	1.914	1.909	1.909
0.005	0.005	0.005	0.005	0.015	0.020	0.181	2.720	1.909	1.909	1.899	1.914	1.914	1.919
-0.010	0.005	0.005	0.005	0.005	0.005	0.181	2.808	1.919	1.909	1.899	1.919	1.914	1.909
0.000	0.000	0.000	0.000	0.000	0.010	0.186	2.754	1.924	1.914	1.904	1.914	1.909	1.909
-0.005	-0.005	0.005	0.005	0.005	0.000	0.176	2.661	1.909	1.904	1.899	1.914	1.909	1.909
0.000	0.000	0.000	0.000	0.005	-0.034	0.181	2.705	1.899	1.904	1.899	1.909	1.904	1.895
0.005	0.005	0.005	0.000	-0.005	0.000	0.176	2.681	1.885	1.895	1.895	1.909	1.899	1.899
0.000	0.000	0.000	0.005	0.000	-0.015	0.186	2.720	1.890	1.890	1.890	1.909	1.899	1.895
0.005	0.000	0.000	0.005	0.005	0.005	0.181	2.700	1.885	1.885	1.885	1.904	1.899	1.899
0.005	0.000	0.000	0.005	0.005	0.010	0.186	2.676	1.880	1.875	1.880	1.904	1.899	1.899
0.005	-0.005	-0.005	0.005	0.000	-0.005	0.176	2.715	1.885	1.880	1.880	1.904	1.895	1.895
0.010	-0.005	0.005	0.000	0.000	0.010	0.186	2.715	1.895	1.880	1.880	1.899	1.899	1.899
0.005	-0.010	0.005	0.005	-0.005	0.015	0.176	2.710	1.899	1.890	1.885	1.904	1.899	1.899
0.005	-0.005	0.000	0.000	0.000	0.010	0.186	2.695	1.904	1.895	1.890	1.909	1.899	1.904
0.010	0.015	0.000	0.005	0.005	-0.010	0.171	2.710	1.909	1.904	1.895	1.909	1.904	1.899
0.010	0.029	0.000	0.005	0.010	0.015	0.181	2.700	1.909	1.914	1.904	1.914	1.909	1.914
0.000	0.010	0.005	0.005	0.000	-0.010	0.176	2.671	1.909	1.914	1.909	1.924	1.909	1.904
0.010	0.005	0.010	0.000	0.000	0.000	0.181	2.720	1.914	1.914	1.909	1.929	1.914	1.909
0.000	-0.029	0.000	0.000	0.000	0.010	0.176	2.715	1.909	1.899	1.904	1.924	1.919	1.914
0.000	-0.029	0.000	0.005	0.005	0.010	0.186	2.705	1.904	1.904	1.904	1.924	1.919	1.919
-0.010	-0.015	0.000	0.000	0.010	-0.005	0.176	2.681	1.899	1.904	1.904	1.919	1.919	1.909
-0.005	0.005	0.005	0.000	0.000	-0.010	0.181	2.705	1.895	1.904	1.899	1.919	1.914	1.909
0.005	-0.015	0.010	0.005	0.000	0.005	0.176	2.700	1.899	1.890	1.895	1.914	1.909	1.909
0.000	0.039	0.000	0.005	0.005	-0.010	0.181	2.686	1.890	1.904	1.895	1.914	1.909	1.904
0.000	0.024	0.000	0.000	0.005	0.005	0.181	2.676	1.885	1.890	1.890	1.909	1.909	1.909
0.000	0.010	0.000	0.000	0.005	0.015	0.186	2.671	1.880	1.875	1.885	1.904	1.904	1.909
0.005	0.000	-0.005	0.000	0.010	0.015	0.181	2.705	1.885	1.875	1.880	1.899	1.899	1.899
0.000	0.010	0.000	0.000	0.010	0.015	0.186	2.661	1.880	1.880	1.880	1.899	1.899	1.899
0.000	0.000	-0.005	0.000	0.005	0.015	0.181	2.666	1.885	1.880	1.880	1.904	1.899	1.904
0.005	0.010	0.010	0.000	0.000	-0.020	0.186	2.798	1.904	1.890	1.890	1.904	1.899	1.890
0.000	0.000	0.010	-0.005	-0.005	0.010	0.181	2.666	1.899	1.895	1.890	1.904	1.904	1.909
0.005	0.000	0.000	0.000	0.000	0.020	0.186	2.705	1.909	1.899	1.890	1.909	1.909	1.909
0.010	-0.005	0.005	0.005	0.000	0.015	0.181	2.651	1.919	1.909	1.899	1.914	1.909	1.909
0.000	-0.005	0.000	-0.005	0.005	-0.005	0.186	2.661	1.914	1.909	1.909	1.919	1.914	1.909
0.000	-0.010	0.005	0.000	0.005	0.000	0.181	2.671	1.909	1.909	1.909	1.924	1.919	1.909
0.015	0.000	0.005	0.005	0.000	0.010	0.181	2.734	1.919	1.914	1.909	1.924	1.914	1.914
0.005	0.000	-0.005	0.000	0.000	-0.005	0.181	2.642	1.904	1.909	1.909	1.924	1.919	1.914
-0.005	-0.005	-0.005	-0.005	-0.005	-0.020	0.181	2.705	1.899	1.899	1.904	1.919	1.914	1.904
0.005	0.010	-0.005	0.000	0.005	0.005	0.176	2.661	1.890	1.899	1.899	1.914	1.914	1.914
0.005	0.010	0.000	0.000	0.005	0.000	0.181	2.627	1.880	1.895	1.895	1.914	1.909	1.904
0.005	0.000	0.000	0.000	0.005	-0.010	0.186	2.681	1.880	1.880	1.885	1.909	1.904	1.904
0.005	0.000	-0.005	0.000	-0.005	0.005	0.181	2.637	1.870	1.875	1.880	1.904	1.899	1.904
0.005	-0.005	0.000	0.000	0.000	-0.010	0.181	2.808	1.885	1.875	1.875	1.899	1.895	1.895
0.015	-0.010	0.000	0.005	0.000	0.005	0.186	2.651	1.885	1.875	1.875	1.899	1.899	1.899
0.000	0.020	0.000	0.005	0.000	0.005	0.181	2.681	1.885	1.885	1.880	1.899	1.899	1.899
-0.005	0.029	0.000	0.005	0.010	0.005	0.181	2.700	1.890	1.885	1.880	1.899	1.899	1.899
0.000	0.005	0.000	0.000	0.000	0.000	0.186	2.686	1.895	1.885	1.885	1.899	1.899	1.899
0.005	-0.005	0.010	0.005	0.005	0.000	0.181	2.710	1.899	1.890	1.890	1.909	1.904	1.904
-0.010	-0.010	0.005	0.000	0.010	-0.005	0.181	2.686	1.899	1.895	1.890	1.909	1.909	1.904
0.000	0.015	0.000	-0.005	0.000	0.010	0.181	2.681	1.914	1.909	1.899	1.914	1.909	1.909
0.000	0.020	0.010	0.000	0.010	0.005	0.181	2.710	1.914	1.909	1.904	1.919	1.914	1.909
0.000	-0.034	0.000	0.000	0.000	-0.010	0.181	2.710	1.909	1.899	1.899	1.919	1.909	1.909
-0.005	-0.010	0.000	0.005	-0.005	0.015	0.176	2.676	1.904	1.909	1.899	1.919	1.914	1.914
-0.005	0.010	0.010	0.005	0.000	0.005	0.181	2.681	1.899	1.909	1.904	1.919	1.914	1.909
-0.005	0.015	0.005	0.005	0.000	-0.005	0.181	2.715	1.899	1.909	1.899	1.919	1.909	1.904
0.000	-0.015	0.000	0.005	-0.005	-0.020	0.181	2.700	1.895	1.890	1.895	1.914	1.904	1.899
0.000	-0.020	0.000	0.000	-0.005	-0.020	0.181	2.700	1.885	1.885	1.890	1.909	1.904	1.899
0.010	-0.005	0.000	0.005	-0.005	-0.015	0.176	2.695	1.885	1.885	1.885	1.909	1.904	1.899
0.000	-0.005	-0.005	0.005	0.005	-0.034	0.186	2.715	1.885	1.880	1.880	1.899	1.904	1.895
0.005	-0.005	0.005	0.005	0.005	0.000	0.181	2.695	1.880	1.880	1.880	1.899	1.899	1.899
0.000	0.005	0.000	0.005	0.005	-0.010	0.181	2.671	1.880	1.885	1.880	1.899	1.895	1.899
0.005	-0.005	0.005	0.005	0.005	0.000	0.181	2.671	1.885	1.880	1.880	1.899	1.899	1.904
0.000	0.005	0.000	-0.005	0.000	0.005	0.176	2.700	1.890	1.890	1.885	1.899	1.899	1.899
0.005	0.024	0.000	0.000	0.000	0.000	0.181	2.681	1.895	1.899	1.890	1.904	1.899	1.899
-0.005	0.005	0.000	0.000	-0.005	-0.010	0.181	2.671	1.895	1.895	1.895	1.909	1.904	1.904
0.005	-0.005	0.000	0.005	-0.005	0.005	0.181	2.671	1.899	1.895	1.899	1.914	1.909	1.909
0.000	0.005	0.000	0.000	0.010	0.000	0.186	2.690	1.904	1.904	1.899	1.919	1.914	1.909
0.005	0.000	-0.005	0.005	0.005	0.020	0.181	2.637	1.899	1.904	1.904	1.919	1.914	1.919
0.000	0.034	-0.005	0.000	0.005	0.015	0.181	2.656	1.895	1.909	1.909	1.919	1.919	1.914
0.000	0.029	0.000	0.005	0.015	-0.005	0.181	2.788	1.909	1.909	1.904	1.924	1.919	1.909
0.000	0.015	0.000	0.000	0.005	0.015	0.186	2.646	1.904	1.899	1.899	1.919	1.914	1.914
-0.005	0.010	0.000	0.005	0.000	0.015	0.181	2.646	1.890	1.895	1.895	1.914	1.909	1.909
0.000	0.005	0.000	0.000	0.000	0.000	0.186	2.646	1.880	1.880	1.890	1.914	1.909	1.909
0.000	0.005	0.000	0.000	0.005	-0.020	0.176	2.710	1.885	1.875	1.885	1.904	1.904	1.899
0.000	-0.005	0.000	0.005	0.000	-0.010	0.181	2.710	1.875	1.875	1.875	1.899	1.899	1.895
0.005	0.015	0.005	0.000	0.000	-0.015	0.176	2.729	1.880	1.875	1.875	1.895	1.895	1.895
0.000	0.000	0.000	0.010	0.000	0.005	0.181	2.646	1.870	1.870	1.875	1.895	1.895	1.899
0.000	0.024	0.005	0.000	-0.005	0.020	0.181	2.734	1.885	1.880	1.875	1.895	1.895	1.895
0.000	0.000	0.000	0.000	0.000	0.000	0.181	2.690	1.890	1.875	1.875	1.890	1.895	1.895
0.000	-0.020	0.005	0.000	-0.005	0.029	0.176	2.725	1.899	1.875	1.880	1.899	1.895	1.904
0.005	-0.005	0.005	0.005	0.000	0.000	0.186	2.671	1.899	1.890	1.880	1.899	1.899	1.899
0.005	0.000	0.000	0.000	0.000	0.020	0.181	2.725	1.904	1.899	1.890	1.904	1.899	1.904
0.000	0.024	-0.005	0.005	0.000	0.000	0.186	2.808	1.919	1.914	1.899	1.909	1.904	1.904
0.000	0.000	0.000	0.005	0.000	0.010	0.176	2.720	1.924	1.914	1.904	1.914	1.909	1.909
0.010	-0.015	0.005	0.005	0.000	-0.005	0.186	2.686	1.924	1.909	1.909	1.919	1.909	1.909
0.000	-0.020	0.000	0.005	0.005	0.005	0.171	2.710	1.914	1.914	1.909	1.924	1.914	1.909
0.005	-0.005	0.000	0.000	0.005	0.000	0.186	2.676	1.909	1.914	1.904	1.924	1.914	1.909
0.000	-0.005	0.000	0.000	0.005	0.010	0.176	2.705	1.904	1.909	1.904	1.919	1.914	1.909
0.010	-0.010	-0.005	0.005	0.005	0.010	0.186	2.705	1.899	1.899	1.899	1.919	1.909	1.909
0.000	-0.005	0.000	0.000	0.000	0.000	0.176	2.700	1.890	1.895	1.895	1.914	1.909	1.904
-0.005	-0.005	0.000	-0.005	0.000	0.000	0.186	2.700	1.885	1.890	1.890	1.909	1.904	1.899
0.005	0.000	0.000	0.000	-0.005	0.000	0.181	2.705	1.885	1.885	1.885	1.904	1.899	1.899
0.010	-0.005	0.000	0.000	-0.005	0.005	0.186	2.676	1.880	1.880	1.880	1.904	1.899	1.899
0.015	-0.005	-0.005	0.005	0.005	0.000	0.176	2.700	1.875	1.875	1.875	1.904	1.899	1.899
-0.005	0.000	0.000	0.000	-0.005	-0.010	0.186	2.715	1.880	1.880	1.880	1.899	1.895	1.895
0.005	0.000	0.000	0.010	-0.010	0.000	0.181	2.705	1.885	1.885	1.880	1.904	1.895	1.899
0.005	0.005	0.000	0.005	0.000	0.005	0.186	2.705	1.895	1.890	1.885	1.904	1.904	1.899
0.010	0.000	0.000	0.005	0.010	-0.005	0.176	2.656	1.899	1.895	1.890	1.909	1.909	1.904
0.015	0.015	0.000	0.000	0.020	-0.005	0.186	2.676	1.909	1.904	1.895	1.914	1.909	1.904
-0.005	0.010	0.000	0.005	0.010	-0.044	0.176	2.720	1.909	1.904	1.899	1.919	1.909	1.904
0.000	0.005	0.000	0.005	0.005	0.000	0.186	2.681	1.909	1.909	1.904	1.919	1.914	1.919
0.000	0.000	0.005	0.000	0.000	0.010	0.176	2.681	1.904	1.904	1.904	1.919	1.914	1.914
0.000	-0.010	0.000	0.000	-0.010	0.005	0.186	2.676	1.904	1.904	1.904	1.919	1.909	1.914
-0.010	0.000	0.005	0.000	-0.010	0.015	0.181	2.705	1.899	1.899	1.904	1.919	1.909	1.919
-0.005	0.005	0.000	0.005	0.005	0.010	0.181	2.666	1.895	1.895	1.899	1.919	1.914	1.914
0.005	0.005	0.000	0.000	0.000	0.000	0.181	2.710	1.890	1.890	1.895	1.914	1.909	1.909
0.005	0.000	0.005	0.000	0.000	-0.024	0.181	2.690	1.890	1.890	1.890	1.909	1.904	1.899
0.000	0.005	0.005	0.000	0.010	0.005	0.176	2.651	1.880	1.880	1.885	1.909	1.904	1.904
0.005	0.010	0.000	0.000	0.005	0.000	0.181	2.666	1.880	1.880	1.880	1.899	1.899	1.899
0.005	0.005	0.000	0.005	0.005	-0.024	0.171	2.788	1.890	1.875	1.875	1.899	1.895	1.895
0.000	0.005	0.005	0.000	0.005	-0.010	0.181	2.642	1.885	1.875	1.875	1.895	1.895	1.895
0.005	-0.010	0.005	0.000	0.005	0.015	0.181	2.637	1.880	1.875	1.875	1.895	1.895	1.899
0.010	0.000	0.005	0.010	0.005	-0.010	0.186	2.632	1.880	1.885	1.880	1.899	1.895	1.895
0.000	0.000	0.000	0.000	0.010	0.010	0.181	2.622	1.880	1.885	1.880	1.904	1.899	1.899
0.000	0.005	0.000	0.005	0.000	0.010	0.181	2.754	1.899	1.895	1.885	1.904	1.899	1.904
0.000	0.005	0.000	-0.005	0.005	-0.010	0.181	2.729	1.909	1.899	1.890	1.904	1.899	1.899
0.010	0.005	-0.005	0.000	0.000	0.000	0.186	2.656	1.904	1.904	1.899	1.914	1.904	1.904
0.000	0.010	0.000	0.000	0.000	0.020	0.186	2.744	1.909	1.909	1.904	1.919	1.909	1.914
0.005	-0.005	0.000	0.000	0.000	0.020	0.181	2.671	1.914	1.904	1.899	1.919	1.914	1.914
-0.005	0.000	0.000	0.000	0.005	0.000	0.176	2.632	1.895	1.904	1.899	1.919	1.914	1.909
-0.005	0.000	0.000	0.000	0.005	0.010	0.181	2.671	1.890	1.899	1.899	1.919	1.909	1.909
-0.005	-0.020	-0.005	0.000	0.000	-0.005	0.176	2.720	1.890	1.885	1.890	1.914	1.909	1.899
0.000	-0.005	0.005	0.005	-0.005	0.015	0.181	2.808	1.904	1.890	1.890	1.909	1.904	1.904
0.000	0.005	0.005	0.005	0.000	0.010	0.176	2.744	1.904	1.895	1.890	1.909	1.904	1.904
0.005	0.005	-0.005	0.005	0.005	0.010	0.186	2.676	1.890	1.885	1.885	1.904	1.899	1.899
0.005	0.005	0.005	0.000	0.005	0.010	0.181	2.710	1.885	1.885	1.880	1.899	1.899	1.895
0.000	0.010	0.005	0.005	0.005	0.010	0.186	2.690	1.885	1.885	1.880	1.899	1.895	1.895
0.005	0.010	0.005	0.005	-0.005	0.010	0.181	2.705	1.890	1.885	1.880	1.899	1.895	1.895
0.010	0.020	0.000	0.000	0.005	0.000	0.186	2.705	1.890	1.890	1.885	1.899	1.895	1.895
0.005	-0.005	0.000	0.000	0.000	0.000	0.176	2.686	1.895	1.885	1.885	1.904	1.899	1.899
-0.005	-0.034	0.000	0.000	-0.005	0.005	0.181	2.710	1.899	1.885	1.885	1.904	1.899	1.899
-0.005	-0.010	0.005	0.000	-0.005	-0.020	0.181	2.681	1.904	1.899	1.895	1.909	1.904	1.895
0.000	0.054	0.005	0.005	-0.005	0.020	0.181	2.681	1.909	1.924	1.909	1.919	1.909	1.914
0.005	0.034	0.000	0.000	0.005	0.005	0.181	2.676	1.909	1.909	1.909	1.919	1.914	1.909
-0.005	-0.029	0.005	0.000	0.000	0.005	0.181	2.700	1.904	1.895	1.904	1.924	1.919	1.909
0.000	-0.015	0.000	0.000	0.000	0.000	0.181	2.700	1.909	1.904	1.904	1.924	1.914	1.909
0.000	-0.010	0.005	0.005	-0.010	0.000	0.181	2.686	1.899	1.904	1.899	1.924	1.914	1.914
0.005	-0.015	-0.005	0.000	-0.015	0.000	0.181	2.715	1.899	1.895	1.895	1.914	1.909	1.909
0.005	-0.010	0.000	0.000	0.000	0.005	0.181	2.710	1.895	1.895	1.890	1.914	1.914	1.914
0.005	0.005	0.000	-0.005	0.005	0.015	0.186	2.705	1.895	1.895	1.895	1.909	1.909	1.909
0.000	0.000	0.005	0.000	-0.005	-0.005	0.186	2.681	1.890	1.890	1.885	1.909	1.904	1.899
-0.005	0.000	0.000	0.000	0.000	0.000	0.181	2.705	1.880	1.885	1.880	1.904	1.899	1.899
0.000	0.005	0.005	0.000	-0.015	0.000	0.181	2.700	1.880	1.880	1.885	1.899	1.890	1.895
0.005	0.005	0.005	0.000	-0.015	-0.010	0.186	2.686	1.885	1.880	1.880	1.899	1.895	1.890
0.000	0.000	0.000	0.000	0.000	-0.024	0.181	2.666	1.880	1.880	1.880	1.899	1.895	1.890
0.005	-0.015	0.000	0.000	0.005	0.005	0.181	2.715	1.890	1.880	1.880	1.899	1.899	1.904
0.010	0.039	0.005	0.000	0.005	-0.015	0.181	2.686	1.899	1.899	1.890	1.904	1.904	1.899
0.005	0.024	0.000	-0.005	0.015	0.020	0.181	2.651	1.895	1.899	1.890	1.904	1.904	1.909
0.010	0.024	0.000	-0.005	0.010	0.005	0.186	2.661	1.899	1.899	1.895	1.914	1.909	1.909
0.000	0.024	0.000	-0.005	0.005	0.005	0.186	2.646	1.914	1.909	1.904	1.914	1.909	1.909
0.010	-0.015	0.005	-0.005	0.000	-0.010	0.181	2.651	1.904	1.895	1.904	1.919	1.909	1.904
0.005	-0.015	0.000	0.000	0.000	0.005	0.181	2.637	1.914	1.899	1.904	1.919	1.914	1.914
0.005	-0.010	0.005	0.005	0.010	0.024	0.181	2.739	1.919	1.909	1.904	1.919	1.914	1.919
0.000	0.005	0.000	0.005	0.000	0.020	0.181	2.632	1.904	1.909	1.904	1.924	1.914	1.919
0.000	0.000	0.005	0.000	0.005	0.015	0.181	2.627	1.890	1.899	1.899	1.919	1.914	1.914
0.000	0.005	0.005	0.000	0.005	0.005	0.181	2.622	1.890	1.895	1.895	1.914	1.909	1.909
0.005	-0.005	0.005	0.000	0.005	-0.024	0.186	2.671	1.885	1.885	1.890	1.909	1.909	1.899
0.005	0.005	0.000	0.005	0.005	0.000	0.181	2.632	1.880	1.880	1.885	1.904	1.904	1.904
0.000	0.005	0.005	0.000	0.015	-0.015	0.176	2.690	1.880	1.880	1.880	1.899	1.899	1.895
0.000	0.000	0.000	0.005	0.015	-0.005	0.186	2.646	1.875	1.875	1.875	1.899	1.904	1.899
0.000	0.000	0.000	0.000	0.029	-0.015	0.181	2.671	1.875	1.875	1.875	1.895	1.899	1.899
0.005	-0.005	0.000	0.000	0.029	-0.005	0.186	2.720	1.885	1.875	1.875	1.899	1.899	1.899
0.010	-0.005	0.005	0.005	0.015	0.010	0.181	2.822	1.904	1.885	1.880	1.899	1.895	1.899
-0.005	0.010	0.005	0.000	0.020	-0.010	0.181	2.729	1.899	1.895	1.885	1.899	1.899	1.895
0.000	0.020	0.000	0.005	0.020	-0.005	0.181	2.676	1.904	1.904	1.895	1.904	1.899	1.904
0.005	0.005	0.000	0.005	0.015	-0.029	0.186	2.681	1.914	1.904	1.899	1.909	1.904	1.895
0.010	0.020	0.000	0.005	0.020	-0.015	0.181	2.681	1.914	1.914	1.904	1.919	1.909	1.909
0.005	0.010	0.000	0.000	0.005	-0.020	0.186	2.710	1.914	1.909	1.909	1.919	1.909	1.909
0.005	0.010	0.000	0.005	0.005	-0.024	0.176	2.705	1.909	1.909	1.909	1.924	1.909	1.909
0.010	0.005	0.005	0.005	0.010	0.000	0.181	2.710	1.909	1.909	1.909	1.924	1.914	1.919
-0.010	-0.015	0.005	0.010	0.005	0.020	0.176	2.710	1.904	1.899	1.904	1.924	1.914	1.919
-0.005	-0.010	0.005	0.005	0.005	0.010	0.186	2.681	1.899	1.899	1.899	1.919	1.914	1.909
-0.005	-0.005	0.000	0.005	0.005	0.005	0.181	2.705	1.890	1.895	1.895	1.914	1.909	1.909
-0.005	-0.010	0.000	0.000	0.005	-0.020	0.186	2.710	1.890	1.885	1.885	1.909	1.904	1.895
0.000	0.000	0.000	0.005	0.005	0.000	0.181	2.705	1.890	1.890	1.885	1.904	1.904	1.904
0.005	-0.005	0.000	0.005	0.000	0.005	0.190	2.705	1.885	1.880	1.885	1.899	1.899	1.899
-0.005	0.000	0.005	0.010	-0.005	0.010	0.181	2.715	1.890	1.880	1.880	1.899	1.895	1.895
0.005	-0.020	0.000	0.000	-0.010	-0.015	0.181	2.676	1.885	1.875	1.880	1.899	1.895	1.890
0.000	-0.015	0.005	0.005	-0.005	0.024	0.181	2.671	1.885	1.880	1.880	1.899	1.895	1.904
0.005	0.000	0.000	0.005	-0.015	0.020	0.186	2.686	1.895	1.890	1.885	1.904	1.895	1.904
0.005	-0.005	0.010	0.000	-0.015	0.010	0.181	2.710	1.899	1.899	1.890	1.904	1.899	1.904
0.005	0.010	0.000	0.000	-0.010	0.024	0.190	2.710	1.904	1.904	1.895	1.909	1.904	1.909
0.000	0.015	0.000	0.000	-0.015	0.015	0.186	2.681	1.904	1.909	1.899	1.914	1.909	1.909
0.005	0.005	0.010	0.000	-0.010	0.015	0.181	2.705	1.909	1.909	1.904	1.919	1.909	1.909
0.000	-0.005	0.005	0.000	-0.005	-0.010	0.186	2.700	1.909	1.909	1.909	1.924	1.914	1.904
0.005	0.015	0.005	0.000	-0.015	0.015	0.186	2.710	1.909	1.914	1.909	1.924	1.914	1.914
-0.005	0.029	0.000	0.000	-0.010	0.020	0.181	2.700	1.904	1.914	1.909	1.924	1.919	1.914
0.005	0.010	0.000	0.000	-0.010	0.015	0.186	2.646	1.895	1.899	1.904	1.924	1.914	1.914
0.000	0.000	-0.005	0.000	-0.015	0.005	0.181	2.656	1.890	1.890	1.895	1.919	1.909	1.909
-0.005	0.000	0.000	0.000	-0.005	0.005	0.181	2.788	1.895	1.890	1.890	1.914	1.909	1.899
0.000	-0.005	0.000	0.000	-0.005	0.005	0.181	2.642	1.880	1.885	1.885	1.909	1.909	1.904
0.005	0.005	0.005	0.000	-0.005	0.005	0.190	2.637	1.875	1.880	1.880	1.904	1.904	1.904
0.010	0.015	0.000	0.000	0.000	-0.010	0.181	2.632	1.875	1.880	1.875	1.899	1.899	1.895
0.000	0.010	0.000	0.000	0.005	-0.020	0.186	2.666	1.870	1.875	1.880	1.899	1.899	1.895
0.010	0.010	0.000	0.000	0.005	0.005	0.181	2.749	1.890	1.880	1.875	1.895	1.899	1.904
0.005	-0.010	0.005	0.000	0.000	-0.010	0.181	2.759	1.895	1.880	1.880	1.899	1.895	1.899
0.000	-0.005	0.000	-0.005	0.005	0.000	0.176	2.642	1.895	1.885	1.880	1.899	1.899	1.899
0.000	0.005	0.005	0.005	0.000	0.010	0.186	2.651	1.895	1.895	1.890	1.904	1.899	1.904
-0.005	0.000	0.005	0.000	0.010	0.000	0.176	2.700	1.904	1.899	1.895	1.909	1.904	1.904
0.000	0.000	0.000	0.000	0.005	-0.005	0.181	2.622	1.899	1.904	1.895	1.914	1.909	1.904
0.010	0.005	0.000	0.005	0.000	0.005	0.176	2.671	1.899	1.904	1.899	1.919	1.909	1.914
0.000	0.005	0.000	0.000	-0.010	-0.005	0.181	2.720	1.895	1.899	1.899	1.919	1.904	1.909
0.000	-0.005	0.000	0.005	-0.020	0.005	0.181	2.808	1.909	1.899	1.899	1.919	1.909	1.909
0.005	0.005	0.000	0.000	-0.005	-0.015	0.186	2.744	1.899	1.904	1.899	1.919	1.909	1.904
0.005	0.015	0.005	0.000	-0.005	-0.024	0.176	2.700	1.899	1.895	1.895	1.919	1.909	1.904
-0.005	-0.005	0.000	0.000	-0.005	0.010	0.181	2.710	1.890	1.890	1.890	1.909	1.909	1.909
0.000	-0.005	0.005	0.005	0.015	0.000	0.181	2.671	1.890	1.885	1.885	1.909	1.909	1.904
0.000	-0.005	0.005	0.005	0.029	0.010	0.186	2.705	1.885	1.880	1.885	1.904	1.909	1.904
-0.005	0.015	-0.005	0.000	0.024	-0.005	0.186	2.705	1.880	1.885	1.880	1.899	1.899	1.899
-0.005	0.010	0.000	0.000	0.010	0.010	0.186	2.686	1.885	1.880	1.875	1.895	1.895	1.899
0.005	-0.005	0.005	0.010	0.010	0.010	0.181	2.715	1.890	1.875	1.875	1.899	1.895	1.899
-0.005	0.000	0.000	0.005	0.005	0.015	0.181	2.666	1.880	1.880	1.880	1.895	1.890	1.899
-0.005	0.005	0.000	0.000	0.010	0.010	0.176	2.681	1.890	1.880	1.880	1.899	1.890	1.895
-0.005	0.010	0.005	0.000	0.005	0.010	0.181	2.686	1.895	1.890	1.885	1.904	1.895	1.895
0.010	-0.005	0.005	0.000	0.005	0.010	0.181	2.695	1.909	1.899	1.890	1.904	1.899	1.899
0.015	0.005	0.000	0.010	0.010	0.000	0.176	2.695	1.909	1.904	1.899	1.909	1.904	1.899
0.015	0.005	0.000	0.005	0.005	0.010	0.181	2.681	1.914	1.909	1.904	1.919	1.909	1.909
0.000	0.005	0.000	-0.005	-0.005	-0.015	0.181	2.690	1.904	1.909	1.904	1.919	1.909	1.904
-0.005	0.010	0.000	0.005	-0.005	-0.010	0.181	2.710	1.909	1.909	1.904	1.919	1.909	1.904
0.000	0.005	0.005	0.000	0.010	0.015	0.186	2.710	1.909	1.904	1.904	1.924	1.919	1.914
-0.005	-0.005	0.005	0.000	0.005	0.015	0.181	2.686	1.899	1.899	1.899	1.919	1.914	1.914
-0.005	0.000	0.000	0.000	0.005	-0.015	0.181	2.671	1.890	1.899	1.895	1.914	1.909	1.904
-0.015	0.005	0.005	0.000	0.005	0.010	0.181	2.671	1.885	1.890	1.895	1.914	1.909	1.904
0.005	0.005	0.005	0.000	0.000	-0.005	0.181	2.710	1.890	1.890	1.885	1.909	1.904	1.899
0.005	0.005	0.000	0.000	-0.005	0.000	0.186	2.681	1.885	1.880	1.880	1.899	1.899	1.899
0.005	-0.005	0.000	0.000	0.000	-0.015	0.181	2.661	1.875	1.875	1.880	1.899	1.895	1.890
0.010	-0.005	0.000	0.000	0.000	-0.015	0.181	2.686	1.880	1.875	1.875	1.899	1.895	1.895
0.010	-0.005	0.000	0.000	-0.010	-0.010	0.181	2.642	1.875	1.875	1.875	1.895	1.895	1.895
0.010	0.005	0.005	0.005	0.000	0.000	0.181	2.656	1.875	1.875	1.875	1.895	1.895	1.895
0.010	-0.005	0.005	0.005	0.005	-0.005	0.181	2.793	1.895	1.885	1.880	1.899	1.904	1.899
0.000	-0.010	0.005	0.000	0.010	-0.029	0.176	2.651	1.890	1.885	1.885	1.899	1.899	1.899
0.000	-0.024	0.000	0.000	0.010	0.005	0.181	2.637	1.890	1.885	1.885	1.904	1.904	1.909
0.000	0.015	-0.005	0.000	-0.005	0.010	0.181	2.632	1.890	1.904	1.890	1.909	1.904	1.904
-0.005	0.020	-0.005	0.005	0.000	0.015	0.181	2.666	1.909	1.904	1.899	1.914	1.909	1.909
0.000	0.000	0.000	0.005	0.010	0.029	0.181	2.642	1.904	1.899	1.899	1.914	1.914	1.914
0.000	-0.005	0.000	0.005	0.015	0.024	0.181	2.764	1.909	1.904	1.904	1.914	1.909	1.914
0.005	0.005	0.000	0.000	-0.005	-0.005	0.181	2.651	1.904	1.904	1.904	1.914	1.904	1.904
0.010	0.005	0.000	0.000	-0.005	-0.034	0.181	2.627	1.890	1.895	1.899	1.914	1.904	1.899
0.000	-0.020	0.000	0.005	0.005	-0.005	0.181	2.651	1.880	1.885	1.890	1.914	1.904	1.904
0.000	0.010	0.000	0.000	0.010	0.000	0.181	2.710	1.885	1.890	1.890	1.909	1.904	1.904
0.005	0.005	0.000	0.005	0.000	-0.010	0.186	2.705	1.880	1.880	1.885	1.904	1.899	1.899
0.010	-0.005	0.005	0.000	-0.015	-0.010	0.181	2.720	1.885	1.875	1.880	1.899	1.890	1.895
0.015	0.010	0.005	0.000	-0.015	0.000	0.186	2.773	1.899	1.885	1.880	1.895	1.890	1.895
0.000	0.029	0.005	0.000	-0.010	0.000	0.181	2.725	1.895	1.885	1.875	1.895	1.890	1.890
0.005	-0.015	0.000	0.000	0.000	0.015	0.181	2.671	1.890	1.870	1.875	1.895	1.895	1.895
0.010	-0.010	0.005	0.000	0.000	0.005	0.176	2.710	1.895	1.880	1.880	1.899	1.895	1.895
0.000	0.005	0.005	0.000	0.010	-0.010	0.186	2.676	1.899	1.895	1.885	1.899	1.899	1.890
0.005	0.010	0.005	0.000	0.010	0.015	0.181	2.715	1.904	1.899	1.890	1.904	1.904	1.904
0.000	0.005	0.000	0.000	0.015	0.020	0.181	2.720	1.904	1.904	1.895	1.909	1.909	1.909
0.005	0.000	0.000	0.005	0.005	0.015	0.181	2.690	1.909	1.909	1.899	1.919	1.909	1.909
0.000	0.005	0.000	0.005	0.000	0.000	0.186	2.715	1.914	1.914	1.904	1.919	1.909	1.909
-0.005	-0.005	-0.005	0.005	0.000	0.010	0.181	2.681	1.909	1.909	1.904	1.924	1.914	1.909
0.000	-0.054	0.000	0.000	0.005	0.010	0.181	2.695	1.904	1.890	1.899	1.919	1.919	1.909
0.005	0.000	0.000	0.000	0.010	0.005	0.176	2.700	1.904	1.914	1.904	1.919	1.914	1.909
-0.005	0.024	0.005	-0.005	0.005	0.000	0.181	2.705	1.899	1.909	1.904	1.919	1.914	1.909
-0.005	-0.005	0.000	0.000	0.000	-0.010	0.176	2.715	1.899	1.895	1.899	1.914	1.904	1.904
0.005	0.015	0.000	0.000	0.000	-0.005	0.181	2.676	1.890	1.895	1.895	1.914	1.904	1.899
-0.005	0.020	0.000	-0.005	-0.005	0.015	0.181	2.710	1.880	1.890	1.890	1.909	1.904	1.904
0.000	0.010	0.000	0.000	0.005	0.010	0.181	2.681	1.875	1.880	1.885	1.904	1.899	1.899
-0.005	0.010	0.000	0.000	0.000	0.015	0.181	2.725	1.880	1.875	1.880	1.904	1.899	1.899
-0.005	0.005	0.005	0.000	0.000	0.005	0.181	2.671	1.880	1.875	1.875	1.899	1.899	1.895
-0.005	0.000	0.005	0.000	0.000	0.000	0.181	2.700	1.885	1.880	1.880	1.899	1.895	1.895
0.005	0.000	0.000	0.005	0.000	0.005	0.186	2.671	1.890	1.880	1.880	1.904	1.899	1.899
0.000	-0.005	0.005	0.005	0.005	0.010	0.176	2.705	1.899	1.885	1.885	1.904	1.899	1.904
0.010	0.000	0.005	0.000	0.000	-0.015	0.186	2.690	1.904	1.895	1.890	1.909	1.899	1.895
0.000	-0.005	0.005	0.005	0.000	-0.010	0.181	2.676	1.899	1.899	1.895	1.909	1.909	1.899
0.000	-0.005	0.000	0.000	0.000	0.000	0.181	2.695	1.904	1.899	1.895	1.914	1.909	1.909
0.005	-0.005	0.005	0.000	0.000	0.015	0.181	2.632	1.904	1.904	1.899	1.919	1.914	1.914
0.010	-0.005	0.000	0.005	0.000	0.005	0.190	2.656	1.899	1.904	1.899	1.919	1.914	1.914
0.005	0.000	-0.005	0.005	0.000	0.000	0.176	2.778	1.909	1.909	1.899	1.919	1.909	1.909
0.000	0.034	0.000	0.000	-0.005	-0.010	0.186	2.646	1.899	1.909	1.904	1.914	1.909	1.904
0.000	0.000	0.000	0.005	0.000	0.000	0.181	2.642	1.885	1.890	1.895	1.914	1.909	1.909
0.005	0.005	0.005	0.005	0.005	0.000	0.186	2.632	1.880	1.885	1.890	1.909	1.909	1.904
0.005	-0.010	0.000	0.005	0.005	0.005	0.181	2.627	1.870	1.870	1.880	1.904	1.904	1.904
-0.005	-0.005	-0.005	0.005	0.000	0.005	0.181	2.622	1.865	1.870	1.875	1.899	1.899	1.899
0.005	0.024	0.000	0.000	-0.005	0.005	0.181	2.720	1.870	1.870	1.870	1.895	1.895	1.895
0.000	0.010	0.000	0.000	0.000	0.000	0.181	2.637	1.865	1.865	1.870	1.885	1.890	1.895
0.000	0.010	0.005	0.000	0.005	0.000	0.176	2.627	1.865	1.865	1.870	1.890	1.890	1.890
-0.005	-0.010	0.000	0.005	0.010	0.010	0.186	2.671	1.870	1.860	1.865	1.890	1.895	1.899
0.000	-0.005	0.000	0.000	0.000	-0.010	0.176	2.627	1.875	1.870	1.870	1.890	1.890	1.890
-0.005	0.010	0.000	0.000	0.005	0.024	0.181	2.676	1.880	1.880	1.875	1.890	1.890	1.904
0.005	0.010	0.005	0.005	0.000	0.029	0.176	2.720	1.880	1.880	1.880	1.895	1.890	1.899
0.010	-0.005	0.005	0.000	-0.005	0.020	0.186	2.808	1.904	1.885	1.880	1.899	1.895	1.895
0.010	-0.010	0.000	0.005	-0.005	0.005	0.181	2.749	1.904	1.895	1.890	1.904	1.899	1.899
0.005	0.000	0.000	0.000	-0.010	-0.005	0.186	2.705	1.909	1.899	1.890	1.904	1.895	1.895
0.010	0.000	0.000	0.000	0.000	0.005	0.181	2.710	1.909	1.899	1.895	1.909	1.904	1.899
0.015	-0.005	0.000	-0.005	0.005	0.000	0.181	2.686	1.904	1.899	1.895	1.909	1.899	1.899
-0.005	0.000	0.000	0.000	-0.005	-0.010	0.176	2.705	1.895	1.895	1.895	1.909	1.899	1.895
-0.010	0.000	0.000	0.000	0.000	-0.005	0.181	2.686	1.890	1.890	1.885	1.909	1.899	1.895
-0.005	0.000	0.000	0.000	0.005	-0.020	0.176	2.686	1.885	1.880	1.885	1.904	1.899	1.890
-0.005	-0.010	0.005	0.000	0.005	0.005	0.181	2.715	1.880	1.875	1.880	1.899	1.895	1.895
-0.005	-0.010	0.010	0.000	-0.005	0.005	0.176	2.681	1.875	1.870	1.875	1.895	1.890	1.890
0.000	-0.005	0.005	0.000	0.000	0.005	0.186	2.720	1.885	1.875	1.870	1.890	1.890	1.890
0.005	0.000	0.000	0.005	0.000	-0.020	0.176	2.715	1.885	1.875	1.870	1.890	1.885	1.880
-0.005	0.015	0.005	0.000	0.010	-0.005	0.186	2.710	1.885	1.885	1.875	1.890	1.890	1.890
0.005	0.005	0.005	0.005	0.005	0.015	0.176	2.710	1.895	1.880	1.880	1.895	1.890	1.895
-0.005	0.000	0.000	0.000	0.000	0.015	0.181	2.681	1.899	1.890	1.880	1.895	1.895	1.895
0.005	0.005	0.000	0.000	0.015	-0.010	0.181	2.686	1.899	1.895	1.890	1.899	1.895	1.890
-0.005	0.015	0.000	0.000	0.005	-0.020	0.186	2.720	1.904	1.904	1.895	1.904	1.899	1.890
0.015	0.015	0.005	0.000	0.000	0.000	0.181	2.715	1.914	1.909	1.904	1.914	1.904	1.899
0.005	-0.005	0.000	0.000	-0.005	0.005	0.181	2.681	1.909	1.904	1.904	1.914	1.909	1.909
0.000	-0.010	0.000	0.005	0.000	0.010	0.186	2.700	1.909	1.904	1.904	1.919	1.914	1.909
-0.005	-0.005	0.005	0.000	0.010	-0.005	0.186	2.700	1.909	1.909	1.904	1.919	1.914	1.909
0.000	0.000	0.005	0.005	0.005	0.020	0.186	2.715	1.904	1.909	1.904	1.924	1.914	1.914
0.005	0.000	0.000	0.000	0.005	-0.005	0.186	2.676	1.899	1.899	1.899	1.914	1.909	1.899
0.015	-0.010	0.000	0.000	0.000	0.015	0.181	2.671	1.895	1.895	1.895	1.914	1.909	1.909
0.010	-0.005	0.005	0.005	0.010	0.015	0.176	2.676	1.880	1.890	1.890	1.909	1.904	1.904
0.005	0.010	0.000	0.000	0.005	0.005	0.181	2.622	1.875	1.885	1.885	1.904	1.904	1.899
0.005	0.000	0.000	0.010	0.005	0.010	0.181	2.651	1.870	1.875	1.880	1.904	1.899	1.899
0.005	0.010	0.000	0.000	-0.005	0.005	0.181	2.793	1.885	1.875	1.875	1.895	1.890	1.890
0.005	0.005	0.000	0.005	-0.010	0.005	0.181	2.642	1.875	1.875	1.875	1.895	1.895	1.895
-0.005	0.000	0.000	0.000	-0.005	0.010	0.181	2.646	1.870	1.870	1.875	1.895	1.890	1.895
-0.005	0.005	0.005	0.005	-0.005	-0.005	0.181	2.642	1.875	1.875	1.875	1.895	1.895	1.890
-0.005	0.005	0.005	0.005	0.005	0.015	0.181	2.778	1.890	1.880	1.885	1.899	1.899	1.899
-0.005	-0.005	0.000	0.005	0.010	0.010	0.186	2.734	1.899	1.890	1.885	1.904	1.899	1.899
0.010	0.010	0.005	0.000	0.000	0.015	0.186	2.759	1.919	1.899	1.890	1.904	1.899	1.904
0.024	0.010	0.000	-0.005	0.000	0.000	0.181	2.681	1.919	1.909	1.899	1.909	1.904	1.899
0.015	0.000	0.010	-0.005	0.005	0.010	0.181	2.666	1.909	1.909	1.904	1.914	1.909	1.909
0.015	0.010	0.005	0.000	0.000	0.005	0.181	2.671	1.904	1.909	1.904	1.919	1.909	1.904
-0.005	0.000	0.000	0.005	0.000	-0.015	0.181	2.720	1.899	1.904	1.899	1.919	1.909	1.904
-0.020	0.000	0.005	0.000	0.005	-0.010	0.186	2.666	1.885	1.899	1.899	1.914	1.909	1.904
-0.024	0.000	0.000	0.005	-0.005	0.000	0.186	2.720	1.885	1.890	1.895	1.914	1.909	1.909
-0.029	0.010	0.000	0.005	0.015	-0.010	0.186	2.783	1.890	1.890	1.895	1.914	1.909	1.909
-0.020	-0.005	0.000	0.005	0.010	0.005	0.181	2.715	1.895	1.880	1.885	1.909	1.899	1.904
-0.010	-0.010	0.010	0.000	0.000	0.010	0.181	2.686	1.885	1.880	1.880	1.904	1.899	1.899
-0.005	-0.005	0.000	0.005	-0.005	-0.010	0.181	2.700	1.885	1.880	1.880	1.895	1.890	1.895
0.000	0.005	0.000	0.005	-0.005	0.005	0.181	2.681	1.880	1.880	1.875	1.895	1.890	1.895
0.005	0.005	0.000	0.000	-0.010	0.010	0.181	2.715	1.890	1.880	1.875	1.895	1.890	1.890
0.010	-0.005	0.005	0.000	0.000	0.005	0.181	2.700	1.890	1.885	1.880	1.895	1.895	1.895
0.005	-0.005	0.000	0.000	0.015	0.005	0.186	2.681	1.895	1.890	1.885	1.899	1.899	1.899
0.015	0.000	0.005	0.005	0.015	0.010	0.186	2.720	1.899	1.890	1.890	1.909	1.899	1.899
0.005	0.000	0.000	0.000	0.000	0.000	0.186	2.681	1.899	1.899	1.890	1.909	1.904	1.899
0.005	-0.005	0.000	0.000	0.005	0.000	0.181	2.666	1.899	1.899	1.899	1.909	1.909	1.904
0.000	0.010	-0.005	0.000	0.000	-0.020	0.181	2.710	1.909	1.909	1.904	1.919	1.909	1.904
-0.005	0.024	0.000	0.000	0.005	0.010	0.181	2.715	1.909	1.909	1.909	1.919	1.914	1.914
0.005	-0.005	0.000	0.000	0.010	0.010	0.181	2.710	1.909	1.904	1.909	1.924	1.914	1.914
0.000	-0.010	0.000	0.005	0.000	0.015	0.181	2.671	1.904	1.904	1.904	1.919	1.914	1.914
0.005	0.000	-0.005	0.005	0.000	0.000	0.181	2.690	1.899	1.899	1.899	1.919	1.914	1.909
0.015	0.000	0.005	0.000	-0.005	-0.024	0.176	2.676	1.895	1.895	1.895	1.914	1.904	1.899
0.015	0.000	0.000	0.000	-0.020	-0.010	0.186	2.715	1.890	1.890	1.895	1.914	1.899	1.899
0.005	0.000	0.000	0.000	-0.010	-0.015	0.181	2.681	1.875	1.885	1.885	1.904	1.899	1.895
0.005	0.000	0.000	0.000	-0.010	-0.005	0.186	2.695	1.880	1.880	1.880	1.899	1.899	1.895
0.015	0.000	0.000	0.000	-0.010	0.005	0.181	2.671	1.875	1.875	1.875	1.899	1.895	1.899
-0.005	0.000	0.005	0.000	0.005	-0.010	0.181	2.681	1.875	1.875	1.875	1.899	1.899	1.895
0.010	0.005	0.005	0.000	0.020	0.024	0.181	2.686	1.880	1.875	1.875	1.899	1.904	1.904
0.005	-0.005	0.005	0.005	0.020	0.010	0.186	2.705	1.885	1.880	1.875	1.899	1.899	1.899
0.010	-0.005	0.005	0.010	0.020	-0.015	0.186	2.695	1.895	1.890	1.880	1.904	1.899	1.895
0.010	0.000	0.005	0.005	0.010	0.020	0.181	2.651	1.895	1.890	1.885	1.904	1.904	1.909
0.010	0.000	0.005	0.000	0.010	0.010	0.181	2.661	1.899	1.895	1.890	1.909	1.904	1.904
0.000	0.000	0.000	0.000	0.005	-0.010	0.186	2.798	1.914	1.899	1.895	1.909	1.904	1.899
0.000	-0.005	0.000	0.000	-0.005	-0.015	0.176	2.637	1.909	1.904	1.899	1.914	1.904	1.909
-0.015	0.000	0.000	0.005	0.005	-0.005	0.186	2.646	1.899	1.904	1.899	1.919	1.909	1.909
-0.005	0.010	0.005	0.000	0.010	0.010	0.181	2.651	1.895	1.909	1.904	1.919	1.914	1.909
0.000	0.000	0.005	0.000	0.000	0.015	0.190	2.734	1.890	1.899	1.904	1.914	1.909	1.909
0.000	0.000	0.005	0.000	0.000	-0.015	0.181	2.744	1.899	1.895	1.895	1.914	1.909	1.899
0.005	-0.005	0.000	0.000	-0.005	0.015	0.186	2.754	1.899	1.890	1.895	1.909	1.904	1.909
-0.005	0.010	-0.005	0.000	0.000	-0.015	0.181	2.676	1.885	1.890	1.890	1.909	1.899	1.895
-0.010	0.010	0.000	0.000	0.005	0.010	0.186	2.749	1.890	1.880	1.885	1.904	1.899	1.899
-0.020	0.015	0.000	0.000	0.010	0.015	0.181	2.666	1.875	1.880	1.880	1.899	1.899	1.899
-0.010	0.000	0.000	0.000	-0.005	0.005	0.181	2.720	1.885	1.875	1.875	1.895	1.890	1.890
-0.005	-0.005	0.000	0.000	-0.005	0.010	0.181	2.700	1.885	1.875	1.875	1.895	1.895	1.890
-0.005	-0.034	0.000	0.000	-0.010	-0.005	0.186	2.720	1.890	1.875	1.875	1.895	1.890	1.885
0.005	-0.005	0.000	0.005	-0.005	0.024	0.181	2.783	1.904	1.890	1.880	1.899	1.899	1.899
0.005	0.039	0.000	0.000	0.000	0.015	0.181	2.710	1.909	1.909	1.890	1.904	1.899	1.895
0.000	0.000	0.005	0.000	0.020	0.015	0.181	2.715	1.909	1.899	1.895	1.909	1.909	1.904
0.010	-0.024	0.005	0.000	0.015	0.010	0.181	2.710	1.914	1.904	1.899	1.914	1.909	1.904
0.010	-0.005	0.000	0.000	0.010	-0.020	0.186	2.681	1.914	1.914	1.904	1.919	1.909	1.904
0.005	-0.010	0.000	0.000	-0.005	-0.005	0.186	2.715	1.914	1.914	1.909	1.924	1.909	1.909
0.000	0.054	0.005	0.005	0.005	0.000	0.176	2.671	1.904	1.934	1.919	1.924	1.914	1.909
0.010	0.039	0.000	0.005	-0.005	0.010	0.186	2.686	1.909	1.919	1.914	1.929	1.919	1.914
0.005	0.000	0.005	0.000	-0.015	0.005	0.176	2.715	1.904	1.899	1.909	1.924	1.909	1.909
0.000	-0.010	0.005	0.000	-0.005	-0.015	0.181	2.671	1.890	1.895	1.904	1.924	1.914	1.904
0.000	-0.005	0.005	0.005	0.010	0.005	0.176	2.681	1.885	1.885	1.895	1.919	1.914	1.914
0.000	0.000	0.000	0.000	0.005	0.010	0.181	2.710	1.885	1.885	1.890	1.914	1.909	1.909
0.000	0.000	0.000	0.000	0.005	-0.005	0.176	2.710	1.890	1.880	1.880	1.909	1.904	1.899
0.005	0.015	0.005	0.000	0.010	0.020	0.186	2.705	1.890	1.885	1.880	1.904	1.904	1.909
0.005	0.010	-0.005	0.005	0.015	0.015	0.181	2.676	1.880	1.880	1.875	1.899	1.904	1.904
0.005	0.005	0.000	0.005	0.010	0.010	0.181	2.666	1.880	1.880	1.880	1.899	1.895	1.899
0.000	-0.005	0.005	0.000	-0.005	0.005	0.176	2.695	1.895	1.885	1.880	1.899	1.895	1.899
0.005	-0.015	0.005	0.000	0.000	-0.010	0.186	2.710	1.899	1.885	1.880	1.899	1.899	1.895
0.000	-0.015	0.005	0.000	0.005	-0.015	0.186	2.686	1.899	1.890	1.890	1.904	1.899	1.899
-0.005	-0.029	0.000	-0.005	0.005	-0.010	0.186	2.710	1.904	1.890	1.890	1.904	1.904	1.904
0.000	-0.010	0.005	0.000	-0.005	-0.010	0.176	2.681	1.909	1.904	1.895	1.909	1.904	1.909
-0.015	0.020	0.005	-0.005	0.000	-0.010	0.181	2.671	1.904	1.919	1.904	1.919	1.909	1.909
0.000	0.015	0.000	0.000	0.005	0.005	0.176	2.681	1.909	1.909	1.904	1.919	1.914	1.919
0.000	0.005	-0.005	0.000	0.010	0.010	0.186	2.715	1.909	1.909	1.904	1.924	1.914	1.914
0.010	0.000	0.005	0.000	0.005	0.000	0.181	2.695	1.909	1.904	1.904	1.924	1.914	1.909
-0.005	0.010	0.000	0.000	0.015	0.000	0.181	2.651	1.899	1.909	1.904	1.919	1.914	1.914
0.000	-0.005	0.000	0.000	0.015	0.015	0.181	2.656	1.885	1.890	1.895	1.914	1.914	1.914
0.000	-0.005	0.000	0.005	-0.005	-0.010	0.186	2.646	1.880	1.885	1.890	1.909	1.899	1.904
0.000	-0.005	0.000	0.005	0.000	0.010	0.181	2.651	1.875	1.880	1.885	1.904	1.904	1.909
0.000	-0.005	0.005	0.000	0.005	0.010	0.186	2.627	1.870	1.870	1.880	1.899	1.899	1.904
-0.005	0.010	0.005	0.005	0.010	0.010	0.176	2.729	1.875	1.870	1.875	1.895	1.899	1.899
0.000	-0.005	0.000	0.005	0.000	0.000	0.186	2.754	1.875	1.875	1.870	1.895	1.895	1.895
0.010	0.010	0.000	0.005	-0.005	-0.010	0.181	2.661	1.890	1.880	1.875	1.895	1.890	1.890
0.005	0.015	0.000	0.005	-0.015	0.000	0.186	2.744	1.895	1.885	1.875	1.890	1.885	1.890
-0.005	0.005	0.005	-0.005	-0.005	0.005	0.181	2.651	1.890	1.885	1.880	1.895	1.895	1.899
0.000	0.010	0.005	0.005	0.005	0.005	0.186	2.754	1.899	1.895	1.885	1.904	1.899	1.899
0.005	0.005	0.005	0.000	0.000	0.010	0.186	2.700	1.914	1.899	1.895	1.904	1.899	1.904
0.000	0.005	0.000	0.005	0.005	-0.005	0.186	2.637	1.904	1.904	1.899	1.909	1.909	1.904
0.000	0.000	0.000	0.000	0.015	0.015	0.181	2.676	1.904	1.909	1.899	1.914	1.909	1.909
-0.010	0.005	0.000	0.000	0.015	0.000	0.181	2.720	1.904	1.909	1.904	1.919	1.914	1.904
-0.005	-0.005	0.000	0.005	0.005	0.010	0.176	2.788	1.914	1.909	1.904	1.919	1.914	1.914
-0.005	-0.005	0.000	0.005	-0.005	0.010	0.181	2.729	1.914	1.904	1.904	1.919	1.909	1.909
0.005	0.000	0.005	0.005	-0.005	0.000	0.181	2.676	1.904	1.904	1.899	1.919	1.909	1.904
0.005	-0.005	0.005	0.000	0.005	0.005	0.181	2.676	1.895	1.895	1.895	1.914	1.909	1.904
0.000	-0.005	0.005	0.005	0.010	0.010	0.181	2.671	1.885	1.890	1.890	1.909	1.909	1.904
-0.005	0.000	0.000	0.005	0.000	-0.005	0.181	2.705	1.885	1.890	1.885	1.904	1.904	1.899
0.005	0.000	-0.010	0.005	0.005	-0.005	0.181	2.671	1.875	1.880	1.880	1.904	1.895	1.895
0.005	0.024	0.000	0.000	0.005	0.000	0.181	2.715	1.880	1.885	1.880	1.899	1.895	1.895
0.000	0.015	0.000	0.000	0.000	0.010	0.176	2.710	1.885	1.880	1.875	1.899	1.895	1.895
0.005	0.015	0.000	0.000	0.000	-0.010	0.186	2.700	1.890	1.885	1.880	1.899	1.895	1.890
0.005	-0.034	0.005	0.010	0.010	0.000	0.181	2.715	1.895	1.875	1.880	1.904	1.899	1.899
0.005	-0.010	0.005	0.000	0.005	-0.005	0.186	2.686	1.895	1.890	1.880	1.899	1.899	1.899
0.000	0.020	0.000	0.000	0.000	-0.005	0.181	2.715	1.904	1.909	1.895	1.904	1.899	1.904
0.000	0.010	-0.005	0.000	0.000	-0.005	0.181	2.681	1.904	1.904	1.895	1.909	1.904	1.904
0.000	-0.005	0.000	0.000	-0.010	0.015	0.186	2.676	1.909	1.904	1.899	1.914	1.904	1.909
0.000	-0.010	0.000	0.000	-0.015	0.000	0.181	2.671	1.904	1.904	1.899	1.919	1.909	1.909
0.005	0.005	0.000	0.000	-0.005	0.015	0.181	2.686	1.904	1.909	1.909	1.924	1.914	1.914
0.005	0.020	0.000	0.005	0.000	0.015	0.186	2.686	1.904	1.914	1.904	1.924	1.914	1.914
0.010	0.010	0.000	0.000	0.005	0.010	0.186	2.725	1.909	1.904	1.904	1.919	1.914	1.909
0.039	0.000	0.000	0.000	0.005	-0.020	0.186	2.715	1.909	1.899	1.899	1.919	1.914	1.904
0.024	0.005	0.000	0.000	0.005	0.005	0.186	2.710	1.895	1.899	1.895	1.914	1.909	1.909
0.005	0.005	0.000	0.000	0.005	-0.010	0.181	2.671	1.880	1.890	1.890	1.909	1.904	1.899
-0.020	0.000	0.005	0.005	0.000	0.000	0.186	2.705	1.870	1.875	1.890	1.909	1.904	1.899
-0.029	0.010	0.005	0.005	0.005	0.005	0.186	2.695	1.870	1.875	1.880	1.904	1.899	1.899
-0.034	0.010	0.010	0.000	0.000	0.010	0.186	2.700	1.875	1.875	1.880	1.899	1.899	1.899
-0.039	-0.005	0.005	0.005	0.000	0.010	0.186	2.661	1.875	1.870	1.875	1.895	1.895	1.899
-0.020	-0.005	0.005	0.000	0.005	0.000	0.186	2.661	1.885	1.870	1.870	1.895	1.899	1.895
0.000	-0.010	0.005	0.005	-0.005	0.000	0.186	2.798	1.904	1.885	1.880	1.895	1.895	1.895
0.010	0.000	0.005	0.000	0.000	0.010	0.186	2.642	1.904	1.895	1.885	1.899	1.899	1.904
-0.005	0.000	0.000	0.005	0.000	0.010	0.181	2.642	1.899	1.899	1.890	1.904	1.904	1.904
0.005	-0.005	0.000	0.005	0.000	-0.010	0.186	2.646	1.904	1.904	1.895	1.909	1.904	1.895
0.010	0.000	-0.005	0.005	0.000	0.000	0.181	2.651	1.899	1.904	1.899	1.914	1.909	1.904
0.005	0.000	0.005	0.005	0.005	0.010	0.186	2.656	1.895	1.904	1.904	1.919	1.914	1.914
0.005	0.000	0.005	0.000	0.000	0.005	0.181	2.749	1.909	1.904	1.904	1.919	1.914	1.914
0.015	0.015	-0.005	0.000	-0.005	0.010	0.186	2.642	1.899	1.909	1.899	1.919	1.909	1.909
0.010	0.010	0.000	-0.005	0.000	0.010	0.176	2.729	1.904	1.899	1.899	1.919	1.909	1.909
0.005	-0.005	0.005	0.000	0.005	-0.005	0.181	2.671	1.895	1.890	1.895	1.914	1.909	1.904
0.005	-0.005	0.005	0.000	0.010	-0.010	0.181	2.642	1.885	1.885	1.890	1.909	1.904	1.899
0.005	0.010	0.000	0.000	0.005	0.015	0.186	2.671	1.880	1.880	1.885	1.909	1.899	1.904
0.015	0.010	0.000	0.000	0.000	0.000	0.176	2.720	1.885	1.880	1.880	1.899	1.895	1.895
0.010	0.005	0.010	0.005	-0.005	0.000	0.181	2.808	1.890	1.875	1.875	1.895	1.895	1.895
0.000	-0.005	0.010	0.000	0.000	0.005	0.176	2.720	1.895	1.880	1.875	1.899	1.895	1.895
-0.005	-0.010	0.010	0.000	0.000	0.010	0.181	2.700	1.890	1.875	1.875	1.895	1.895	1.895
0.005	-0.005	0.005	0.005	0.000	-0.015	0.181	2.695	1.895	1.885	1.880	1.895	1.895	1.890
0.005	0.005	0.000	0.000	0.000	0.010	0.186	2.681	1.899	1.895	1.885	1.899	1.895	1.899
-0.005	0.005	0.000	0.000	0.015	0.010	0.181	2.705	1.899	1.895	1.895	1.909	1.904	1.904
0.000	0.005	0.000	0.000	0.010	-0.005	0.186	2.705	1.904	1.904	1.895	1.909	1.904	1.904
0.010	0.005	0.000	0.000	0.005	0.010	0.176	2.681	1.909	1.909	1.899	1.914	1.909	1.909
0.010	0.010	0.000	0.005	0.005	-0.010	0.186	2.705	1.909	1.909	1.909	1.919	1.909	1.904
0.005	0.010	-0.005	0.005	0.005	-0.005	0.176	2.700	1.904	1.909	1.904	1.919	1.914	1.909
0.005	0.005	0.000	0.005	0.000	0.005	0.186	2.671	1.904	1.909	1.904	1.924	1.914	1.914
0.000	0.010	0.005	0.005	0.000	0.005	0.176	2.705	1.895	1.899	1.904	1.919	1.914	1.914
0.000	0.005	0.005	0.000	0.000	0.000	0.186	2.710	1.890	1.895	1.899	1.919	1.914	1.909
0.000	0.000	0.005	0.000	0.000	-0.005	0.171	2.700	1.890	1.885	1.895	1.914	1.909	1.904
-0.015	-0.005	0.000	0.005	0.000	-0.010	0.181	2.676	1.880	1.875	1.885	1.909	1.904	1.899
0.005	0.005	-0.005	0.000	-0.005	-0.005	0.186	2.700	1.885	1.880	1.880	1.904	1.899	1.899
0.000	0.000	-0.005	0.000	0.010	-0.020	0.190	2.686	1.880	1.875	1.875	1.899	1.899	1.895
0.010	0.010	0.000	0.000	0.000	-0.015	0.181	2.710	1.885	1.875	1.875	1.895	1.895	1.895
0.000	0.000	0.005	0.000	0.015	0.000	0.186	2.686	1.880	1.875	1.875	1.895	1.895	1.899
0.000	0.000	0.005	0.000	0.024	0.005	0.186	2.710	1.890	1.880	1.875	1.895	1.899	1.904
0.000	-0.005	0.010	0.000	0.010	-0.010	0.190	2.715	1.895	1.885	1.880	1.895	1.890	1.890
0.005	0.005	0.010	0.000	0.000	0.000	0.181	2.710	1.899	1.890	1.885	1.899	1.895	1.899
-0.005	-0.005	0.000	0.000	-0.010	-0.020	0.186	2.686	1.904	1.895	1.890	1.904	1.895	1.895
-0.010	0.010	0.000	0.000	-0.015	0.000	0.181	2.681	1.904	1.904	1.895	1.909	1.904	1.909
-0.005	0.005	0.005	0.005	0.005	0.005	0.186	2.695	1.909	1.904	1.899	1.914	1.909	1.909
-0.005	0.010	0.000	0.000	0.005	-0.010	0.181	2.632	1.904	1.909	1.904	1.919	1.914	1.904
-0.005	-0.005	-0.005	0.005	0.005	0.024	0.186	2.651	1.899	1.904	1.904	1.919	1.914	1.914
0.000	0.005	0.005	0.005	0.000	0.015	0.181	2.793	1.914	1.904	1.904	1.919	1.914	1.914
0.000	-0.010	-0.005	0.000	0.000	0.015	0.186	2.637	1.899	1.899	1.899	1.919	1.914	1.914
0.010	0.000	0.000	0.005	0.005	0.020	0.181	2.729	1.885	1.895	1.895	1.914	1.909	1.909
0.000	0.000	-0.005	0.005	-0.005	0.010	0.181	2.646	1.875	1.890	1.890	1.909	1.904	1.899
0.000	0.000	-0.005	0.005	-0.005	0.005	0.181	2.666	1.875	1.880	1.885	1.904	1.899	1.899
0.000	0.005	-0.005	0.005	-0.005	-0.024	0.186	2.642	1.870	1.870	1.875	1.899	1.899	1.890
0.000	0.015	0.005	-0.005	0.000	0.005	0.176	2.759	1.875	1.875	1.875	1.895	1.899	1.899
0.005	0.010	0.005	0.000	0.015	-0.020	0.181	2.661	1.875	1.875	1.875	1.895	1.895	1.890
0.000	0.000	0.000	0.000	0.020	0.015	0.176	2.632	1.870	1.870	1.870	1.895	1.895	1.899
0.000	0.000	0.000	0.005	0.015	-0.020	0.186	2.695	1.880	1.875	1.870	1.895	1.890	1.895
0.015	-0.005	0.000	0.005	0.010	0.015	0.176	2.720	1.890	1.875	1.875	1.895	1.895	1.899
0.005	-0.005	0.005	-0.005	0.000	0.010	0.181	2.671	1.895	1.885	1.880	1.899	1.895	1.899
0.000	0.000	0.000	0.005	-0.005	0.010	0.176	2.725	1.895	1.890	1.885	1.899	1.895	1.904
0.000	0.010	0.005	0.005	0.000	0.000	0.186	2.817	1.919	1.899	1.890	1.909	1.899	1.899
0.000	0.000	0.005	0.005	0.005	0.000	0.176	2.705	1.919	1.904	1.895	1.914	1.904	1.899
0.000	0.000	0.000	0.000	0.005	0.010	0.186	2.710	1.914	1.909	1.899	1.914	1.909	1.909
0.000	0.010	0.000	0.000	0.005	-0.005	0.181	2.705	1.914	1.914	1.904	1.919	1.909	1.904
0.010	0.000	0.000	0.000	0.005	-0.010	0.181	2.676	1.909	1.909	1.899	1.919	1.909	1.899
0.000	0.000	0.000	0.005	0.000	0.010	0.181	2.710	1.899	1.904	1.904	1.919	1.904	1.909
0.000	0.000	0.000	0.000	-0.010	-0.005	0.181	2.681	1.890	1.895	1.899	1.914	1.904	1.904
-0.005	-0.010	0.000	0.000	0.000	-0.010	0.181	2.681	1.885	1.885	1.890	1.909	1.904	1.895
-0.005	-0.005	0.000	-0.005	0.000	0.000	0.181	2.710	1.885	1.880	1.885	1.904	1.904	1.899
0.005	-0.010	0.005	0.000	0.000	-0.005	0.181	2.705	1.885	1.875	1.880	1.904	1.895	1.899
0.000	0.005	0.005	0.000	0.000	0.010	0.186	2.710	1.885	1.880	1.880	1.899	1.895	1.899
-0.010	0.000	0.005	0.005	0.000	0.005	0.181	2.671	1.875	1.875	1.875	1.899	1.895	1.895
-0.005	0.010	0.005	0.005	0.005	0.010	0.181	2.715	1.890	1.880	1.880	1.899	1.895	1.899
0.000	-0.005	0.000	0.000	0.000	0.000	0.176	2.715	1.895	1.880	1.880	1.899	1.895	1.895
0.015	-0.010	0.000	0.000	0.000	0.005	0.181	2.710	1.899	1.885	1.880	1.904	1.899	1.899
0.005	0.015	0.005	0.005	0.000	-0.005	0.181	2.681	1.904	1.904	1.890	1.909	1.899	1.899
0.005	0.020	0.005	0.000	0.005	0.005	0.181	2.715	1.909	1.909	1.899	1.909	1.904	1.904
0.010	0.015	0.000	0.000	0.005	0.010	0.186	2.720	1.909	1.909	1.904	1.919	1.909	1.909
-0.005	0.005	0.000	0.000	0.005	0.005	0.181	2.686	1.909	1.909	1.904	1.919	1.914	1.909
0.000	0.015	0.000	0.005	0.000	0.005	0.181	2.671	1.909	1.909	1.909	1.924	1.914	1.914
-0.015	0.000	0.005	0.000	0.000	0.005	0.181	2.681	1.899	1.904	1.904	1.919	1.914	1.914
0.000	0.005	0.000	0.000	0.000	-0.005	0.186	2.710	1.904	1.909	1.904	1.919	1.914	1.909
-0.005	-0.010	0.000	0.000	0.000	0.020	0.181	2.681	1.895	1.895	1.899	1.914	1.914	1.914
-0.005	-0.015	0.000	-0.005	0.000	0.015	0.181	2.710	1.895	1.890	1.895	1.909	1.909	1.909
0.029	0.000	0.000	0.000	-0.005	0.005	0.176	2.686	1.895	1.890	1.890	1.909	1.904	1.904
0.020	-0.010	0.000	0.000	-0.005	0.005	0.181	2.642	1.880	1.885	1.885	1.904	1.904	1.904
0.005	0.000	0.000	0.000	0.000	-0.029	0.181	2.666	1.870	1.875	1.880	1.899	1.895	1.890
-0.010	0.000	0.000	0.005	0.000	0.010	0.186	2.793	1.880	1.875	1.875	1.899	1.895	1.899
-0.029	0.010	0.000	0.005	0.000	0.010	0.181	2.646	1.875	1.875	1.875	1.899	1.895	1.899
-0.020	0.005	0.005	0.005	0.000	-0.005	0.186	2.646	1.870	1.875	1.875	1.899	1.895	1.895
-0.015	-0.005	0.000	0.000	0.005	-0.010	0.181	2.651	1.880	1.875	1.875	1.899	1.895	1.895
-0.005	-0.005	0.000	0.005	0.005	-0.010	0.181	2.769	1.890	1.880	1.880	1.899	1.899	1.895
0.000	0.005	0.005	0.000	0.000	0.010	0.181	2.720	1.899	1.895	1.890	1.904	1.899	1.904
0.000	0.005	0.000	0.000	0.005	0.015	0.190	2.764	1.909	1.899	1.890	1.909	1.904	1.909
0.015	0.020	0.005	0.000	0.005	0.015	0.186	2.651	1.909	1.909	1.899	1.914	1.904	1.909
0.005	0.005	0.000	0.005	0.005	-0.020	0.186	2.637	1.904	1.904	1.899	1.914	1.909	1.899
0.010	0.000	0.000	0.000	0.005	-0.005	0.186	2.666	1.899	1.909	1.904	1.914	1.909	1.909
0.005	0.005	0.005	0.000	0.005	0.005	0.186	2.637	1.895	1.904	1.904	1.919	1.909	1.909
0.015	0.005	0.000	0.005	0.000	-0.010	0.181	2.695	1.895	1.899	1.904	1.919	1.909	1.909
0.000	0.005	0.000	0.000	0.000	0.020	0.186	2.725	1.890	1.890	1.895	1.914	1.909	1.909
0.005	0.029	0.000	0.005	0.000	-0.020	0.176	2.798	1.904	1.895	1.890	1.909	1.904	1.899
-0.005	0.005	0.005	0.000	0.000	0.015	0.186	2.725	1.904	1.885	1.885	1.904	1.899	1.904
0.000	-0.034	0.005	0.005	0.000	0.005	0.181	2.671	1.885	1.870	1.880	1.904	1.895	1.899
0.005	-0.039	0.000	0.000	0.000	0.000	0.186	2.715	1.890	1.870	1.875	1.899	1.895	1.895
0.005	-0.044	0.000	-0.005	0.000	-0.010	0.181	2.681	1.885	1.875	1.870	1.895	1.890	1.890
0.000	-0.010	0.005	0.000	0.005	0.010	0.186	2.705	1.890	1.885	1.875	1.895	1.890	1.895
-0.005	0.054	0.010	0.000	0.000	0.010	0.181	2.700	1.890	1.904	1.885	1.895	1.895	1.895
0.000	0.054	0.000	0.005	0.000	-0.020	0.190	2.681	1.895	1.899	1.890	1.904	1.895	1.890
0.005	-0.024	-0.005	0.005	0.005	0.015	0.181	2.710	1.895	1.880	1.885	1.904	1.899	1.899
0.010	-0.024	0.005	0.000	0.005	0.015	0.186	2.695	1.904	1.895	1.895	1.909	1.904	1.904
0.010	0.000	0.000	0.005	0.000	-0.010	0.186	2.676	1.904	1.904	1.899	1.914	1.904	1.904
0.000	0.015	0.005	0.000	0.005	0.000	0.186	2.681	1.904	1.909	1.904	1.919	1.909	1.909
-0.005	0.005	0.000	0.005	0.005	0.015	0.181	2.720	1.904	1.909	1.904	1.924	1.919	1.914
0.005	0.000	0.005	0.005	0.000	-0.020	0.186	2.705	1.909	1.909	1.904	1.924	1.914	1.904
0.005	0.010	0.000	0.000	0.005	0.015	0.181	2.705	1.904	1.909	1.909	1.924	1.919	1.919
0.005	0.010	0.005	0.000	0.000	0.015	0.186	2.686	1.899	1.899	1.904	1.919	1.914	1.909
0.000	0.000	0.010	0.005	0.000	0.000	0.181	2.676	1.890	1.895	1.899	1.914	1.914	1.909
0.005	0.005	0.000	0.000	0.000	0.005	0.190	2.715	1.890	1.890	1.890	1.914	1.909	1.904
0.010	0.005	0.005	0.000	0.005	0.010	0.181	2.686	1.890	1.885	1.885	1.909	1.904	1.904
0.010	-0.005	0.000	0.005	0.005	0.005	0.181	2.695	1.885	1.880	1.880	1.904	1.904	1.899
0.005	-0.005	0.000	0.000	0.000	-0.010	0.181	2.700	1.880	1.875	1.875	1.899	1.895	1.895
0.000	0.005	0.000	0.000	0.000	0.005	0.190	2.700	1.880	1.875	1.875	1.899	1.895	1.895
0.000	0.010	0.005	0.000	0.000	0.005	0.176	2.681	1.880	1.875	1.875	1.895	1.895	1.895
0.024	0.005	0.000	0.000	0.005	0.000	0.186	2.715	1.895	1.885	1.880	1.895	1.895	1.899
0.000	-0.010	0.000	-0.005	0.005	-0.020	0.181	2.695	1.895	1.880	1.880	1.899	1.895	1.890
0.005	0.000	0.005	-0.005	0.010	0.005	0.181	2.656	1.890	1.895	1.885	1.904	1.899	1.904
0.010	0.010	0.000	0.000	0.000	0.005	0.181	2.651	1.895	1.899	1.890	1.909	1.899	1.904
0.005	0.010	0.005	0.000	0.005	0.005	0.186	2.803	1.914	1.904	1.895	1.914	1.904	1.904
0.000	0.015	0.000	0.005	0.005	-0.005	0.181	2.646	1.904	1.909	1.904	1.919	1.909	1.904
0.000	0.010	0.000	0.010	0.000	0.005	0.186	2.739	1.899	1.904	1.904	1.919	1.914	1.914
-0.010	0.010	0.005	0.005	0.000	0.005	0.176	2.651	1.895	1.899	1.904	1.919	1.914	1.909
0.000	0.000	0.000	0.010	0.000	-0.005	0.186	2.632	1.885	1.895	1.904	1.919	1.914	1.909
0.005	0.000	0.000	0.005	0.005	0.010	0.181	2.632	1.880	1.890	1.895	1.914	1.909	1.914
-0.010	-0.005	0.005	0.000	0.000	0.010	0.186	2.739	1.885	1.880	1.890	1.909	1.904	1.904
0.005	-0.005	0.005	-0.005	0.000	0.005	0.186	2.671	1.885	1.875	1.880	1.904	1.904	1.904
0.010	-0.005	0.005	0.000	0.000	0.000	0.186	2.632	1.875	1.875	1.875	1.899	1.899	1.899
0.000	-0.005	0.000	0.005	0.005	0.000	0.181	2.661	1.870	1.870	1.870	1.895	1.895	1.895
-0.005	0.010	0.000	0.010	0.000	0.000	0.186	2.642	1.865	1.870	1.870	1.895	1.890	1.895
-0.005	0.005	0.005	0.010	0.005	0.000	0.186	2.705	1.875	1.865	1.870	1.890	1.890	1.895
-0.015	0.005	0.000	0.005	0.000	-0.005	0.186	2.729	1.880	1.870	1.870	1.890	1.890	1.890
-0.010	-0.010	0.000	0.000	0.000	0.000	0.181	2.808	1.899	1.875	1.870	1.890	1.885	1.890
-0.010	0.000	0.005	0.000	0.000	-0.005	0.186	2.646	1.904	1.890	1.875	1.890	1.890	1.890
-0.010	-0.005	0.005	0.000	0.000	0.000	0.181	2.686	1.904	1.895	1.880	1.899	1.895	1.895
0.000	-0.015	0.005	-0.005	0.005	0.000	0.186	2.705	1.909	1.904	1.890	1.899	1.899	1.895
-0.005	-0.015	-0.005	-0.005	0.005	-0.015	0.176	2.676	1.909	1.904	1.895	1.904	1.899	1.895
-0.005	-0.005	-0.005	0.000	0.005	0.005	0.181	2.700	1.914	1.909	1.899	1.914	1.904	1.904
0.000	0.000	0.005	-0.005	0.005	0.005	0.181	2.676	1.909	1.909	1.904	1.919	1.904	1.904
0.005	0.005	0.000	0.005	0.005	-0.015	0.181	2.681	1.904	1.909	1.904	1.919	1.909	1.899
0.015	0.005	0.000	0.005	0.000	0.020	0.181	2.700	1.904	1.904	1.904	1.919	1.909	1.909
-0.005	0.015	0.000	0.005	0.000	0.010	0.186	2.676	1.890	1.899	1.899	1.919	1.909	1.904
0.005	0.015	0.005	0.005	0.000	0.005	0.181	2.671	1.890	1.895	1.895	1.914	1.909	1.899
0.005	0.005	0.005	0.005	0.005	-0.024	0.181	2.695	1.875	1.885	1.890	1.909	1.904	1.895
0.005	0.015	0.000	0.000	0.005	-0.010	0.181	2.700	1.880	1.880	1.885	1.904	1.899	1.895
-0.005	0.015	0.000	0.000	0.000	-0.005	0.181	2.681	1.875	1.875	1.880	1.904	1.895	1.895
0.000	0.010	-0.005	0.000	-0.005	0.015	0.181	2.705	1.880	1.875	1.875	1.899	1.895	1.899
0.010	0.010	0.000	0.000	0.000	0.010	0.186	2.690	1.880	1.875	1.875	1.895	1.895	1.895
0.010	0.010	0.005	0.000	-0.005	-0.015	0.181	2.681	1.885	1.875	1.875	1.895	1.895	1.890
0.010	0.000	-0.005	0.005	0.005	0.000	0.186	2.705	1.890	1.880	1.880	1.899	1.895	1.899
0.010	0.010	0.010	0.000	0.000	0.005	0.181	2.686	1.895	1.890	1.885	1.904	1.899	1.899
0.000	0.005	0.000	0.000	0.005	0.005	0.190	2.690	1.899	1.895	1.890	1.904	1.904	1.904
0.005	0.005	0.000	0.000	0.005	0.010	0.186	2.710	1.909	1.899	1.895	1.909	1.904	1.904
0.029	-0.010	0.000	0.000	0.000	-0.020	0.181	2.681	1.914	1.899	1.895	1.914	1.904	1.904
0.029	-0.005	0.005	0.000	0.005	0.015	0.181	2.686	1.914	1.909	1.899	1.919	1.909	1.909
0.020	-0.010	0.000	0.000	0.005	-0.015	0.186	2.671	1.904	1.904	1.899	1.914	1.909	1.904
0.010	-0.010	0.000	0.005	0.000	0.020	0.181	2.695	1.895	1.899	1.904	1.919	1.914	1.914
-0.015	-0.005	0.010	0.000	0.000	0.010	0.186	2.656	1.885	1.899	1.899	1.914	1.909	1.909
-0.029	-0.010	0.000	0.000	0.005	0.010	0.181	2.656	1.875	1.885	1.895	1.909	1.909	1.909
-0.024	0.005	0.005	0.005	0.000	0.000	0.186	2.783	1.885	1.885	1.890	1.904	1.899	1.904
-0.015	0.000	0.000	0.000	0.005	-0.020	0.176	2.637	1.880	1.880	1.880	1.904	1.899	1.895
-0.015	0.015	0.000	0.005	0.005	0.020	0.181	2.710	1.875	1.875	1.875	1.899	1.899	1.904
-0.005	0.010	-0.005	0.005	-0.005	0.015	0.181	2.642	1.870	1.870	1.870	1.895	1.890	1.895
0.005	-0.005	0.000	0.005	0.000	0.000	0.181	2.764	1.885	1.870	1.875	1.890	1.890	1.895
0.015	-0.005	0.000	0.005	0.000	0.015	0.181	2.627	1.880	1.875	1.870	1.890	1.890	1.890
0.015	-0.010	0.000	0.000	0.000	0.000	0.176	2.754	1.895	1.875	1.875	1.890	1.890	1.890
0.015	-0.015	0.000	0.000	0.000	-0.005	0.186	2.651	1.895	1.880	1.875	1.895	1.890	1.890
0.015	-0.015	0.000	0.010	0.000	-0.005	0.181	2.700	1.904	1.890	1.885	1.904	1.895	1.895
0.039	0.010	0.005	0.005	0.000	0.015	0.181	2.671	1.909	1.904	1.890	1.904	1.899	1.899
0.034	0.015	0.005	0.000	0.000	0.010	0.181	2.734	1.914	1.909	1.899	1.909	1.899	1.904
0.020	0.015	0.010	0.000	0.005	0.015	0.186	2.715	1.914	1.914	1.904	1.919	1.909	1.904
0.000	0.000	0.005	0.000	0.000	0.010	0.181	2.705	1.904	1.909	1.904	1.919	1.909	1.904
-0.005	0.000	0.000	0.000	0.005	0.005	0.181	2.808	1.914	1.909	1.904	1.919	1.909	1.909
-0.024	0.000	-0.005	0.000	0.005	-0.010	0.186	2.627	1.895	1.904	1.899	1.919	1.909	1.904
-0.044	0.015	0.000	0.000	0.000	0.010	0.181	2.676	1.885	1.899	1.899	1.919	1.909	1.904
-0.044	0.000	0.000	0.000	0.000	0.000	0.176	2.705	1.880	1.885	1.895	1.909	1.909	1.904
-0.024	0.010	0.000	0.000	0.000	0.005	0.186	2.676	1.880	1.885	1.890	1.909	1.904	1.899
-0.020	-0.005	-0.005	0.000	0.005	0.000	0.181	2.705	1.885	1.875	1.880	1.904	1.899	1.899
-0.015	-0.010	0.000	0.000	0.005	-0.005	0.186	2.705	1.885	1.870	1.875	1.899	1.899	1.895
-0.005	-0.024	0.000	0.005	0.000	0.000	0.181	2.715	1.880	1.870	1.870	1.895	1.895	1.899
0.000	-0.020	0.005	0.005	0.000	0.005	0.186	2.710	1.885	1.875	1.875	1.895	1.895	1.895
0.005	0.000	0.005	0.010	-0.005	0.010	0.181	2.671	1.885	1.880	1.875	1.895	1.895	1.895
0.015	0.000	0.000	0.010	0.005	0.000	0.186	2.710	1.895	1.890	1.880	1.899	1.895	1.895
0.029	0.000	0.005	0.000	0.000	0.000	0.181	2.715	1.909	1.895	1.880	1.899	1.895	1.899
0.034	0.000	0.000	0.005	0.000	-0.010	0.186	2.700	1.909	1.904	1.890	1.904	1.899	1.899
0.015	-0.005	0.000	0.000	0.005	-0.015	0.181	2.686	1.904	1.904	1.895	1.909	1.899	1.899
0.005	0.005	0.005	0.000	0.000	0.005	0.186	2.720	1.904	1.909	1.899	1.914	1.909	1.909
0.000	0.000	0.000	0.005	0.000	0.010	0.181	2.700	1.904	1.909	1.904	1.919	1.909	1.914
-0.010	0.005	-0.005	0.005	0.005	0.010	0.186	2.700	1.904	1.904	1.904	1.919	1.909	1.909
-0.010	-0.005	0.000	0.010	0.005	0.010	0.181	2.705	1.899	1.904	1.904	1.924	1.919	1.914
-0.005	0.000	0.000	0.000	0.005	-0.005	0.186	2.676	1.904	1.904	1.904	1.919	1.914	1.904
0.000	0.015	0.005	-0.005	0.000	0.005	0.181	2.705	1.899	1.904	1.899	1.914	1.909	1.909
0.005	0.015	0.005	0.000	0.000	0.005	0.190	2.700	1.895	1.895	1.895	1.909	1.904	1.904
0.005	0.010	0.000	-0.005	0.005	0.005	0.181	2.676	1.885	1.890	1.890	1.909	1.904	1.904
0.010	0.005	0.000	0.000	0.005	0.005	0.186	2.676	1.885	1.885	1.890	1.909	1.899	1.904
0.015	0.015	0.000	0.005	0.000	0.005	0.186	2.671	1.880	1.875	1.880	1.904	1.895	1.895
0.020	0.034	0.000	0.005	0.000	-0.010	0.186	2.695	1.885	1.885	1.880	1.899	1.895	1.890
0.024	0.020	-0.005	0.005	0.000	-0.005	0.181	2.651	1.880	1.880	1.880	1.899	1.899	1.899
0.020	0.010	0.005	0.000	0.000	0.005	0.181	2.656	1.875	1.875	1.880	1.899	1.899	1.899
0.029	0.010	0.000	-0.005	0.000	0.000	0.181	2.651	1.885	1.880	1.880	1.899	1.895	1.899
0.034	-0.005	0.005	0.005	0.000	0.005	0.186	2.656	1.890	1.880	1.880	1.904	1.899	1.899
0.024	-0.005	0.000	0.000	0.000	-0.015	0.181	2.646	1.885	1.885	1.885	1.904	1.904	1.899
0.005	0.005	0.005	0.010	0.000	-0.010	0.186	2.715	1.895	1.895	1.895	1.914	1.909	1.904
-0.020	0.000	0.000	0.000	0.010	-0.005	0.176	2.764	1.899	1.895	1.895	1.914	1.909	1.909
-0.024	-0.005	0.005	0.000	0.005	0.010	0.186	2.637	1.895	1.895	1.895	1.914	1.909	1.914
-0.015	0.005	0.005	0.000	0.000	-0.005	0.181	2.666	1.895	1.899	1.895	1.914	1.909	1.904
-0.020	0.005	0.000	0.010	0.005	-0.010	0.186	2.651	1.890	1.895	1.895	1.914	1.909	1.904
-0.020	-0.005	-0.005	0.010	-0.005	0.000	0.181	2.729	1.895	1.890	1.895	1.914	1.909	1.914
-0.015	0.000	0.000	0.010	0.000	0.015	0.186	2.700	1.890	1.885	1.885	1.909	1.904	1.914
0.005	-0.005	0.000	0.010	0.000	0.000	0.181	2.725	1.895	1.880	1.885	1.904	1.899	1.904
0.034	-0.034	0.000	0.010	0.005	-0.015	0.186	2.700	1.895	1.875	1.875	1.899	1.895	1.895
0.029	-0.020	0.005	0.005	0.000	-0.005	0.181	2.715	1.895	1.880	1.875	1.895	1.890	1.890
0.005	-0.005	0.005	0.005	0.005	0.015	0.186	2.817	1.895	1.885	1.875	1.895	1.890	1.895
0.010	0.010	0.000	0.000	0.000	0.020	0.181	2.710	1.895	1.890	1.880	1.890	1.890	1.899
-0.005	0.005	0.000	0.000	0.005	0.015	0.186	2.720	1.890	1.885	1.880	1.895	1.885	1.895
0.010	0.010	0.000	0.000	0.000	0.010	0.181	2.686	1.899	1.895	1.885	1.899	1.890	1.890
0.005	0.005	0.005	-0.005	0.005	0.000	0.186	2.695	1.899	1.895	1.890	1.899	1.895	1.890
-0.015	0.000	0.005	-0.005	0.005	0.000	0.181	2.715	1.895	1.895	1.895	1.904	1.895	1.895
-0.044	0.000	0.000	-0.005	0.005	-0.010	0.186	2.676	1.885	1.895	1.895	1.909	1.899	1.899
-0.049	0.005	0.000	-0.005	0.000	-0.005	0.181	2.710	1.895	1.899	1.899	1.914	1.904	1.904
-0.039	0.000	0.005	-0.005	0.005	0.000	0.186	2.705	1.904	1.904	1.899	1.919	1.909	1.909
-0.034	0.000	0.005	-0.005	0.005	0.000	0.181	2.671	1.904	1.909	1.904	1.919	1.914	1.909
-0.020	0.000	0.000	-0.005	0.005	0.000	0.186	2.695	1.909	1.904	1.899	1.919	1.909	1.909
-0.010	0.010	0.000	-0.005	0.005	-0.005	0.176	2.700	1.909	1.909	1.904	1.914	1.914	1.909
0.000	-0.010	0.000	-0.005	0.005	0.005	0.186	2.705	1.904	1.899	1.904	1.914	1.909	1.909
0.000	-0.005	0.000	-0.005	0.000	-0.029	0.181	2.671	1.890	1.899	1.895	1.909	1.904	1.899
0.010	-0.005	0.005	-0.005	-0.005	0.010	0.186	2.700	1.890	1.890	1.895	1.909	1.904	1.909
0.029	0.000	0.000	0.000	0.000	-0.005	0.181	2.705	1.890	1.885	1.890	1.909	1.899	1.899
0.024	-0.005	0.000	0.005	0.000	0.015	0.181	2.695	1.885	1.880	1.880	1.904	1.899	1.904
0.024	0.005	0.005	0.005	0.000	0.005	0.176	2.681	1.880	1.880	1.880	1.899	1.895	1.899
0.020	0.015	0.000	0.005	0.000	0.000	0.181	2.700	1.885	1.885	1.880	1.899	1.899	1.895
0.024	0.015	0.005	0.005	0.005	0.005	0.176	2.671	1.885	1.880	1.880	1.899	1.899	1.899
0.015	0.000	0.000	0.005	0.005	-0.005	0.181	2.715	1.890	1.880	1.880	1.904	1.899	1.899
0.015	0.000	0.005	0.005	0.005	0.005	0.176	2.686	1.895	1.885	1.885	1.904	1.899	1.904
0.005	0.005	0.005	0.010	0.000	0.000	0.186	2.715	1.899	1.890	1.890	1.909	1.904	1.904
0.024	0.005	0.005	0.005	0.005	0.000	0.176	2.710	1.914	1.899	1.895	1.909	1.909	1.909
0.005	0.005	0.000	0.005	0.005	0.005	0.186	2.695	1.909	1.909	1.899	1.914	1.909	1.909
0.010	-0.010	0.000	0.005	-0.005	0.010	0.181	2.646	1.904	1.904	1.904	1.919	1.914	1.914
0.020	0.000	0.005	0.005	0.005	0.010	0.186	2.661	1.904	1.909	1.904	1.924	1.919	1.914
0.020	0.000	0.005	0.000	0.000	0.005	0.186	2.798	1.914	1.909	1.904	1.919	1.914	1.914
0.020	0.010	0.005	0.000	0.000	-0.005	0.181	2.632	1.904	1.909	1.904	1.919	1.914	1.904
0.005	0.005	0.000	0.000	0.000	-0.020	0.181	2.646	1.880	1.890	1.895	1.914	1.909	1.904
0.020	-0.005	0.005	0.000	0.005	0.015	0.186	2.651	1.885	1.885	1.895	1.914	1.909	1.909
0.034	-0.005	-0.005	0.000	-0.005	-0.005	0.176	2.661	1.880	1.880	1.885	1.909	1.904	1.904
0.029	0.005	-0.005	0.005	0.005	0.015	0.186	2.754	1.890	1.880	1.880	1.904	1.899	1.904
