0.015	-0.005	0.005	0.005	0.020	-0.010	0.039	2.690	2.324	2.061	1.987	1.924	1.929	1.919
0.015	0.005	0.000	0.000	0.020	-0.005	0.044	2.690	2.217	2.109	2.021	1.953	1.934	1.924
0.010	0.000	0.010	0.000	0.015	0.005	0.044	2.686	2.139	2.114	2.046	1.982	1.943	1.934
0.005	-0.005	0.010	0.000	0.010	0.000	0.044	2.695	2.075	2.100	2.061	2.007	1.953	1.934
0.005	-0.005	-0.005	0.000	0.010	-0.015	0.039	2.695	2.026	2.080	2.061	2.026	1.968	1.938
0.010	0.000	-0.005	0.005	0.010	0.005	0.044	2.695	1.997	2.056	2.056	2.036	1.982	1.953
0.005	0.005	-0.005	0.000	0.000	-0.010	0.039	2.690	1.973	2.031	2.046	2.041	1.992	1.958
0.015	0.010	-0.005	0.000	-0.005	-0.010	0.044	2.690	1.953	2.007	2.036	2.041	2.002	1.968
0.010	0.020	0.000	0.000	0.000	-0.005	0.039	2.690	1.943	1.987	2.021	2.041	2.012	1.978
0.005	0.020	0.005	0.005	0.010	0.005	0.044	2.690	1.938	1.973	2.012	2.036	2.021	1.992
0.000	0.010	-0.005	0.000	0.005	-0.005	0.044	2.690	1.934	1.963	1.997	2.031	2.021	1.997
0.000	0.005	-0.005	0.000	0.000	-0.034	0.039	2.690	1.943	1.958	1.987	2.026	2.021	2.002
0.000	-0.005	-0.005	0.005	0.000	0.000	0.044	2.695	1.943	1.953	1.978	2.021	2.026	2.017
0.000	-0.010	0.005	0.010	0.010	0.010	0.039	2.686	1.953	1.958	1.978	2.017	2.026	2.021
-0.005	-0.005	-0.005	0.005	0.005	-0.024	0.039	2.686	1.958	1.963	1.973	2.012	2.021	2.017
-0.005	-0.005	0.000	0.010	-0.005	0.000	0.039	2.690	1.963	1.963	1.978	2.012	2.017	2.026
0.000	0.000	0.005	0.010	-0.020	-0.005	0.044	2.676	1.968	1.968	1.973	2.007	2.012	2.021
0.005	0.000	-0.005	0.010	-0.015	0.020	0.044	2.681	1.963	1.968	1.973	1.997	2.012	2.021
0.015	0.010	-0.005	0.005	-0.005	0.000	0.039	2.690	1.968	1.973	1.968	1.997	2.007	2.017
0.020	0.005	0.005	0.000	-0.005	0.020	0.039	2.690	1.963	1.968	1.973	1.992	2.002	2.017
0.000	0.005	0.010	0.000	-0.005	0.024	0.039	2.686	1.953	1.963	1.968	1.992	1.997	2.012
0.005	0.005	0.005	0.000	-0.005	0.010	0.044	2.690	1.948	1.953	1.958	1.982	1.992	1.997
-0.005	0.000	0.005	0.000	-0.005	0.020	0.044	2.686	1.943	1.948	1.948	1.978	1.982	1.992
-0.010	0.005	0.015	0.000	-0.005	0.015	0.044	2.690	1.938	1.938	1.948	1.968	1.978	1.987
-0.005	0.000	0.010	-0.005	-0.005	0.020	0.039	2.686	1.934	1.934	1.938	1.963	1.968	1.982
-0.005	0.005	0.000	0.000	-0.010	-0.015	0.044	2.676	1.934	1.934	1.929	1.958	1.958	1.968
-0.010	0.005	0.000	0.005	-0.015	0.015	0.044	2.695	1.934	1.929	1.934	1.958	1.958	1.968
-0.010	0.005	0.015	0.000	0.000	0.024	0.039	2.686	1.938	1.929	1.934	1.958	1.963	1.973
-0.005	-0.005	0.005	0.000	0.000	0.024	0.044	2.690	1.943	1.938	1.934	1.958	1.958	1.968
0.010	-0.005	0.020	-0.005	0.000	0.000	0.044	2.700	1.953	1.943	1.943	1.958	1.958	1.963
0.039	-0.005	0.000	-0.005	0.000	-0.029	0.044	2.695	1.963	1.953	1.943	1.963	1.963	1.953
0.049	-0.010	0.000	0.005	0.005	-0.020	0.039	2.695	1.963	1.958	1.948	1.968	1.963	1.963
0.044	0.000	0.000	0.005	0.010	0.005	0.039	2.686	1.963	1.963	1.953	1.968	1.968	1.973
0.049	0.005	0.000	0.000	0.005	0.010	0.039	2.690	1.963	1.968	1.958	1.973	1.968	1.973
0.010	0.005	0.005	0.005	0.000	0.000	0.039	2.690	1.943	1.963	1.963	1.978	1.968	1.973
-0.024	0.005	-0.005	0.000	0.000	0.000	0.044	2.690	1.938	1.953	1.958	1.973	1.973	1.973
-0.034	0.015	0.000	0.005	0.005	0.005	0.039	2.690	1.929	1.948	1.953	1.973	1.968	1.968
-0.049	0.024	0.000	0.000	0.000	-0.039	0.039	2.681	1.919	1.938	1.943	1.968	1.963	1.953
-0.049	0.000	-0.005	0.000	-0.020	-0.010	0.039	2.681	1.919	1.924	1.934	1.963	1.953	1.963
-0.029	-0.005	-0.010	0.000	-0.005	-0.029	0.039	2.681	1.924	1.919	1.924	1.953	1.953	1.948
0.010	0.000	0.000	0.005	0.005	0.010	0.044	2.676	1.929	1.919	1.924	1.948	1.953	1.963
0.034	-0.010	-0.005	0.000	0.005	0.005	0.039	2.681	1.934	1.919	1.919	1.943	1.948	1.953
0.024	-0.005	0.000	0.000	-0.010	0.015	0.044	2.686	1.929	1.924	1.919	1.938	1.938	1.948
-0.015	0.000	-0.005	0.000	-0.005	0.010	0.044	2.690	1.919	1.919	1.919	1.938	1.943	1.948
-0.034	0.000	0.010	0.000	0.000	0.015	0.044	2.690	1.919	1.924	1.924	1.938	1.943	1.948
-0.029	0.000	0.000	0.005	0.005	0.010	0.044	2.686	1.919	1.924	1.919	1.943	1.943	1.948
-0.015	-0.005	0.005	0.000	0.015	0.015	0.044	2.686	1.934	1.929	1.924	1.943	1.948	1.948
-0.015	0.020	0.005	0.005	0.015	0.010	0.044	2.690	1.938	1.938	1.934	1.948	1.948	1.948
-0.010	0.015	0.000	0.010	0.010	0.024	0.039	2.686	1.938	1.943	1.938	1.953	1.948	1.958
-0.005	0.015	0.010	0.005	0.005	-0.010	0.039	2.676	1.943	1.943	1.943	1.958	1.953	1.948
0.000	-0.005	0.010	0.005	0.010	-0.010	0.039	2.681	1.943	1.938	1.943	1.958	1.953	1.948
-0.005	-0.005	0.015	0.000	0.005	-0.015	0.044	2.681	1.938	1.943	1.943	1.958	1.953	1.948
0.000	0.000	0.010	0.000	0.005	0.010	0.039	2.686	1.938	1.943	1.943	1.953	1.953	1.953
-0.005	0.005	-0.005	0.000	-0.005	0.015	0.039	2.681	1.929	1.934	1.934	1.953	1.948	1.953
0.005	-0.005	-0.005	0.000	0.000	-0.005	0.039	2.681	1.924	1.929	1.929	1.948	1.943	1.943
0.010	-0.005	-0.010	0.000	0.010	-0.029	0.039	2.686	1.919	1.924	1.924	1.948	1.943	1.934
0.005	0.005	-0.005	0.010	-0.005	0.005	0.039	2.686	1.914	1.919	1.919	1.938	1.934	1.943
0.015	-0.010	0.015	0.010	-0.005	-0.015	0.044	2.686	1.914	1.909	1.919	1.938	1.934	1.934
0.015	-0.005	0.005	0.005	0.015	-0.005	0.039	2.686	1.909	1.909	1.909	1.934	1.938	1.938
0.015	0.000	0.000	0.010	0.015	0.005	0.044	2.686	1.909	1.909	1.909	1.934	1.934	1.938
0.015	-0.005	-0.005	0.005	0.020	0.015	0.039	2.690	1.914	1.909	1.904	1.929	1.929	1.938
0.005	-0.010	0.000	0.005	0.010	-0.010	0.039	2.705	1.919	1.914	1.914	1.929	1.929	1.934
0.000	-0.005	0.005	0.010	0.010	0.015	0.044	2.695	1.924	1.919	1.914	1.934	1.929	1.938
-0.005	0.000	0.005	0.005	0.005	0.000	0.044	2.700	1.924	1.924	1.919	1.938	1.929	1.934
0.000	0.000	0.000	-0.005	-0.010	-0.005	0.044	2.700	1.934	1.929	1.924	1.938	1.929	1.929
-0.005	0.010	0.000	0.000	-0.029	0.000	0.039	2.690	1.938	1.938	1.929	1.943	1.929	1.929
-0.005	0.000	0.010	0.000	-0.005	0.020	0.044	2.686	1.934	1.934	1.934	1.948	1.943	1.943
0.000	0.015	-0.005	0.000	-0.005	0.024	0.039	2.700	1.938	1.938	1.934	1.948	1.943	1.943
0.005	0.015	0.000	-0.005	0.010	-0.010	0.039	2.690	1.938	1.938	1.934	1.948	1.948	1.934
0.000	0.010	-0.005	-0.005	0.010	0.005	0.039	2.690	1.929	1.934	1.934	1.948	1.943	1.943
0.005	0.000	0.000	-0.005	0.005	0.005	0.039	2.686	1.919	1.919	1.929	1.943	1.943	1.938
0.005	-0.010	-0.010	-0.005	-0.005	0.005	0.039	2.690	1.914	1.909	1.914	1.943	1.934	1.938
0.010	-0.005	-0.005	0.005	0.005	0.010	0.044	2.690	1.909	1.909	1.914	1.938	1.934	1.938
0.015	0.005	0.000	0.000	0.000	-0.010	0.044	2.690	1.904	1.909	1.914	1.934	1.929	1.924
0.005	0.005	0.000	0.005	-0.015	0.000	0.039	2.676	1.895	1.904	1.909	1.929	1.924	1.924
0.015	0.005	0.010	0.005	0.000	0.005	0.044	2.681	1.899	1.899	1.904	1.924	1.924	1.924
0.010	0.024	0.015	0.000	0.015	0.010	0.039	2.671	1.899	1.904	1.904	1.924	1.929	1.929
0.005	0.020	0.005	0.000	0.029	0.010	0.039	2.686	1.899	1.904	1.899	1.924	1.929	1.929
0.000	0.010	0.000	0.005	0.015	0.005	0.039	2.686	1.909	1.904	1.899	1.924	1.924	1.929
0.005	0.005	-0.005	0.000	0.024	-0.015	0.044	2.690	1.914	1.909	1.899	1.924	1.924	1.924
0.005	0.000	-0.005	0.000	-0.005	0.010	0.039	2.690	1.924	1.914	1.909	1.929	1.924	1.929
0.015	0.000	-0.005	0.000	-0.010	-0.005	0.044	2.690	1.924	1.924	1.914	1.934	1.924	1.924
0.015	-0.005	0.005	0.005	0.000	0.005	0.044	2.686	1.929	1.924	1.919	1.934	1.934	1.934
0.029	-0.015	0.005	0.005	0.005	0.005	0.044	2.690	1.934	1.929	1.924	1.938	1.934	1.934
0.024	-0.005	0.005	0.000	-0.005	-0.024	0.044	2.686	1.929	1.929	1.924	1.938	1.934	1.929
0.015	-0.020	0.005	0.000	0.000	0.005	0.039	2.700	1.919	1.919	1.924	1.938	1.934	1.934
-0.005	-0.010	0.000	0.000	-0.010	0.005	0.044	2.695	1.909	1.919	1.919	1.938	1.929	1.934
-0.010	-0.005	0.005	0.005	-0.010	0.000	0.044	2.690	1.904	1.909	1.914	1.934	1.929	1.929
-0.015	0.000	0.000	0.000	-0.015	0.010	0.044	2.700	1.895	1.899	1.909	1.929	1.924	1.929
-0.029	0.000	0.000	0.000	-0.005	0.005	0.044	2.695	1.895	1.899	1.899	1.924	1.919	1.919
-0.044	0.000	-0.005	0.000	0.005	-0.015	0.039	2.690	1.890	1.890	1.895	1.914	1.924	1.919
-0.029	0.005	0.005	0.000	0.024	0.005	0.039	2.690	1.895	1.885	1.890	1.914	1.919	1.919
-0.010	0.000	0.000	0.000	0.029	-0.005	0.044	2.686	1.899	1.890	1.890	1.909	1.919	1.914
0.000	0.000	0.010	0.000	0.015	0.000	0.039	2.695	1.904	1.890	1.890	1.909	1.909	1.914
0.010	0.000	0.010	-0.005	0.000	0.000	0.039	2.690	1.909	1.895	1.890	1.909	1.904	1.909
0.010	0.000	0.005	-0.005	0.005	0.015	0.039	2.695	1.909	1.899	1.895	1.914	1.909	1.919
0.015	0.010	0.000	0.000	0.005	0.015	0.044	2.695	1.914	1.909	1.904	1.919	1.914	1.919
-0.005	0.010	0.005	0.005	-0.010	0.000	0.044	2.690	1.909	1.914	1.909	1.924	1.914	1.919
-0.005	0.000	0.000	0.000	-0.005	0.000	0.044	2.695	1.914	1.914	1.909	1.929	1.919	1.924
-0.005	-0.020	-0.005	0.000	-0.005	-0.020	0.044	2.690	1.914	1.909	1.909	1.929	1.924	1.914
-0.005	0.005	0.000	0.000	0.000	-0.029	0.039	2.686	1.919	1.924	1.914	1.934	1.924	1.919
-0.015	0.000	-0.005	0.005	0.000	-0.029	0.039	2.681	1.909	1.919	1.914	1.934	1.929	1.924
0.000	-0.005	-0.005	0.005	-0.010	0.020	0.039	2.671	1.909	1.914	1.914	1.929	1.924	1.934
0.015	0.000	-0.005	0.005	-0.039	0.024	0.044	2.686	1.914	1.914	1.909	1.929	1.914	1.929
0.015	0.010	0.000	0.005	-0.024	0.015	0.044	2.686	1.909	1.909	1.909	1.924	1.919	1.924
0.015	0.000	0.000	0.005	0.005	0.015	0.044	2.686	1.899	1.904	1.904	1.924	1.924	1.919
0.015	-0.010	0.000	0.005	0.015	0.010	0.044	2.690	1.895	1.895	1.899	1.919	1.924	1.919
0.010	0.005	0.005	0.005	0.020	-0.005	0.039	2.690	1.890	1.890	1.895	1.914	1.919	1.904
0.010	0.000	0.005	0.005	0.020	0.005	0.039	2.690	1.880	1.885	1.890	1.909	1.914	1.914
0.010	0.000	0.010	0.000	0.005	0.000	0.044	2.700	1.885	1.885	1.890	1.909	1.909	1.909
-0.005	0.000	0.010	0.000	0.005	0.005	0.044	2.686	1.885	1.885	1.890	1.909	1.909	1.909
-0.005	-0.005	0.000	0.005	0.005	0.000	0.039	2.681	1.895	1.885	1.885	1.904	1.909	1.904
0.000	-0.005	-0.005	0.010	0.010	0.000	0.039	2.690	1.899	1.895	1.885	1.909	1.909	1.909
0.000	0.010	0.000	0.005	0.005	-0.010	0.044	2.690	1.904	1.904	1.890	1.909	1.909	1.909
0.005	0.010	-0.005	0.005	0.005	-0.020	0.039	2.686	1.909	1.909	1.899	1.919	1.914	1.914
-0.005	0.000	0.015	0.005	-0.005	-0.005	0.039	2.695	1.914	1.914	1.909	1.924	1.914	1.914
0.000	0.015	0.015	-0.005	0.000	-0.010	0.044	2.695	1.919	1.919	1.909	1.924	1.919	1.919
0.000	0.015	0.000	-0.005	0.005	0.010	0.039	2.695	1.914	1.914	1.909	1.929	1.924	1.924
0.010	0.010	0.010	0.000	0.005	0.010	0.044	2.686	1.919	1.919	1.909	1.934	1.924	1.924
-0.005	0.005	0.000	0.000	0.010	0.015	0.044	2.690	1.909	1.909	1.909	1.929	1.924	1.929
0.010	0.005	-0.005	0.000	0.010	0.005	0.044	2.686	1.904	1.909	1.904	1.924	1.919	1.914
-0.005	0.000	-0.015	0.000	-0.005	0.015	0.039	2.686	1.895	1.895	1.895	1.919	1.909	1.919
-0.005	-0.005	-0.020	0.000	-0.005	0.010	0.039	2.681	1.890	1.890	1.890	1.914	1.909	1.914
-0.010	-0.005	0.010	0.000	-0.010	0.000	0.039	2.690	1.885	1.885	1.895	1.909	1.904	1.904
0.005	0.005	0.005	0.000	0.000	0.010	0.039	2.686	1.885	1.885	1.890	1.909	1.904	1.904
0.010	0.005	0.000	0.000	0.000	-0.015	0.039	2.686	1.885	1.885	1.880	1.904	1.899	1.895
0.000	0.010	-0.005	0.000	0.010	-0.010	0.044	2.690	1.885	1.885	1.880	1.904	1.904	1.899
0.000	0.005	-0.015	0.010	0.034	0.010	0.044	2.690	1.890	1.885	1.880	1.904	1.909	1.909
0.005	0.000	-0.005	0.000	0.020	0.020	0.044	2.686	1.895	1.890	1.885	1.904	1.904	1.909
-0.005	0.000	0.010	0.000	-0.005	0.010	0.039	2.690	1.895	1.895	1.890	1.909	1.904	1.909
0.005	0.015	0.000	0.000	0.000	0.020	0.039	2.695	1.904	1.904	1.895	1.909	1.909	1.909
0.005	0.015	0.010	0.000	0.010	0.015	0.044	2.686	1.909	1.909	1.904	1.919	1.914	1.909
0.000	0.005	0.020	0.000	-0.005	-0.005	0.039	2.686	1.909	1.909	1.909	1.919	1.909	1.909
0.015	0.005	0.020	0.000	-0.010	-0.005	0.039	2.690	1.914	1.914	1.909	1.924	1.909	1.909
0.010	0.005	0.005	0.000	-0.020	-0.034	0.039	2.695	1.914	1.914	1.909	1.924	1.909	1.899
0.005	-0.010	0.005	0.000	-0.024	-0.024	0.039	2.690	1.904	1.904	1.909	1.924	1.914	1.909
-0.005	-0.005	0.005	0.005	-0.005	0.020	0.044	2.690	1.899	1.899	1.904	1.924	1.919	1.924
-0.005	-0.005	-0.005	0.000	-0.005	0.000	0.039	2.695	1.895	1.895	1.895	1.919	1.919	1.914
-0.010	-0.005	0.000	0.005	-0.005	0.010	0.039	2.695	1.890	1.890	1.895	1.914	1.914	1.914
0.005	0.005	0.005	0.005	-0.015	0.000	0.039	2.695	1.895	1.890	1.890	1.909	1.909	1.909
0.000	0.000	0.000	0.000	0.015	0.005	0.039	2.686	1.885	1.880	1.885	1.904	1.909	1.904
0.000	-0.005	0.000	0.000	0.010	-0.020	0.044	2.695	1.885	1.880	1.880	1.899	1.899	1.899
0.000	-0.010	-0.005	0.000	0.005	0.010	0.039	2.690	1.885	1.875	1.880	1.899	1.899	1.904
0.020	0.005	0.000	0.000	0.020	-0.010	0.039	2.686	1.895	1.885	1.880	1.899	1.899	1.899
0.015	0.000	-0.005	0.005	0.005	0.010	0.039	2.695	1.895	1.890	1.880	1.904	1.899	1.904
0.005	0.010	-0.010	-0.005	0.015	0.020	0.044	2.695	1.895	1.895	1.885	1.904	1.899	1.904
-0.010	0.029	-0.015	0.000	0.005	0.010	0.044	2.690	1.899	1.899	1.890	1.904	1.899	1.904
-0.010	0.010	0.010	0.000	0.010	0.015	0.044	2.695	1.899	1.899	1.899	1.914	1.909	1.909
-0.015	0.010	0.024	0.005	0.005	0.000	0.039	2.686	1.904	1.904	1.909	1.919	1.909	1.904
-0.005	0.010	0.020	0.005	0.005	0.010	0.044	2.690	1.909	1.909	1.909	1.924	1.914	1.909
-0.005	0.000	0.010	0.000	-0.010	0.015	0.039	2.690	1.909	1.904	1.904	1.919	1.914	1.919
-0.010	0.015	0.000	0.000	0.015	-0.015	0.039	2.690	1.909	1.914	1.904	1.924	1.924	1.909
0.000	0.005	0.000	0.005	0.029	0.000	0.044	2.690	1.909	1.904	1.909	1.924	1.924	1.914
0.010	-0.005	0.000	0.000	0.010	-0.020	0.039	2.686	1.904	1.899	1.899	1.919	1.914	1.909
0.010	-0.010	-0.005	0.000	-0.010	-0.020	0.039	2.686	1.895	1.895	1.895	1.914	1.904	1.904
0.015	-0.005	0.000	0.000	-0.010	-0.015	0.039	2.686	1.890	1.890	1.890	1.909	1.904	1.899
0.010	-0.005	0.005	0.000	-0.005	-0.029	0.039	2.681	1.885	1.885	1.885	1.904	1.899	1.899
0.000	-0.005	0.005	0.005	-0.005	0.015	0.044	2.676	1.875	1.880	1.880	1.904	1.899	1.909
0.005	-0.005	0.005	0.010	0.010	0.024	0.044	2.695	1.880	1.875	1.880	1.899	1.904	1.909
0.010	-0.005	0.000	0.005	0.010	0.005	0.044	2.695	1.885	1.875	1.875	1.899	1.899	1.904
0.010	0.005	0.000	0.000	0.000	0.020	0.044	2.686	1.890	1.880	1.875	1.895	1.895	1.899
-0.005	0.005	0.000	0.000	0.000	0.020	0.044	2.690	1.890	1.885	1.880	1.895	1.895	1.899
0.010	0.000	0.000	0.005	-0.005	-0.015	0.044	2.695	1.895	1.885	1.885	1.899	1.895	1.890
0.005	0.005	0.000	0.000	0.005	-0.029	0.039	2.700	1.904	1.895	1.890	1.904	1.899	1.895
0.005	0.000	-0.005	0.000	0.005	0.000	0.039	2.690	1.904	1.899	1.895	1.909	1.904	1.904
-0.005	0.000	0.005	0.000	0.005	-0.015	0.044	2.700	1.909	1.899	1.899	1.914	1.909	1.904
0.054	0.005	0.000	0.000	0.010	0.024	0.044	2.695	1.929	1.914	1.904	1.919	1.914	1.919
0.049	0.005	0.005	-0.005	0.005	0.015	0.044	2.700	1.919	1.914	1.909	1.924	1.914	1.914
0.034	0.000	0.000	0.000	0.000	0.005	0.039	2.695	1.909	1.914	1.909	1.924	1.914	1.914
-0.005	-0.005	0.000	0.005	-0.005	0.010	0.044	2.695	1.895	1.899	1.904	1.919	1.909	1.909
-0.015	-0.010	0.010	0.000	-0.005	-0.005	0.039	2.686	1.885	1.895	1.899	1.919	1.909	1.904
-0.039	-0.005	0.005	0.000	-0.005	0.005	0.039	2.686	1.875	1.890	1.895	1.914	1.909	1.909
-0.039	0.005	-0.005	0.005	0.005	0.005	0.039	2.681	1.875	1.885	1.885	1.909	1.909	1.904
-0.039	0.005	-0.005	0.000	0.015	0.010	0.039	2.681	1.870	1.875	1.880	1.904	1.904	1.909
-0.024	-0.005	0.000	0.010	0.000	0.005	0.039	2.686	1.875	1.870	1.875	1.899	1.895	1.904
-0.020	0.005	0.000	0.005	0.000	0.005	0.044	2.686	1.875	1.875	1.875	1.895	1.895	1.895
-0.015	0.010	0.010	0.010	0.005	0.010	0.044	2.681	1.880	1.875	1.875	1.895	1.895	1.899
-0.010	0.005	0.005	0.005	0.000	0.005	0.044	2.690	1.885	1.875	1.875	1.895	1.890	1.899
0.000	0.000	0.010	0.010	0.005	0.010	0.044	2.686	1.890	1.885	1.880	1.895	1.895	1.899
0.005	-0.005	0.010	0.005	0.005	-0.015	0.039	2.700	1.899	1.890	1.880	1.899	1.895	1.890
0.005	-0.020	0.020	0.005	0.005	0.000	0.034	2.695	1.899	1.890	1.885	1.899	1.899	1.899
0.005	-0.010	0.015	0.005	0.000	-0.020	0.039	2.690	1.904	1.904	1.895	1.904	1.899	1.899
0.000	0.000	0.005	-0.005	0.010	0.010	0.039	2.686	1.904	1.909	1.899	1.914	1.909	1.909
0.010	0.000	0.010	0.000	0.000	0.015	0.039	2.690	1.909	1.909	1.904	1.914	1.909	1.909
0.010	-0.005	0.005	0.000	0.005	-0.024	0.039	2.690	1.909	1.909	1.899	1.919	1.909	1.899
0.005	0.000	0.005	0.005	0.000	0.005	0.044	2.700	1.904	1.909	1.899	1.919	1.909	1.909
0.000	0.005	-0.005	-0.005	-0.005	0.010	0.039	2.690	1.899	1.904	1.899	1.914	1.909	1.909
0.010	0.024	-0.010	-0.005	-0.005	0.000	0.039	2.695	1.895	1.904	1.899	1.914	1.904	1.904
0.005	0.020	0.005	0.005	-0.005	-0.024	0.039	2.695	1.885	1.895	1.895	1.914	1.904	1.895
0.010	0.005	0.000	0.000	0.005	-0.015	0.044	2.700	1.885	1.885	1.890	1.909	1.904	1.899
0.005	0.010	0.000	0.000	0.010	0.010	0.044	2.695	1.880	1.880	1.885	1.904	1.899	1.899
0.010	0.010	0.000	0.000	0.010	0.024	0.044	2.690	1.875	1.875	1.875	1.899	1.899	1.904
0.000	0.015	-0.005	0.000	0.005	0.020	0.039	2.690	1.875	1.875	1.875	1.895	1.895	1.899
0.010	0.010	0.000	0.000	-0.005	-0.005	0.044	2.690	1.880	1.875	1.875	1.895	1.890	1.890
0.010	0.000	-0.005	0.005	0.005	-0.020	0.039	2.695	1.885	1.875	1.875	1.895	1.895	1.890
0.005	0.005	-0.005	0.005	0.000	0.000	0.044	2.690	1.885	1.880	1.880	1.899	1.895	1.895
0.005	-0.005	0.000	0.005	0.000	-0.005	0.044	2.686	1.890	1.885	1.885	1.899	1.895	1.895
0.005	0.000	0.005	0.005	0.000	0.010	0.039	2.686	1.895	1.890	1.890	1.904	1.899	1.904
0.005	-0.005	0.000	0.000	-0.010	0.000	0.039	2.681	1.899	1.895	1.890	1.904	1.899	1.899
0.005	-0.005	0.000	0.005	-0.005	-0.005	0.039	2.700	1.904	1.899	1.895	1.909	1.904	1.904
-0.010	0.000	0.000	0.000	0.000	-0.020	0.044	2.690	1.899	1.899	1.899	1.914	1.909	1.899
0.010	0.000	-0.010	0.000	0.000	0.015	0.039	2.686	1.904	1.904	1.899	1.914	1.909	1.909
0.000	0.000	0.000	0.005	0.010	0.015	0.044	2.686	1.899	1.899	1.899	1.914	1.914	1.914
0.005	-0.005	0.000	0.005	0.010	0.000	0.039	2.681	1.890	1.895	1.895	1.909	1.909	1.904
-0.005	-0.005	-0.005	0.000	0.010	0.000	0.039	2.671	1.880	1.890	1.890	1.909	1.904	1.904
0.010	0.005	-0.005	0.000	0.015	0.000	0.039	2.686	1.885	1.885	1.885	1.904	1.904	1.899
0.000	0.010	-0.005	-0.005	0.020	0.015	0.039	2.686	1.880	1.880	1.880	1.899	1.899	1.899
0.005	0.010	0.000	-0.005	0.010	0.010	0.039	2.690	1.875	1.875	1.880	1.899	1.895	1.899
0.000	0.000	-0.005	0.000	0.005	0.010	0.039	2.681	1.875	1.870	1.875	1.895	1.890	1.890
0.000	0.000	0.000	0.000	0.005	0.000	0.044	2.686	1.875	1.870	1.870	1.895	1.885	1.885
0.000	0.005	0.015	0.000	-0.005	-0.005	0.039	2.686	1.875	1.875	1.875	1.895	1.885	1.885
0.005	0.000	0.015	0.000	-0.020	-0.034	0.039	2.705	1.885	1.875	1.875	1.895	1.880	1.875
0.010	0.010	0.010	0.000	-0.039	0.020	0.044	2.695	1.890	1.880	1.875	1.895	1.885	1.895
0.005	-0.010	0.010	0.000	-0.034	-0.005	0.039	2.690	1.895	1.885	1.880	1.899	1.890	1.890
0.010	-0.010	0.000	0.000	-0.010	0.005	0.039	2.705	1.904	1.890	1.880	1.904	1.904	1.895
0.005	0.005	0.000	0.005	0.015	0.005	0.039	2.695	1.904	1.899	1.895	1.909	1.909	1.904
-0.005	-0.010	-0.005	0.000	0.020	0.010	0.039	2.690	1.904	1.899	1.895	1.909	1.909	1.909
-0.005	-0.005	0.000	0.010	0.005	0.020	0.039	2.695	1.899	1.899	1.899	1.914	1.909	1.909
0.000	-0.005	0.000	0.005	0.010	0.024	0.044	2.690	1.904	1.904	1.899	1.914	1.909	1.914
0.005	0.010	0.000	0.000	0.020	0.015	0.044	2.695	1.904	1.904	1.899	1.914	1.909	1.909
0.010	0.005	-0.005	0.005	0.020	-0.020	0.039	2.686	1.895	1.899	1.895	1.909	1.904	1.899
0.000	0.000	-0.005	0.005	0.024	0.000	0.039	2.681	1.885	1.890	1.895	1.909	1.904	1.899
0.000	0.005	-0.005	0.010	0.015	-0.010	0.039	2.686	1.880	1.880	1.885	1.909	1.899	1.895
-0.005	0.005	-0.005	0.005	0.010	-0.005	0.039	2.671	1.875	1.875	1.880	1.899	1.895	1.895
0.000	0.000	-0.005	0.005	0.005	-0.005	0.039	2.686	1.870	1.870	1.875	1.895	1.890	1.895
0.000	0.000	-0.005	0.005	-0.010	-0.005	0.039	2.686	1.875	1.870	1.875	1.890	1.885	1.885
0.000	-0.005	0.000	0.000	-0.020	0.000	0.039	2.686	1.875	1.870	1.870	1.890	1.885	1.890
0.000	-0.005	0.000	0.000	0.000	0.005	0.039	2.686	1.880	1.870	1.875	1.890	1.890	1.895
0.015	0.000	0.015	0.000	0.005	0.010	0.039	2.676	1.885	1.880	1.875	1.890	1.890	1.895
0.010	0.005	0.015	0.005	0.010	0.024	0.044	2.705	1.895	1.885	1.880	1.899	1.895	1.899
-0.005	0.020	0.010	0.000	0.005	0.020	0.044	2.690	1.895	1.895	1.885	1.899	1.895	1.895
0.000	0.010	0.005	0.000	0.005	0.010	0.044	2.695	1.904	1.899	1.890	1.904	1.899	1.899
-0.005	0.000	0.005	0.000	0.000	0.000	0.044	2.705	1.904	1.895	1.895	1.909	1.899	1.899
-0.005	0.000	0.005	0.000	-0.005	-0.020	0.044	2.690	1.904	1.899	1.895	1.909	1.904	1.895
0.000	-0.005	0.005	0.000	-0.005	-0.024	0.044	2.690	1.904	1.899	1.899	1.914	1.904	1.895
0.029	0.010	0.005	0.000	0.005	0.000	0.039	2.686	1.909	1.909	1.899	1.914	1.909	1.909
0.034	-0.005	0.005	0.005	0.005	-0.010	0.039	2.695	1.909	1.904	1.899	1.914	1.909	1.904
0.020	-0.010	0.000	0.000	0.005	0.005	0.044	2.690	1.890	1.895	1.895	1.909	1.904	1.904
0.005	-0.005	0.000	0.000	0.005	-0.010	0.044	2.690	1.875	1.885	1.890	1.904	1.899	1.899
0.005	0.005	0.000	0.000	0.000	-0.005	0.039	2.695	1.875	1.880	1.885	1.904	1.899	1.895
-0.020	0.015	-0.005	0.005	0.005	0.000	0.039	2.690	1.870	1.875	1.875	1.899	1.895	1.895
-0.029	0.000	0.000	0.005	0.005	-0.015	0.039	2.695	1.865	1.865	1.870	1.895	1.895	1.890
-0.029	0.000	-0.010	0.010	0.010	-0.005	0.039	2.695	1.870	1.865	1.870	1.890	1.890	1.895
-0.029	0.000	0.005	0.005	0.005	0.029	0.044	2.681	1.870	1.865	1.870	1.890	1.890	1.899
-0.020	0.005	0.005	0.005	0.000	0.024	0.044	2.690	1.885	1.875	1.870	1.890	1.885	1.895
-0.020	0.015	0.005	0.005	0.010	0.029	0.044	2.695	1.890	1.880	1.875	1.895	1.895	1.899
-0.010	0.010	0.010	0.005	-0.005	0.020	0.044	2.695	1.895	1.885	1.880	1.895	1.890	1.890
0.000	0.000	0.005	0.005	-0.010	-0.005	0.039	2.690	1.899	1.890	1.885	1.899	1.890	1.890
-0.005	-0.005	0.005	-0.005	-0.005	0.010	0.039	2.686	1.904	1.895	1.890	1.899	1.895	1.899
0.005	-0.005	0.000	-0.005	-0.005	-0.010	0.039	2.686	1.904	1.899	1.895	1.904	1.899	1.895
0.010	-0.005	0.000	0.000	-0.005	0.010	0.039	2.690	1.904	1.904	1.899	1.909	1.904	1.899
0.010	-0.010	0.000	-0.005	0.000	0.015	0.044	2.690	1.904	1.899	1.899	1.914	1.904	1.904
0.005	-0.005	0.005	-0.005	0.005	0.005	0.044	2.676	1.895	1.899	1.899	1.909	1.904	1.899
0.020	-0.015	0.000	-0.005	0.010	0.000	0.044	2.681	1.890	1.895	1.895	1.909	1.909	1.904
0.029	0.000	0.000	-0.005	0.015	-0.010	0.044	2.686	1.890	1.895	1.890	1.909	1.904	1.890
0.034	0.010	0.000	0.000	0.010	0.005	0.044	2.681	1.880	1.885	1.885	1.904	1.899	1.899
0.015	0.005	0.005	0.010	0.005	0.000	0.044	2.690	1.875	1.880	1.880	1.904	1.899	1.895
0.005	0.000	0.005	0.005	0.000	-0.005	0.044	2.686	1.870	1.870	1.875	1.899	1.890	1.890
-0.010	-0.005	0.005	0.005	-0.005	-0.005	0.039	2.681	1.865	1.865	1.870	1.895	1.890	1.890
-0.010	0.005	0.000	0.005	0.000	0.000	0.044	2.690	1.870	1.865	1.870	1.890	1.890	1.890
-0.005	0.010	0.005	0.010	0.000	0.005	0.044	2.705	1.875	1.870	1.870	1.890	1.890	1.890
-0.015	0.010	0.005	0.005	0.000	0.005	0.039	2.695	1.880	1.870	1.870	1.890	1.885	1.890
-0.005	0.005	0.000	0.005	0.000	0.005	0.044	2.705	1.890	1.880	1.875	1.895	1.890	1.895
-0.005	0.015	0.005	0.005	0.005	0.020	0.044	2.690	1.895	1.890	1.880	1.895	1.895	1.899
-0.010	0.005	0.000	0.005	0.005	0.000	0.039	2.690	1.895	1.890	1.885	1.904	1.895	1.895
0.005	0.005	0.000	0.000	0.000	-0.010	0.039	2.695	1.909	1.899	1.890	1.904	1.895	1.890
0.015	0.015	0.005	0.000	0.005	0.010	0.039	2.695	1.909	1.909	1.899	1.909	1.904	1.904
0.000	0.005	0.000	0.005	0.005	-0.005	0.044	2.695	1.899	1.904	1.899	1.909	1.904	1.895
0.005	0.010	0.000	0.000	0.010	-0.015	0.044	2.690	1.899	1.904	1.899	1.914	1.904	1.899
0.000	0.005	0.000	0.000	0.005	0.000	0.039	2.690	1.895	1.895	1.895	1.914	1.904	1.904
0.005	0.000	-0.005	0.000	0.005	0.005	0.044	2.690	1.890	1.890	1.890	1.909	1.904	1.904
0.000	0.015	-0.005	0.000	0.000	-0.005	0.044	2.686	1.880	1.885	1.890	1.904	1.899	1.899
0.000	-0.010	0.000	0.000	0.005	0.005	0.044	2.686	1.875	1.875	1.880	1.899	1.899	1.899
0.010	0.015	0.005	0.000	0.005	0.005	0.044	2.681	1.875	1.875	1.875	1.899	1.895	1.890
-0.005	0.010	0.000	0.005	0.005	-0.010	0.044	2.686	1.870	1.870	1.870	1.895	1.890	1.885
0.015	0.000	0.000	0.000	0.000	0.010	0.039	2.700	1.875	1.870	1.870	1.890	1.890	1.890
0.010	0.000	0.005	0.000	0.005	0.005	0.039	2.695	1.875	1.870	1.870	1.890	1.885	1.885
0.005	-0.010	-0.005	0.000	0.000	0.005	0.039	2.695	1.880	1.865	1.865	1.890	1.890	1.890
0.015	0.005	0.005	0.000	0.005	0.029	0.044	2.695	1.885	1.875	1.870	1.890	1.890	1.895
0.015	0.000	0.005	0.000	0.005	0.020	0.044	2.695	1.890	1.880	1.875	1.895	1.890	1.890
0.010	0.000	0.005	0.005	-0.005	0.020	0.044	2.695	1.895	1.890	1.880	1.899	1.895	1.895
0.010	0.010	0.000	0.000	0.015	0.015	0.044	2.700	1.899	1.895	1.885	1.904	1.899	1.899
-0.005	0.000	0.005	0.000	0.010	-0.005	0.044	2.700	1.899	1.895	1.890	1.904	1.899	1.895
0.000	0.005	0.005	0.000	-0.005	0.000	0.039	2.700	1.904	1.899	1.895	1.909	1.904	1.899
-0.010	0.000	0.000	0.000	0.000	0.015	0.044	2.686	1.899	1.899	1.895	1.914	1.904	1.904
-0.005	-0.005	0.000	0.000	0.000	-0.005	0.039	2.695	1.895	1.895	1.895	1.914	1.904	1.895
-0.010	0.005	-0.005	0.000	0.005	-0.005	0.039	2.690	1.890	1.895	1.895	1.909	1.904	1.899
-0.010	0.000	0.005	0.000	0.000	0.015	0.044	2.690	1.885	1.885	1.890	1.909	1.904	1.904
0.000	-0.005	0.000	0.000	0.005	-0.024	0.044	2.690	1.880	1.880	1.880	1.904	1.899	1.890
0.000	0.010	-0.010	0.005	0.010	-0.005	0.044	2.676	1.875	1.875	1.875	1.899	1.895	1.895
-0.005	0.000	0.015	0.005	0.000	-0.005	0.044	2.695	1.870	1.870	1.875	1.895	1.890	1.890
-0.005	0.010	0.015	0.000	-0.015	-0.015	0.039	2.686	1.870	1.870	1.870	1.890	1.885	1.885
-0.005	0.005	0.005	0.000	-0.029	-0.010	0.039	2.686	1.870	1.870	1.865	1.885	1.880	1.885
0.000	0.000	-0.005	0.000	-0.010	0.010	0.039	2.690	1.875	1.870	1.865	1.885	1.885	1.890
-0.010	0.000	-0.005	0.000	0.000	0.000	0.044	2.686	1.875	1.875	1.865	1.890	1.890	1.890
0.000	-0.005	0.000	0.005	0.010	0.020	0.039	2.686	1.885	1.875	1.870	1.890	1.890	1.895
0.005	-0.005	0.000	0.010	0.010	0.024	0.039	2.681	1.890	1.880	1.875	1.895	1.895	1.899
0.005	-0.010	0.000	0.005	0.005	0.015	0.039	2.686	1.890	1.890	1.880	1.895	1.895	1.899
0.000	0.000	0.000	0.000	0.005	-0.005	0.039	2.695	1.895	1.895	1.885	1.899	1.899	1.895
0.005	0.000	0.005	0.005	0.010	-0.005	0.044	2.681	1.899	1.899	1.895	1.904	1.899	1.895
0.010	0.010	0.005	0.005	0.015	-0.015	0.044	2.686	1.904	1.904	1.895	1.909	1.904	1.899
0.044	0.005	0.005	0.005	0.010	-0.005	0.044	2.695	1.909	1.904	1.895	1.909	1.904	1.899
0.049	0.000	-0.005	0.005	0.000	-0.020	0.044	2.686	1.904	1.904	1.895	1.914	1.904	1.895
0.020	-0.005	0.000	0.005	-0.005	-0.010	0.044	2.686	1.890	1.895	1.895	1.909	1.899	1.899
0.010	-0.005	0.005	0.000	-0.020	0.005	0.044	2.681	1.880	1.885	1.890	1.904	1.895	1.899
0.010	0.000	0.010	0.005	-0.005	-0.005	0.039	2.681	1.875	1.880	1.885	1.904	1.899	1.895
-0.015	-0.010	0.005	0.000	0.010	-0.015	0.044	2.695	1.870	1.870	1.875	1.899	1.895	1.890
-0.029	0.005	-0.005	-0.005	0.015	0.000	0.039	2.681	1.865	1.865	1.870	1.890	1.895	1.890
-0.024	-0.005	-0.005	0.000	0.010	0.010	0.044	2.695	1.865	1.860	1.865	1.885	1.890	1.890
-0.024	0.000	-0.005	0.005	0.000	0.000	0.039	2.686	1.870	1.865	1.865	1.885	1.885	1.890
-0.010	0.000	0.000	0.000	0.015	0.020	0.039	2.700	1.875	1.865	1.865	1.885	1.885	1.890
-0.015	0.000	0.000	-0.005	0.005	0.005	0.039	2.695	1.880	1.870	1.870	1.885	1.880	1.885
-0.005	-0.005	0.005	-0.005	-0.005	-0.015	0.039	2.686	1.885	1.875	1.875	1.885	1.880	1.880
0.000	0.000	0.000	-0.005	-0.005	-0.015	0.039	2.686	1.890	1.885	1.875	1.890	1.885	1.885
0.005	-0.005	0.000	0.000	-0.005	-0.005	0.039	2.690	1.895	1.890	1.880	1.895	1.890	1.895
0.015	0.000	0.005	0.000	0.000	0.000	0.039	2.686	1.904	1.899	1.890	1.904	1.895	1.899
0.020	0.000	-0.005	0.005	0.005	0.029	0.039	2.686	1.904	1.904	1.895	1.909	1.904	1.904
0.010	0.000	0.000	0.005	0.010	0.010	0.044	2.695	1.899	1.899	1.895	1.914	1.899	1.899
0.000	0.015	0.000	0.010	0.000	-0.005	0.044	2.695	1.895	1.904	1.899	1.914	1.899	1.895
0.000	0.015	0.000	0.005	0.005	0.020	0.039	2.690	1.890	1.899	1.895	1.914	1.904	1.909
-0.005	0.010	0.005	0.005	0.015	0.010	0.039	2.690	1.890	1.890	1.895	1.914	1.904	1.899
0.029	0.005	0.010	0.010	0.005	0.015	0.039	2.686	1.890	1.885	1.890	1.909	1.904	1.899
0.020	0.000	0.005	0.010	0.000	-0.020	0.044	2.686	1.880	1.880	1.885	1.904	1.899	1.890
0.010	0.015	0.010	0.005	0.000	-0.010	0.039	2.690	1.875	1.880	1.880	1.899	1.895	1.895
-0.005	-0.005	0.005	0.010	0.005	0.010	0.044	2.700	1.870	1.865	1.870	1.895	1.890	1.895
-0.015	-0.010	0.005	0.000	0.005	0.000	0.039	2.695	1.870	1.860	1.870	1.890	1.890	1.890
-0.010	-0.015	0.000	0.000	0.000	0.010	0.044	2.695	1.870	1.860	1.865	1.885	1.885	1.890
-0.015	-0.010	0.000	0.000	0.000	0.005	0.039	2.690	1.875	1.870	1.865	1.885	1.885	1.885
-0.020	0.005	0.010	-0.005	0.000	0.000	0.044	2.700	1.880	1.875	1.870	1.890	1.885	1.890
-0.005	0.015	0.010	0.000	0.005	0.015	0.039	2.690	1.890	1.885	1.880	1.895	1.890	1.895
-0.005	-0.015	0.005	-0.005	0.005	-0.005	0.044	2.690	1.895	1.880	1.880	1.895	1.890	1.890
-0.005	-0.010	0.005	-0.005	0.010	0.024	0.044	2.700	1.899	1.890	1.880	1.895	1.895	1.899
-0.010	-0.005	0.010	-0.005	0.015	0.024	0.044	2.700	1.899	1.899	1.890	1.904	1.899	1.899
-0.010	-0.005	0.005	0.000	0.000	-0.015	0.039	2.700	1.904	1.899	1.895	1.904	1.899	1.895
-0.010	-0.005	0.000	0.000	-0.005	0.015	0.039	2.686	1.895	1.899	1.895	1.909	1.899	1.904
0.000	0.015	0.000	0.005	-0.005	-0.020	0.044	2.690	1.899	1.904	1.899	1.914	1.899	1.890
0.005	0.010	0.005	0.000	0.000	-0.020	0.044	2.686	1.895	1.899	1.895	1.914	1.899	1.890
0.015	0.000	0.000	0.000	0.000	-0.020	0.044	2.695	1.890	1.890	1.890	1.909	1.899	1.895
0.015	0.000	-0.005	0.005	-0.010	-0.005	0.044	2.686	1.880	1.885	1.885	1.904	1.895	1.899
0.020	0.005	-0.005	0.000	0.000	0.000	0.044	2.681	1.875	1.880	1.880	1.899	1.899	1.895
0.000	0.010	-0.005	0.000	0.000	-0.024	0.039	2.686	1.875	1.875	1.875	1.895	1.890	1.890
0.000	0.010	-0.005	0.005	0.005	0.010	0.044	2.690	1.870	1.870	1.875	1.895	1.890	1.895
0.000	0.005	-0.005	0.005	0.005	0.010	0.039	2.681	1.870	1.870	1.870	1.890	1.890	1.895
-0.005	0.020	-0.005	0.000	0.000	-0.005	0.044	2.690	1.870	1.870	1.870	1.885	1.885	1.885
-0.005	0.005	-0.005	-0.005	0.000	0.005	0.039	2.695	1.880	1.870	1.870	1.885	1.885	1.890
0.020	0.005	0.010	-0.005	-0.005	0.010	0.039	2.695	1.890	1.875	1.875	1.890	1.885	1.890
0.029	0.000	0.000	-0.005	0.000	0.005	0.039	2.690	1.895	1.880	1.880	1.895	1.890	1.890
0.005	-0.005	0.000	0.000	0.005	0.005	0.044	2.686	1.890	1.885	1.880	1.899	1.895	1.895
-0.005	0.024	0.000	0.000	0.000	0.005	0.039	2.686	1.895	1.899	1.890	1.904	1.895	1.899
-0.024	0.029	0.000	0.000	0.000	0.000	0.039	2.695	1.895	1.904	1.895	1.909	1.899	1.899
-0.015	0.010	0.000	0.005	0.005	0.005	0.039	2.690	1.895	1.895	1.895	1.914	1.904	1.899
-0.020	-0.020	0.005	0.000	0.000	-0.015	0.039	2.690	1.890	1.885	1.890	1.909	1.904	1.895
-0.024	0.010	0.000	0.000	0.010	-0.010	0.039	2.690	1.890	1.895	1.890	1.909	1.904	1.899
-0.015	0.015	-0.005	0.005	0.005	-0.005	0.039	2.676	1.890	1.890	1.890	1.909	1.904	1.899
0.000	0.005	-0.005	0.000	0.015	0.015	0.044	2.690	1.885	1.885	1.885	1.904	1.904	1.904
-0.005	0.005	0.000	0.000	-0.010	0.015	0.044	2.686	1.880	1.880	1.880	1.899	1.890	1.899
0.010	0.000	0.000	0.000	-0.005	0.020	0.044	2.681	1.880	1.875	1.875	1.895	1.890	1.895
0.005	0.000	0.005	0.000	-0.005	0.010	0.039	2.686	1.875	1.875	1.875	1.890	1.890	1.890
0.010	0.000	0.000	0.000	-0.010	0.000	0.039	2.676	1.870	1.865	1.870	1.890	1.885	1.880
0.010	0.000	-0.005	0.005	-0.010	-0.029	0.039	2.681	1.870	1.870	1.865	1.885	1.880	1.875
0.010	-0.020	-0.005	0.005	-0.005	-0.015	0.039	2.686	1.875	1.865	1.865	1.885	1.885	1.875
0.024	-0.010	0.000	0.005	-0.010	-0.029	0.044	2.690	1.880	1.870	1.870	1.890	1.880	1.875
0.020	-0.010	0.005	0.000	0.024	-0.020	0.039	2.690	1.885	1.875	1.875	1.890	1.895	1.880
0.015	-0.010	0.005	0.000	0.020	-0.020	0.039	2.686	1.885	1.885	1.875	1.895	1.895	1.890
0.005	-0.010	-0.005	0.005	0.005	0.010	0.039	2.686	1.895	1.890	1.880	1.899	1.895	1.899
0.024	-0.005	-0.005	0.000	-0.005	0.024	0.039	2.695	1.904	1.895	1.885	1.904	1.895	1.904
0.010	0.020	0.005	0.000	0.010	0.020	0.039	2.695	1.899	1.904	1.895	1.904	1.904	1.904
-0.005	0.020	0.005	0.005	0.034	0.020	0.044	2.690	1.899	1.904	1.899	1.914	1.909	1.909
-0.005	0.024	0.005	0.000	0.010	0.010	0.039	2.686	1.895	1.904	1.899	1.914	1.904	1.899
-0.024	0.010	0.005	0.000	-0.010	-0.005	0.039	2.695	1.885	1.895	1.895	1.914	1.899	1.890
-0.024	0.010	0.015	0.010	-0.005	-0.005	0.044	2.690	1.885	1.885	1.890	1.909	1.899	1.895
-0.024	0.010	0.010	0.000	0.000	-0.020	0.039	2.690	1.875	1.880	1.885	1.904	1.899	1.890
-0.010	-0.005	0.010	0.000	0.005	-0.015	0.044	2.690	1.875	1.875	1.880	1.899	1.899	1.895
0.000	0.000	0.010	0.005	0.000	0.010	0.039	2.686	1.875	1.870	1.875	1.895	1.890	1.895
-0.005	-0.010	0.015	0.000	-0.015	0.015	0.044	2.690	1.870	1.865	1.870	1.890	1.885	1.890
-0.005	-0.005	0.015	0.000	-0.010	-0.005	0.039	2.686	1.870	1.870	1.865	1.885	1.885	1.885
-0.005	0.000	0.015	0.000	0.000	0.034	0.044	2.695	1.875	1.870	1.865	1.885	1.890	1.895
0.000	-0.005	0.005	0.000	0.010	0.029	0.044	2.690	1.880	1.870	1.870	1.885	1.885	1.890
0.000	0.010	-0.005	0.000	0.010	0.015	0.044	2.690	1.885	1.875	1.870	1.890	1.890	1.890
0.015	0.010	-0.005	0.000	-0.005	0.020	0.039	2.695	1.890	1.885	1.875	1.885	1.885	1.890
0.010	0.000	-0.005	0.000	-0.029	-0.024	0.039	2.695	1.895	1.890	1.880	1.890	1.885	1.880
0.000	-0.020	-0.005	0.000	-0.005	-0.034	0.039	2.686	1.895	1.885	1.885	1.899	1.895	1.885
-0.005	-0.015	-0.005	0.000	0.010	-0.020	0.039	2.690	1.895	1.895	1.890	1.904	1.899	1.895
0.010	0.005	-0.005	0.000	0.015	0.000	0.044	2.690	1.899	1.904	1.899	1.909	1.904	1.904
0.010	0.005	0.000	0.000	0.029	0.015	0.044	2.681	1.899	1.904	1.899	1.909	1.909	1.909
0.005	0.010	0.000	0.000	0.034	0.015	0.044	2.686	1.895	1.904	1.899	1.914	1.909	1.909
0.005	-0.005	-0.010	0.000	0.020	-0.005	0.039	2.690	1.890	1.895	1.890	1.909	1.904	1.899
0.000	0.000	-0.010	0.000	-0.005	-0.010	0.039	2.681	1.885	1.890	1.890	1.909	1.895	1.895
-0.005	-0.005	0.005	0.005	0.005	-0.005	0.044	2.690	1.880	1.885	1.890	1.909	1.899	1.895
0.010	0.000	0.000	0.005	0.010	0.000	0.044	2.681	1.875	1.875	1.880	1.904	1.895	1.890
0.015	-0.005	0.000	0.010	-0.029	0.020	0.039	2.681	1.880	1.870	1.875	1.899	1.885	1.890
0.005	-0.005	-0.005	0.005	-0.049	0.020	0.039	2.690	1.875	1.870	1.870	1.895	1.880	1.885
0.000	-0.005	0.000	0.005	-0.029	0.010	0.044	2.695	1.875	1.865	1.870	1.890	1.880	1.880
0.000	-0.005	0.000	0.000	0.000	0.005	0.039	2.695	1.875	1.865	1.870	1.890	1.890	1.885
-0.005	-0.005	-0.005	0.010	0.010	0.005	0.044	2.686	1.880	1.870	1.865	1.890	1.890	1.885
-0.005	-0.010	0.000	0.005	0.010	-0.015	0.044	2.690	1.880	1.875	1.875	1.890	1.890	1.885
0.029	0.000	0.005	0.005	0.015	-0.005	0.044	2.695	1.895	1.885	1.880	1.895	1.895	1.890
0.029	0.010	0.000	0.005	0.015	0.015	0.039	2.695	1.899	1.895	1.885	1.899	1.899	1.899
0.010	0.000	0.000	0.000	0.020	0.005	0.039	2.695	1.895	1.895	1.890	1.904	1.904	1.899
0.010	0.000	0.000	0.005	0.015	0.005	0.044	2.690	1.899	1.899	1.895	1.909	1.904	1.904
0.000	0.000	0.000	0.005	0.015	-0.005	0.039	2.681	1.895	1.899	1.895	1.909	1.904	1.899
-0.015	0.005	0.005	0.000	0.005	0.010	0.044	2.686	1.890	1.899	1.899	1.914	1.904	1.904
0.015	-0.005	-0.005	0.000	0.000	0.005	0.044	2.690	1.899	1.895	1.890	1.909	1.904	1.899
0.000	0.005	0.000	0.000	0.000	-0.005	0.039	2.690	1.890	1.890	1.895	1.909	1.904	1.895
-0.005	0.000	0.000	-0.005	-0.005	-0.029	0.039	2.681	1.880	1.880	1.890	1.904	1.899	1.890
-0.005	0.005	-0.005	-0.010	-0.005	0.015	0.039	2.690	1.875	1.875	1.880	1.899	1.895	1.899
-0.020	0.005	0.000	-0.005	0.000	0.005	0.044	2.676	1.870	1.875	1.875	1.895	1.895	1.895
-0.029	0.015	0.000	0.000	0.005	0.000	0.044	2.690	1.870	1.870	1.870	1.890	1.890	1.890
-0.020	0.000	0.000	0.000	0.005	0.015	0.044	2.695	1.870	1.865	1.870	1.890	1.885	1.890
-0.015	0.005	-0.005	0.000	0.000	-0.005	0.044	2.690	1.870	1.865	1.860	1.885	1.885	1.885
0.005	-0.005	0.000	0.010	0.015	0.015	0.039	2.690	1.880	1.865	1.865	1.885	1.885	1.890
0.005	-0.005	0.005	0.005	0.020	-0.005	0.044	2.681	1.885	1.870	1.870	1.890	1.890	1.880
0.015	0.000	0.005	0.005	0.005	0.005	0.044	2.686	1.890	1.880	1.875	1.890	1.890	1.890
0.005	0.000	0.010	0.010	-0.010	0.005	0.039	2.690	1.890	1.885	1.880	1.895	1.885	1.890
0.000	0.010	0.005	0.010	-0.005	0.005	0.039	2.700	1.895	1.895	1.885	1.899	1.890	1.890
-0.005	0.015	0.015	0.005	-0.005	0.010	0.044	2.700	1.899	1.899	1.895	1.909	1.899	1.895
-0.010	0.020	0.015	0.010	0.000	-0.015	0.039	2.700	1.899	1.904	1.895	1.909	1.899	1.895
-0.005	0.024	0.005	0.005	0.010	0.010	0.044	2.686	1.899	1.899	1.899	1.914	1.904	1.904
0.000	0.005	0.005	0.005	-0.010	0.024	0.039	2.695	1.899	1.895	1.895	1.909	1.899	1.904
-0.005	0.000	0.005	0.000	-0.015	0.010	0.039	2.690	1.895	1.895	1.890	1.909	1.899	1.899
0.010	-0.005	0.005	0.000	-0.005	0.010	0.044	2.690	1.890	1.890	1.890	1.909	1.904	1.899
0.000	-0.005	0.000	0.000	0.005	-0.020	0.039	2.690	1.880	1.880	1.885	1.904	1.899	1.890
0.010	-0.005	-0.005	0.000	0.005	-0.005	0.039	2.690	1.875	1.875	1.875	1.899	1.899	1.895
0.005	0.024	0.000	0.000	0.005	-0.020	0.044	2.690	1.875	1.880	1.880	1.895	1.895	1.885
0.010	0.020	0.000	-0.005	0.010	0.015	0.044	2.690	1.870	1.870	1.875	1.890	1.890	1.895
0.015	0.015	0.000	-0.005	0.015	-0.010	0.039	2.690	1.870	1.870	1.870	1.890	1.885	1.885
0.000	0.015	0.000	0.000	0.010	-0.010	0.039	2.686	1.870	1.870	1.870	1.885	1.885	1.885
0.000	0.000	-0.005	0.000	0.005	0.000	0.039	2.676	1.875	1.865	1.870	1.885	1.885	1.890
0.000	0.000	-0.005	0.000	0.000	0.005	0.039	2.676	1.875	1.870	1.870	1.885	1.885	1.890
0.010	-0.005	-0.005	0.000	0.005	-0.024	0.039	2.695	1.880	1.870	1.870	1.890	1.890	1.880
0.000	-0.010	0.000	0.000	-0.005	0.005	0.044	2.686	1.885	1.880	1.875	1.895	1.890	1.895
0.010	-0.010	0.000	0.000	-0.010	0.024	0.044	2.686	1.895	1.885	1.880	1.899	1.890	1.899
0.005	-0.005	-0.005	0.005	0.000	0.005	0.039	2.686	1.899	1.895	1.885	1.904	1.899	1.899
0.010	-0.010	-0.005	0.005	0.000	0.015	0.039	2.686	1.899	1.895	1.890	1.904	1.899	1.899
0.015	-0.005	0.005	0.000	-0.010	-0.005	0.044	2.690	1.899	1.899	1.895	1.904	1.895	1.890
0.015	0.000	0.000	0.000	0.005	0.005	0.039	2.681	1.895	1.899	1.895	1.909	1.904	1.904
0.005	0.000	0.000	0.000	0.024	0.000	0.044	2.681	1.890	1.895	1.895	1.909	1.909	1.899
0.015	0.005	0.000	0.005	0.020	-0.020	0.044	2.686	1.885	1.890	1.890	1.904	1.904	1.895
0.000	0.005	0.000	0.000	-0.005	-0.034	0.044	2.686	1.875	1.880	1.880	1.899	1.890	1.885
-0.005	0.005	0.005	0.000	-0.010	0.005	0.039	2.681	1.870	1.875	1.880	1.899	1.890	1.895
-0.010	0.005	0.005	0.005	0.010	0.000	0.039	2.686	1.870	1.870	1.875	1.895	1.895	1.890
-0.010	0.005	0.015	0.005	-0.005	-0.015	0.039	2.690	1.870	1.865	1.870	1.895	1.885	1.885
-0.005	0.010	0.000	0.005	0.005	0.020	0.039	2.690	1.875	1.865	1.870	1.890	1.890	1.895
-0.005	0.000	0.005	0.005	0.010	-0.005	0.044	2.700	1.875	1.865	1.865	1.890	1.890	1.885
-0.010	-0.010	0.005	0.005	0.010	0.005	0.039	2.656	1.875	1.865	1.865	1.885	1.885	1.885
-0.015	-0.010	0.005	0.000	0.005	0.015	0.044	2.661	1.875	1.870	1.870	1.890	1.885	1.895
-0.015	0.000	-0.005	0.005	0.015	0.000	0.044	2.656	1.880	1.880	1.875	1.890	1.890	1.890
-0.005	0.000	0.000	0.000	0.005	0.024	0.039	2.803	1.904	1.890	1.875	1.895	1.890	1.899
-0.005	0.000	0.000	0.005	0.000	0.020	0.044	2.739	1.914	1.895	1.885	1.899	1.890	1.895
-0.005	0.010	0.000	0.005	-0.024	0.010	0.044	2.715	1.914	1.904	1.890	1.904	1.890	1.890
0.005	0.005	0.000	0.000	-0.020	-0.024	0.044	2.729	1.914	1.909	1.895	1.909	1.895	1.885
0.010	-0.005	0.005	0.000	-0.010	0.000	0.044	2.651	1.899	1.904	1.899	1.909	1.904	1.895
0.005	0.000	0.000	0.000	-0.005	-0.010	0.039	2.705	1.899	1.904	1.899	1.914	1.904	1.895
0.005	0.015	0.000	0.005	0.010	0.015	0.044	2.666	1.890	1.899	1.895	1.914	1.909	1.909
0.000	0.005	0.000	0.000	0.005	-0.005	0.044	2.739	1.885	1.890	1.890	1.909	1.904	1.895
0.005	0.000	0.000	0.000	0.015	0.000	0.044	2.764	1.875	1.880	1.885	1.904	1.899	1.895
0.010	0.005	0.000	0.000	0.015	0.000	0.044	2.642	1.880	1.880	1.880	1.899	1.899	1.895
-0.010	0.000	0.000	0.000	-0.005	0.005	0.039	2.642	1.870	1.870	1.875	1.895	1.890	1.890
0.005	-0.005	0.000	0.000	0.000	0.010	0.039	2.720	1.870	1.865	1.875	1.890	1.890	1.890
0.005	-0.015	0.010	0.005	0.000	0.005	0.039	2.656	1.870	1.865	1.870	1.890	1.885	1.885
0.000	-0.005	0.000	0.000	0.000	-0.005	0.039	2.686	1.870	1.870	1.870	1.890	1.885	1.885
-0.010	-0.005	-0.005	-0.005	-0.015	-0.010	0.039	2.676	1.875	1.870	1.865	1.885	1.885	1.885
0.000	-0.005	0.000	0.000	-0.010	-0.005	0.039	2.705	1.880	1.875	1.870	1.890	1.890	1.890
0.005	0.000	0.000	0.005	0.010	0.015	0.044	2.700	1.890	1.885	1.875	1.890	1.895	1.895
0.010	0.000	0.000	0.000	0.015	0.005	0.039	2.705	1.899	1.890	1.880	1.895	1.895	1.899
-0.005	0.005	0.000	0.005	0.005	0.020	0.039	2.666	1.895	1.895	1.885	1.899	1.899	1.899
0.005	0.010	0.000	0.005	0.005	0.015	0.044	2.671	1.895	1.899	1.895	1.909	1.899	1.899
0.010	0.010	0.005	0.005	0.005	-0.005	0.044	2.705	1.899	1.899	1.895	1.909	1.899	1.899
-0.005	0.000	0.000	0.005	0.000	-0.010	0.044	2.661	1.890	1.895	1.895	1.909	1.904	1.899
-0.005	0.000	0.000	0.000	-0.010	-0.020	0.039	2.661	1.885	1.890	1.890	1.909	1.899	1.895
-0.010	0.000	0.010	0.010	0.000	-0.005	0.044	2.705	1.880	1.885	1.890	1.909	1.899	1.899
0.000	0.010	0.005	0.005	-0.005	0.010	0.044	2.676	1.880	1.885	1.885	1.904	1.899	1.904
0.005	0.005	0.000	0.005	0.010	0.005	0.044	2.700	1.880	1.875	1.875	1.899	1.899	1.895
0.010	0.010	0.000	0.005	0.010	0.005	0.044	2.671	1.875	1.875	1.870	1.895	1.895	1.895
0.000	0.000	-0.005	0.010	0.015	0.000	0.044	2.710	1.870	1.865	1.865	1.890	1.890	1.890
0.005	0.015	0.000	0.005	0.005	-0.029	0.039	2.671	1.870	1.870	1.870	1.885	1.885	1.880
-0.005	0.010	0.000	0.005	0.000	-0.005	0.039	2.661	1.870	1.865	1.865	1.885	1.880	1.885
0.005	0.010	0.000	0.005	0.000	0.015	0.044	2.681	1.875	1.870	1.865	1.880	1.880	1.890
-0.005	0.000	0.005	0.005	0.005	-0.005	0.039	2.686	1.880	1.870	1.870	1.885	1.885	1.885
0.000	0.005	0.005	0.005	0.000	0.015	0.039	2.676	1.885	1.875	1.875	1.890	1.890	1.890
0.005	0.005	-0.005	-0.005	0.010	0.020	0.039	2.686	1.895	1.885	1.875	1.890	1.890	1.895
0.005	0.000	0.000	0.000	0.005	0.005	0.044	2.715	1.899	1.890	1.885	1.895	1.890	1.890
-0.005	0.005	0.000	0.000	0.000	0.005	0.044	2.690	1.899	1.895	1.890	1.899	1.890	1.895
0.000	0.010	0.000	0.000	-0.005	0.010	0.044	2.700	1.904	1.899	1.895	1.904	1.895	1.895
0.000	0.005	0.005	-0.005	-0.005	0.005	0.044	2.764	1.909	1.904	1.899	1.909	1.899	1.895
0.015	0.024	0.000	0.000	0.010	-0.010	0.044	2.666	1.904	1.904	1.899	1.914	1.899	1.890
0.000	0.015	0.000	0.000	0.000	-0.005	0.044	2.759	1.904	1.904	1.899	1.914	1.899	1.895
0.000	0.005	-0.005	0.000	0.005	-0.015	0.039	2.793	1.904	1.890	1.890	1.909	1.899	1.890
0.000	0.005	-0.005	0.005	0.005	0.000	0.039	2.734	1.899	1.890	1.885	1.904	1.899	1.895
0.015	-0.005	0.005	0.010	0.005	-0.044	0.039	2.651	1.895	1.885	1.885	1.904	1.895	1.885
0.000	-0.005	-0.005	0.005	0.000	0.000	0.039	2.729	1.885	1.880	1.880	1.899	1.890	1.899
-0.005	-0.005	0.000	0.000	0.000	0.005	0.039	2.681	1.875	1.875	1.875	1.895	1.890	1.895
0.005	0.005	0.000	0.000	-0.015	0.020	0.039	2.690	1.875	1.875	1.875	1.890	1.885	1.890
0.015	-0.005	0.005	0.005	0.000	0.034	0.039	2.695	1.880	1.875	1.875	1.895	1.895	1.895
0.015	0.000	0.005	0.005	0.000	0.015	0.044	2.656	1.875	1.880	1.880	1.895	1.890	1.885
0.005	0.005	0.005	0.000	0.000	0.020	0.039	2.715	1.885	1.880	1.880	1.899	1.890	1.895
0.005	0.005	0.000	0.005	0.020	-0.005	0.044	2.627	1.880	1.880	1.885	1.899	1.899	1.890
0.005	0.010	0.005	-0.005	0.020	0.005	0.039	2.646	1.885	1.885	1.885	1.904	1.899	1.899
0.000	-0.005	0.005	0.000	0.000	-0.020	0.039	2.617	1.880	1.885	1.885	1.904	1.899	1.895
-0.005	0.000	0.005	0.000	-0.005	-0.029	0.039	2.754	1.895	1.895	1.890	1.909	1.904	1.895
-0.020	-0.005	-0.005	0.000	0.005	-0.015	0.039	2.651	1.890	1.890	1.890	1.909	1.904	1.904
0.000	0.000	0.005	0.000	-0.020	-0.015	0.039	2.651	1.890	1.895	1.895	1.909	1.899	1.904
0.029	0.000	0.000	-0.010	-0.029	-0.020	0.039	2.720	1.904	1.895	1.890	1.909	1.895	1.899
0.034	0.000	0.005	-0.010	-0.024	-0.024	0.039	2.715	1.895	1.890	1.890	1.904	1.899	1.899
0.015	0.005	0.005	-0.005	0.000	0.024	0.039	2.671	1.880	1.885	1.885	1.909	1.904	1.909
0.000	-0.010	0.000	-0.005	0.010	0.034	0.039	2.676	1.870	1.875	1.880	1.899	1.904	1.909
-0.020	0.000	0.005	-0.005	0.010	0.034	0.039	2.715	1.870	1.870	1.875	1.899	1.899	1.904
-0.029	0.000	0.010	0.005	0.005	0.010	0.044	2.700	1.870	1.870	1.870	1.895	1.895	1.890
-0.020	0.010	0.005	0.015	0.034	-0.024	0.044	2.690	1.870	1.870	1.865	1.890	1.895	1.880
-0.010	-0.015	0.000	0.010	0.020	-0.010	0.044	2.671	1.875	1.865	1.860	1.885	1.890	1.890
0.005	0.010	-0.010	0.010	-0.010	0.000	0.044	2.666	1.880	1.870	1.865	1.885	1.875	1.885
0.005	0.005	0.015	0.005	-0.020	0.015	0.044	2.686	1.885	1.875	1.870	1.885	1.880	1.890
0.010	-0.005	0.010	0.010	-0.005	0.015	0.044	2.666	1.890	1.880	1.870	1.890	1.885	1.890
0.010	-0.010	0.010	0.000	-0.005	0.020	0.044	2.725	1.890	1.885	1.875	1.890	1.890	1.895
0.010	-0.005	0.010	-0.005	0.000	0.024	0.039	2.681	1.899	1.890	1.885	1.895	1.895	1.895
0.005	0.005	0.005	0.000	0.010	-0.020	0.044	2.671	1.899	1.899	1.890	1.899	1.899	1.890
0.010	-0.005	0.000	0.000	0.000	-0.005	0.039	2.715	1.904	1.895	1.890	1.909	1.899	1.895
0.005	0.005	-0.010	0.000	-0.020	0.000	0.039	2.681	1.899	1.899	1.890	1.904	1.895	1.895
0.005	0.000	0.000	0.000	0.005	-0.015	0.039	2.710	1.895	1.899	1.895	1.909	1.904	1.895
0.005	-0.005	0.005	0.005	0.034	0.015	0.039	2.695	1.895	1.895	1.895	1.914	1.914	1.909
0.000	0.005	0.005	0.005	0.044	0.015	0.044	2.720	1.890	1.895	1.895	1.909	1.914	1.909
0.000	0.015	0.000	0.005	0.039	0.005	0.044	2.715	1.885	1.890	1.890	1.909	1.904	1.904
0.010	0.000	-0.010	0.010	0.020	-0.015	0.039	2.681	1.880	1.875	1.880	1.904	1.895	1.895
0.005	0.005	0.000	0.010	0.005	-0.020	0.039	2.686	1.880	1.875	1.880	1.899	1.890	1.885
0.005	0.010	0.010	0.010	0.005	-0.010	0.044	2.695	1.875	1.875	1.875	1.895	1.885	1.890
0.005	0.005	0.005	0.005	0.015	-0.020	0.039	2.695	1.875	1.870	1.870	1.895	1.890	1.885
0.000	0.000	0.005	0.010	0.015	-0.029	0.044	2.690	1.870	1.870	1.870	1.890	1.890	1.885
0.005	0.005	0.000	0.010	0.010	0.005	0.044	2.686	1.875	1.870	1.870	1.890	1.890	1.895
0.000	-0.005	0.005	0.005	0.005	0.015	0.039	2.686	1.880	1.875	1.870	1.890	1.890	1.895
0.000	-0.005	0.000	0.000	0.000	0.005	0.044	2.695	1.885	1.875	1.875	1.895	1.890	1.890
-0.005	0.005	0.000	0.005	0.005	0.024	0.039	2.695	1.890	1.885	1.880	1.895	1.890	1.899
0.005	0.010	0.000	0.010	0.000	0.024	0.044	2.681	1.899	1.895	1.885	1.904	1.895	1.899
-0.010	0.000	-0.005	0.005	0.000	-0.020	0.039	2.700	1.895	1.895	1.890	1.904	1.899	1.890
-0.005	-0.005	-0.010	0.005	0.005	-0.015	0.039	2.690	1.895	1.895	1.890	1.904	1.899	1.895
0.005	-0.015	-0.005	0.000	0.000	-0.044	0.039	2.666	1.895	1.895	1.890	1.904	1.899	1.890
-0.010	-0.005	0.000	0.000	0.000	-0.010	0.039	2.676	1.890	1.899	1.895	1.909	1.904	1.904
-0.005	-0.005	0.005	-0.005	0.015	-0.005	0.039	2.686	1.890	1.890	1.890	1.904	1.904	1.899
0.010	-0.005	0.000	-0.005	0.000	0.000	0.039	2.686	1.885	1.885	1.890	1.904	1.895	1.899
0.010	-0.010	0.000	-0.005	0.000	0.010	0.044	2.695	1.880	1.880	1.885	1.904	1.895	1.895
0.000	0.000	0.000	0.000	-0.020	-0.010	0.044	2.671	1.870	1.875	1.880	1.895	1.885	1.895
-0.005	0.000	0.000	0.000	-0.029	-0.010	0.039	2.681	1.870	1.870	1.870	1.895	1.880	1.880
0.005	0.005	-0.005	0.005	-0.020	0.020	0.039	2.686	1.870	1.870	1.870	1.890	1.880	1.885
-0.005	0.015	-0.005	0.000	-0.015	0.024	0.044	2.686	1.870	1.865	1.865	1.890	1.885	1.890
-0.005	0.005	0.000	0.000	-0.020	0.015	0.039	2.695	1.875	1.870	1.865	1.885	1.880	1.885
-0.010	0.015	0.000	0.005	-0.005	-0.010	0.044	2.690	1.875	1.870	1.870	1.885	1.885	1.880
0.000	0.015	0.000	0.000	0.015	0.015	0.039	2.676	1.885	1.875	1.870	1.890	1.895	1.890
-0.005	0.015	0.000	0.000	0.000	0.015	0.039	2.686	1.890	1.880	1.875	1.895	1.890	1.895
-0.005	0.010	0.010	0.005	-0.010	-0.015	0.044	2.681	1.895	1.885	1.880	1.899	1.890	1.885
0.000	0.010	0.005	0.005	-0.005	0.024	0.044	2.690	1.899	1.890	1.885	1.899	1.895	1.899
-0.005	0.005	0.000	-0.005	-0.005	0.024	0.044	2.681	1.895	1.895	1.890	1.904	1.899	1.899
0.005	0.000	0.005	0.005	-0.010	-0.005	0.044	2.681	1.899	1.895	1.895	1.909	1.895	1.895
0.005	-0.010	0.005	0.000	-0.005	0.029	0.044	2.695	1.899	1.890	1.890	1.909	1.904	1.904
0.015	-0.015	0.000	0.005	0.005	0.015	0.044	2.690	1.895	1.890	1.890	1.909	1.904	1.899
0.000	-0.005	0.005	0.000	0.010	-0.020	0.039	2.695	1.895	1.895	1.890	1.909	1.904	1.890
0.010	-0.005	0.005	0.000	0.005	-0.039	0.039	2.686	1.880	1.885	1.885	1.904	1.895	1.885
0.000	-0.005	0.000	0.000	0.000	-0.039	0.039	2.676	1.870	1.880	1.880	1.899	1.890	1.885
-0.005	0.005	-0.005	0.000	0.005	-0.049	0.039	2.681	1.870	1.875	1.875	1.895	1.890	1.885
-0.005	0.010	0.005	0.005	0.005	0.005	0.044	2.690	1.870	1.870	1.875	1.895	1.885	1.895
0.000	0.000	0.005	0.000	-0.005	0.015	0.044	2.690	1.870	1.865	1.870	1.890	1.885	1.895
0.000	0.005	0.005	0.000	-0.010	-0.005	0.039	2.686	1.870	1.870	1.865	1.885	1.880	1.880
0.000	0.010	0.000	0.005	-0.005	0.029	0.039	2.690	1.875	1.870	1.865	1.885	1.885	1.890
-0.005	0.015	-0.005	0.005	0.000	0.020	0.039	2.686	1.875	1.870	1.870	1.885	1.880	1.885
0.000	0.015	0.005	0.000	0.000	0.024	0.044	2.686	1.885	1.875	1.870	1.890	1.890	1.890
0.005	0.000	0.000	0.000	0.010	0.015	0.044	2.676	1.890	1.880	1.875	1.890	1.895	1.890
-0.005	0.000	0.000	0.005	0.015	0.000	0.039	2.681	1.895	1.885	1.880	1.895	1.895	1.890
-0.005	-0.005	0.000	0.000	0.005	0.015	0.039	2.686	1.895	1.890	1.885	1.899	1.895	1.899
0.010	0.015	-0.005	0.000	0.000	0.015	0.039	2.666	1.899	1.899	1.890	1.904	1.899	1.899
0.000	-0.010	0.000	0.005	0.005	0.005	0.044	2.686	1.895	1.895	1.895	1.904	1.899	1.895
0.005	-0.015	0.000	0.000	0.010	0.005	0.044	2.686	1.895	1.895	1.895	1.909	1.904	1.899
0.000	0.000	0.005	0.000	0.015	-0.020	0.039	2.681	1.890	1.895	1.890	1.909	1.899	1.890
0.005	0.005	0.000	0.005	0.015	-0.010	0.039	2.681	1.885	1.890	1.890	1.904	1.899	1.899
0.010	0.005	0.000	0.000	0.000	0.005	0.039	2.681	1.880	1.880	1.885	1.904	1.895	1.899
0.005	0.000	-0.005	0.000	0.010	-0.010	0.039	2.686	1.875	1.875	1.875	1.899	1.895	1.890
0.000	0.000	-0.005	0.005	0.010	-0.005	0.039	2.681	1.870	1.870	1.875	1.895	1.890	1.890
0.000	-0.005	0.005	0.000	0.000	0.010	0.044	2.695	1.870	1.865	1.870	1.890	1.885	1.890
0.010	-0.005	0.000	0.005	-0.034	-0.010	0.044	2.681	1.870	1.870	1.865	1.885	1.875	1.880
0.015	-0.005	0.005	0.000	-0.029	0.000	0.039	2.676	1.870	1.865	1.865	1.880	1.875	1.875
0.000	-0.005	0.005	0.000	-0.005	0.005	0.044	2.686	1.870	1.865	1.865	1.885	1.885	1.885
0.005	0.000	0.005	0.005	-0.005	-0.010	0.039	2.695	1.880	1.875	1.870	1.890	1.885	1.880
0.000	0.005	-0.005	0.000	-0.005	0.010	0.039	2.686	1.880	1.875	1.870	1.890	1.890	1.890
-0.005	0.015	-0.005	0.000	-0.010	0.020	0.039	2.690	1.885	1.885	1.875	1.890	1.890	1.895
0.005	0.020	0.000	0.005	0.000	0.020	0.039	2.695	1.895	1.895	1.885	1.899	1.899	1.899
0.005	0.015	0.000	0.000	0.015	0.005	0.044	2.686	1.895	1.895	1.890	1.904	1.899	1.895
0.010	0.020	0.000	0.005	0.015	0.005	0.044	2.681	1.899	1.895	1.895	1.909	1.904	1.895
0.010	0.015	0.000	0.000	0.010	-0.010	0.044	2.671	1.895	1.899	1.895	1.909	1.904	1.895
0.010	0.005	0.005	0.000	0.010	0.005	0.039	2.690	1.895	1.890	1.895	1.909	1.904	1.899
0.000	0.000	0.005	0.005	0.005	0.005	0.044	2.676	1.885	1.890	1.890	1.914	1.904	1.899
0.005	0.000	0.000	0.000	0.010	-0.010	0.039	2.666	1.880	1.885	1.885	1.904	1.899	1.895
0.005	-0.010	0.000	0.000	0.005	-0.029	0.039	2.686	1.875	1.875	1.880	1.899	1.895	1.885
0.010	-0.015	0.000	0.000	0.000	0.000	0.039	2.695	1.875	1.870	1.870	1.895	1.890	1.890
0.005	0.005	0.000	0.010	-0.005	-0.005	0.039	2.686	1.870	1.870	1.870	1.890	1.890	1.890
0.010	0.005	0.000	0.000	0.005	-0.005	0.039	2.676	1.870	1.865	1.865	1.885	1.885	1.885
0.010	-0.005	0.005	0.000	0.000	0.005	0.039	2.681	1.870	1.865	1.865	1.885	1.885	1.885
0.005	0.000	0.000	0.000	0.010	-0.010	0.044	2.690	1.870	1.865	1.865	1.885	1.885	1.885
-0.005	-0.005	-0.010	0.000	0.000	0.005	0.044	2.686	1.870	1.865	1.865	1.885	1.880	1.885
0.000	-0.005	0.000	0.000	0.005	-0.024	0.044	2.695	1.885	1.875	1.870	1.885	1.885	1.875
0.005	-0.010	0.000	0.005	0.000	-0.020	0.039	2.686	1.885	1.875	1.875	1.885	1.885	1.880
0.005	0.000	0.010	0.005	0.005	0.010	0.044	2.681	1.890	1.885	1.880	1.895	1.890	1.895
-0.010	0.000	0.020	0.005	0.000	0.020	0.039	2.690	1.890	1.885	1.885	1.899	1.890	1.895
0.000	0.000	0.005	0.000	0.000	-0.015	0.039	2.686	1.899	1.895	1.885	1.899	1.895	1.890
-0.010	0.005	0.000	0.000	0.000	0.020	0.039	2.686	1.890	1.895	1.890	1.904	1.899	1.899
-0.005	-0.005	0.000	0.000	0.005	0.015	0.039	2.681	1.890	1.890	1.890	1.904	1.899	1.899
-0.010	0.000	0.000	0.005	0.000	0.000	0.044	2.676	1.890	1.890	1.890	1.904	1.899	1.895
-0.005	-0.005	0.000	0.005	0.005	-0.034	0.044	2.686	1.885	1.890	1.890	1.904	1.899	1.885
0.000	0.005	-0.005	0.005	0.000	0.005	0.044	2.676	1.880	1.885	1.880	1.899	1.895	1.899
-0.005	0.010	0.005	0.005	0.005	0.010	0.044	2.686	1.875	1.875	1.880	1.899	1.895	1.895
0.000	-0.005	0.000	0.005	0.005	0.000	0.044	2.671	1.870	1.870	1.875	1.895	1.890	1.890
0.000	0.005	0.015	0.000	0.000	0.000	0.044	2.681	1.870	1.870	1.870	1.885	1.885	1.885
0.015	0.000	0.010	0.000	-0.005	0.005	0.044	2.695	1.870	1.865	1.870	1.885	1.880	1.885
0.000	0.000	0.010	0.000	0.000	-0.015	0.039	2.681	1.870	1.865	1.865	1.885	1.880	1.875
0.000	0.000	0.005	0.000	-0.005	0.000	0.039	2.690	1.870	1.860	1.865	1.880	1.880	1.880
-0.005	0.000	0.005	0.005	0.000	0.010	0.039	2.690	1.875	1.865	1.865	1.885	1.880	1.880
-0.005	-0.005	0.000	0.000	0.005	0.010	0.039	2.686	1.875	1.870	1.870	1.885	1.885	1.890
-0.005	0.000	0.000	0.000	0.005	0.020	0.039	2.686	1.880	1.875	1.875	1.890	1.890	1.890
0.010	0.015	0.000	0.005	0.010	-0.010	0.034	2.686	1.890	1.885	1.880	1.895	1.890	1.890
0.005	-0.010	0.005	0.000	0.005	0.020	0.044	2.700	1.899	1.890	1.880	1.899	1.895	1.895
0.015	0.010	0.000	0.005	0.005	-0.010	0.039	2.671	1.899	1.899	1.890	1.904	1.899	1.890
0.005	0.010	0.000	0.000	-0.010	-0.015	0.039	2.681	1.895	1.899	1.890	1.904	1.895	1.890
0.005	-0.005	-0.005	0.000	-0.005	-0.010	0.039	2.690	1.895	1.895	1.890	1.904	1.895	1.895
0.000	-0.010	-0.005	0.005	-0.005	-0.005	0.044	2.690	1.890	1.890	1.890	1.904	1.899	1.890
0.000	-0.005	0.000	0.005	0.005	0.005	0.044	2.676	1.885	1.885	1.885	1.904	1.899	1.895
0.000	-0.010	0.000	0.000	-0.005	0.005	0.039	2.671	1.875	1.880	1.880	1.899	1.890	1.895
0.010	0.010	-0.005	0.000	-0.010	0.000	0.044	2.681	1.875	1.880	1.875	1.895	1.890	1.890
0.000	0.010	-0.005	0.000	-0.005	-0.010	0.044	2.695	1.870	1.870	1.870	1.895	1.885	1.885
-0.005	0.005	0.000	0.005	0.000	0.000	0.044	2.690	1.870	1.865	1.865	1.890	1.885	1.885
-0.010	0.005	-0.005	0.000	0.015	-0.005	0.044	2.690	1.865	1.860	1.860	1.885	1.890	1.880
-0.005	0.000	0.000	0.000	0.015	0.000	0.039	2.661	1.865	1.865	1.865	1.880	1.885	1.880
-0.010	0.000	0.000	0.005	0.010	0.005	0.044	2.686	1.870	1.860	1.860	1.880	1.880	1.885
-0.005	-0.005	0.005	0.000	0.015	-0.020	0.044	2.681	1.875	1.870	1.865	1.880	1.880	1.875
-0.005	0.010	0.005	-0.005	0.005	0.005	0.039	2.695	1.885	1.875	1.870	1.885	1.880	1.890
0.005	0.000	0.005	0.005	0.005	0.010	0.039	2.666	1.885	1.880	1.875	1.890	1.885	1.890
-0.010	0.010	0.000	0.000	0.000	0.024	0.039	2.686	1.890	1.890	1.880	1.895	1.890	1.899
-0.005	0.010	0.005	0.000	-0.005	0.015	0.044	2.690	1.899	1.895	1.890	1.899	1.890	1.895
0.010	0.005	0.000	0.005	-0.005	0.020	0.044	2.671	1.899	1.895	1.890	1.904	1.895	1.895
0.005	0.005	0.005	0.000	-0.005	0.010	0.039	2.681	1.890	1.899	1.890	1.904	1.895	1.895
0.010	0.000	0.005	0.005	0.000	-0.015	0.044	2.686	1.890	1.895	1.890	1.909	1.899	1.890
-0.005	-0.010	0.005	0.000	-0.005	0.000	0.039	2.676	1.880	1.885	1.890	1.904	1.899	1.890
0.010	-0.010	0.000	0.000	0.000	0.000	0.039	2.686	1.880	1.880	1.885	1.899	1.899	1.890
-0.005	0.000	0.010	0.000	0.000	-0.010	0.044	2.690	1.875	1.875	1.880	1.899	1.895	1.885
0.000	0.000	0.005	0.005	0.005	-0.005	0.044	2.681	1.870	1.875	1.875	1.899	1.895	1.890
-0.005	-0.010	-0.005	0.000	-0.005	-0.015	0.039	2.671	1.865	1.865	1.870	1.890	1.885	1.885
0.005	0.010	0.000	0.000	-0.005	-0.039	0.039	2.690	1.870	1.870	1.865	1.885	1.880	1.875
0.000	-0.005	0.005	0.000	0.005	-0.020	0.039	2.690	1.870	1.865	1.865	1.885	1.885	1.880
0.000	0.005	0.000	0.005	0.015	0.015	0.039	2.681	1.870	1.865	1.860	1.880	1.885	1.890
0.005	0.010	0.005	0.005	0.005	0.015	0.044	2.695	1.875	1.870	1.865	1.880	1.880	1.890
0.010	0.005	0.000	0.005	0.005	0.020	0.044	2.686	1.880	1.875	1.870	1.885	1.880	1.890
0.010	0.010	-0.005	0.000	0.000	0.015	0.044	2.676	1.885	1.880	1.875	1.885	1.880	1.890
0.005	0.005	0.005	0.000	-0.005	0.010	0.044	2.676	1.890	1.880	1.880	1.895	1.885	1.885
-0.005	-0.005	0.000	0.005	0.000	-0.005	0.044	2.671	1.890	1.885	1.880	1.899	1.890	1.885
0.000	0.000	0.000	0.005	0.005	0.005	0.044	2.686	1.899	1.890	1.885	1.899	1.895	1.890
0.000	0.000	0.000	0.005	-0.005	-0.010	0.039	2.695	1.899	1.890	1.890	1.904	1.895	1.890
0.005	0.000	0.000	0.010	0.000	-0.010	0.039	2.686	1.895	1.895	1.890	1.909	1.899	1.895
0.005	0.010	0.005	0.005	0.000	-0.010	0.039	2.681	1.885	1.890	1.890	1.904	1.899	1.895
0.005	0.000	0.000	0.005	0.005	0.000	0.044	2.666	1.885	1.885	1.885	1.904	1.899	1.895
0.015	0.000	0.000	0.005	0.000	-0.010	0.044	2.632	1.875	1.880	1.880	1.899	1.890	1.890
0.000	-0.005	-0.005	0.005	-0.005	0.000	0.039	2.651	1.865	1.870	1.875	1.895	1.890	1.895
0.000	0.000	0.000	0.005	-0.005	0.005	0.039	2.817	1.880	1.870	1.870	1.890	1.890	1.890
0.005	0.000	0.000	0.000	-0.005	0.000	0.044	2.837	1.895	1.870	1.865	1.885	1.880	1.880
0.005	0.000	-0.005	0.000	-0.005	0.005	0.039	2.671	1.875	1.870	1.865	1.880	1.880	1.880
0.000	0.005	0.000	0.000	-0.005	-0.015	0.039	2.681	1.875	1.870	1.870	1.885	1.880	1.875
0.005	0.005	0.005	0.000	0.010	-0.005	0.044	2.671	1.875	1.870	1.870	1.880	1.885	1.880
0.000	0.000	0.000	-0.005	0.020	0.010	0.039	2.676	1.875	1.870	1.870	1.885	1.885	1.890
0.005	0.005	0.005	-0.005	0.005	0.015	0.044	2.676	1.880	1.880	1.870	1.885	1.880	1.885
0.010	0.000	0.005	0.000	0.000	0.015	0.039	2.676	1.890	1.880	1.875	1.890	1.885	1.885
-0.005	-0.005	0.000	0.005	0.000	-0.010	0.039	2.666	1.885	1.880	1.880	1.895	1.890	1.885
-0.005	-0.005	0.000	-0.005	-0.005	-0.024	0.039	2.661	1.885	1.890	1.880	1.899	1.890	1.880
0.000	-0.005	-0.005	0.000	-0.005	0.010	0.039	2.646	1.885	1.890	1.885	1.904	1.899	1.899
0.020	-0.005	0.005	0.005	0.005	0.010	0.039	2.661	1.895	1.890	1.890	1.909	1.899	1.899
0.034	0.000	0.000	0.005	0.000	0.005	0.044	2.739	1.899	1.895	1.890	1.909	1.904	1.895
0.020	0.005	0.000	0.000	0.000	0.010	0.039	2.671	1.890	1.890	1.890	1.904	1.899	1.895
0.000	0.000	0.000	0.005	0.000	-0.015	0.044	2.642	1.875	1.880	1.885	1.904	1.899	1.890
-0.015	0.010	0.000	0.010	0.005	0.005	0.039	2.832	1.880	1.880	1.885	1.899	1.895	1.899
-0.034	0.000	0.005	0.005	-0.005	-0.010	0.039	2.686	1.875	1.875	1.875	1.895	1.890	1.890
-0.029	0.005	0.005	0.000	0.005	-0.020	0.044	2.686	1.870	1.870	1.870	1.890	1.890	1.885
-0.010	0.010	0.000	0.000	0.005	0.010	0.044	2.681	1.870	1.870	1.870	1.890	1.885	1.890
0.005	0.005	0.005	0.005	0.000	0.005	0.044	2.686	1.875	1.870	1.865	1.890	1.885	1.885
-0.005	0.024	0.000	0.000	0.005	0.005	0.044	2.676	1.870	1.870	1.865	1.885	1.880	1.885
0.005	0.024	0.005	-0.005	0.000	0.010	0.039	2.671	1.875	1.870	1.870	1.885	1.880	1.885
0.000	0.015	0.005	0.000	0.000	0.005	0.044	2.686	1.880	1.870	1.870	1.885	1.880	1.885
-0.010	0.015	0.005	0.000	0.005	0.010	0.044	2.651	1.875	1.875	1.875	1.890	1.890	1.885
0.015	0.000	0.010	0.000	0.005	0.010	0.039	2.651	1.885	1.880	1.875	1.890	1.890	1.890
0.005	-0.005	0.000	0.005	0.005	0.005	0.039	2.646	1.885	1.880	1.880	1.895	1.890	1.895
0.000	-0.010	0.000	0.005	0.000	-0.020	0.039	2.710	1.895	1.885	1.885	1.899	1.895	1.890
0.010	0.000	0.000	0.005	0.005	0.005	0.044	2.817	1.914	1.899	1.890	1.904	1.899	1.895
0.005	-0.005	0.005	0.005	0.000	0.005	0.044	2.651	1.904	1.899	1.890	1.904	1.899	1.895
0.005	-0.005	-0.005	0.000	0.000	0.000	0.039	2.837	1.914	1.899	1.890	1.904	1.899	1.899
-0.005	-0.005	-0.005	0.005	0.005	0.010	0.044	2.671	1.899	1.899	1.890	1.909	1.899	1.895
0.000	0.000	-0.005	0.005	0.010	0.005	0.039	2.671	1.890	1.895	1.890	1.904	1.899	1.899
-0.005	0.000	0.000	0.000	0.000	-0.010	0.044	2.676	1.880	1.885	1.890	1.904	1.890	1.890
-0.005	0.000	0.000	0.000	0.000	-0.015	0.044	2.681	1.875	1.880	1.880	1.899	1.890	1.885
-0.010	-0.005	0.000	0.000	0.005	-0.015	0.039	2.671	1.865	1.870	1.875	1.895	1.890	1.890
0.015	-0.005	-0.005	0.000	0.000	0.020	0.044	2.671	1.870	1.865	1.870	1.890	1.885	1.895
0.029	0.010	-0.005	0.000	-0.005	0.005	0.044	2.661	1.875	1.870	1.870	1.890	1.880	1.880
0.049	0.020	0.000	0.000	-0.005	-0.010	0.044	2.671	1.875	1.875	1.870	1.890	1.880	1.885
0.034	0.010	0.000	0.000	0.000	0.010	0.039	2.656	1.870	1.870	1.870	1.890	1.885	1.885
0.015	-0.024	0.005	0.000	0.005	-0.005	0.039	2.651	1.865	1.865	1.870	1.890	1.885	1.885
-0.005	-0.010	0.000	0.005	0.005	0.020	0.039	2.686	1.870	1.870	1.870	1.895	1.890	1.895
-0.024	-0.005	0.005	0.000	0.000	0.020	0.044	2.656	1.875	1.875	1.875	1.895	1.890	1.895
-0.029	-0.005	0.005	0.005	0.000	0.015	0.044	2.651	1.875	1.880	1.875	1.899	1.895	1.895
-0.029	-0.005	0.005	0.005	0.000	0.010	0.044	2.822	1.899	1.885	1.880	1.899	1.895	1.895
-0.029	0.000	0.015	0.005	0.000	-0.005	0.039	2.686	1.899	1.895	1.885	1.904	1.899	1.890
-0.020	0.005	0.010	0.000	0.000	0.005	0.039	2.695	1.904	1.895	1.890	1.904	1.899	1.895
-0.005	0.010	0.015	0.000	0.000	0.000	0.039	2.676	1.899	1.895	1.890	1.904	1.899	1.895
-0.010	0.010	0.015	0.000	0.005	-0.010	0.039	2.686	1.890	1.890	1.890	1.904	1.899	1.890
-0.005	0.000	0.005	0.005	0.000	0.000	0.039	2.681	1.880	1.880	1.885	1.904	1.895	1.895
-0.005	0.015	0.000	0.000	0.000	-0.029	0.039	2.666	1.875	1.880	1.880	1.899	1.890	1.885
0.000	-0.005	0.000	0.000	0.000	0.005	0.039	2.666	1.870	1.870	1.875	1.895	1.890	1.890
0.000	-0.005	-0.005	0.005	-0.005	-0.024	0.039	2.661	1.865	1.865	1.865	1.890	1.885	1.880
-0.010	0.010	-0.005	0.000	0.000	0.010	0.039	2.646	1.860	1.865	1.865	1.885	1.885	1.885
0.000	0.005	-0.005	-0.005	0.000	0.005	0.044	2.656	1.865	1.860	1.860	1.880	1.880	1.880
0.005	0.005	-0.005	-0.005	0.005	0.005	0.044	2.690	1.870	1.860	1.860	1.880	1.880	1.885
-0.005	0.000	-0.005	-0.005	0.005	0.015	0.044	2.817	1.885	1.870	1.865	1.880	1.880	1.880
0.010	-0.005	-0.005	0.000	0.005	0.015	0.044	2.642	1.885	1.875	1.870	1.885	1.885	1.885
0.010	0.000	0.000	0.005	-0.005	0.005	0.044	2.847	1.909	1.890	1.875	1.890	1.885	1.885
0.020	-0.005	0.005	0.005	0.005	-0.010	0.039	2.695	1.909	1.895	1.885	1.895	1.890	1.885
0.015	0.005	-0.005	0.010	0.000	0.000	0.039	2.671	1.899	1.899	1.890	1.904	1.895	1.895
0.010	0.005	0.000	0.005	0.005	-0.010	0.039	2.686	1.899	1.904	1.895	1.904	1.895	1.890
0.024	0.005	0.000	0.005	0.005	0.015	0.039	2.681	1.895	1.904	1.899	1.909	1.899	1.899
0.005	-0.010	0.005	0.000	0.000	0.000	0.039	2.681	1.890	1.895	1.895	1.909	1.904	1.899
0.005	-0.015	0.010	-0.005	0.010	0.000	0.039	2.681	1.885	1.890	1.899	1.909	1.904	1.895
0.000	0.000	0.005	-0.005	0.000	-0.005	0.039	2.676	1.885	1.885	1.890	1.909	1.899	1.895
0.005	0.005	0.000	-0.005	0.000	-0.005	0.039	2.651	1.870	1.880	1.885	1.904	1.899	1.890
-0.005	0.005	0.000	-0.005	0.000	-0.005	0.039	2.642	1.860	1.870	1.880	1.899	1.895	1.890
-0.010	-0.010	-0.005	-0.005	-0.005	-0.010	0.039	2.632	1.855	1.860	1.870	1.895	1.890	1.890
-0.005	-0.010	-0.005	0.005	0.000	-0.010	0.039	2.686	1.865	1.855	1.865	1.890	1.890	1.885
0.000	-0.020	-0.005	0.000	0.010	0.015	0.044	2.637	1.860	1.851	1.860	1.885	1.890	1.890
0.005	-0.015	0.000	0.005	0.000	0.010	0.044	2.632	1.860	1.855	1.855	1.880	1.880	1.885
0.005	-0.005	0.005	0.000	-0.005	0.010	0.044	2.632	1.860	1.860	1.855	1.880	1.880	1.885
-0.005	-0.005	0.000	0.000	-0.005	0.015	0.044	2.681	1.865	1.865	1.860	1.875	1.880	1.885
0.000	-0.005	0.010	0.000	-0.005	0.005	0.039	2.695	1.875	1.865	1.865	1.880	1.880	1.880
0.000	0.000	0.000	0.000	-0.005	0.000	0.039	2.686	1.885	1.875	1.870	1.885	1.885	1.885
0.000	0.000	0.000	0.000	0.015	0.010	0.039	2.690	1.890	1.880	1.875	1.890	1.895	1.890
0.010	0.000	0.005	0.000	0.020	0.000	0.034	2.681	1.899	1.890	1.880	1.895	1.890	1.890
0.010	0.000	0.005	0.000	0.010	0.005	0.039	2.690	1.899	1.895	1.885	1.899	1.895	1.895
0.010	0.015	-0.005	0.000	0.005	-0.005	0.039	2.661	1.895	1.899	1.890	1.904	1.895	1.890
-0.005	0.015	0.000	-0.005	0.000	-0.010	0.044	2.661	1.885	1.895	1.890	1.904	1.895	1.890
-0.005	0.010	0.000	0.005	0.005	0.020	0.044	2.656	1.880	1.890	1.890	1.904	1.895	1.899
0.010	0.000	-0.005	0.005	0.005	0.005	0.044	2.632	1.870	1.880	1.880	1.899	1.890	1.895
0.000	0.010	-0.005	0.000	0.000	0.010	0.044	2.666	1.870	1.875	1.875	1.895	1.890	1.890
0.005	0.005	-0.005	0.000	0.005	0.005	0.044	2.642	1.865	1.870	1.870	1.890	1.885	1.885
0.005	0.010	0.005	0.000	0.000	0.005	0.044	2.812	1.875	1.870	1.870	1.885	1.880	1.885
0.020	0.015	0.005	0.005	0.000	-0.010	0.044	2.827	1.895	1.870	1.865	1.885	1.880	1.875
0.059	0.010	0.005	-0.005	0.000	0.005	0.039	2.671	1.895	1.875	1.870	1.880	1.875	1.880
0.039	0.015	0.005	-0.005	0.005	0.000	0.044	2.686	1.880	1.875	1.870	1.880	1.880	1.875
0.010	0.005	-0.005	0.000	-0.005	-0.010	0.039	2.666	1.875	1.875	1.870	1.885	1.875	1.875
-0.015	0.010	0.000	0.000	-0.005	-0.005	0.039	2.671	1.870	1.870	1.875	1.890	1.880	1.880
-0.044	0.005	0.000	0.000	0.005	-0.005	0.044	2.671	1.865	1.870	1.875	1.890	1.885	1.885
-0.063	0.010	0.000	0.005	0.010	0.005	0.044	2.686	1.870	1.875	1.875	1.895	1.890	1.890
-0.039	0.000	0.005	0.005	0.005	0.005	0.039	2.661	1.880	1.875	1.880	1.895	1.890	1.895
-0.029	0.010	0.000	0.005	0.000	-0.015	0.039	2.661	1.890	1.885	1.880	1.899	1.895	1.890
-0.020	-0.015	-0.005	0.000	0.000	0.015	0.039	2.764	1.904	1.885	1.885	1.899	1.895	1.899
0.000	-0.015	0.000	0.005	0.010	0.015	0.044	2.690	1.909	1.890	1.890	1.904	1.899	1.899
0.010	-0.010	0.000	0.010	-0.005	0.005	0.044	2.690	1.904	1.895	1.890	1.904	1.899	1.899
0.010	0.005	0.005	0.015	0.005	0.010	0.044	2.676	1.895	1.899	1.890	1.904	1.899	1.895
0.000	0.010	0.005	0.005	-0.010	-0.024	0.044	2.681	1.875	1.885	1.885	1.899	1.890	1.885
0.000	-0.005	0.005	0.010	0.000	0.005	0.039	2.661	1.870	1.875	1.880	1.899	1.895	1.895
0.000	0.000	0.005	0.005	0.005	-0.015	0.039	2.661	1.870	1.875	1.875	1.895	1.890	1.880
0.010	0.005	0.000	0.010	0.010	0.005	0.039	2.690	1.870	1.870	1.870	1.890	1.890	1.885
0.015	-0.005	0.005	0.000	-0.005	0.000	0.039	2.695	1.870	1.865	1.865	1.885	1.880	1.880
0.005	0.000	0.000	0.000	0.000	-0.010	0.044	2.671	1.860	1.865	1.865	1.880	1.880	1.875
0.005	0.005	0.000	-0.005	-0.005	-0.005	0.044	2.681	1.870	1.865	1.865	1.880	1.875	1.880
0.010	0.024	-0.005	-0.010	-0.005	0.015	0.044	2.686	1.875	1.870	1.865	1.880	1.880	1.885
0.010	0.010	0.000	-0.010	-0.005	0.015	0.044	2.686	1.880	1.875	1.870	1.885	1.880	1.885
0.010	0.005	0.000	-0.005	0.005	-0.015	0.044	2.671	1.885	1.875	1.870	1.890	1.885	1.880
0.010	0.000	0.000	-0.010	0.010	0.015	0.044	2.676	1.885	1.880	1.875	1.895	1.890	1.890
0.005	0.005	-0.005	0.000	0.005	0.010	0.039	2.788	1.885	1.890	1.880	1.899	1.890	1.895
0.034	0.000	-0.005	0.005	0.010	0.005	0.044	2.676	1.895	1.890	1.890	1.904	1.899	1.895
0.029	0.015	-0.005	0.005	0.000	0.010	0.039	2.681	1.895	1.895	1.890	1.904	1.895	1.899
0.005	0.015	-0.005	0.005	0.000	0.015	0.039	2.686	1.890	1.895	1.895	1.904	1.899	1.899
-0.005	0.015	-0.005	0.005	0.000	0.005	0.044	2.656	1.880	1.890	1.890	1.904	1.899	1.895
-0.005	-0.015	0.000	0.005	0.005	0.005	0.044	2.666	1.875	1.875	1.880	1.899	1.895	1.895
-0.020	-0.024	0.000	0.000	0.000	0.000	0.044	2.676	1.865	1.865	1.875	1.895	1.895	1.890
-0.034	-0.024	0.000	0.005	-0.005	0.015	0.044	2.666	1.860	1.860	1.870	1.890	1.890	1.890
-0.020	0.000	0.005	-0.005	0.005	-0.020	0.039	2.651	1.865	1.865	1.865	1.885	1.885	1.875
-0.010	0.000	0.000	0.000	0.000	0.000	0.039	2.646	1.855	1.855	1.860	1.880	1.880	1.880
-0.015	0.000	0.000	-0.005	-0.005	0.005	0.039	2.695	1.860	1.855	1.855	1.875	1.875	1.875
0.010	-0.015	0.005	-0.005	-0.005	0.005	0.039	2.817	1.880	1.860	1.855	1.875	1.870	1.875
0.015	-0.010	0.005	0.005	0.000	0.000	0.039	2.646	1.880	1.865	1.860	1.875	1.875	1.875
0.015	0.010	0.005	0.000	0.005	-0.005	0.039	2.671	1.880	1.875	1.865	1.880	1.875	1.875
0.000	0.005	0.005	0.005	0.005	0.005	0.039	2.666	1.875	1.875	1.870	1.885	1.880	1.880
-0.005	-0.005	0.005	0.000	-0.005	-0.010	0.039	2.764	1.890	1.880	1.870	1.890	1.880	1.875
-0.020	-0.005	0.000	0.010	0.005	0.005	0.039	2.681	1.890	1.885	1.875	1.895	1.890	1.890
-0.034	0.010	0.005	0.010	0.000	0.020	0.039	2.686	1.890	1.890	1.885	1.899	1.890	1.890
-0.024	0.005	0.005	0.005	-0.005	0.015	0.039	2.681	1.895	1.895	1.890	1.904	1.895	1.895
-0.020	0.010	0.005	0.005	0.005	-0.010	0.039	2.676	1.890	1.895	1.890	1.904	1.895	1.890
-0.010	0.005	0.005	0.005	0.005	-0.020	0.044	2.681	1.890	1.895	1.890	1.904	1.899	1.890
-0.005	0.010	0.000	-0.005	0.005	0.020	0.044	2.676	1.890	1.895	1.890	1.904	1.899	1.899
0.005	0.010	0.000	0.000	0.000	0.005	0.044	2.661	1.875	1.885	1.885	1.904	1.895	1.895
0.015	0.020	0.000	-0.005	-0.005	-0.020	0.044	2.651	1.870	1.880	1.880	1.895	1.890	1.885
0.015	0.010	0.000	-0.005	0.000	0.010	0.039	2.651	1.865	1.870	1.875	1.890	1.890	1.890
0.044	0.015	0.000	0.000	0.000	0.005	0.044	2.681	1.875	1.870	1.870	1.890	1.885	1.885
0.059	0.000	0.000	0.000	0.000	0.000	0.039	2.661	1.870	1.865	1.865	1.885	1.880	1.880
0.098	-0.005	0.005	0.000	0.000	0.005	0.039	2.676	1.880	1.865	1.860	1.885	1.880	1.880
0.093	0.010	0.005	0.000	0.000	-0.005	0.039	2.637	1.870	1.870	1.865	1.880	1.880	1.880
0.063	0.005	0.000	0.005	0.005	-0.010	0.039	2.642	1.860	1.865	1.865	1.885	1.880	1.880
-0.005	0.000	0.000	0.005	0.010	0.005	0.044	2.822	1.865	1.860	1.865	1.885	1.880	1.885
-0.059	-0.005	0.010	0.000	0.010	-0.005	0.044	2.651	1.855	1.860	1.865	1.890	1.885	1.880
-0.059	0.000	0.005	0.000	0.010	0.010	0.039	2.671	1.865	1.865	1.865	1.890	1.890	1.890
-0.063	0.005	0.000	0.000	0.005	0.000	0.039	2.642	1.870	1.870	1.870	1.890	1.890	1.885
-0.054	-0.015	0.005	0.000	0.000	0.000	0.039	2.686	1.880	1.870	1.870	1.890	1.890	1.890
-0.034	-0.015	0.000	0.000	0.000	0.005	0.044	2.686	1.890	1.875	1.875	1.895	1.890	1.895
-0.020	-0.015	0.005	0.000	0.005	0.010	0.044	2.749	1.904	1.880	1.875	1.895	1.890	1.890
-0.005	-0.024	0.005	-0.005	0.000	-0.024	0.044	2.686	1.904	1.885	1.880	1.895	1.885	1.880
0.020	-0.015	0.005	0.000	0.000	0.015	0.044	2.681	1.904	1.890	1.880	1.895	1.890	1.895
0.039	-0.005	0.000	-0.005	0.000	0.010	0.044	2.681	1.899	1.895	1.880	1.890	1.885	1.890
0.054	-0.005	-0.005	-0.010	0.005	0.010	0.039	2.695	1.895	1.890	1.875	1.890	1.880	1.885
0.039	0.015	-0.010	0.000	0.005	-0.005	0.039	2.676	1.875	1.885	1.875	1.890	1.885	1.880
0.005	0.005	-0.005	0.000	0.005	0.000	0.044	2.690	1.865	1.870	1.870	1.890	1.880	1.875
-0.005	0.000	0.000	0.000	0.000	-0.005	0.039	2.690	1.860	1.865	1.870	1.890	1.880	1.875
-0.015	-0.005	0.005	0.010	0.005	-0.010	0.039	2.632	1.851	1.860	1.865	1.885	1.880	1.870
-0.039	0.000	0.000	0.015	0.005	-0.029	0.039	2.686	1.855	1.855	1.860	1.885	1.880	1.870
-0.039	0.005	0.005	0.015	0.005	-0.015	0.044	2.690	1.865	1.860	1.865	1.885	1.885	1.875
-0.039	0.010	0.010	0.015	0.005	-0.020	0.039	2.690	1.870	1.865	1.870	1.885	1.885	1.880
-0.024	0.005	0.000	0.015	0.005	0.020	0.039	2.690	1.885	1.870	1.870	1.890	1.890	1.895
-0.010	0.010	0.010	0.020	-0.005	0.024	0.039	2.695	1.895	1.885	1.875	1.895	1.890	1.895
-0.020	0.000	0.005	0.015	0.005	0.020	0.039	2.671	1.895	1.890	1.880	1.895	1.895	1.895
-0.015	0.010	0.005	0.015	-0.010	0.005	0.044	2.690	1.899	1.895	1.885	1.904	1.895	1.895
-0.015	0.015	0.010	0.015	-0.005	0.000	0.044	2.632	1.899	1.899	1.890	1.904	1.895	1.890
0.000	-0.005	0.005	0.010	0.000	0.005	0.039	2.690	1.899	1.890	1.890	1.904	1.899	1.895
0.000	0.000	0.000	0.005	0.005	0.000	0.044	2.686	1.895	1.890	1.890	1.904	1.899	1.895
0.024	0.000	0.000	-0.005	0.005	0.015	0.039	2.690	1.899	1.895	1.885	1.899	1.899	1.899
0.034	-0.005	0.000	0.000	0.010	0.015	0.044	2.686	1.890	1.885	1.885	1.895	1.895	1.895
0.068	0.010	0.000	-0.005	0.000	0.005	0.044	2.690	1.895	1.890	1.880	1.895	1.885	1.890
0.063	0.005	-0.005	-0.010	0.000	-0.020	0.044	2.690	1.880	1.880	1.875	1.890	1.880	1.875
0.039	0.010	-0.005	-0.010	0.005	0.005	0.044	2.671	1.870	1.875	1.875	1.890	1.885	1.885
0.000	0.000	-0.005	-0.005	0.000	0.000	0.039	2.646	1.855	1.865	1.870	1.890	1.880	1.880
-0.024	0.015	-0.005	-0.005	-0.005	0.000	0.044	2.681	1.851	1.860	1.865	1.890	1.880	1.875
-0.034	0.000	-0.005	-0.005	0.000	0.000	0.039	2.690	1.855	1.855	1.860	1.885	1.880	1.875
-0.034	0.010	0.000	-0.005	0.000	-0.010	0.044	2.686	1.865	1.860	1.865	1.885	1.880	1.875
-0.034	0.005	-0.005	-0.005	0.000	0.010	0.044	2.695	1.870	1.860	1.865	1.885	1.885	1.885
-0.024	0.000	-0.005	0.000	0.000	0.005	0.039	2.666	1.880	1.870	1.865	1.890	1.885	1.885
0.044	0.005	0.005	-0.005	0.000	-0.024	0.044	2.690	1.909	1.885	1.880	1.895	1.890	1.885
0.068	0.000	0.010	0.005	0.000	0.005	0.044	2.681	1.919	1.895	1.885	1.899	1.895	1.895
0.044	-0.005	0.005	-0.005	0.000	0.005	0.044	2.627	1.899	1.899	1.890	1.899	1.899	1.899
0.005	-0.010	0.005	0.000	0.005	0.015	0.044	2.695	1.885	1.890	1.890	1.904	1.899	1.899
-0.010	0.010	0.005	-0.005	0.005	0.000	0.039	2.686	1.885	1.895	1.890	1.904	1.899	1.895
0.010	0.000	0.005	0.000	0.000	0.010	0.039	2.681	1.890	1.890	1.885	1.904	1.899	1.895
0.034	-0.005	0.000	0.000	0.005	0.015	0.044	2.686	1.890	1.885	1.885	1.904	1.895	1.899
0.093	-0.015	0.015	0.000	0.005	0.015	0.044	2.676	1.895	1.880	1.885	1.899	1.895	1.895
0.073	-0.005	0.005	0.000	0.005	-0.020	0.044	2.686	1.880	1.880	1.875	1.895	1.890	1.880
0.029	0.000	0.010	0.000	0.000	0.005	0.039	2.671	1.860	1.870	1.870	1.895	1.885	1.885
-0.015	-0.010	0.005	0.005	0.000	0.005	0.039	2.646	1.841	1.860	1.865	1.890	1.885	1.885
-0.059	-0.005	0.010	0.015	0.000	-0.015	0.039	2.671	1.831	1.846	1.860	1.885	1.880	1.875
-0.107	0.005	-0.005	0.010	0.000	-0.005	0.039	2.671	1.826	1.841	1.851	1.880	1.880	1.880
-0.112	0.005	-0.005	0.010	0.010	-0.005	0.044	2.690	1.846	1.841	1.851	1.880	1.880	1.880
-0.103	0.010	0.000	0.015	0.005	0.000	0.039	2.690	1.860	1.846	1.855	1.880	1.880	1.880
-0.088	0.000	-0.005	0.015	0.005	-0.020	0.044	2.695	1.875	1.855	1.855	1.880	1.880	1.880
-0.073	0.005	-0.005	0.015	0.005	0.005	0.044	2.681	1.885	1.870	1.860	1.880	1.885	1.885
-0.024	0.005	-0.005	0.005	0.000	-0.005	0.044	2.686	1.904	1.885	1.870	1.880	1.880	1.880
-0.005	0.015	-0.005	0.005	0.000	0.005	0.044	2.749	1.895	1.890	1.880	1.890	1.885	1.890
0.010	0.005	0.000	0.005	-0.005	0.020	0.044	2.681	1.904	1.895	1.885	1.895	1.885	1.895
0.024	-0.005	0.000	0.000	0.005	0.010	0.044	2.676	1.899	1.895	1.885	1.895	1.890	1.890
0.020	-0.005	-0.005	-0.005	0.000	0.015	0.044	2.686	1.895	1.895	1.885	1.895	1.890	1.890
0.029	-0.010	0.000	-0.005	0.000	0.010	0.039	2.695	1.895	1.890	1.885	1.895	1.890	1.885
0.063	-0.005	0.000	-0.005	-0.005	0.010	0.044	2.676	1.895	1.890	1.885	1.895	1.885	1.885
0.063	-0.005	0.005	-0.005	0.000	0.005	0.039	2.681	1.885	1.880	1.885	1.895	1.885	1.880
0.059	0.000	0.000	0.000	0.005	-0.010	0.039	2.661	1.875	1.880	1.875	1.895	1.885	1.875
0.020	0.000	0.005	0.000	0.000	0.005	0.039	2.627	1.855	1.870	1.875	1.890	1.880	1.880
0.010	-0.015	0.005	0.005	0.005	0.010	0.044	2.681	1.851	1.855	1.870	1.890	1.880	1.880
0.005	-0.010	0.005	0.000	0.005	0.010	0.039	2.690	1.855	1.855	1.860	1.885	1.880	1.875
0.034	0.000	0.005	0.000	-0.005	0.005	0.044	2.695	1.875	1.860	1.860	1.880	1.875	1.875
0.054	0.010	0.000	0.000	0.005	-0.005	0.044	2.695	1.880	1.870	1.865	1.880	1.880	1.875
0.049	0.000	0.000	0.005	0.005	0.000	0.044	2.690	1.880	1.875	1.870	1.885	1.885	1.880
0.034	0.005	-0.005	0.000	0.000	-0.005	0.039	2.686	1.880	1.875	1.870	1.885	1.885	1.880
0.005	0.005	0.000	-0.005	0.000	0.005	0.039	2.690	1.875	1.880	1.875	1.890	1.890	1.885
-0.024	0.010	0.000	-0.010	0.000	-0.005	0.039	2.749	1.880	1.885	1.875	1.890	1.890	1.885
-0.054	0.005	0.000	-0.005	-0.005	0.005	0.034	2.676	1.880	1.885	1.880	1.899	1.890	1.890
-0.044	0.000	0.000	0.000	-0.005	-0.020	0.039	2.690	1.885	1.880	1.885	1.899	1.895	1.890
-0.024	0.000	-0.005	0.000	-0.005	0.000	0.039	2.676	1.895	1.885	1.885	1.904	1.895	1.895
-0.010	0.010	0.005	0.010	0.000	0.005	0.039	2.681	1.895	1.890	1.885	1.904	1.899	1.895
0.005	0.005	0.005	0.015	0.000	0.005	0.039	2.686	1.895	1.885	1.880	1.904	1.895	1.895
0.024	0.010	0.005	0.010	0.005	0.010	0.039	2.686	1.885	1.885	1.880	1.899	1.895	1.895
0.015	0.000	0.005	0.010	0.010	0.015	0.039	2.690	1.875	1.875	1.875	1.895	1.895	1.890
0.000	0.005	0.000	0.005	0.015	0.000	0.039	2.632	1.865	1.870	1.870	1.890	1.890	1.880
0.010	0.000	0.000	0.000	0.005	0.005	0.044	2.661	1.860	1.865	1.865	1.885	1.880	1.880
0.054	0.000	0.005	-0.005	0.000	0.000	0.039	2.681	1.875	1.865	1.865	1.880	1.875	1.880
0.049	0.000	0.010	-0.005	0.005	-0.010	0.044	2.666	1.870	1.865	1.865	1.880	1.875	1.875
0.010	0.015	0.000	-0.005	0.005	-0.010	0.044	2.681	1.865	1.870	1.865	1.880	1.875	1.875
-0.010	0.000	0.000	-0.005	-0.005	-0.020	0.044	2.676	1.865	1.865	1.865	1.885	1.875	1.875
-0.010	0.005	0.005	-0.010	0.005	0.000	0.039	2.695	1.875	1.870	1.870	1.885	1.880	1.885
-0.020	0.005	0.000	0.000	0.005	0.000	0.044	2.690	1.875	1.870	1.870	1.890	1.885	1.885
-0.039	-0.005	0.000	0.005	-0.010	0.010	0.044	2.642	1.875	1.875	1.875	1.895	1.885	1.890
-0.034	-0.005	0.005	0.010	-0.005	0.000	0.039	2.690	1.885	1.875	1.875	1.899	1.890	1.890
-0.020	0.000	0.005	0.005	-0.005	0.005	0.039	2.686	1.890	1.885	1.880	1.899	1.890	1.890
0.005	-0.005	0.000	0.000	-0.005	0.005	0.039	2.690	1.899	1.885	1.880	1.899	1.890	1.895
0.020	0.000	-0.005	0.005	-0.005	-0.005	0.039	2.656	1.895	1.895	1.885	1.899	1.895	1.895
0.010	0.000	0.000	0.000	0.000	0.010	0.039	2.690	1.890	1.885	1.885	1.899	1.895	1.895
0.015	-0.005	-0.005	0.000	0.000	0.010	0.044	2.686	1.885	1.880	1.880	1.899	1.890	1.890
0.015	-0.005	0.000	0.000	0.000	0.015	0.039	2.690	1.880	1.880	1.875	1.895	1.890	1.890
0.024	0.005	0.000	0.015	0.000	-0.015	0.039	2.710	1.875	1.875	1.875	1.895	1.885	1.880
0.020	0.005	0.000	0.015	0.000	0.000	0.044	2.676	1.865	1.870	1.870	1.890	1.885	1.880
0.010	0.010	-0.005	0.020	0.000	-0.005	0.039	2.676	1.860	1.865	1.865	1.885	1.880	1.880
-0.015	0.005	0.000	0.015	0.000	0.010	0.044	2.690	1.855	1.860	1.865	1.885	1.880	1.880
-0.024	0.000	0.005	0.010	0.005	-0.005	0.044	2.695	1.860	1.851	1.860	1.880	1.880	1.875
-0.039	0.000	0.000	0.010	0.005	0.020	0.044	2.671	1.860	1.860	1.860	1.875	1.880	1.885
-0.024	0.010	0.005	0.005	0.005	0.000	0.044	2.681	1.870	1.865	1.860	1.880	1.880	1.880
-0.015	0.010	0.005	0.000	0.000	0.010	0.044	2.686	1.880	1.870	1.865	1.880	1.880	1.885
0.005	0.010	0.005	0.000	0.000	-0.005	0.044	2.754	1.899	1.880	1.875	1.885	1.880	1.880
0.005	0.010	0.000	0.000	0.000	0.000	0.044	2.686	1.899	1.890	1.875	1.890	1.885	1.880
0.010	0.010	0.000	-0.005	0.010	0.000	0.044	2.686	1.904	1.895	1.885	1.895	1.890	1.885
0.005	0.000	0.005	-0.005	0.010	0.010	0.044	2.686	1.899	1.899	1.890	1.899	1.895	1.895
0.010	-0.010	0.005	-0.005	0.005	-0.020	0.044	2.690	1.895	1.895	1.890	1.904	1.895	1.885
0.015	-0.010	0.005	0.000	0.005	0.010	0.044	2.676	1.895	1.890	1.890	1.904	1.895	1.899
0.034	-0.005	0.000	-0.005	0.005	0.005	0.039	2.656	1.890	1.890	1.890	1.904	1.895	1.895
0.034	-0.005	0.000	-0.005	0.000	0.005	0.044	2.690	1.880	1.885	1.880	1.899	1.890	1.890
0.020	-0.005	0.000	-0.005	-0.005	0.015	0.044	2.622	1.870	1.875	1.875	1.899	1.890	1.890
0.005	-0.005	0.000	0.000	0.000	0.000	0.039	2.671	1.860	1.870	1.870	1.890	1.890	1.880
0.000	-0.010	0.000	0.000	0.005	0.005	0.044	2.690	1.860	1.860	1.865	1.890	1.885	1.885
-0.005	0.005	-0.005	0.000	0.000	0.010	0.044	2.676	1.855	1.860	1.860	1.880	1.880	1.875
0.010	-0.005	0.000	0.005	-0.005	0.005	0.039	2.676	1.865	1.860	1.860	1.880	1.875	1.875
0.029	0.000	0.005	0.000	0.000	0.010	0.039	2.690	1.870	1.860	1.860	1.880	1.880	1.880
0.010	0.005	-0.005	-0.005	0.000	0.005	0.039	2.681	1.870	1.865	1.860	1.880	1.880	1.875
-0.005	0.005	0.005	-0.005	0.005	0.005	0.039	2.690	1.870	1.870	1.865	1.880	1.880	1.880
-0.010	-0.005	-0.005	0.000	0.005	0.005	0.039	2.749	1.880	1.875	1.870	1.885	1.885	1.885
-0.005	0.005	0.000	0.005	0.000	0.005	0.044	2.686	1.895	1.885	1.875	1.890	1.885	1.885
-0.010	-0.005	0.010	0.005	0.000	0.010	0.039	2.681	1.890	1.890	1.880	1.895	1.890	1.890
-0.005	0.000	0.000	0.005	0.000	0.015	0.044	2.690	1.899	1.890	1.885	1.899	1.895	1.895
-0.020	0.010	-0.005	0.005	0.005	-0.005	0.044	2.666	1.890	1.895	1.885	1.899	1.895	1.890
-0.020	0.000	-0.005	0.000	0.000	-0.024	0.039	2.686	1.890	1.890	1.885	1.899	1.895	1.885
-0.020	0.005	0.000	0.005	-0.005	-0.010	0.039	2.681	1.885	1.890	1.885	1.904	1.895	1.890
-0.024	0.000	0.005	0.000	0.000	-0.005	0.039	2.695	1.880	1.885	1.880	1.899	1.895	1.890
-0.005	0.005	0.000	0.000	0.000	0.015	0.039	2.627	1.875	1.880	1.880	1.895	1.895	1.895
0.005	0.010	0.000	0.000	0.005	-0.015	0.039	2.681	1.870	1.875	1.875	1.890	1.890	1.885
0.000	0.005	-0.005	0.000	0.005	-0.005	0.039	2.686	1.870	1.870	1.870	1.890	1.885	1.885
0.010	0.015	0.005	0.005	0.005	-0.005	0.044	2.671	1.870	1.870	1.870	1.885	1.880	1.880
0.005	0.005	0.005	0.005	0.000	-0.005	0.044	2.690	1.870	1.860	1.865	1.885	1.875	1.875
0.024	0.000	0.000	0.015	0.005	-0.005	0.044	2.681	1.875	1.865	1.865	1.880	1.880	1.880
0.020	0.000	0.000	0.000	-0.005	0.005	0.039	2.671	1.870	1.865	1.865	1.880	1.875	1.885
0.015	-0.005	0.005	0.005	0.000	-0.020	0.039	2.681	1.870	1.865	1.865	1.880	1.875	1.875
0.015	-0.010	0.000	0.000	-0.005	0.015	0.039	2.612	1.870	1.870	1.865	1.885	1.880	1.885
-0.005	0.000	0.000	0.000	-0.005	0.015	0.039	2.686	1.875	1.875	1.870	1.890	1.885	1.890
0.010	0.000	0.005	0.005	0.005	0.005	0.044	2.681	1.885	1.880	1.875	1.895	1.890	1.890
0.005	-0.010	0.000	0.000	-0.005	-0.020	0.044	2.690	1.890	1.885	1.880	1.895	1.890	1.885
0.005	-0.005	0.005	0.005	0.000	0.000	0.039	2.686	1.890	1.890	1.885	1.899	1.895	1.895
0.000	-0.015	0.000	0.000	0.005	-0.005	0.039	2.671	1.890	1.890	1.885	1.899	1.895	1.895
0.005	-0.005	0.000	-0.005	0.005	0.000	0.044	2.681	1.890	1.890	1.885	1.899	1.895	1.899
0.005	-0.005	0.000	0.000	0.005	0.015	0.044	2.681	1.885	1.885	1.885	1.899	1.895	1.895
0.005	0.000	0.005	0.000	0.005	0.015	0.044	2.646	1.875	1.885	1.880	1.899	1.895	1.890
0.005	-0.005	0.000	0.000	0.005	0.015	0.039	2.676	1.875	1.875	1.870	1.895	1.890	1.885
-0.005	-0.010	0.005	-0.005	0.000	0.000	0.039	2.686	1.865	1.865	1.870	1.890	1.885	1.885
-0.024	0.000	0.005	0.000	-0.005	0.005	0.039	2.686	1.855	1.865	1.865	1.885	1.880	1.880
-0.029	0.000	0.000	0.000	-0.005	0.005	0.039	2.681	1.855	1.855	1.860	1.880	1.880	1.880
-0.020	0.015	0.005	-0.005	-0.010	0.010	0.039	2.690	1.865	1.860	1.860	1.880	1.875	1.875
0.000	0.020	0.000	0.000	0.000	-0.010	0.039	2.686	1.870	1.865	1.860	1.875	1.875	1.870
0.000	0.015	0.000	0.005	0.000	-0.020	0.044	2.637	1.870	1.865	1.860	1.880	1.875	1.870
0.000	0.010	0.000	0.005	-0.005	0.000	0.039	2.686	1.875	1.870	1.865	1.880	1.880	1.875
0.005	0.010	-0.005	0.005	0.000	-0.024	0.044	2.686	1.880	1.875	1.870	1.885	1.880	1.880
0.015	0.005	0.005	0.000	0.020	0.005	0.044	2.690	1.890	1.875	1.875	1.890	1.885	1.885
0.020	0.000	0.000	0.005	0.010	0.020	0.044	2.686	1.890	1.885	1.880	1.895	1.890	1.895
0.044	0.000	-0.005	0.005	0.005	0.005	0.039	2.666	1.899	1.890	1.885	1.895	1.890	1.890
0.044	0.000	-0.005	0.000	0.005	-0.024	0.039	2.676	1.895	1.895	1.885	1.899	1.890	1.885
0.029	-0.005	0.000	0.000	0.000	-0.005	0.039	2.690	1.895	1.890	1.885	1.899	1.890	1.890
0.024	0.000	0.005	0.010	0.000	0.015	0.044	2.622	1.880	1.890	1.890	1.904	1.895	1.895
0.005	0.000	0.000	0.005	0.000	0.000	0.039	2.681	1.875	1.880	1.885	1.899	1.895	1.890
-0.020	-0.010	0.005	0.005	0.005	-0.020	0.044	2.695	1.865	1.875	1.875	1.895	1.895	1.885
-0.049	-0.005	0.005	0.000	0.000	-0.005	0.039	2.700	1.860	1.865	1.870	1.895	1.890	1.885
-0.039	0.000	0.000	0.000	0.010	-0.015	0.044	2.676	1.860	1.860	1.865	1.885	1.890	1.880
-0.029	-0.005	0.000	0.000	0.015	-0.049	0.039	2.690	1.865	1.855	1.860	1.885	1.880	1.870
-0.015	0.000	0.005	0.000	0.005	-0.020	0.044	2.681	1.865	1.855	1.855	1.880	1.875	1.875
-0.005	-0.005	0.000	0.005	0.005	0.005	0.039	2.661	1.865	1.860	1.855	1.875	1.875	1.880
0.049	-0.005	0.000	0.010	-0.010	0.000	0.039	2.744	1.890	1.870	1.855	1.875	1.870	1.880
0.034	0.000	-0.005	0.000	-0.005	0.024	0.039	2.695	1.885	1.875	1.860	1.875	1.875	1.885
0.015	0.000	0.000	0.005	0.000	0.020	0.039	2.690	1.880	1.880	1.870	1.880	1.875	1.880
-0.015	0.000	-0.005	0.000	0.000	0.005	0.044	2.686	1.875	1.880	1.870	1.885	1.880	1.880
-0.039	-0.005	0.000	0.000	0.000	0.029	0.044	2.690	1.880	1.880	1.875	1.890	1.880	1.885
-0.034	-0.010	0.000	-0.005	0.000	0.010	0.039	2.686	1.890	1.885	1.880	1.895	1.885	1.885
0.005	0.000	0.005	0.000	-0.005	0.029	0.039	2.690	1.899	1.895	1.885	1.899	1.885	1.890
0.005	0.005	0.005	0.000	-0.015	0.020	0.044	2.681	1.895	1.895	1.890	1.899	1.890	1.890
-0.010	0.005	0.005	0.000	-0.010	0.005	0.044	2.710	1.890	1.895	1.890	1.904	1.895	1.885
-0.010	0.020	0.005	0.000	-0.010	-0.010	0.044	2.676	1.890	1.895	1.890	1.904	1.895	1.885
-0.010	0.020	0.010	0.005	-0.005	0.024	0.039	2.666	1.875	1.885	1.885	1.904	1.899	1.895
-0.029	-0.005	0.005	0.005	0.010	0.000	0.039	2.676	1.870	1.870	1.880	1.899	1.899	1.890
-0.034	-0.010	0.010	0.005	0.020	0.020	0.044	2.676	1.865	1.870	1.875	1.895	1.895	1.890
-0.039	0.000	0.010	0.005	0.029	0.005	0.044	2.690	1.870	1.865	1.870	1.895	1.895	1.885
-0.010	0.005	0.005	0.000	0.020	0.010	0.039	2.681	1.870	1.865	1.860	1.885	1.885	1.890
0.000	-0.010	0.000	0.000	0.015	0.020	0.039	2.676	1.870	1.860	1.855	1.880	1.880	1.885
0.005	-0.005	0.000	-0.005	0.015	0.010	0.044	2.661	1.865	1.860	1.860	1.875	1.875	1.880
0.000	0.000	-0.005	0.000	-0.005	-0.005	0.039	2.681	1.870	1.865	1.860	1.875	1.870	1.875
0.005	0.010	0.000	0.010	-0.015	-0.010	0.044	2.690	1.875	1.870	1.865	1.880	1.870	1.870
0.010	0.005	0.000	0.005	-0.010	-0.010	0.044	2.686	1.880	1.875	1.870	1.885	1.875	1.870
0.010	-0.005	0.000	0.005	0.000	0.000	0.044	2.695	1.890	1.880	1.875	1.890	1.885	1.880
0.020	0.005	-0.005	0.000	0.020	0.000	0.044	2.686	1.890	1.890	1.880	1.890	1.890	1.890
0.020	0.005	-0.005	0.000	0.000	0.000	0.044	2.690	1.899	1.895	1.880	1.895	1.890	1.890
0.024	0.005	0.000	0.005	-0.015	-0.005	0.044	2.676	1.895	1.895	1.890	1.904	1.890	1.890
0.020	0.005	0.005	0.010	0.010	-0.015	0.044	2.681	1.895	1.895	1.895	1.909	1.899	1.890
0.015	0.005	0.000	0.005	0.010	0.010	0.039	2.676	1.885	1.895	1.895	1.904	1.899	1.899
0.000	0.015	0.000	0.010	0.015	-0.010	0.039	2.671	1.880	1.890	1.890	1.904	1.904	1.895
0.005	0.015	0.000	0.005	-0.005	0.034	0.039	2.690	1.875	1.885	1.885	1.904	1.895	1.899
0.015	0.015	0.000	0.010	-0.005	0.010	0.039	2.686	1.875	1.880	1.880	1.899	1.890	1.895
0.010	0.015	0.000	0.000	-0.005	0.005	0.039	2.681	1.870	1.875	1.875	1.895	1.890	1.885
0.015	0.000	0.000	0.000	-0.029	0.000	0.044	2.686	1.870	1.870	1.870	1.890	1.880	1.880
0.010	0.005	0.005	-0.005	-0.020	0.000	0.039	2.681	1.865	1.860	1.865	1.885	1.880	1.880
0.010	0.000	0.005	-0.005	0.015	-0.005	0.039	2.671	1.865	1.860	1.860	1.880	1.890	1.875
0.000	0.005	0.005	0.005	0.029	-0.005	0.039	2.690	1.865	1.865	1.860	1.885	1.890	1.880
0.015	-0.005	-0.005	-0.005	0.034	-0.010	0.044	2.690	1.875	1.865	1.865	1.880	1.885	1.875
0.078	0.000	0.000	0.000	0.000	-0.005	0.039	2.681	1.895	1.875	1.870	1.880	1.875	1.880
0.068	0.000	-0.005	0.000	-0.024	-0.015	0.039	2.676	1.890	1.880	1.870	1.885	1.870	1.875
0.020	-0.005	0.000	0.000	-0.044	-0.005	0.039	2.690	1.875	1.880	1.875	1.890	1.870	1.880
-0.015	0.000	0.010	-0.005	-0.098	0.024	0.039	2.676	1.875	1.880	1.880	1.890	1.865	1.885
-0.049	0.000	0.000	-0.005	-0.112	0.024	0.039	2.690	1.870	1.880	1.880	1.895	1.875	1.885
-0.059	-0.015	0.005	-0.005	0.000	0.020	0.039	2.681	1.870	1.875	1.885	1.899	1.914	1.895
-0.059	-0.015	0.000	0.000	0.063	0.015	0.044	2.686	1.880	1.875	1.880	1.904	1.924	1.899
-0.034	-0.010	0.005	0.005	0.059	0.005	0.039	2.676	1.890	1.880	1.880	1.899	1.919	1.899
-0.020	-0.005	0.005	0.000	0.059	0.005	0.039	2.676	1.890	1.880	1.880	1.899	1.904	1.899
0.039	-0.005	-0.005	0.005	0.034	0.015	0.039	2.681	1.899	1.885	1.875	1.895	1.895	1.899
0.044	0.005	-0.005	0.005	0.000	-0.010	0.039	2.686	1.890	1.890	1.875	1.890	1.880	1.880
0.024	0.015	0.000	0.005	0.024	0.020	0.044	2.690	1.875	1.880	1.875	1.890	1.890	1.890
0.015	0.005	0.005	0.000	0.049	0.010	0.044	2.671	1.870	1.875	1.875	1.890	1.890	1.885
-0.020	0.024	-0.005	0.005	0.020	0.024	0.044	2.676	1.855	1.870	1.870	1.885	1.875	1.885
-0.029	0.015	0.005	0.005	-0.005	0.015	0.044	2.690	1.860	1.860	1.865	1.880	1.870	1.880
-0.020	-0.010	0.000	0.000	-0.020	0.020	0.044	2.681	1.865	1.851	1.860	1.880	1.870	1.875
-0.024	-0.010	0.000	0.000	-0.029	-0.020	0.044	2.686	1.865	1.860	1.860	1.875	1.865	1.860
-0.005	0.000	0.000	0.000	-0.034	-0.029	0.044	2.686	1.875	1.870	1.865	1.880	1.870	1.865
-0.015	-0.005	0.005	0.000	-0.049	-0.039	0.039	2.690	1.875	1.870	1.870	1.885	1.870	1.865
0.029	0.005	0.000	0.005	-0.024	0.010	0.039	2.686	1.899	1.885	1.875	1.890	1.890	1.885
0.029	0.000	0.000	0.005	0.044	0.010	0.039	2.681	1.899	1.890	1.880	1.895	1.909	1.899
0.000	0.015	0.000	0.005	0.073	-0.029	0.044	2.686	1.895	1.895	1.890	1.899	1.909	1.895
-0.010	0.010	0.005	0.010	0.063	0.005	0.044	2.676	1.890	1.895	1.890	1.904	1.909	1.904
-0.015	-0.005	-0.005	0.005	0.049	-0.024	0.039	2.681	1.885	1.885	1.890	1.904	1.899	1.899
-0.034	0.005	0.000	0.000	0.039	-0.073	0.039	2.681	1.880	1.885	1.890	1.904	1.895	1.885
-0.020	0.000	-0.005	0.000	0.000	-0.034	0.039	2.681	1.880	1.880	1.885	1.899	1.885	1.890
-0.020	0.005	0.005	0.000	-0.005	-0.029	0.044	2.690	1.875	1.875	1.880	1.895	1.880	1.890
-0.005	0.005	0.000	0.000	-0.034	0.029	0.044	2.681	1.875	1.875	1.875	1.890	1.875	1.895
0.010	0.000	0.000	-0.005	-0.039	0.029	0.044	2.686	1.875	1.870	1.870	1.890	1.875	1.890
0.010	-0.010	0.000	0.000	-0.015	0.015	0.044	2.681	1.870	1.865	1.865	1.885	1.880	1.880
0.020	0.000	0.005	-0.005	-0.005	0.015	0.039	2.681	1.865	1.865	1.865	1.885	1.880	1.885
0.015	-0.005	-0.005	0.000	0.005	0.034	0.039	2.681	1.870	1.865	1.860	1.880	1.885	1.890
0.005	0.000	0.000	0.000	0.000	0.024	0.034	2.686	1.870	1.865	1.865	1.885	1.880	1.880
0.010	-0.005	0.005	-0.005	-0.005	0.020	0.039	2.695	1.870	1.870	1.865	1.880	1.880	1.880
0.000	0.000	0.000	0.000	0.000	0.005	0.039	2.681	1.875	1.875	1.870	1.885	1.880	1.880
0.005	0.000	0.010	-0.005	-0.005	0.010	0.044	2.695	1.885	1.875	1.875	1.890	1.885	1.880
0.010	-0.005	0.000	0.000	0.005	0.015	0.044	2.695	1.890	1.885	1.875	1.899	1.890	1.885
0.010	0.005	0.005	-0.005	-0.010	0.015	0.044	2.681	1.895	1.890	1.880	1.895	1.890	1.885
0.020	0.005	0.005	-0.005	-0.015	0.020	0.039	2.686	1.895	1.895	1.890	1.904	1.895	1.895
0.020	0.000	0.010	0.000	-0.005	-0.010	0.044	2.695	1.899	1.895	1.890	1.904	1.895	1.885
0.000	-0.005	0.005	0.005	0.010	0.000	0.039	2.681	1.885	1.895	1.890	1.909	1.904	1.895
-0.010	-0.005	-0.005	0.000	0.015	0.015	0.039	2.666	1.880	1.885	1.885	1.904	1.904	1.904
-0.005	-0.010	0.005	0.000	0.020	-0.010	0.039	2.695	1.880	1.880	1.880	1.904	1.899	1.890
-0.010	-0.020	0.000	0.000	0.010	-0.005	0.044	2.690	1.870	1.870	1.875	1.899	1.895	1.895
0.000	0.000	0.005	0.005	0.015	-0.015	0.039	2.671	1.870	1.875	1.875	1.895	1.890	1.890
0.005	-0.010	0.000	0.005	0.039	0.005	0.044	2.686	1.870	1.865	1.870	1.890	1.895	1.890
0.020	0.005	0.000	0.010	0.039	-0.015	0.044	2.690	1.875	1.870	1.870	1.885	1.890	1.885
0.015	0.073	0.000	0.005	0.029	-0.020	0.044	2.671	1.870	1.885	1.870	1.885	1.885	1.880
0.010	0.020	0.005	0.000	0.015	-0.039	0.044	2.681	1.870	1.865	1.870	1.880	1.875	1.875
-0.010	-0.015	0.005	0.005	-0.015	-0.029	0.044	2.686	1.865	1.855	1.865	1.885	1.870	1.875
-0.005	-0.020	0.010	0.005	-0.034	-0.029	0.044	2.681	1.870	1.860	1.860	1.880	1.870	1.875
0.005	-0.015	0.005	0.005	-0.015	-0.049	0.044	2.681	1.875	1.870	1.865	1.885	1.880	1.875
-0.005	-0.010	0.000	0.005	0.000	-0.005	0.044	2.681	1.875	1.870	1.870	1.885	1.885	1.890
-0.015	-0.020	-0.005	0.010	-0.039	0.005	0.039	2.690	1.885	1.880	1.870	1.890	1.880	1.890
-0.010	-0.010	0.005	0.010	-0.029	0.020	0.039	2.690	1.890	1.885	1.880	1.895	1.890	1.895
-0.005	0.015	0.005	0.010	-0.005	0.005	0.039	2.671	1.890	1.899	1.885	1.899	1.899	1.895
-0.010	0.005	0.005	0.005	-0.005	0.005	0.039	2.671	1.890	1.890	1.885	1.899	1.895	1.895
-0.010	0.005	0.005	0.005	0.015	0.039	0.044	2.686	1.890	1.895	1.890	1.904	1.904	1.904
0.000	0.010	0.000	0.010	0.029	0.034	0.044	2.695	1.885	1.890	1.885	1.904	1.904	1.899
0.005	0.005	0.005	0.005	0.039	0.020	0.039	2.671	1.880	1.880	1.880	1.899	1.904	1.899
-0.005	0.005	0.000	-0.005	0.034	0.010	0.039	2.681	1.875	1.875	1.875	1.895	1.895	1.890
-0.010	-0.005	0.000	0.000	0.015	0.005	0.039	2.671	1.870	1.870	1.870	1.890	1.885	1.880
-0.005	-0.010	-0.005	-0.005	0.000	0.020	0.039	2.681	1.865	1.865	1.865	1.885	1.880	1.885
0.015	-0.015	-0.005	0.000	-0.049	0.010	0.044	2.671	1.865	1.860	1.860	1.880	1.865	1.875
0.005	0.039	0.005	-0.005	-0.059	0.010	0.039	2.681	1.870	1.875	1.865	1.880	1.865	1.870
0.010	0.029	0.005	0.005	-0.015	0.015	0.039	2.690	1.875	1.870	1.865	1.885	1.880	1.875
0.015	0.000	0.000	0.000	0.000	-0.015	0.044	2.681	1.875	1.865	1.865	1.885	1.885	1.870
0.005	-0.020	0.000	0.000	0.010	0.005	0.044	2.705	1.875	1.865	1.865	1.885	1.890	1.880
0.015	-0.005	0.005	0.000	0.010	-0.005	0.044	2.686	1.885	1.875	1.870	1.885	1.890	1.880
0.010	0.000	0.000	0.005	0.029	-0.039	0.044	2.686	1.890	1.880	1.875	1.890	1.895	1.880
0.020	0.000	0.000	-0.005	0.005	-0.015	0.044	2.686	1.895	1.895	1.880	1.895	1.890	1.890
0.020	-0.005	0.005	-0.010	-0.044	0.000	0.039	2.686	1.890	1.890	1.885	1.895	1.875	1.890
0.010	0.000	0.000	-0.005	-0.029	0.015	0.039	2.681	1.890	1.895	1.890	1.904	1.890	1.890
0.005	-0.010	0.000	0.000	0.005	0.000	0.039	2.695	1.890	1.890	1.890	1.909	1.904	1.895
0.005	0.010	-0.005	0.000	-0.005	0.000	0.039	2.676	1.890	1.895	1.890	1.904	1.899	1.899
0.010	0.000	-0.005	0.010	-0.024	0.015	0.044	2.681	1.880	1.885	1.885	1.904	1.890	1.899
-0.010	0.000	0.000	0.015	-0.010	0.015	0.044	2.690	1.875	1.875	1.880	1.904	1.895	1.895
-0.015	0.005	-0.005	0.020	0.020	0.010	0.044	2.676	1.870	1.875	1.875	1.899	1.904	1.895
-0.015	0.015	-0.005	0.010	0.005	0.029	0.044	2.681	1.865	1.870	1.870	1.895	1.890	1.895
-0.010	0.010	0.005	0.005	0.005	-0.010	0.039	2.686	1.870	1.865	1.870	1.885	1.885	1.875
0.000	0.000	0.005	0.005	-0.020	0.015	0.039	2.681	1.870	1.860	1.865	1.880	1.875	1.885
0.005	0.005	0.000	0.000	-0.020	-0.015	0.039	2.681	1.870	1.865	1.865	1.880	1.875	1.875
0.000	0.005	0.000	-0.005	-0.020	-0.005	0.044	2.681	1.870	1.865	1.860	1.880	1.875	1.875
-0.005	0.000	0.005	-0.010	0.010	0.000	0.044	2.681	1.875	1.865	1.865	1.880	1.885	1.880
-0.020	-0.005	0.000	-0.010	0.068	0.000	0.039	2.690	1.870	1.870	1.870	1.880	1.899	1.890
-0.015	-0.005	0.000	-0.010	0.059	-0.005	0.039	2.700	1.890	1.875	1.870	1.885	1.890	1.885
0.034	0.000	-0.005	-0.005	0.024	-0.015	0.039	2.686	1.904	1.890	1.875	1.895	1.885	1.890
0.029	-0.005	0.000	0.005	0.000	-0.015	0.039	2.690	1.904	1.895	1.885	1.899	1.885	1.885
0.015	0.000	-0.005	0.005	-0.024	-0.005	0.039	2.690	1.899	1.899	1.890	1.904	1.885	1.890
-0.015	0.005	0.000	0.005	-0.049	0.000	0.044	2.700	1.890	1.899	1.895	1.904	1.880	1.890
-0.015	0.005	-0.005	0.000	-0.054	0.000	0.044	2.681	1.885	1.895	1.890	1.904	1.885	1.890
-0.020	0.005	0.005	0.005	-0.024	-0.015	0.044	2.690	1.880	1.890	1.890	1.904	1.895	1.885
-0.015	0.015	0.000	-0.005	-0.039	-0.010	0.039	2.681	1.880	1.885	1.885	1.904	1.890	1.885
0.000	-0.005	0.000	0.000	0.063	-0.005	0.044	2.681	1.875	1.875	1.880	1.899	1.919	1.895
0.005	-0.005	0.010	0.000	0.103	0.015	0.044	2.686	1.875	1.870	1.875	1.899	1.919	1.909
0.015	0.000	0.005	0.000	0.049	0.020	0.044	2.690	1.875	1.870	1.870	1.890	1.890	1.899
0.010	0.000	0.000	0.000	0.044	0.029	0.044	2.681	1.870	1.870	1.865	1.890	1.890	1.899
0.015	0.005	0.010	0.000	0.068	0.015	0.044	2.686	1.870	1.870	1.865	1.885	1.890	1.895
0.010	0.005	0.005	0.005	0.029	0.024	0.044	2.666	1.870	1.865	1.865	1.885	1.875	1.890
0.015	-0.005	0.000	0.005	0.005	0.000	0.039	2.686	1.875	1.870	1.865	1.880	1.870	1.880
0.020	-0.005	0.000	0.005	-0.034	0.020	0.039	2.676	1.875	1.870	1.870	1.885	1.865	1.880
0.010	-0.005	0.000	0.005	-0.029	0.020	0.044	2.690	1.880	1.875	1.875	1.890	1.875	1.880
0.015	0.005	0.000	0.010	0.010	0.020	0.039	2.676	1.885	1.885	1.875	1.895	1.895	1.885
0.015	0.024	-0.005	0.005	0.044	0.005	0.039	2.676	1.885	1.895	1.885	1.899	1.904	1.890
0.010	0.015	-0.005	0.010	0.015	0.000	0.044	2.651	1.890	1.895	1.890	1.904	1.895	1.890
-0.005	0.000	0.000	0.010	-0.034	-0.005	0.039	2.656	1.880	1.890	1.890	1.904	1.880	1.885
-0.015	0.000	0.000	0.005	-0.010	-0.005	0.039	2.646	1.880	1.885	1.890	1.904	1.899	1.890
-0.010	-0.010	0.005	0.005	-0.020	-0.005	0.039	2.681	1.904	1.885	1.885	1.904	1.895	1.890
0.000	-0.005	0.000	-0.005	-0.093	-0.005	0.039	2.681	1.895	1.885	1.885	1.899	1.875	1.880
0.000	0.000	0.000	0.000	-0.068	-0.024	0.039	2.686	1.890	1.885	1.880	1.899	1.885	1.875
0.000	-0.010	0.000	-0.005	-0.005	-0.010	0.044	2.686	1.885	1.880	1.880	1.895	1.899	1.885
-0.010	-0.005	0.000	-0.005	0.034	0.000	0.039	2.690	1.875	1.870	1.875	1.895	1.904	1.890
-0.010	-0.010	-0.005	-0.005	0.078	-0.015	0.039	2.671	1.870	1.870	1.865	1.890	1.909	1.885
-0.010	-0.005	-0.005	0.000	0.088	0.000	0.039	2.661	1.860	1.865	1.860	1.885	1.904	1.895
-0.010	-0.010	0.000	-0.005	0.068	0.000	0.039	2.666	1.865	1.860	1.865	1.880	1.885	1.890
-0.020	-0.015	0.000	-0.010	0.010	0.005	0.039	2.661	1.865	1.860	1.860	1.875	1.870	1.885
-0.005	-0.010	0.000	-0.010	-0.029	-0.010	0.039	2.656	1.870	1.865	1.860	1.875	1.865	1.875
0.005	0.015	0.005	-0.005	-0.034	0.000	0.039	2.656	1.875	1.875	1.870	1.885	1.865	1.875
-0.005	0.000	0.005	0.005	-0.034	0.010	0.044	2.764	1.890	1.880	1.875	1.895	1.875	1.880
0.000	0.005	0.000	0.010	-0.024	0.010	0.044	2.666	1.895	1.885	1.875	1.895	1.885	1.885
0.020	0.020	0.005	0.015	-0.020	-0.024	0.044	2.656	1.890	1.895	1.885	1.899	1.890	1.880
0.020	0.020	0.005	0.015	-0.024	0.005	0.039	2.686	1.895	1.899	1.890	1.909	1.895	1.895
0.005	0.015	-0.005	0.010	0.024	0.000	0.039	2.671	1.890	1.899	1.895	1.909	1.909	1.899
0.010	0.024	0.000	0.010	0.015	0.024	0.044	2.671	1.890	1.895	1.890	1.909	1.909	1.909
0.010	0.005	0.000	0.000	0.029	0.015	0.044	2.661	1.885	1.890	1.890	1.904	1.909	1.904
0.010	0.000	0.000	0.000	0.015	0.024	0.044	2.671	1.880	1.880	1.885	1.904	1.904	1.904
0.010	0.010	0.005	0.000	0.015	0.000	0.039	2.661	1.875	1.880	1.885	1.899	1.895	1.890
0.000	0.010	0.005	0.000	-0.029	0.005	0.044	2.676	1.870	1.875	1.875	1.895	1.880	1.885
-0.005	0.000	0.005	0.005	-0.020	0.020	0.039	2.661	1.865	1.865	1.870	1.895	1.885	1.885
-0.005	0.000	0.000	0.005	-0.034	0.010	0.039	2.651	1.860	1.860	1.865	1.885	1.875	1.880
0.000	0.015	0.000	0.010	0.010	-0.005	0.044	2.642	1.860	1.860	1.860	1.885	1.890	1.875
0.005	-0.010	0.000	0.005	0.015	0.020	0.044	2.651	1.860	1.855	1.855	1.875	1.885	1.890
0.005	-0.005	0.000	-0.005	0.039	0.005	0.044	2.725	1.870	1.855	1.860	1.875	1.890	1.880
-0.005	-0.015	0.000	-0.005	0.039	0.015	0.039	2.651	1.885	1.860	1.860	1.875	1.885	1.890
0.000	-0.024	0.005	0.000	0.015	-0.005	0.044	2.646	1.885	1.870	1.865	1.880	1.880	1.880
0.000	-0.010	0.005	-0.005	0.010	-0.010	0.039	2.847	1.909	1.885	1.870	1.885	1.875	1.885
-0.005	0.000	0.005	0.000	-0.015	0.000	0.039	2.686	1.904	1.895	1.875	1.890	1.875	1.880
0.000	0.005	0.005	0.000	-0.034	-0.015	0.039	2.681	1.904	1.899	1.885	1.895	1.875	1.885
0.000	0.000	0.000	0.005	-0.029	0.015	0.039	2.686	1.899	1.899	1.890	1.904	1.885	1.890
-0.010	-0.005	0.000	0.000	-0.049	0.024	0.044	2.690	1.895	1.899	1.895	1.904	1.885	1.890
-0.015	-0.010	0.005	0.000	-0.049	0.020	0.044	2.676	1.890	1.895	1.895	1.909	1.890	1.890
0.005	0.005	0.000	0.000	-0.029	0.000	0.044	2.671	1.885	1.895	1.895	1.909	1.899	1.890
0.005	0.015	0.000	-0.005	-0.039	0.005	0.044	2.661	1.880	1.895	1.890	1.904	1.895	1.885
0.010	0.005	0.005	-0.005	0.000	-0.010	0.039	2.651	1.875	1.880	1.885	1.904	1.904	1.885
0.005	0.000	0.000	0.000	0.024	-0.024	0.039	2.651	1.865	1.875	1.880	1.899	1.904	1.890
-0.010	0.000	0.005	0.005	-0.010	-0.049	0.039	2.656	1.855	1.865	1.870	1.895	1.885	1.880
0.005	0.000	0.000	0.010	0.039	0.000	0.044	2.705	1.865	1.865	1.870	1.890	1.904	1.899
0.010	-0.005	0.000	0.015	0.073	0.010	0.044	2.656	1.865	1.860	1.865	1.890	1.904	1.904
0.005	0.015	0.005	0.010	0.063	0.000	0.044	2.646	1.865	1.860	1.860	1.885	1.895	1.895
0.010	0.000	0.000	0.005	0.015	0.000	0.039	2.832	1.885	1.865	1.865	1.880	1.880	1.890
0.015	0.000	-0.005	0.000	0.010	-0.005	0.039	2.681	1.885	1.875	1.870	1.880	1.880	1.885
0.005	-0.005	0.000	0.005	0.005	0.000	0.039	2.676	1.885	1.875	1.870	1.885	1.880	1.885
0.000	-0.010	0.000	-0.010	-0.010	0.005	0.039	2.695	1.890	1.880	1.875	1.885	1.875	1.885
-0.005	0.005	0.000	-0.010	-0.015	0.015	0.044	2.690	1.895	1.895	1.880	1.890	1.885	1.885
0.000	0.020	-0.005	-0.010	-0.005	0.015	0.039	2.676	1.899	1.899	1.890	1.899	1.890	1.890
-0.005	-0.005	0.000	-0.005	-0.005	0.010	0.039	2.676	1.895	1.890	1.890	1.904	1.895	1.890
-0.005	-0.005	0.000	0.005	-0.015	0.010	0.039	2.676	1.890	1.895	1.890	1.909	1.895	1.890
-0.005	-0.005	0.005	0.020	-0.020	0.015	0.044	2.661	1.885	1.890	1.890	1.909	1.895	1.890
0.010	-0.005	0.005	0.010	-0.015	-0.020	0.044	2.656	1.880	1.885	1.890	1.909	1.895	1.880
0.010	-0.015	0.000	0.000	0.010	0.020	0.039	2.651	1.870	1.875	1.880	1.899	1.904	1.899
0.005	-0.015	0.000	0.000	0.010	0.015	0.039	2.695	1.870	1.870	1.870	1.895	1.899	1.890
0.005	-0.005	0.005	-0.005	0.020	0.000	0.039	2.817	1.880	1.870	1.870	1.890	1.895	1.890
0.000	-0.010	0.000	0.005	0.010	-0.005	0.039	2.632	1.870	1.865	1.865	1.885	1.885	1.885
0.000	-0.024	0.000	0.010	0.005	0.005	0.039	2.817	1.880	1.865	1.865	1.885	1.880	1.885
0.000	-0.010	0.005	0.010	0.005	-0.010	0.039	2.695	1.880	1.865	1.860	1.885	1.880	1.875
0.000	0.000	0.000	0.010	0.005	-0.010	0.039	2.666	1.875	1.875	1.865	1.880	1.880	1.880
0.005	0.000	0.000	0.005	-0.005	-0.005	0.039	2.671	1.875	1.875	1.865	1.880	1.875	1.880
0.005	0.039	0.000	0.005	-0.015	0.000	0.039	2.686	1.880	1.895	1.875	1.885	1.875	1.880
-0.005	0.088	0.005	0.000	-0.020	0.005	0.039	2.686	1.890	1.904	1.885	1.895	1.880	1.885
-0.010	0.024	0.000	0.000	0.000	0.015	0.039	2.666	1.880	1.880	1.885	1.899	1.890	1.890
-0.005	-0.005	0.005	0.000	0.000	0.005	0.044	2.661	1.885	1.880	1.885	1.904	1.895	1.890
0.005	-0.015	0.000	0.000	0.000	0.000	0.039	2.666	1.885	1.880	1.885	1.904	1.899	1.895
-0.005	-0.005	0.000	0.000	0.000	0.005	0.039	2.656	1.885	1.885	1.890	1.909	1.899	1.899
-0.005	0.000	-0.005	0.005	-0.005	-0.010	0.039	2.661	1.885	1.885	1.885	1.909	1.899	1.899
0.010	0.005	0.000	0.005	0.000	0.015	0.039	2.671	1.885	1.885	1.890	1.909	1.904	1.904
0.010	-0.005	0.000	0.000	0.000	0.020	0.039	2.812	1.895	1.885	1.885	1.904	1.899	1.904
-0.005	0.000	0.000	-0.010	0.010	0.020	0.044	2.646	1.880	1.880	1.880	1.895	1.899	1.899
0.005	-0.005	0.000	-0.010	0.005	0.000	0.044	2.827	1.895	1.875	1.875	1.895	1.895	1.890
0.000	0.005	0.000	-0.010	0.005	-0.039	0.044	2.681	1.880	1.875	1.870	1.890	1.890	1.875
0.010	0.000	0.000	-0.005	0.010	-0.029	0.044	2.705	1.880	1.875	1.870	1.885	1.885	1.880
0.000	0.000	0.000	-0.005	0.015	-0.005	0.044	2.671	1.870	1.870	1.870	1.885	1.885	1.885
0.005	-0.005	0.000	0.000	-0.020	-0.005	0.044	2.681	1.875	1.870	1.870	1.885	1.875	1.880
0.005	-0.005	0.005	0.000	-0.020	-0.034	0.039	2.666	1.875	1.870	1.870	1.885	1.875	1.875
0.005	-0.005	0.000	0.015	-0.015	0.005	0.039	2.671	1.875	1.870	1.870	1.890	1.880	1.885
-0.005	-0.005	0.000	0.010	0.005	0.005	0.044	2.676	1.880	1.875	1.870	1.895	1.890	1.890
-0.005	0.015	0.000	0.005	0.010	0.020	0.044	2.676	1.880	1.885	1.880	1.895	1.890	1.895
-0.010	0.005	0.000	0.005	0.024	0.005	0.044	2.666	1.885	1.885	1.880	1.899	1.899	1.890
0.005	0.034	0.005	0.005	0.015	0.010	0.044	2.656	1.890	1.895	1.890	1.904	1.899	1.899
0.005	0.010	0.005	0.000	0.000	0.005	0.044	2.686	1.890	1.890	1.890	1.904	1.895	1.899
0.000	-0.015	0.000	-0.010	0.005	0.010	0.039	2.812	1.904	1.890	1.890	1.904	1.895	1.899
0.000	-0.020	0.005	-0.005	0.005	0.015	0.044	2.656	1.899	1.890	1.885	1.904	1.899	1.899
-0.005	-0.010	0.005	-0.005	0.000	-0.005	0.044	2.808	1.904	1.895	1.890	1.904	1.895	1.895
0.000	-0.005	-0.005	0.000	0.005	0.005	0.044	2.690	1.895	1.890	1.885	1.904	1.899	1.895
-0.005	-0.005	-0.005	0.000	0.000	-0.010	0.044	2.671	1.885	1.885	1.880	1.899	1.895	1.895
-0.005	0.005	0.000	0.010	0.000	0.015	0.044	2.671	1.880	1.885	1.880	1.899	1.895	1.895
-0.005	0.005	0.005	0.015	0.000	0.010	0.044	2.676	1.870	1.875	1.875	1.895	1.890	1.890
0.010	0.010	0.000	0.010	-0.005	0.015	0.044	2.686	1.870	1.870	1.875	1.890	1.885	1.885
0.015	-0.005	0.000	0.005	-0.005	0.010	0.044	2.686	1.870	1.870	1.870	1.885	1.885	1.880
0.010	-0.005	0.000	0.005	0.000	0.000	0.039	2.671	1.870	1.865	1.870	1.885	1.885	1.880
0.005	0.000	0.005	0.010	0.000	0.000	0.039	2.671	1.870	1.865	1.870	1.890	1.885	1.880
0.000	0.005	0.000	0.010	0.010	-0.005	0.039	2.754	1.880	1.875	1.870	1.885	1.890	1.885
0.005	-0.010	0.000	0.015	0.000	-0.029	0.034	2.686	1.885	1.875	1.870	1.895	1.885	1.880
0.015	-0.005	0.000	0.010	-0.005	0.010	0.039	2.671	1.890	1.885	1.880	1.895	1.895	1.895
0.000	0.000	0.000	0.000	0.000	0.000	0.039	2.676	1.890	1.890	1.885	1.895	1.895	1.899
0.000	0.000	0.000	-0.010	0.000	0.010	0.044	2.690	1.895	1.895	1.890	1.899	1.895	1.895
0.005	-0.015	0.000	-0.015	-0.005	-0.029	0.044	2.681	1.895	1.895	1.890	1.899	1.895	1.890
0.000	0.059	0.000	-0.005	-0.010	0.000	0.044	2.671	1.895	1.914	1.895	1.909	1.895	1.895
-0.005	0.054	0.000	-0.005	-0.020	-0.010	0.044	2.710	1.890	1.899	1.899	1.909	1.895	1.895
0.000	0.005	0.000	0.000	-0.020	-0.020	0.044	2.666	1.885	1.885	1.890	1.909	1.899	1.890
-0.005	0.015	0.000	0.000	-0.020	-0.020	0.039	2.690	1.880	1.880	1.885	1.909	1.895	1.890
-0.005	0.010	0.000	0.005	-0.005	0.000	0.039	2.686	1.875	1.875	1.880	1.904	1.899	1.899
-0.005	0.005	-0.005	0.015	0.005	0.005	0.044	2.666	1.870	1.870	1.875	1.899	1.899	1.895
0.010	0.000	0.000	0.000	0.034	-0.015	0.044	2.676	1.870	1.865	1.870	1.890	1.904	1.890
0.005	0.000	0.000	-0.005	0.024	0.024	0.044	2.671	1.870	1.860	1.860	1.885	1.890	1.899
0.010	-0.010	0.005	-0.005	0.020	0.020	0.039	2.656	1.865	1.855	1.860	1.880	1.885	1.890
0.010	0.000	0.005	0.000	0.029	0.020	0.044	2.808	1.880	1.865	1.865	1.880	1.885	1.890
0.010	-0.005	0.005	0.010	0.034	0.010	0.044	2.671	1.880	1.870	1.865	1.885	1.885	1.885
0.010	-0.005	0.005	0.010	0.029	0.005	0.044	2.676	1.880	1.875	1.870	1.885	1.885	1.890
0.005	-0.005	0.005	0.005	0.044	-0.005	0.044	2.681	1.890	1.880	1.875	1.895	1.890	1.890
-0.015	0.000	0.010	0.005	0.005	-0.010	0.039	2.690	1.890	1.885	1.880	1.890	1.880	1.885
-0.005	-0.005	0.000	0.000	-0.010	-0.010	0.039	2.690	1.895	1.890	1.880	1.895	1.880	1.885
0.000	-0.010	0.000	-0.005	-0.005	-0.020	0.039	2.671	1.895	1.895	1.890	1.899	1.890	1.885
-0.005	0.000	0.005	0.000	0.000	0.000	0.044	2.666	1.895	1.895	1.895	1.904	1.895	1.899
0.000	-0.005	0.010	0.005	0.005	0.020	0.044	2.656	1.890	1.895	1.895	1.909	1.899	1.899
-0.015	-0.010	0.000	0.005	0.000	-0.010	0.044	2.642	1.875	1.885	1.885	1.909	1.899	1.890
0.005	-0.005	-0.005	0.005	-0.005	0.015	0.039	2.700	1.885	1.880	1.885	1.904	1.899	1.895
-0.005	-0.005	0.005	0.000	-0.010	0.010	0.044	2.651	1.875	1.875	1.885	1.899	1.890	1.895
0.000	0.005	0.005	0.005	-0.020	0.015	0.044	2.642	1.870	1.875	1.880	1.895	1.890	1.890
-0.010	0.005	0.005	0.000	-0.020	0.015	0.044	2.671	1.865	1.870	1.870	1.890	1.885	1.885
-0.005	0.000	0.005	0.000	-0.005	-0.010	0.044	2.661	1.860	1.860	1.865	1.885	1.885	1.875
0.000	-0.005	-0.005	-0.005	-0.015	0.000	0.039	2.749	1.865	1.855	1.860	1.880	1.880	1.880
0.005	-0.010	-0.005	-0.005	-0.015	0.005	0.039	2.676	1.870	1.855	1.855	1.875	1.875	1.880
-0.005	-0.010	0.000	0.000	-0.005	0.000	0.039	2.681	1.870	1.860	1.860	1.880	1.880	1.880
0.005	-0.005	0.000	0.000	0.010	-0.005	0.039	2.686	1.875	1.865	1.860	1.880	1.880	1.880
0.015	-0.005	0.000	0.000	0.005	-0.010	0.044	2.676	1.880	1.875	1.865	1.880	1.880	1.880
-0.005	0.010	0.000	0.000	-0.005	-0.005	0.039	2.686	1.880	1.880	1.875	1.890	1.880	1.885
0.000	0.005	0.000	0.005	-0.010	-0.015	0.044	2.671	1.890	1.890	1.880	1.895	1.885	1.880
0.005	0.005	0.005	0.005	-0.005	0.015	0.039	2.666	1.890	1.890	1.885	1.899	1.890	1.895
0.000	-0.005	0.005	0.005	-0.010	0.015	0.039	2.661	1.890	1.890	1.885	1.899	1.895	1.895
0.005	-0.010	-0.010	0.010	-0.015	0.015	0.044	2.651	1.885	1.890	1.885	1.904	1.890	1.895
0.000	-0.005	-0.005	0.000	-0.010	0.010	0.039	2.700	1.890	1.885	1.885	1.904	1.899	1.895
0.005	-0.005	-0.005	0.000	-0.005	-0.005	0.044	2.676	1.890	1.890	1.885	1.899	1.895	1.890
0.005	0.005	0.005	0.000	-0.020	-0.005	0.044	2.671	1.880	1.885	1.885	1.899	1.890	1.890
0.000	0.000	0.005	-0.005	-0.010	-0.010	0.044	2.656	1.870	1.875	1.875	1.895	1.890	1.885
0.005	0.010	0.000	0.000	0.005	-0.010	0.044	2.798	1.885	1.875	1.875	1.890	1.890	1.885
0.010	-0.005	0.005	0.005	0.068	-0.015	0.044	2.637	1.880	1.870	1.870	1.890	1.904	1.890
0.000	0.000	0.000	0.005	0.073	-0.015	0.044	2.637	1.870	1.870	1.870	1.890	1.895	1.885
-0.005	0.000	0.005	0.005	0.054	-0.020	0.044	2.671	1.870	1.870	1.865	1.885	1.890	1.890
-0.005	0.015	-0.005	0.000	0.020	0.010	0.044	2.651	1.870	1.870	1.865	1.880	1.875	1.890
0.005	0.015	0.000	0.000	-0.010	0.005	0.044	2.695	1.875	1.870	1.865	1.880	1.870	1.880
0.000	0.015	-0.005	0.000	-0.010	0.015	0.044	2.686	1.875	1.870	1.870	1.885	1.875	1.880
-0.005	0.010	0.000	0.000	-0.015	0.015	0.039	2.686	1.880	1.875	1.870	1.885	1.875	1.880
0.005	-0.005	0.000	-0.005	-0.015	0.005	0.044	2.646	1.885	1.875	1.875	1.895	1.880	1.885
0.010	-0.005	0.005	0.000	-0.020	0.005	0.044	2.700	1.890	1.885	1.880	1.899	1.885	1.885
0.010	0.010	0.000	0.010	-0.020	0.005	0.044	2.690	1.890	1.890	1.885	1.904	1.890	1.885
0.010	0.005	0.000	0.010	-0.015	0.020	0.039	2.681	1.895	1.895	1.890	1.904	1.895	1.895
0.005	0.000	0.000	0.010	-0.020	0.034	0.039	2.671	1.890	1.895	1.890	1.904	1.895	1.899
0.000	0.020	-0.005	0.000	-0.020	0.015	0.039	2.676	1.885	1.895	1.890	1.904	1.895	1.895
0.000	0.000	0.000	-0.005	-0.020	-0.039	0.039	2.676	1.880	1.885	1.890	1.904	1.895	1.880
0.005	-0.015	0.005	0.000	-0.034	-0.010	0.044	2.686	1.875	1.875	1.880	1.899	1.890	1.885
-0.010	-0.010	0.005	0.000	-0.054	-0.029	0.044	2.676	1.870	1.870	1.875	1.895	1.880	1.875
0.005	-0.005	0.000	0.000	-0.078	-0.044	0.044	2.671	1.870	1.870	1.865	1.890	1.875	1.870
0.000	-0.005	0.000	-0.005	-0.063	-0.059	0.044	2.676	1.865	1.860	1.865	1.885	1.875	1.865
0.005	0.005	0.000	0.000	0.034	-0.020	0.044	2.686	1.860	1.865	1.865	1.885	1.904	1.885
0.000	0.005	0.000	0.000	0.039	0.005	0.039	2.686	1.860	1.860	1.860	1.880	1.895	1.895
-0.010	0.000	0.005	0.000	0.024	0.015	0.044	2.690	1.865	1.855	1.860	1.880	1.885	1.895
0.000	0.024	0.005	-0.005	0.039	0.015	0.044	2.690	1.875	1.870	1.865	1.880	1.890	1.890
-0.005	0.005	0.000	0.000	0.132	0.034	0.039	2.705	1.880	1.870	1.870	1.885	1.914	1.909
0.000	0.015	-0.005	0.000	0.142	0.029	0.039	2.686	1.885	1.875	1.870	1.885	1.909	1.909
0.000	-0.020	0.005	0.005	0.107	-0.005	0.044	2.681	1.890	1.875	1.875	1.890	1.895	1.899
0.020	-0.024	0.005	0.010	0.137	0.015	0.044	2.695	1.904	1.885	1.880	1.899	1.904	1.904
0.020	-0.010	0.000	0.010	0.044	0.010	0.044	2.686	1.904	1.899	1.885	1.899	1.880	1.899
0.005	-0.010	0.005	0.010	0.010	0.015	0.044	2.695	1.904	1.899	1.890	1.904	1.875	1.890
-0.005	0.000	0.000	0.010	0.005	-0.010	0.044	2.690	1.895	1.904	1.890	1.904	1.885	1.885
0.000	0.083	0.000	0.010	-0.034	0.005	0.044	2.700	1.895	1.924	1.899	1.909	1.875	1.885
-0.005	0.039	0.000	0.000	-0.054	0.010	0.039	2.676	1.880	1.895	1.895	1.904	1.880	1.880
-0.005	-0.010	0.000	0.000	-0.039	0.015	0.039	2.681	1.875	1.870	1.885	1.899	1.885	1.880
-0.005	-0.020	-0.005	-0.005	-0.039	0.015	0.039	2.676	1.870	1.865	1.875	1.895	1.885	1.880
-0.005	-0.010	0.000	-0.005	-0.039	0.005	0.039	2.686	1.870	1.865	1.870	1.895	1.885	1.875
-0.005	0.010	-0.005	0.000	-0.024	0.010	0.044	2.690	1.865	1.865	1.865	1.885	1.885	1.875
-0.005	0.015	0.000	0.000	-0.029	-0.024	0.044	2.671	1.860	1.865	1.865	1.880	1.880	1.870
0.005	-0.010	0.000	0.010	-0.024	-0.029	0.044	2.676	1.870	1.860	1.860	1.885	1.880	1.870
0.010	-0.005	0.000	0.010	-0.020	0.010	0.039	2.686	1.870	1.865	1.860	1.885	1.885	1.885
0.000	-0.010	0.000	0.005	-0.010	0.005	0.039	2.651	1.870	1.865	1.865	1.880	1.885	1.885
0.000	-0.005	0.000	-0.005	-0.005	0.005	0.039	2.681	1.875	1.875	1.870	1.880	1.880	1.880
0.000	-0.010	0.005	-0.015	-0.010	0.010	0.044	2.676	1.880	1.875	1.870	1.885	1.885	1.890
0.005	-0.010	0.005	-0.015	-0.020	-0.005	0.044	2.690	1.890	1.885	1.880	1.885	1.880	1.885
0.000	-0.010	0.000	-0.015	-0.010	0.005	0.039	2.690	1.890	1.885	1.880	1.895	1.890	1.890
0.010	-0.024	0.000	-0.010	-0.015	-0.005	0.039	2.690	1.895	1.890	1.885	1.899	1.895	1.885
0.005	-0.005	0.000	-0.005	0.000	-0.015	0.044	2.676	1.895	1.895	1.890	1.904	1.899	1.890
-0.010	0.000	0.000	0.000	0.000	0.000	0.044	2.676	1.890	1.890	1.890	1.904	1.899	1.895
-0.010	0.000	0.005	0.000	-0.005	0.010	0.044	2.646	1.880	1.890	1.890	1.904	1.899	1.904
0.005	-0.010	0.000	0.015	0.000	0.029	0.044	2.686	1.880	1.880	1.885	1.904	1.899	1.904
-0.005	0.015	0.005	0.010	0.005	-0.005	0.039	2.690	1.875	1.880	1.880	1.904	1.895	1.895
-0.005	0.020	0.005	0.015	-0.010	0.015	0.044	2.676	1.875	1.875	1.875	1.895	1.890	1.890
0.020	0.010	0.000	0.005	-0.005	-0.005	0.044	2.676	1.870	1.870	1.870	1.890	1.885	1.880
0.010	0.005	0.005	0.000	0.024	-0.029	0.044	2.690	1.870	1.860	1.865	1.885	1.890	1.875
0.005	0.000	0.000	0.005	0.015	-0.015	0.044	2.681	1.865	1.855	1.860	1.880	1.885	1.880
0.015	0.000	0.010	0.010	0.015	-0.010	0.044	2.681	1.870	1.865	1.860	1.880	1.880	1.880
0.010	0.005	-0.005	0.010	0.000	-0.010	0.044	2.681	1.870	1.865	1.860	1.880	1.880	1.880
0.005	0.010	0.005	0.010	0.000	0.005	0.044	2.695	1.875	1.870	1.870	1.885	1.880	1.885
-0.005	0.005	0.005	0.010	0.034	0.010	0.044	2.690	1.875	1.870	1.870	1.890	1.895	1.895
0.000	0.005	0.005	0.010	0.015	0.020	0.039	2.686	1.885	1.880	1.875	1.890	1.890	1.895
0.005	0.010	0.005	0.005	-0.010	0.024	0.039	2.725	1.899	1.890	1.880	1.890	1.885	1.890
0.000	0.005	0.000	0.015	0.000	0.000	0.039	2.686	1.895	1.890	1.885	1.899	1.890	1.890
0.000	0.020	0.000	0.005	-0.010	0.010	0.039	2.681	1.895	1.899	1.890	1.899	1.890	1.890
-0.005	0.005	0.005	-0.005	-0.005	-0.010	0.039	2.700	1.895	1.895	1.890	1.899	1.895	1.885
-0.005	0.000	0.000	-0.005	0.015	-0.005	0.044	2.695	1.890	1.890	1.890	1.899	1.899	1.895
-0.005	-0.005	0.005	-0.005	0.015	0.005	0.044	2.686	1.880	1.880	1.885	1.899	1.895	1.895
0.005	-0.005	0.005	-0.005	-0.010	0.010	0.039	2.690	1.880	1.875	1.880	1.899	1.885	1.890
-0.005	-0.015	0.000	-0.005	-0.015	0.010	0.039	2.690	1.870	1.870	1.875	1.895	1.885	1.885
0.000	0.000	0.000	0.000	-0.010	0.005	0.044	2.671	1.870	1.870	1.870	1.890	1.885	1.885
0.005	0.000	0.005	0.000	-0.005	0.000	0.044	2.686	1.870	1.870	1.870	1.890	1.880	1.880
0.010	0.005	-0.005	0.005	-0.005	-0.010	0.044	2.690	1.870	1.865	1.865	1.880	1.880	1.875
0.010	0.005	0.000	0.000	-0.005	-0.024	0.044	2.676	1.870	1.870	1.865	1.880	1.880	1.870
-0.005	0.005	0.000	-0.005	0.000	-0.005	0.044	2.690	1.865	1.865	1.865	1.875	1.880	1.880
0.005	-0.005	-0.005	-0.005	0.000	0.005	0.039	2.690	1.870	1.865	1.860	1.880	1.880	1.885
0.005	0.000	0.000	0.005	-0.005	0.000	0.044	2.700	1.880	1.870	1.865	1.885	1.880	1.880
-0.005	0.000	0.010	0.005	0.005	0.010	0.044	2.695	1.885	1.875	1.875	1.890	1.885	1.885
-0.005	0.000	0.005	0.005	0.005	0.000	0.044	2.695	1.890	1.880	1.875	1.890	1.890	1.885
0.005	-0.005	0.000	0.005	0.010	0.010	0.044	2.690	1.895	1.885	1.880	1.895	1.890	1.890
-0.015	0.010	0.005	0.005	0.005	0.010	0.044	2.686	1.890	1.895	1.890	1.899	1.895	1.890
0.000	-0.020	0.005	0.000	0.000	0.005	0.039	2.686	1.895	1.885	1.890	1.899	1.895	1.895
-0.005	-0.024	0.005	0.000	0.005	0.000	0.044	2.744	1.899	1.890	1.890	1.904	1.895	1.895
0.000	0.024	0.010	-0.005	0.000	0.010	0.039	2.690	1.899	1.899	1.895	1.904	1.895	1.890
0.010	0.010	0.005	0.000	-0.010	-0.020	0.044	2.690	1.890	1.895	1.890	1.904	1.890	1.885
0.005	0.015	0.000	0.000	-0.034	0.005	0.044	2.686	1.880	1.890	1.885	1.899	1.885	1.890
-0.015	-0.005	0.005	-0.005	-0.034	0.005	0.039	2.681	1.870	1.875	1.880	1.895	1.885	1.885
-0.005	-0.020	-0.005	-0.005	-0.034	0.010	0.039	2.681	1.870	1.865	1.870	1.890	1.885	1.880
0.000	-0.010	0.000	-0.005	-0.034	0.010	0.039	2.671	1.865	1.865	1.870	1.890	1.880	1.880
0.005	-0.010	0.000	-0.010	-0.024	0.015	0.044	2.681	1.865	1.865	1.865	1.885	1.880	1.880
-0.005	-0.015	0.000	-0.015	-0.029	-0.010	0.044	2.646	1.865	1.860	1.860	1.880	1.880	1.875
-0.005	0.000	0.005	-0.005	0.024	0.005	0.044	2.695	1.865	1.865	1.865	1.885	1.895	1.885
-0.005	0.010	0.005	0.000	0.054	0.010	0.044	2.686	1.875	1.870	1.870	1.885	1.904	1.890
-0.010	-0.005	0.000	0.005	0.103	-0.005	0.044	2.681	1.880	1.870	1.870	1.890	1.909	1.890
0.000	-0.015	0.000	0.010	0.054	0.005	0.044	2.686	1.885	1.875	1.870	1.895	1.890	1.899
0.005	-0.020	0.000	0.010	0.020	-0.005	0.044	2.681	1.890	1.880	1.880	1.895	1.885	1.895
0.000	-0.005	0.000	0.005	0.044	0.010	0.044	2.690	1.890	1.890	1.880	1.899	1.895	1.899
0.000	-0.010	-0.005	0.010	0.034	0.000	0.044	2.681	1.895	1.895	1.885	1.904	1.895	1.899
-0.010	0.078	0.005	0.010	0.020	0.000	0.044	2.695	1.899	1.919	1.895	1.909	1.895	1.895
0.005	0.034	0.010	0.020	0.010	-0.010	0.044	2.695	1.899	1.904	1.899	1.914	1.899	1.895
0.000	0.005	0.005	0.020	0.024	0.010	0.044	2.690	1.890	1.890	1.895	1.909	1.904	1.899
0.010	0.000	0.000	0.015	0.010	0.005	0.044	2.690	1.885	1.880	1.885	1.904	1.895	1.895
0.005	0.000	-0.005	0.005	-0.039	0.000	0.044	2.686	1.880	1.880	1.875	1.895	1.880	1.885
0.005	-0.005	0.005	0.000	-0.029	-0.010	0.039	2.671	1.875	1.875	1.875	1.890	1.880	1.880
0.000	-0.005	0.005	0.000	0.000	0.005	0.039	2.686	1.870	1.870	1.870	1.890	1.890	1.890
0.005	0.005	-0.005	-0.005	0.000	0.010	0.039	2.681	1.870	1.870	1.865	1.885	1.885	1.885
-0.005	0.005	0.000	0.000	-0.015	0.000	0.044	2.705	1.875	1.870	1.865	1.885	1.875	1.880
0.010	0.010	0.000	-0.005	-0.024	0.005	0.039	2.671	1.875	1.870	1.865	1.880	1.875	1.880
0.010	-0.010	0.000	0.010	-0.029	0.024	0.044	2.690	1.875	1.865	1.865	1.885	1.880	1.885
0.005	0.000	0.000	0.000	-0.034	0.015	0.044	2.690	1.875	1.870	1.865	1.885	1.875	1.880
0.005	0.000	0.005	-0.005	-0.020	0.010	0.039	2.695	1.890	1.875	1.870	1.890	1.885	1.880
0.010	0.005	0.005	-0.005	0.010	0.005	0.044	2.690	1.890	1.885	1.875	1.895	1.895	1.890
0.015	0.010	0.000	0.005	0.000	0.015	0.044	2.676	1.895	1.890	1.880	1.899	1.895	1.895
0.010	0.010	0.005	-0.005	-0.010	0.015	0.044	2.695	1.895	1.890	1.890	1.904	1.895	1.895
0.000	0.000	0.000	0.000	-0.020	-0.005	0.044	2.671	1.890	1.890	1.890	1.904	1.895	1.890
0.000	-0.005	0.005	-0.005	-0.010	-0.049	0.044	2.686	1.899	1.895	1.890	1.904	1.895	1.880
0.000	-0.005	0.000	-0.005	-0.029	-0.020	0.044	2.695	1.895	1.890	1.890	1.904	1.895	1.890
-0.005	-0.005	0.000	-0.005	-0.034	0.000	0.044	2.681	1.885	1.890	1.890	1.904	1.890	1.895
-0.005	0.000	0.000	0.000	-0.039	0.000	0.039	2.676	1.885	1.890	1.885	1.904	1.895	1.895
-0.005	0.005	0.005	0.000	-0.039	-0.034	0.044	2.676	1.875	1.880	1.880	1.899	1.890	1.880
-0.005	0.005	0.005	0.000	-0.034	0.000	0.044	2.686	1.870	1.875	1.875	1.895	1.890	1.890
0.010	0.000	0.000	0.005	0.059	-0.010	0.039	2.690	1.870	1.870	1.870	1.895	1.914	1.895
-0.005	0.010	0.000	0.005	0.073	-0.005	0.039	2.749	1.870	1.870	1.870	1.890	1.909	1.899
0.010	0.000	0.000	0.005	0.015	-0.020	0.039	2.686	1.875	1.865	1.870	1.885	1.885	1.890
0.010	-0.005	0.005	0.010	0.049	0.034	0.044	2.686	1.875	1.870	1.870	1.890	1.899	1.904
-0.010	0.000	0.010	0.010	0.078	0.054	0.044	2.676	1.875	1.870	1.870	1.890	1.904	1.909
0.000	0.005	0.005	-0.005	0.107	0.049	0.044	2.690	1.885	1.880	1.870	1.885	1.904	1.909
-0.005	0.000	0.005	0.000	0.073	0.015	0.039	2.695	1.890	1.880	1.875	1.890	1.890	1.895
-0.005	0.000	0.000	-0.005	0.059	0.015	0.039	2.700	1.899	1.890	1.880	1.895	1.890	1.895
-0.005	0.000	-0.005	0.000	0.005	0.000	0.044	2.681	1.899	1.895	1.885	1.899	1.880	1.890
-0.010	0.015	0.005	-0.005	-0.005	-0.010	0.039	2.646	1.895	1.904	1.895	1.904	1.880	1.890
-0.005	0.005	0.005	0.000	-0.015	-0.015	0.039	2.676	1.890	1.899	1.899	1.909	1.885	1.885
0.000	0.000	0.000	0.005	-0.029	0.000	0.039	2.700	1.895	1.895	1.890	1.909	1.885	1.890
-0.010	-0.015	0.000	0.010	-0.034	0.000	0.039	2.690	1.890	1.890	1.890	1.909	1.890	1.890
0.010	-0.005	0.005	0.000	-0.029	-0.010	0.044	2.695	1.890	1.890	1.890	1.904	1.895	1.885
0.015	0.010	0.000	-0.005	-0.024	-0.005	0.039	2.681	1.885	1.890	1.885	1.904	1.890	1.885
0.010	0.000	0.000	0.000	-0.029	-0.005	0.044	2.686	1.880	1.880	1.880	1.899	1.895	1.885
0.020	0.000	0.000	0.005	-0.020	-0.024	0.044	2.690	1.875	1.875	1.875	1.899	1.890	1.880
0.010	0.005	0.005	0.005	-0.015	0.010	0.039	2.686	1.860	1.870	1.870	1.890	1.890	1.890
0.000	0.005	-0.005	0.005	-0.010	0.005	0.044	2.681	1.865	1.865	1.865	1.890	1.890	1.890
0.005	0.000	-0.005	0.005	0.005	0.005	0.044	2.671	1.865	1.860	1.865	1.885	1.890	1.885
0.000	-0.010	0.005	0.010	-0.010	0.005	0.039	2.681	1.865	1.860	1.865	1.885	1.885	1.890
-0.005	-0.020	0.000	0.005	-0.010	0.010	0.039	2.676	1.870	1.860	1.860	1.885	1.885	1.885
0.005	0.000	-0.005	0.000	-0.010	-0.005	0.039	2.681	1.880	1.875	1.865	1.880	1.880	1.885
0.005	0.000	-0.005	-0.005	-0.010	0.005	0.044	2.671	1.885	1.875	1.870	1.885	1.885	1.890
0.015	0.000	0.000	0.000	-0.010	0.005	0.039	2.676	1.895	1.885	1.880	1.890	1.885	1.890
0.005	0.000	0.000	-0.005	0.000	0.005	0.044	2.715	1.895	1.890	1.880	1.895	1.890	1.890
