0.054	0.005	0.000	-0.015	0.005	0.005	0.044	2.695	3.086	2.451	2.290	2.178	2.183	2.158
-0.024	-0.005	0.000	-0.005	0.005	0.015	0.044	2.686	2.793	2.554	2.363	2.231	2.192	2.168
-0.078	0.005	0.005	0.005	0.000	0.000	0.044	2.686	2.588	2.573	2.422	2.290	2.217	2.183
-0.103	0.000	0.000	0.010	-0.005	-0.005	0.044	2.686	2.456	2.544	2.461	2.349	2.251	2.197
-0.083	0.000	0.000	0.015	0.005	-0.005	0.044	2.690	2.378	2.505	2.476	2.393	2.295	2.227
-0.083	-0.005	0.000	0.020	0.005	0.000	0.044	2.700	2.319	2.461	2.480	2.427	2.334	2.261
-0.049	0.000	0.000	0.034	0.005	-0.005	0.049	2.676	2.275	2.422	2.466	2.446	2.363	2.290
-0.024	0.000	-0.005	0.034	0.005	-0.005	0.049	2.690	2.246	2.378	2.446	2.456	2.388	2.310
0.000	0.010	0.000	0.020	0.000	0.000	0.044	2.690	2.231	2.339	2.417	2.446	2.402	2.339
0.000	-0.005	0.005	0.010	-0.005	0.020	0.044	2.695	2.212	2.300	2.388	2.432	2.412	2.363
-0.024	-0.005	0.005	-0.005	-0.005	0.010	0.044	2.676	2.187	2.271	2.354	2.412	2.412	2.373
0.005	-0.005	0.000	-0.020	-0.005	0.000	0.044	2.690	2.192	2.246	2.319	2.388	2.397	2.378
0.029	0.000	0.000	-0.020	0.000	0.000	0.044	2.676	2.183	2.227	2.290	2.363	2.388	2.378
0.029	-0.005	0.000	-0.010	-0.005	0.010	0.044	2.690	2.178	2.212	2.266	2.344	2.373	2.378
0.024	0.000	0.000	0.000	-0.005	-0.005	0.044	2.695	2.173	2.197	2.246	2.319	2.354	2.368
0.020	-0.005	0.000	0.005	-0.005	0.005	0.044	2.671	2.163	2.187	2.227	2.300	2.339	2.358
0.015	0.005	0.000	0.005	-0.010	0.000	0.044	2.686	2.163	2.183	2.212	2.280	2.319	2.349
0.005	0.020	0.000	0.005	-0.005	0.005	0.044	2.690	2.158	2.178	2.202	2.266	2.305	2.339
-0.010	0.029	0.000	0.000	0.000	0.005	0.044	2.686	2.163	2.183	2.197	2.246	2.290	2.324
0.005	0.024	0.000	-0.005	0.000	0.010	0.044	2.690	2.173	2.183	2.192	2.241	2.280	2.319
0.078	0.020	0.005	-0.005	-0.005	0.015	0.044	2.686	2.197	2.192	2.197	2.236	2.266	2.305
0.093	0.020	0.005	0.000	0.000	0.010	0.049	2.686	2.192	2.192	2.197	2.231	2.261	2.295
0.063	0.005	0.000	-0.005	0.005	0.029	0.049	2.690	2.187	2.192	2.197	2.231	2.256	2.295
0.020	0.000	0.010	-0.005	0.005	0.010	0.044	2.700	2.178	2.187	2.197	2.231	2.246	2.275
-0.029	0.005	0.005	-0.005	-0.005	0.024	0.049	2.681	2.153	2.183	2.192	2.222	2.236	2.275
-0.054	0.005	0.005	0.000	-0.005	0.029	0.049	2.681	2.144	2.173	2.187	2.217	2.231	2.266
-0.068	0.015	0.005	-0.010	0.000	0.005	0.049	2.686	2.148	2.173	2.183	2.212	2.222	2.246
-0.054	0.005	0.005	-0.005	0.000	0.005	0.049	2.681	2.144	2.158	2.173	2.207	2.217	2.236
-0.034	0.010	0.000	-0.005	-0.010	0.000	0.044	2.681	2.148	2.153	2.163	2.197	2.207	2.227
0.005	0.000	-0.005	0.000	0.005	-0.005	0.049	2.686	2.148	2.148	2.158	2.187	2.202	2.217
0.005	0.000	0.000	0.005	0.010	-0.029	0.044	2.681	2.134	2.139	2.148	2.183	2.192	2.202
0.054	-0.010	-0.005	0.010	0.010	-0.010	0.044	2.681	2.148	2.139	2.144	2.173	2.187	2.202
0.098	-0.010	-0.005	0.000	0.015	-0.020	0.044	2.686	2.148	2.139	2.139	2.168	2.178	2.192
0.044	-0.005	-0.005	0.000	0.005	-0.049	0.044	2.686	2.119	2.134	2.134	2.163	2.168	2.183
-0.024	-0.010	0.000	0.000	0.010	-0.039	0.044	2.686	2.100	2.124	2.134	2.158	2.168	2.183
-0.059	-0.005	0.000	0.000	0.020	-0.024	0.044	2.690	2.095	2.119	2.129	2.158	2.168	2.183
-0.078	-0.005	0.005	0.005	0.015	-0.010	0.049	2.676	2.100	2.114	2.129	2.158	2.163	2.183
-0.083	0.000	0.000	-0.005	0.005	0.005	0.049	2.700	2.109	2.119	2.129	2.153	2.163	2.178
-0.059	0.005	0.000	0.000	0.024	0.020	0.049	2.690	2.124	2.129	2.129	2.158	2.168	2.183
-0.015	0.000	-0.005	0.000	0.010	0.000	0.044	2.681	2.134	2.134	2.134	2.158	2.158	2.178
0.024	0.005	0.000	0.000	0.005	0.029	0.044	2.690	2.144	2.139	2.139	2.158	2.158	2.183
0.024	0.000	0.000	-0.005	0.005	-0.005	0.044	2.690	2.134	2.139	2.139	2.158	2.158	2.168
0.015	-0.005	0.005	-0.005	0.010	0.000	0.044	2.700	2.124	2.134	2.134	2.158	2.158	2.163
0.044	0.005	0.000	0.005	0.020	-0.020	0.044	2.681	2.119	2.134	2.134	2.153	2.158	2.163
0.054	0.005	0.005	0.010	0.020	0.000	0.044	2.686	2.109	2.124	2.129	2.153	2.153	2.158
0.054	-0.010	0.000	0.000	0.010	0.000	0.044	2.690	2.100	2.109	2.124	2.148	2.148	2.158
0.010	-0.005	0.010	0.015	0.015	-0.015	0.049	2.695	2.080	2.100	2.114	2.144	2.139	2.144
-0.010	0.000	0.005	0.015	0.005	-0.015	0.044	2.676	2.065	2.085	2.104	2.134	2.134	2.139
-0.005	0.000	0.010	0.015	0.010	-0.015	0.044	2.686	2.065	2.075	2.095	2.124	2.129	2.134
0.010	-0.020	0.005	0.010	0.005	-0.010	0.044	2.690	2.070	2.070	2.085	2.119	2.124	2.129
-0.015	-0.015	0.010	0.005	0.010	-0.029	0.039	2.695	2.061	2.065	2.075	2.109	2.119	2.124
-0.005	-0.010	0.000	0.000	-0.005	0.005	0.044	2.686	2.065	2.070	2.075	2.104	2.114	2.129
-0.020	0.005	0.000	0.005	-0.010	0.000	0.044	2.681	2.065	2.075	2.080	2.104	2.109	2.129
-0.029	-0.005	-0.005	0.005	-0.020	0.010	0.044	2.695	2.070	2.075	2.075	2.104	2.104	2.124
-0.010	-0.005	-0.005	0.000	-0.020	0.010	0.044	2.686	2.080	2.080	2.080	2.104	2.104	2.119
0.020	-0.005	-0.005	-0.010	-0.005	0.015	0.049	2.686	2.090	2.090	2.085	2.100	2.109	2.124
0.039	0.015	-0.005	-0.005	-0.005	0.015	0.044	2.686	2.100	2.100	2.090	2.109	2.109	2.124
0.059	0.005	-0.005	0.000	0.000	0.010	0.044	2.686	2.095	2.100	2.100	2.114	2.114	2.124
0.024	0.010	-0.005	0.015	0.005	0.020	0.044	2.690	2.070	2.090	2.095	2.114	2.114	2.124
0.000	0.010	0.000	0.015	-0.005	0.024	0.049	2.690	2.061	2.080	2.090	2.114	2.109	2.119
0.000	0.005	0.005	0.010	-0.039	0.000	0.049	2.690	2.061	2.075	2.085	2.104	2.095	2.104
-0.010	0.010	0.000	0.000	-0.010	0.000	0.049	2.681	2.046	2.065	2.075	2.100	2.100	2.100
-0.024	0.010	0.005	0.000	-0.005	0.024	0.044	2.676	2.036	2.056	2.065	2.095	2.095	2.104
-0.020	0.005	0.000	0.005	0.000	0.020	0.044	2.681	2.031	2.041	2.061	2.090	2.095	2.100
-0.020	0.000	0.005	0.000	0.000	0.024	0.049	2.695	2.031	2.036	2.051	2.080	2.090	2.095
-0.044	0.000	0.005	0.000	0.000	0.005	0.044	2.676	2.017	2.026	2.041	2.070	2.080	2.085
-0.044	0.005	0.005	0.000	0.010	0.020	0.049	2.686	2.026	2.026	2.036	2.065	2.075	2.085
-0.020	-0.005	0.000	-0.005	0.005	0.005	0.049	2.690	2.026	2.026	2.031	2.056	2.070	2.080
-0.005	-0.005	0.010	-0.015	0.000	0.000	0.039	2.695	2.041	2.031	2.031	2.056	2.061	2.070
0.093	0.000	0.005	-0.005	0.010	0.005	0.044	2.690	2.075	2.051	2.041	2.065	2.065	2.075
0.142	0.000	0.005	0.010	0.015	0.005	0.044	2.681	2.080	2.061	2.046	2.070	2.070	2.075
0.088	0.000	0.000	0.015	0.000	0.005	0.044	2.686	2.051	2.061	2.051	2.070	2.065	2.075
0.005	0.000	0.000	0.020	-0.010	0.015	0.044	2.681	2.026	2.056	2.056	2.075	2.070	2.080
-0.068	0.024	-0.005	0.010	-0.024	-0.020	0.044	2.695	2.012	2.051	2.061	2.075	2.065	2.065
-0.112	0.015	0.000	0.000	-0.044	0.000	0.044	2.686	2.007	2.031	2.051	2.070	2.061	2.070
-0.098	0.000	-0.005	-0.010	-0.054	0.000	0.044	2.695	2.017	2.026	2.041	2.065	2.061	2.065
-0.063	0.010	-0.005	0.000	-0.005	0.000	0.044	2.676	2.026	2.031	2.036	2.065	2.070	2.070
-0.039	0.005	-0.005	0.005	-0.010	-0.005	0.049	2.686	2.031	2.026	2.036	2.065	2.065	2.070
-0.020	0.005	0.000	0.000	-0.005	0.000	0.049	2.695	2.026	2.026	2.026	2.056	2.061	2.065
0.000	-0.005	0.005	0.005	0.029	-0.005	0.044	2.676	2.021	2.021	2.026	2.046	2.061	2.061
0.015	-0.005	0.000	0.000	0.024	-0.005	0.049	2.681	2.021	2.017	2.017	2.041	2.051	2.061
0.015	-0.005	0.005	0.000	0.034	0.005	0.044	2.695	2.017	2.012	2.012	2.041	2.051	2.056
0.034	-0.005	0.005	0.000	0.029	0.015	0.044	2.690	2.012	2.012	2.012	2.031	2.041	2.051
0.039	-0.010	0.005	-0.005	0.005	0.015	0.044	2.686	2.012	2.012	2.012	2.031	2.031	2.046
0.039	0.000	0.005	-0.010	0.005	0.000	0.044	2.681	2.007	2.012	2.007	2.026	2.026	2.041
0.034	0.000	0.000	-0.010	0.005	-0.005	0.044	2.690	2.007	2.012	2.007	2.026	2.026	2.036
0.039	-0.005	-0.005	-0.010	0.015	0.005	0.044	2.686	2.012	2.017	2.012	2.031	2.031	2.041
0.054	0.005	0.005	-0.010	0.015	-0.010	0.044	2.690	2.017	2.021	2.017	2.036	2.031	2.036
0.078	0.000	0.000	0.000	0.020	0.020	0.044	2.686	2.026	2.026	2.026	2.041	2.041	2.051
0.078	0.005	0.000	0.005	0.024	0.005	0.044	2.681	2.026	2.026	2.026	2.046	2.041	2.046
0.039	0.000	0.000	0.010	0.020	0.020	0.044	2.695	2.017	2.026	2.026	2.051	2.046	2.051
-0.010	-0.010	0.005	0.015	0.005	0.015	0.044	2.686	1.997	2.017	2.026	2.051	2.041	2.051
-0.044	0.000	0.000	0.020	0.000	0.015	0.049	2.690	1.992	2.007	2.021	2.046	2.036	2.046
-0.039	0.000	0.000	0.010	-0.005	0.015	0.049	2.690	1.997	2.002	2.012	2.041	2.031	2.041
-0.044	-0.005	0.000	0.000	-0.010	0.000	0.049	2.695	1.992	1.997	2.002	2.031	2.031	2.036
-0.049	-0.015	0.000	0.005	-0.005	0.000	0.049	2.700	1.987	1.987	1.997	2.026	2.026	2.031
-0.059	-0.010	0.005	0.005	0.000	-0.010	0.044	2.681	1.978	1.982	1.987	2.017	2.021	2.021
-0.049	-0.010	0.000	0.005	0.000	-0.015	0.044	2.681	1.978	1.978	1.982	2.007	2.017	2.021
-0.029	0.000	0.000	0.005	-0.005	0.000	0.049	2.690	1.982	1.978	1.982	2.007	2.012	2.021
-0.010	-0.005	0.010	0.005	0.005	0.015	0.044	2.690	1.987	1.982	1.982	2.002	2.007	2.017
0.015	0.000	0.010	0.000	-0.005	0.010	0.049	2.690	1.992	1.982	1.982	2.002	2.002	2.012
0.015	0.010	0.000	0.000	0.000	-0.010	0.049	2.690	1.992	1.987	1.978	1.997	1.997	2.002
0.010	0.010	0.000	0.005	-0.005	-0.010	0.049	2.695	1.997	1.992	1.987	2.002	2.002	2.007
0.039	0.015	0.005	0.010	0.005	-0.010	0.049	2.686	2.002	2.002	1.992	2.007	2.007	2.007
0.068	0.005	0.005	0.005	-0.005	0.000	0.049	2.686	2.007	2.002	1.997	2.012	2.007	2.012
0.054	0.015	0.005	-0.005	-0.005	-0.020	0.049	2.700	2.007	2.007	2.007	2.017	2.012	2.007
0.015	0.010	0.000	-0.010	0.005	0.015	0.044	2.686	1.992	2.002	2.007	2.017	2.017	2.021
0.005	0.005	0.005	-0.020	0.005	0.020	0.044	2.686	1.987	2.002	2.007	2.021	2.017	2.026
-0.010	0.005	0.000	-0.005	0.010	0.005	0.044	2.686	1.982	1.997	2.002	2.026	2.017	2.017
-0.034	0.015	0.005	0.005	0.000	-0.015	0.049	2.695	1.982	1.992	2.002	2.026	2.017	2.012
-0.044	0.000	0.000	0.015	0.015	-0.034	0.044	2.690	1.973	1.982	1.992	2.021	2.021	2.012
-0.029	0.005	0.000	0.005	0.029	0.005	0.049	2.686	1.973	1.978	1.987	2.012	2.021	2.021
-0.029	0.010	0.000	0.005	0.000	0.000	0.044	2.686	1.973	1.973	1.978	2.007	2.002	2.012
-0.029	0.020	0.000	0.005	-0.010	-0.010	0.049	2.695	1.968	1.973	1.973	1.997	1.997	2.002
-0.005	0.010	0.000	0.005	-0.010	-0.005	0.044	2.686	1.968	1.968	1.968	1.992	1.992	2.002
0.010	0.015	-0.010	0.020	0.015	-0.010	0.044	2.681	1.963	1.958	1.963	1.992	1.992	1.997
0.010	0.020	-0.005	0.015	0.015	0.000	0.044	2.686	1.968	1.963	1.963	1.987	1.987	1.997
0.063	0.005	0.000	0.000	-0.005	0.000	0.049	2.661	1.978	1.963	1.963	1.982	1.982	1.992
0.049	-0.005	0.005	-0.005	0.005	-0.010	0.044	2.729	1.978	1.968	1.963	1.982	1.982	1.987
0.015	-0.005	0.005	-0.005	0.010	-0.010	0.049	2.769	1.978	1.973	1.968	1.987	1.987	1.992
-0.005	0.005	0.005	0.000	0.005	-0.010	0.049	2.651	1.968	1.978	1.973	1.992	1.987	1.992
-0.020	0.005	0.005	0.015	-0.005	0.020	0.044	2.651	1.968	1.973	1.978	2.002	1.992	2.002
0.010	-0.005	0.000	0.015	-0.005	0.034	0.044	2.671	1.982	1.978	1.978	2.002	1.992	2.007
0.034	0.005	0.000	0.015	-0.005	0.039	0.044	2.749	2.002	1.992	1.982	2.002	1.997	2.007
0.034	0.000	0.000	0.005	0.015	0.015	0.044	2.681	1.987	1.992	1.987	2.002	2.007	2.002
0.005	0.000	-0.005	0.000	0.029	0.020	0.044	2.642	1.968	1.982	1.982	2.002	2.002	2.007
-0.015	-0.005	0.000	-0.010	0.029	0.020	0.049	2.661	1.963	1.973	1.982	1.997	2.002	2.002
-0.029	-0.005	-0.005	-0.010	0.015	0.000	0.049	2.627	1.958	1.968	1.973	1.992	1.987	1.992
-0.034	0.000	0.000	-0.015	0.000	-0.010	0.049	2.749	1.958	1.963	1.973	1.992	1.982	1.987
-0.034	0.000	0.000	-0.005	-0.010	0.000	0.044	2.715	1.958	1.953	1.963	1.982	1.978	1.982
-0.039	-0.010	0.000	-0.005	-0.020	0.000	0.049	2.725	1.953	1.948	1.953	1.982	1.973	1.978
-0.005	-0.005	0.005	-0.010	-0.005	-0.010	0.049	2.661	1.958	1.948	1.948	1.973	1.973	1.968
0.015	-0.010	0.000	0.000	0.000	-0.015	0.049	2.617	1.948	1.948	1.948	1.973	1.973	1.973
0.010	0.005	0.000	0.000	-0.015	-0.015	0.044	2.666	1.943	1.948	1.948	1.973	1.968	1.973
0.083	0.020	0.000	0.010	-0.015	-0.005	0.049	2.671	1.968	1.963	1.948	1.973	1.968	1.973
0.093	0.005	0.010	0.010	-0.010	-0.020	0.049	2.725	1.978	1.963	1.953	1.973	1.968	1.968
0.068	0.000	0.010	0.015	-0.010	0.020	0.044	2.705	1.963	1.968	1.958	1.978	1.973	1.987
0.044	0.000	0.005	0.005	-0.010	0.024	0.044	2.710	1.963	1.963	1.963	1.982	1.978	1.987
0.005	-0.005	0.005	0.000	0.005	0.024	0.044	2.671	1.953	1.963	1.968	1.982	1.987	1.987
0.034	-0.020	0.005	0.000	0.000	0.020	0.044	2.715	1.978	1.968	1.968	1.982	1.982	1.987
0.078	-0.010	0.010	-0.005	0.000	0.015	0.044	2.666	1.978	1.978	1.973	1.987	1.987	1.987
0.000	-0.005	0.005	0.000	0.005	0.010	0.044	2.676	1.948	1.968	1.968	1.992	1.987	1.987
-0.068	0.005	0.005	0.000	0.010	0.005	0.044	2.700	1.934	1.963	1.968	1.987	1.987	1.987
-0.151	0.020	0.000	0.000	0.020	-0.024	0.044	2.705	1.919	1.948	1.958	1.987	1.987	1.978
-0.156	0.020	-0.005	0.005	0.029	0.000	0.044	2.671	1.919	1.938	1.953	1.982	1.982	1.982
-0.137	-0.010	0.000	0.005	0.005	-0.010	0.044	2.676	1.929	1.919	1.938	1.968	1.968	1.973
-0.078	-0.015	0.000	0.005	-0.020	-0.010	0.049	2.681	1.943	1.924	1.934	1.963	1.963	1.968
-0.044	-0.010	0.000	0.005	0.000	0.015	0.044	2.666	1.948	1.929	1.929	1.953	1.963	1.973
-0.015	0.000	0.000	0.000	-0.010	0.005	0.044	2.671	1.948	1.934	1.924	1.948	1.948	1.958
0.005	0.000	0.005	-0.005	0.000	0.000	0.044	2.705	1.953	1.938	1.929	1.948	1.948	1.958
0.020	-0.005	0.000	0.005	-0.005	-0.020	0.044	2.695	1.953	1.943	1.934	1.948	1.943	1.948
0.015	0.005	0.000	0.000	-0.029	-0.005	0.044	2.710	1.953	1.948	1.934	1.948	1.943	1.953
0.015	-0.005	0.000	-0.005	0.020	0.015	0.049	2.686	1.953	1.948	1.938	1.953	1.958	1.963
0.044	-0.005	0.005	0.005	0.054	0.024	0.044	2.705	1.963	1.958	1.948	1.963	1.968	1.968
0.073	0.000	0.000	0.010	0.024	0.000	0.049	2.705	1.978	1.963	1.958	1.968	1.963	1.963
0.068	0.000	0.000	0.010	0.005	0.015	0.039	2.686	1.973	1.968	1.963	1.973	1.963	1.963
0.063	-0.005	0.005	0.005	0.005	-0.015	0.044	2.827	1.987	1.978	1.968	1.978	1.968	1.963
0.063	0.010	0.000	0.010	-0.010	-0.005	0.044	2.642	1.968	1.982	1.973	1.982	1.968	1.968
0.039	0.005	-0.005	0.005	-0.029	-0.010	0.044	2.798	1.968	1.973	1.973	1.982	1.968	1.963
0.010	0.010	0.005	-0.005	-0.063	-0.029	0.044	2.646	1.953	1.968	1.968	1.982	1.953	1.958
0.000	0.005	0.005	-0.005	-0.098	-0.015	0.044	2.666	1.934	1.953	1.963	1.978	1.953	1.958
-0.015	0.010	0.000	-0.010	-0.059	0.000	0.044	2.729	1.924	1.943	1.958	1.973	1.968	1.963
-0.020	0.000	0.000	-0.010	0.015	-0.015	0.044	2.700	1.924	1.934	1.948	1.973	1.987	1.963
-0.015	0.010	0.005	-0.005	0.073	0.015	0.049	2.720	1.934	1.934	1.943	1.968	1.992	1.978
0.000	0.000	0.005	0.000	0.054	0.029	0.049	2.793	1.943	1.934	1.938	1.963	1.978	1.982
0.010	0.000	0.000	0.010	0.098	0.024	0.044	2.642	1.943	1.934	1.934	1.958	1.982	1.978
0.015	0.010	0.005	0.010	0.044	0.005	0.049	2.720	1.948	1.938	1.934	1.958	1.958	1.968
0.024	0.010	0.005	0.010	-0.005	0.024	0.049	2.627	1.943	1.938	1.934	1.953	1.943	1.963
0.039	0.000	0.005	0.000	0.010	0.024	0.044	2.729	1.958	1.943	1.938	1.953	1.953	1.963
0.049	0.005	0.000	0.005	0.000	0.020	0.049	2.632	1.948	1.948	1.943	1.958	1.948	1.958
0.015	0.005	0.000	0.010	-0.020	-0.005	0.049	2.764	1.948	1.948	1.943	1.963	1.948	1.948
-0.005	0.000	0.005	0.005	-0.010	-0.005	0.049	2.656	1.938	1.948	1.948	1.968	1.958	1.953
-0.015	0.005	0.005	0.005	-0.034	-0.039	0.039	2.651	1.938	1.948	1.948	1.968	1.953	1.948
-0.020	-0.005	0.005	0.005	-0.024	-0.024	0.049	2.671	1.938	1.948	1.953	1.973	1.963	1.958
-0.029	0.000	0.000	0.005	-0.010	-0.029	0.044	2.710	1.938	1.948	1.948	1.973	1.968	1.963
-0.029	0.010	-0.005	0.010	0.000	0.010	0.044	2.681	1.943	1.948	1.943	1.973	1.973	1.973
-0.020	-0.005	-0.005	0.005	0.020	0.005	0.044	2.666	1.943	1.943	1.943	1.968	1.973	1.973
0.000	0.005	-0.005	0.000	0.034	0.034	0.049	2.710	1.948	1.943	1.943	1.963	1.973	1.978
0.000	0.005	-0.005	0.000	0.015	0.015	0.049	2.690	1.938	1.938	1.938	1.958	1.958	1.963
0.020	0.005	-0.005	0.005	0.000	0.020	0.049	2.715	1.943	1.934	1.934	1.953	1.953	1.963
0.054	-0.010	-0.005	0.000	-0.010	0.005	0.044	2.676	1.938	1.934	1.934	1.948	1.943	1.953
0.088	-0.005	0.000	0.010	0.015	0.000	0.044	2.671	1.943	1.934	1.929	1.948	1.948	1.948
0.093	0.000	-0.005	0.010	0.015	-0.010	0.044	2.700	1.934	1.934	1.929	1.948	1.948	1.943
0.020	0.000	0.005	0.005	0.000	-0.015	0.044	2.705	1.914	1.929	1.929	1.948	1.943	1.938
-0.049	-0.010	0.005	0.000	-0.005	-0.020	0.044	2.666	1.890	1.909	1.924	1.943	1.934	1.938
-0.098	0.000	0.005	0.000	-0.010	-0.029	0.044	2.700	1.899	1.909	1.924	1.943	1.934	1.938
-0.103	-0.010	0.000	-0.005	-0.010	-0.010	0.044	2.666	1.904	1.904	1.919	1.943	1.943	1.943
-0.078	-0.005	0.005	0.000	-0.005	-0.005	0.044	2.681	1.924	1.919	1.924	1.943	1.948	1.948
-0.059	0.000	0.005	0.000	0.000	0.005	0.044	2.681	1.938	1.924	1.924	1.948	1.948	1.958
-0.039	0.005	0.005	0.010	0.015	0.020	0.044	2.671	1.948	1.938	1.929	1.948	1.958	1.958
-0.005	0.010	0.005	0.010	0.020	0.010	0.049	2.715	1.963	1.948	1.938	1.953	1.958	1.953
0.010	0.010	-0.005	0.005	0.010	0.005	0.044	2.676	1.958	1.953	1.938	1.953	1.958	1.958
0.063	0.020	0.000	0.005	-0.005	0.015	0.049	2.686	1.973	1.958	1.948	1.958	1.948	1.958
0.029	0.005	0.005	0.000	-0.020	0.005	0.044	2.681	1.953	1.953	1.948	1.953	1.943	1.953
0.020	0.000	0.005	-0.010	-0.015	0.010	0.044	2.676	1.934	1.943	1.943	1.953	1.948	1.948
-0.020	-0.005	0.000	-0.005	-0.015	-0.015	0.049	2.705	1.914	1.934	1.938	1.948	1.943	1.934
-0.034	0.005	0.000	-0.005	-0.015	-0.020	0.044	2.681	1.909	1.919	1.929	1.948	1.943	1.938
-0.049	-0.005	0.000	0.000	-0.005	0.005	0.044	2.690	1.904	1.909	1.919	1.943	1.938	1.943
-0.020	0.000	0.000	0.000	-0.005	0.005	0.044	2.700	1.914	1.909	1.914	1.938	1.938	1.938
-0.005	0.000	0.000	-0.005	0.015	0.029	0.044	2.686	1.919	1.909	1.914	1.934	1.938	1.943
0.015	-0.005	0.000	-0.005	0.024	0.039	0.049	2.690	1.929	1.914	1.914	1.934	1.938	1.943
0.010	0.000	0.000	0.000	0.000	0.034	0.044	2.695	1.934	1.919	1.914	1.934	1.934	1.943
0.020	0.000	0.000	0.005	0.010	0.039	0.044	2.700	1.938	1.924	1.919	1.938	1.938	1.943
0.024	0.005	-0.005	0.015	0.000	0.029	0.044	2.686	1.938	1.934	1.929	1.948	1.938	1.943
0.054	-0.005	0.005	0.015	-0.010	0.010	0.044	2.671	1.953	1.943	1.934	1.948	1.938	1.943
0.083	0.000	0.000	0.010	0.034	-0.005	0.049	2.695	1.958	1.953	1.938	1.953	1.958	1.938
0.059	0.005	0.010	0.005	0.049	-0.020	0.049	2.686	1.948	1.953	1.948	1.958	1.958	1.948
0.039	0.005	0.005	-0.005	0.029	-0.034	0.044	2.690	1.938	1.948	1.948	1.958	1.953	1.943
0.015	0.015	0.005	-0.010	0.024	-0.034	0.049	2.681	1.934	1.948	1.948	1.963	1.953	1.948
0.034	0.010	0.000	-0.010	-0.010	-0.029	0.049	2.681	1.934	1.943	1.943	1.958	1.943	1.948
0.039	0.005	0.005	-0.010	-0.015	0.015	0.044	2.676	1.929	1.934	1.938	1.958	1.948	1.958
0.015	0.010	0.005	-0.010	-0.005	-0.005	0.044	2.700	1.919	1.929	1.934	1.953	1.948	1.948
-0.024	0.010	0.000	-0.005	0.005	0.015	0.049	2.676	1.904	1.919	1.924	1.953	1.948	1.948
-0.054	0.005	0.000	0.005	-0.005	0.010	0.044	2.686	1.895	1.904	1.914	1.948	1.943	1.943
-0.068	0.005	-0.005	0.010	0.000	-0.005	0.044	2.690	1.895	1.899	1.904	1.943	1.938	1.938
-0.059	0.000	-0.005	0.005	-0.005	0.000	0.044	2.676	1.899	1.895	1.899	1.929	1.934	1.938
-0.044	0.000	0.000	0.000	-0.010	0.005	0.044	2.676	1.904	1.895	1.899	1.924	1.929	1.934
-0.044	-0.010	0.000	0.005	-0.005	0.000	0.044	2.690	1.919	1.899	1.899	1.924	1.929	1.929
-0.029	0.000	-0.005	-0.005	0.005	-0.005	0.044	2.695	1.924	1.909	1.899	1.919	1.929	1.934
0.015	0.000	0.000	-0.005	0.000	0.015	0.044	2.681	1.938	1.919	1.909	1.924	1.929	1.938
0.044	0.005	0.000	-0.005	0.000	0.010	0.044	2.686	1.948	1.934	1.919	1.929	1.929	1.934
0.034	0.000	0.000	-0.005	0.005	0.000	0.044	2.686	1.948	1.934	1.924	1.934	1.934	1.934
0.054	-0.005	0.000	0.000	0.000	-0.010	0.044	2.686	1.953	1.943	1.934	1.943	1.934	1.934
0.059	0.005	0.000	0.010	-0.039	0.029	0.049	2.671	1.948	1.948	1.943	1.948	1.929	1.943
0.020	0.000	0.005	0.010	-0.020	0.024	0.049	2.686	1.934	1.943	1.943	1.953	1.943	1.948
-0.039	-0.005	0.000	0.005	0.005	-0.010	0.044	2.690	1.914	1.934	1.938	1.958	1.948	1.938
-0.054	0.015	0.000	0.000	0.005	0.005	0.044	2.686	1.914	1.934	1.938	1.953	1.948	1.948
-0.049	0.010	0.005	-0.005	0.000	0.005	0.049	2.686	1.914	1.924	1.929	1.953	1.943	1.938
-0.059	0.005	0.000	0.000	0.000	0.010	0.044	2.690	1.904	1.914	1.919	1.948	1.943	1.938
-0.054	0.005	0.005	0.010	-0.005	0.010	0.044	2.686	1.904	1.909	1.914	1.943	1.938	1.938
-0.024	0.000	0.000	0.010	-0.005	0.000	0.044	2.686	1.914	1.904	1.909	1.934	1.934	1.934
0.000	0.000	0.000	0.010	-0.020	0.015	0.044	2.676	1.914	1.904	1.904	1.929	1.924	1.929
0.010	-0.005	0.010	0.010	-0.015	0.005	0.044	2.686	1.914	1.904	1.904	1.929	1.924	1.929
0.029	-0.010	0.000	0.005	-0.005	-0.005	0.044	2.666	1.914	1.904	1.899	1.919	1.924	1.924
0.024	0.005	-0.005	-0.005	0.010	0.000	0.049	2.690	1.919	1.914	1.904	1.919	1.924	1.929
0.029	0.005	-0.005	-0.010	0.049	0.015	0.044	2.690	1.919	1.914	1.909	1.924	1.934	1.934
0.034	-0.005	-0.005	-0.010	0.034	0.010	0.044	2.666	1.919	1.919	1.909	1.924	1.929	1.934
0.029	0.005	0.000	-0.005	0.049	-0.010	0.044	2.681	1.924	1.924	1.919	1.929	1.934	1.934
0.024	0.000	0.000	0.000	0.020	0.015	0.044	2.661	1.929	1.929	1.924	1.938	1.929	1.934
0.029	0.005	0.005	-0.005	-0.010	0.020	0.049	2.690	1.934	1.934	1.929	1.943	1.929	1.938
0.020	0.000	0.000	0.000	-0.015	0.010	0.044	2.700	1.934	1.934	1.934	1.948	1.929	1.934
0.020	-0.005	-0.005	0.010	-0.010	-0.010	0.044	2.671	1.934	1.934	1.934	1.953	1.938	1.934
0.005	0.000	0.000	0.010	-0.005	-0.005	0.044	2.681	1.924	1.934	1.934	1.953	1.938	1.934
0.010	0.005	0.000	0.015	0.010	0.000	0.044	2.676	1.919	1.929	1.929	1.953	1.943	1.938
0.010	-0.005	-0.005	0.005	0.005	0.010	0.044	2.686	1.914	1.919	1.924	1.943	1.943	1.943
0.083	-0.005	0.000	0.000	-0.005	0.005	0.044	2.690	1.934	1.919	1.919	1.938	1.934	1.934
0.073	-0.010	0.005	-0.005	-0.005	0.000	0.049	2.671	1.919	1.909	1.914	1.934	1.929	1.934
0.020	0.000	-0.005	-0.010	0.005	-0.005	0.044	2.681	1.899	1.904	1.909	1.929	1.929	1.929
-0.054	0.005	0.000	-0.010	0.005	-0.029	0.044	2.676	1.875	1.895	1.899	1.924	1.924	1.914
-0.063	0.005	-0.005	0.000	-0.005	-0.005	0.044	2.671	1.875	1.890	1.895	1.919	1.919	1.924
-0.078	0.000	0.005	0.005	0.005	0.000	0.049	2.690	1.880	1.885	1.895	1.924	1.924	1.924
-0.068	0.005	0.000	0.015	0.000	0.015	0.049	2.686	1.899	1.890	1.895	1.919	1.924	1.929
-0.020	-0.005	0.005	0.005	0.000	0.005	0.044	2.676	1.914	1.895	1.899	1.919	1.919	1.924
0.015	0.005	0.005	0.000	0.000	-0.005	0.044	2.690	1.929	1.914	1.904	1.919	1.924	1.924
-0.005	0.000	0.005	-0.005	0.010	0.000	0.044	2.681	1.934	1.919	1.909	1.924	1.924	1.924
-0.010	-0.005	-0.005	0.005	-0.005	-0.010	0.044	2.686	1.929	1.924	1.914	1.929	1.924	1.929
-0.010	-0.005	0.000	0.020	-0.005	-0.010	0.049	2.681	1.929	1.924	1.919	1.938	1.929	1.934
0.029	-0.010	0.005	0.024	-0.005	0.010	0.049	2.695	1.943	1.934	1.924	1.943	1.934	1.938
0.020	-0.010	0.000	0.015	0.054	0.015	0.044	2.690	1.934	1.934	1.929	1.943	1.948	1.943
-0.010	0.000	0.000	0.005	0.029	0.000	0.044	2.671	1.919	1.929	1.924	1.938	1.934	1.934
-0.020	0.005	-0.005	-0.005	-0.020	-0.015	0.049	2.690	1.914	1.919	1.924	1.934	1.919	1.929
-0.029	0.005	0.010	-0.010	-0.010	-0.010	0.039	2.686	1.904	1.914	1.924	1.934	1.924	1.929
-0.005	0.010	0.005	-0.005	-0.024	-0.015	0.044	2.690	1.909	1.914	1.914	1.929	1.914	1.919
0.005	0.015	0.005	-0.005	-0.083	-0.005	0.044	2.676	1.904	1.909	1.909	1.924	1.904	1.914
0.005	0.020	0.005	-0.005	-0.049	0.005	0.044	2.666	1.899	1.904	1.904	1.924	1.914	1.919
0.044	0.010	-0.005	0.000	-0.010	0.020	0.044	2.690	1.909	1.899	1.899	1.924	1.924	1.924
0.054	0.010	0.000	0.000	0.029	0.034	0.049	2.690	1.914	1.899	1.899	1.924	1.934	1.924
0.005	0.010	-0.005	0.000	0.073	0.024	0.049	2.671	1.899	1.895	1.895	1.919	1.934	1.924
-0.010	0.005	0.000	0.000	-0.015	0.005	0.044	2.686	1.899	1.895	1.895	1.914	1.909	1.914
0.015	-0.005	0.000	-0.005	0.000	0.010	0.044	2.695	1.919	1.904	1.904	1.924	1.919	1.924
0.039	0.000	0.000	-0.005	0.024	-0.015	0.044	2.671	1.924	1.914	1.909	1.924	1.924	1.924
0.024	0.000	0.010	-0.005	0.029	-0.015	0.049	2.676	1.924	1.919	1.914	1.929	1.929	1.924
0.029	0.005	0.005	0.000	0.000	0.005	0.044	2.695	1.934	1.929	1.919	1.934	1.924	1.929
0.024	0.000	0.005	0.000	0.010	0.010	0.044	2.686	1.934	1.929	1.924	1.938	1.934	1.938
0.010	0.005	0.005	0.000	0.020	0.020	0.044	2.671	1.924	1.929	1.929	1.943	1.938	1.938
-0.010	0.000	0.000	0.000	0.020	0.024	0.044	2.661	1.914	1.924	1.924	1.938	1.938	1.938
-0.034	0.005	0.000	0.005	0.024	0.024	0.044	2.681	1.909	1.919	1.924	1.943	1.938	1.943
-0.039	0.000	0.000	0.005	0.015	0.034	0.044	2.690	1.909	1.909	1.919	1.938	1.934	1.938
-0.020	0.000	0.000	0.005	-0.005	0.010	0.044	2.686	1.909	1.909	1.909	1.934	1.924	1.929
-0.024	0.005	0.000	0.005	-0.015	-0.010	0.049	2.671	1.904	1.904	1.904	1.929	1.914	1.914
-0.020	0.000	0.000	0.010	-0.015	-0.024	0.044	2.671	1.899	1.895	1.899	1.924	1.914	1.909
-0.010	0.000	0.000	0.020	-0.024	-0.010	0.044	2.671	1.895	1.895	1.899	1.919	1.914	1.914
-0.039	-0.005	-0.005	0.015	-0.024	-0.039	0.044	2.671	1.885	1.885	1.890	1.914	1.909	1.904
-0.044	-0.005	0.000	0.005	-0.024	-0.005	0.044	2.686	1.890	1.885	1.890	1.909	1.909	1.909
-0.029	0.000	0.005	-0.005	-0.005	-0.010	0.044	2.671	1.895	1.890	1.890	1.909	1.914	1.909
0.005	-0.005	0.005	-0.005	0.005	-0.015	0.044	2.676	1.909	1.899	1.895	1.909	1.914	1.914
-0.010	-0.005	0.000	-0.010	0.020	-0.015	0.044	2.690	1.909	1.904	1.895	1.914	1.919	1.914
0.000	0.000	-0.005	-0.010	0.005	-0.039	0.044	2.681	1.924	1.909	1.904	1.919	1.914	1.909
0.010	0.000	0.000	0.000	-0.005	-0.005	0.049	2.676	1.924	1.919	1.909	1.924	1.919	1.924
0.024	-0.020	0.000	0.000	-0.005	0.005	0.044	2.686	1.934	1.919	1.914	1.929	1.924	1.929
0.039	-0.015	0.005	0.005	-0.005	0.010	0.044	2.686	1.938	1.929	1.919	1.938	1.929	1.934
0.063	-0.005	0.005	0.005	0.024	0.034	0.044	2.676	1.938	1.934	1.924	1.938	1.938	1.938
0.044	0.005	0.005	0.005	0.044	0.034	0.044	2.695	1.929	1.934	1.924	1.938	1.943	1.943
0.024	0.005	0.005	0.005	0.044	0.020	0.049	2.686	1.919	1.929	1.924	1.938	1.938	1.934
0.000	0.010	0.005	0.000	0.024	0.015	0.049	2.681	1.904	1.924	1.919	1.934	1.929	1.934
0.000	0.010	0.005	-0.005	0.059	-0.020	0.044	2.671	1.904	1.914	1.914	1.934	1.934	1.924
0.005	0.000	0.000	0.000	0.015	0.000	0.044	2.681	1.899	1.899	1.909	1.929	1.914	1.924
-0.010	0.000	-0.005	0.005	-0.039	0.015	0.044	2.661	1.885	1.895	1.899	1.924	1.904	1.919
-0.010	0.010	0.000	0.000	-0.034	0.015	0.044	2.681	1.880	1.890	1.895	1.914	1.904	1.914
-0.020	0.000	0.000	-0.005	-0.029	0.000	0.044	2.681	1.880	1.885	1.890	1.914	1.904	1.909
-0.010	0.005	0.000	0.000	-0.029	0.005	0.044	2.686	1.890	1.885	1.890	1.909	1.904	1.909
-0.020	0.010	-0.010	0.005	-0.029	-0.005	0.044	2.676	1.895	1.890	1.885	1.909	1.904	1.904
0.024	0.010	-0.005	0.010	0.000	0.000	0.049	2.681	1.914	1.895	1.890	1.914	1.919	1.914
0.024	0.010	0.000	0.005	0.024	-0.005	0.049	2.690	1.919	1.904	1.899	1.919	1.924	1.919
0.020	0.005	0.005	0.005	0.029	0.000	0.049	2.690	1.924	1.914	1.904	1.919	1.924	1.924
0.000	0.010	0.000	0.000	0.029	-0.005	0.044	2.686	1.924	1.919	1.909	1.929	1.929	1.924
0.005	0.005	0.000	0.010	0.049	-0.010	0.049	2.690	1.929	1.924	1.914	1.934	1.934	1.929
0.015	0.000	0.005	0.010	0.015	0.010	0.044	2.690	1.929	1.924	1.919	1.938	1.924	1.934
0.020	0.000	0.000	0.010	0.015	0.015	0.044	2.690	1.929	1.929	1.919	1.938	1.929	1.934
0.020	0.000	-0.005	0.000	0.005	0.000	0.044	2.666	1.924	1.929	1.919	1.934	1.924	1.929
0.015	0.010	0.000	-0.005	0.005	0.010	0.044	2.681	1.914	1.924	1.919	1.934	1.924	1.929
0.039	0.000	0.000	-0.010	0.005	0.005	0.049	2.690	1.919	1.914	1.914	1.929	1.919	1.924
-0.010	0.005	0.005	-0.010	-0.005	0.005	0.049	2.690	1.895	1.904	1.909	1.924	1.914	1.919
-0.063	-0.005	0.005	-0.005	-0.010	0.010	0.044	2.690	1.875	1.890	1.899	1.919	1.909	1.914
-0.093	-0.005	0.000	-0.005	-0.015	-0.005	0.049	2.681	1.870	1.880	1.890	1.914	1.909	1.909
-0.078	0.000	0.000	-0.010	-0.015	0.000	0.049	2.676	1.875	1.880	1.885	1.909	1.904	1.909
-0.068	0.000	0.000	-0.005	-0.005	-0.020	0.044	2.690	1.890	1.880	1.885	1.909	1.904	1.904
-0.029	-0.005	0.005	0.000	-0.015	-0.015	0.044	2.695	1.909	1.885	1.885	1.904	1.904	1.899
0.059	-0.020	0.000	0.005	-0.010	-0.034	0.044	2.681	1.929	1.899	1.885	1.904	1.904	1.904
0.068	-0.010	0.000	0.005	-0.024	0.020	0.049	2.671	1.929	1.914	1.895	1.909	1.904	1.919
0.117	-0.010	0.005	0.000	-0.015	0.010	0.044	2.686	1.938	1.924	1.904	1.919	1.909	1.914
0.068	0.005	0.005	0.000	0.005	0.005	0.044	2.676	1.924	1.934	1.919	1.924	1.924	1.919
0.024	0.015	0.010	0.005	0.015	0.010	0.044	2.686	1.909	1.929	1.924	1.934	1.929	1.929
-0.024	0.020	0.005	0.010	0.005	0.015	0.049	2.676	1.899	1.924	1.924	1.938	1.929	1.929
-0.020	0.010	0.015	0.020	0.034	0.010	0.044	2.822	1.919	1.919	1.924	1.943	1.938	1.929
0.005	0.000	0.005	0.015	0.024	0.005	0.039	2.656	1.929	1.919	1.919	1.943	1.934	1.934
-0.029	0.000	0.000	0.015	-0.029	0.010	0.044	2.637	1.904	1.909	1.919	1.938	1.924	1.929
-0.034	-0.005	0.000	0.000	-0.024	0.010	0.049	2.681	1.904	1.904	1.909	1.934	1.924	1.924
-0.049	-0.005	0.000	0.000	0.000	0.000	0.049	2.642	1.885	1.899	1.904	1.924	1.929	1.924
-0.054	-0.015	-0.005	0.000	0.015	-0.005	0.044	2.651	1.880	1.880	1.890	1.919	1.924	1.919
-0.063	-0.020	0.000	0.000	0.020	-0.020	0.049	2.651	1.880	1.875	1.885	1.914	1.919	1.909
-0.039	-0.005	-0.005	0.000	0.005	-0.020	0.049	2.686	1.890	1.880	1.880	1.904	1.909	1.909
0.000	-0.010	-0.005	0.005	0.000	-0.010	0.044	2.642	1.895	1.885	1.880	1.899	1.904	1.909
0.020	0.005	0.005	0.000	0.015	-0.020	0.044	2.646	1.899	1.890	1.880	1.899	1.904	1.909
0.010	-0.005	0.005	0.000	-0.005	0.000	0.049	2.837	1.914	1.895	1.885	1.899	1.895	1.909
0.010	0.010	-0.005	0.010	-0.020	0.010	0.044	2.676	1.914	1.904	1.890	1.904	1.895	1.909
0.029	0.005	0.000	0.005	-0.029	0.020	0.044	2.681	1.919	1.909	1.899	1.909	1.899	1.909
0.054	0.000	0.010	0.005	-0.020	-0.010	0.044	2.690	1.934	1.914	1.904	1.919	1.904	1.904
0.063	0.020	0.000	0.000	-0.005	0.029	0.044	2.651	1.934	1.934	1.914	1.924	1.914	1.914
0.073	0.029	-0.005	0.005	-0.020	0.024	0.044	2.676	1.934	1.934	1.924	1.934	1.919	1.919
0.054	0.020	-0.005	0.000	0.005	0.024	0.039	2.661	1.924	1.934	1.929	1.934	1.934	1.924
0.020	0.005	0.000	-0.005	0.015	0.005	0.044	2.666	1.909	1.924	1.929	1.938	1.934	1.924
0.005	0.010	-0.005	0.000	-0.005	-0.015	0.044	2.651	1.899	1.919	1.924	1.938	1.929	1.919
0.020	0.010	0.000	0.000	0.010	-0.005	0.049	2.661	1.904	1.914	1.919	1.943	1.934	1.924
0.015	0.000	0.000	0.005	0.044	-0.039	0.044	2.646	1.890	1.899	1.909	1.938	1.938	1.919
0.005	0.005	0.005	0.000	0.015	-0.015	0.044	2.681	1.890	1.895	1.904	1.929	1.924	1.924
-0.024	0.005	-0.005	0.000	0.010	-0.020	0.044	2.827	1.895	1.890	1.895	1.919	1.919	1.919
-0.024	0.005	0.000	0.000	0.005	-0.010	0.049	2.646	1.890	1.885	1.885	1.914	1.914	1.919
-0.020	0.005	-0.005	0.000	-0.029	0.020	0.044	2.637	1.885	1.880	1.885	1.909	1.904	1.919
-0.029	0.005	0.005	0.000	-0.044	0.015	0.049	2.690	1.885	1.880	1.885	1.904	1.895	1.909
-0.029	-0.005	0.000	0.000	-0.059	0.024	0.044	2.695	1.890	1.880	1.880	1.904	1.895	1.904
-0.024	-0.005	0.000	-0.005	0.015	0.015	0.044	2.686	1.895	1.880	1.885	1.904	1.919	1.914
-0.034	0.010	0.005	0.000	0.015	0.015	0.044	2.681	1.899	1.890	1.885	1.904	1.914	1.914
-0.024	-0.005	0.000	0.005	0.024	0.020	0.049	2.671	1.904	1.895	1.890	1.909	1.914	1.919
0.010	-0.005	0.005	0.000	0.010	0.010	0.044	2.681	1.924	1.909	1.895	1.914	1.909	1.914
0.044	-0.010	0.000	0.000	0.015	0.010	0.044	2.676	1.934	1.919	1.904	1.919	1.914	1.914
0.034	-0.010	0.000	0.000	0.068	-0.005	0.044	2.651	1.924	1.919	1.909	1.924	1.934	1.919
0.044	-0.015	0.005	-0.005	0.010	0.005	0.044	2.661	1.924	1.919	1.914	1.924	1.914	1.919
0.020	-0.010	0.000	-0.005	-0.039	0.005	0.044	2.651	1.914	1.919	1.914	1.924	1.909	1.914
0.000	0.000	0.000	-0.005	0.034	0.005	0.044	2.676	1.909	1.919	1.919	1.934	1.929	1.919
-0.015	0.000	0.000	0.005	0.005	-0.015	0.044	2.812	1.914	1.914	1.914	1.929	1.919	1.914
-0.020	-0.010	0.000	0.000	0.010	0.000	0.044	2.817	1.914	1.904	1.909	1.924	1.919	1.919
-0.020	0.000	-0.005	0.000	0.015	-0.015	0.044	2.812	1.924	1.904	1.904	1.919	1.914	1.914
-0.020	-0.010	0.005	0.005	0.044	-0.005	0.044	2.681	1.909	1.899	1.904	1.924	1.924	1.919
-0.024	-0.005	0.005	0.010	0.015	0.000	0.049	2.671	1.904	1.904	1.899	1.919	1.914	1.914
-0.024	-0.010	0.005	0.015	0.005	-0.015	0.049	2.686	1.899	1.895	1.895	1.914	1.909	1.904
-0.020	0.005	0.000	0.010	0.015	-0.010	0.044	2.651	1.895	1.895	1.895	1.909	1.909	1.909
-0.005	0.005	0.000	0.005	0.024	0.015	0.044	2.671	1.904	1.899	1.895	1.914	1.909	1.914
0.059	0.010	0.010	-0.005	0.000	0.024	0.044	2.676	1.924	1.909	1.899	1.909	1.904	1.914
0.093	0.005	0.000	-0.010	-0.024	0.005	0.044	2.671	1.924	1.914	1.904	1.914	1.899	1.909
0.049	0.015	0.000	0.000	-0.029	0.015	0.044	2.656	1.909	1.919	1.914	1.924	1.904	1.914
0.005	0.005	0.000	0.010	-0.039	0.000	0.049	2.671	1.899	1.909	1.914	1.934	1.914	1.909
-0.020	-0.005	0.000	0.024	-0.020	-0.015	0.044	2.642	1.890	1.909	1.914	1.938	1.924	1.914
-0.044	-0.005	0.000	0.020	0.005	-0.010	0.044	2.671	1.890	1.904	1.914	1.938	1.938	1.924
-0.039	0.010	0.005	0.010	0.010	-0.015	0.049	2.808	1.914	1.909	1.914	1.934	1.938	1.929
-0.020	0.005	0.005	0.000	-0.005	0.005	0.044	2.642	1.914	1.914	1.914	1.929	1.934	1.938
-0.005	0.015	0.005	0.000	-0.005	-0.005	0.044	2.627	1.914	1.914	1.909	1.929	1.929	1.929
0.010	0.020	0.000	-0.005	-0.010	0.024	0.044	2.690	1.909	1.914	1.909	1.929	1.924	1.929
-0.005	0.015	0.000	-0.010	-0.010	-0.005	0.044	2.671	1.899	1.904	1.904	1.924	1.924	1.919
0.020	0.010	0.000	-0.005	0.005	0.020	0.049	2.671	1.904	1.904	1.899	1.919	1.919	1.929
0.029	-0.005	-0.005	-0.005	-0.005	-0.010	0.044	2.676	1.899	1.890	1.895	1.914	1.914	1.909
0.029	0.000	0.000	-0.005	-0.029	0.010	0.044	2.666	1.890	1.890	1.890	1.909	1.904	1.914
0.024	0.000	0.000	-0.005	-0.015	0.010	0.049	2.681	1.890	1.885	1.890	1.904	1.904	1.909
0.010	-0.005	0.000	0.000	-0.005	-0.024	0.049	2.666	1.885	1.885	1.885	1.904	1.909	1.899
0.000	-0.005	0.000	0.010	0.000	-0.020	0.044	2.651	1.890	1.890	1.885	1.904	1.904	1.904
-0.005	-0.024	-0.005	0.010	-0.005	-0.005	0.044	2.661	1.885	1.880	1.885	1.909	1.904	1.909
0.005	-0.015	0.000	0.010	0.005	0.005	0.044	2.646	1.895	1.890	1.890	1.909	1.909	1.914
-0.005	-0.005	0.000	0.005	0.010	0.015	0.044	2.651	1.895	1.895	1.890	1.914	1.914	1.919
0.000	-0.010	0.000	0.005	0.020	0.024	0.044	2.822	1.929	1.904	1.899	1.919	1.919	1.924
0.020	-0.005	0.005	0.010	0.000	-0.034	0.044	2.646	1.924	1.914	1.909	1.919	1.909	1.904
0.015	0.005	-0.005	0.005	-0.005	-0.005	0.044	2.808	1.934	1.924	1.909	1.929	1.919	1.924
-0.010	0.000	0.000	0.005	-0.010	-0.010	0.044	2.852	1.943	1.929	1.919	1.929	1.919	1.919
-0.005	0.015	0.005	0.000	-0.024	0.010	0.044	2.676	1.934	1.929	1.924	1.929	1.914	1.919
-0.005	0.005	0.000	-0.005	-0.010	0.010	0.044	2.686	1.924	1.929	1.919	1.929	1.924	1.924
-0.034	0.000	0.005	-0.005	0.010	-0.020	0.044	2.671	1.904	1.914	1.919	1.934	1.924	1.914
-0.039	-0.005	0.000	-0.005	0.054	0.024	0.049	2.681	1.899	1.904	1.909	1.929	1.934	1.934
-0.029	0.000	0.000	0.000	0.024	0.024	0.049	2.666	1.895	1.899	1.904	1.924	1.919	1.929
-0.015	-0.005	0.000	0.000	0.039	0.034	0.049	2.656	1.890	1.895	1.899	1.919	1.924	1.924
0.000	0.005	0.000	0.000	0.054	0.034	0.049	2.681	1.895	1.890	1.895	1.914	1.919	1.924
0.010	0.000	0.005	0.000	0.024	0.005	0.044	2.666	1.899	1.895	1.890	1.909	1.904	1.909
0.029	0.010	0.005	-0.005	0.005	-0.024	0.044	2.661	1.899	1.895	1.890	1.909	1.899	1.899
0.068	0.000	0.005	-0.005	0.000	-0.010	0.044	2.666	1.914	1.895	1.895	1.909	1.899	1.899
0.078	0.005	0.005	0.000	0.010	-0.010	0.044	2.783	1.929	1.909	1.899	1.914	1.909	1.909
0.044	0.020	0.005	0.010	-0.005	-0.005	0.044	2.642	1.909	1.914	1.904	1.919	1.914	1.914
-0.005	0.024	0.005	0.005	-0.020	0.010	0.049	2.651	1.919	1.919	1.909	1.924	1.909	1.914
-0.039	0.015	0.005	0.010	-0.024	0.010	0.049	2.690	1.909	1.914	1.914	1.929	1.914	1.919
-0.054	0.005	0.000	0.005	-0.010	-0.024	0.049	2.666	1.904	1.914	1.914	1.934	1.924	1.914
-0.059	0.000	0.005	-0.005	0.010	-0.015	0.049	2.690	1.909	1.909	1.914	1.934	1.934	1.924
-0.068	0.000	0.005	-0.005	0.020	-0.029	0.039	2.686	1.909	1.909	1.914	1.934	1.934	1.924
-0.054	0.000	-0.005	-0.005	0.020	-0.005	0.044	2.661	1.909	1.909	1.909	1.934	1.934	1.929
-0.020	0.000	0.005	0.005	0.039	0.015	0.049	2.661	1.914	1.914	1.909	1.934	1.938	1.938
0.000	-0.015	0.005	0.005	0.005	-0.005	0.049	2.661	1.914	1.904	1.904	1.924	1.914	1.924
0.005	-0.015	0.000	-0.005	-0.078	-0.005	0.044	2.656	1.904	1.899	1.899	1.919	1.890	1.909
0.039	-0.015	0.000	0.000	-0.083	0.000	0.044	2.651	1.904	1.899	1.895	1.914	1.890	1.904
0.068	-0.010	0.000	-0.005	-0.107	-0.029	0.044	2.646	1.899	1.895	1.890	1.909	1.890	1.890
0.039	-0.010	0.005	0.000	-0.068	-0.039	0.044	2.651	1.880	1.890	1.890	1.909	1.904	1.895
0.010	-0.010	-0.005	0.010	-0.039	0.005	0.044	2.749	1.880	1.885	1.885	1.909	1.909	1.909
-0.010	-0.010	0.000	0.010	0.010	-0.005	0.044	2.656	1.885	1.885	1.885	1.909	1.924	1.914
-0.015	0.005	0.000	0.010	0.044	0.039	0.044	2.817	1.904	1.890	1.890	1.909	1.929	1.929
-0.029	0.000	0.000	0.010	0.117	0.029	0.044	2.842	1.919	1.899	1.895	1.914	1.943	1.938
-0.029	0.010	0.000	0.005	0.098	0.024	0.044	2.681	1.924	1.909	1.899	1.919	1.929	1.934
-0.015	0.000	0.000	0.000	0.034	0.020	0.049	2.671	1.934	1.919	1.909	1.919	1.914	1.929
-0.005	0.005	0.005	0.000	0.015	0.010	0.049	2.681	1.934	1.924	1.914	1.924	1.909	1.924
0.010	0.000	0.000	0.000	-0.010	0.010	0.044	2.686	1.934	1.929	1.919	1.929	1.909	1.919
0.010	0.000	0.005	0.000	0.015	0.015	0.044	2.646	1.924	1.934	1.929	1.938	1.924	1.924
0.005	-0.005	0.000	-0.005	0.024	0.015	0.044	2.646	1.914	1.924	1.924	1.938	1.929	1.924
-0.015	-0.010	0.000	-0.005	0.054	-0.005	0.044	2.656	1.904	1.914	1.924	1.938	1.938	1.924
0.010	0.000	0.000	0.000	0.015	-0.005	0.044	2.666	1.909	1.909	1.914	1.934	1.924	1.919
0.029	0.005	0.005	0.000	-0.005	0.005	0.044	2.686	1.909	1.909	1.909	1.934	1.919	1.919
0.015	-0.015	0.000	0.000	-0.015	0.010	0.044	2.666	1.895	1.904	1.904	1.924	1.914	1.919
0.024	0.005	0.005	0.000	-0.034	-0.005	0.044	2.739	1.899	1.899	1.899	1.919	1.904	1.909
0.015	0.005	0.005	-0.005	-0.044	0.000	0.049	2.739	1.899	1.895	1.895	1.914	1.904	1.904
0.015	0.005	0.005	-0.005	-0.024	0.005	0.044	2.661	1.895	1.895	1.890	1.914	1.909	1.904
-0.005	-0.005	0.000	-0.005	-0.005	0.000	0.049	2.646	1.880	1.885	1.890	1.909	1.909	1.904
0.024	0.010	0.000	-0.010	-0.015	-0.005	0.044	2.661	1.914	1.899	1.890	1.909	1.909	1.909
0.054	0.010	0.000	-0.015	-0.029	0.005	0.044	2.681	1.919	1.904	1.890	1.909	1.904	1.909
0.024	0.015	-0.005	-0.005	-0.005	0.005	0.044	2.671	1.904	1.909	1.895	1.914	1.919	1.914
-0.010	0.015	0.000	0.005	0.054	-0.029	0.044	2.676	1.904	1.914	1.909	1.929	1.938	1.914
-0.034	0.010	0.000	0.020	0.039	-0.068	0.049	2.632	1.895	1.909	1.909	1.934	1.929	1.914
-0.034	0.005	0.000	0.024	0.029	-0.024	0.044	2.812	1.899	1.909	1.914	1.934	1.934	1.929
-0.054	0.000	0.000	0.029	0.015	-0.020	0.044	2.812	1.895	1.904	1.909	1.934	1.929	1.929
-0.039	-0.005	-0.005	0.020	-0.010	-0.005	0.044	2.656	1.904	1.904	1.909	1.934	1.924	1.934
-0.015	-0.005	-0.005	0.015	-0.015	0.000	0.044	2.686	1.919	1.909	1.909	1.929	1.924	1.934
0.015	0.005	0.000	0.005	0.020	-0.015	0.049	2.686	1.919	1.914	1.909	1.924	1.934	1.929
0.020	0.005	0.000	0.000	0.010	-0.010	0.044	2.686	1.919	1.909	1.909	1.919	1.919	1.924
0.020	0.000	0.000	-0.005	-0.034	0.015	0.044	2.671	1.909	1.909	1.904	1.919	1.909	1.924
0.015	0.000	0.005	-0.010	-0.029	0.020	0.044	2.681	1.899	1.899	1.899	1.914	1.904	1.914
0.029	0.000	-0.005	-0.015	-0.034	0.010	0.049	2.671	1.895	1.899	1.895	1.909	1.899	1.904
0.020	0.000	0.000	-0.010	-0.015	0.005	0.044	2.651	1.890	1.890	1.890	1.904	1.909	1.904
0.029	0.005	0.005	-0.005	0.024	-0.010	0.044	2.661	1.885	1.890	1.890	1.909	1.914	1.904
0.015	0.010	0.010	0.000	0.044	0.015	0.044	2.793	1.899	1.895	1.890	1.909	1.914	1.914
0.005	-0.005	0.000	0.005	0.015	0.020	0.044	2.686	1.899	1.890	1.890	1.909	1.904	1.914
0.010	-0.005	0.000	0.005	0.049	-0.010	0.044	2.671	1.899	1.895	1.890	1.914	1.919	1.909
-0.010	0.000	0.005	0.005	0.029	0.010	0.044	2.769	1.909	1.899	1.895	1.914	1.914	1.919
-0.015	-0.010	0.000	0.005	0.000	0.039	0.049	2.651	1.909	1.904	1.899	1.914	1.909	1.924
-0.029	0.024	0.000	0.000	-0.015	0.029	0.049	2.637	1.904	1.919	1.909	1.919	1.909	1.919
-0.020	0.005	0.005	0.000	-0.034	0.015	0.044	2.666	1.914	1.914	1.914	1.924	1.909	1.914
0.015	0.005	0.005	0.000	-0.015	0.010	0.044	2.671	1.924	1.924	1.914	1.929	1.919	1.919
0.010	0.015	0.000	0.005	-0.024	-0.005	0.044	2.676	1.919	1.924	1.919	1.929	1.919	1.914
0.020	0.015	0.000	0.005	-0.034	-0.020	0.044	2.671	1.919	1.919	1.914	1.934	1.914	1.909
0.024	0.005	0.000	0.015	-0.029	-0.005	0.049	2.676	1.909	1.914	1.914	1.934	1.924	1.914
0.005	-0.005	0.000	0.005	0.000	-0.020	0.049	2.671	1.895	1.909	1.909	1.929	1.929	1.919
-0.010	0.000	0.000	-0.010	0.049	-0.049	0.049	2.661	1.880	1.899	1.904	1.919	1.934	1.914
0.044	0.005	0.000	-0.010	0.015	0.000	0.044	2.637	1.895	1.899	1.895	1.914	1.919	1.924
0.044	0.000	0.000	-0.005	0.000	-0.010	0.049	2.842	1.909	1.890	1.890	1.914	1.909	1.919
0.029	0.005	0.000	0.005	0.010	0.020	0.049	2.686	1.895	1.895	1.890	1.909	1.914	1.919
-0.029	0.005	0.000	0.010	0.010	0.000	0.044	2.622	1.870	1.885	1.885	1.909	1.909	1.914
-0.073	0.005	0.005	-0.005	0.024	0.010	0.044	2.646	1.865	1.880	1.885	1.904	1.909	1.914
-0.103	-0.005	0.000	0.000	0.034	0.015	0.049	2.651	1.860	1.875	1.880	1.904	1.909	1.919
-0.093	0.005	0.005	0.005	0.015	0.015	0.044	2.651	1.875	1.875	1.880	1.909	1.904	1.914
-0.073	0.010	-0.005	0.005	-0.005	0.005	0.044	2.671	1.899	1.890	1.885	1.909	1.899	1.914
-0.039	-0.005	0.005	0.000	0.005	0.000	0.044	2.705	1.919	1.899	1.890	1.909	1.909	1.909
0.044	0.005	0.005	-0.005	0.005	0.005	0.044	2.700	1.948	1.919	1.899	1.914	1.909	1.914
0.098	0.000	-0.005	0.005	0.000	0.000	0.044	2.676	1.953	1.934	1.909	1.919	1.914	1.919
0.073	-0.005	0.000	0.000	0.000	-0.005	0.044	2.686	1.938	1.934	1.914	1.924	1.914	1.914
0.029	-0.005	0.000	0.005	-0.005	0.015	0.044	2.695	1.919	1.929	1.919	1.929	1.919	1.924
0.005	-0.005	0.005	0.000	-0.015	0.000	0.049	2.676	1.909	1.919	1.919	1.929	1.914	1.914
-0.059	-0.005	0.005	0.005	-0.005	-0.005	0.049	2.681	1.885	1.904	1.909	1.929	1.919	1.914
-0.088	-0.005	-0.005	0.005	-0.010	0.029	0.044	2.681	1.875	1.890	1.899	1.924	1.914	1.919
-0.029	-0.005	0.000	0.000	-0.010	0.020	0.044	2.686	1.899	1.890	1.899	1.919	1.909	1.914
-0.005	-0.005	0.000	0.000	-0.015	0.010	0.049	2.690	1.904	1.890	1.895	1.914	1.909	1.904
0.010	0.000	0.000	0.000	-0.020	-0.010	0.044	2.676	1.895	1.890	1.890	1.909	1.904	1.895
0.020	0.005	0.010	0.005	-0.029	-0.039	0.049	2.681	1.899	1.890	1.890	1.904	1.899	1.890
0.020	0.000	0.005	0.005	-0.020	-0.054	0.044	2.676	1.895	1.890	1.885	1.904	1.904	1.890
0.010	0.005	0.005	-0.005	0.020	-0.024	0.044	2.690	1.890	1.885	1.885	1.909	1.909	1.904
0.005	-0.005	0.000	0.000	0.044	-0.020	0.044	2.671	1.890	1.890	1.885	1.909	1.919	1.914
0.015	0.010	0.000	0.005	0.029	-0.020	0.049	2.676	1.904	1.899	1.895	1.909	1.909	1.909
0.024	-0.005	-0.005	0.010	-0.029	-0.015	0.044	2.676	1.914	1.899	1.899	1.914	1.899	1.914
0.015	-0.005	0.010	0.005	-0.010	0.005	0.044	2.695	1.914	1.909	1.904	1.919	1.914	1.919
0.024	0.005	0.005	0.010	0.015	0.015	0.044	2.690	1.924	1.919	1.909	1.924	1.924	1.924
0.039	0.005	0.000	0.000	0.005	0.034	0.044	2.686	1.924	1.924	1.914	1.929	1.924	1.929
0.034	0.000	-0.005	0.000	0.015	0.024	0.044	2.661	1.924	1.924	1.914	1.929	1.929	1.929
0.020	0.010	0.000	0.000	0.034	0.029	0.049	2.686	1.919	1.924	1.914	1.934	1.934	1.934
0.024	0.010	-0.005	-0.005	0.059	0.015	0.044	2.671	1.909	1.919	1.914	1.929	1.934	1.929
0.015	-0.005	0.000	-0.005	0.034	0.000	0.044	2.671	1.899	1.904	1.909	1.924	1.924	1.919
0.005	0.010	0.000	-0.005	0.020	0.000	0.044	2.681	1.899	1.899	1.904	1.924	1.914	1.919
0.015	0.005	-0.005	0.000	0.000	-0.015	0.049	2.686	1.895	1.895	1.899	1.919	1.909	1.909
0.005	0.000	-0.005	-0.005	-0.020	0.020	0.044	2.690	1.885	1.885	1.890	1.914	1.899	1.914
-0.005	0.000	-0.005	-0.005	-0.024	0.015	0.044	2.690	1.885	1.885	1.890	1.914	1.899	1.904
-0.015	0.000	0.000	0.000	-0.005	0.015	0.044	2.676	1.880	1.880	1.885	1.909	1.904	1.904
0.049	-0.005	0.005	0.000	0.024	0.015	0.044	2.671	1.904	1.885	1.885	1.904	1.909	1.909
0.039	0.000	0.005	0.005	0.034	-0.005	0.044	2.681	1.899	1.890	1.890	1.909	1.909	1.909
0.010	-0.015	0.005	0.005	0.039	0.010	0.044	2.681	1.890	1.890	1.890	1.909	1.909	1.909
-0.024	0.000	0.005	0.005	0.024	0.000	0.044	2.686	1.890	1.895	1.895	1.909	1.909	1.909
-0.054	0.005	0.010	0.005	-0.005	-0.005	0.044	2.686	1.895	1.899	1.899	1.914	1.904	1.909
-0.054	0.000	0.005	0.000	-0.020	-0.029	0.039	2.686	1.904	1.899	1.899	1.919	1.904	1.904
-0.054	0.000	-0.005	0.010	-0.029	-0.024	0.044	2.666	1.909	1.904	1.904	1.924	1.904	1.904
-0.029	-0.015	0.010	0.010	-0.059	0.015	0.044	2.686	1.914	1.909	1.909	1.924	1.904	1.919
-0.015	-0.010	0.005	0.010	-0.073	0.020	0.044	2.686	1.919	1.914	1.909	1.924	1.909	1.919
0.005	0.005	0.000	0.000	-0.010	0.010	0.044	2.671	1.919	1.919	1.909	1.924	1.924	1.914
0.020	0.010	0.000	0.005	0.015	0.024	0.049	2.681	1.914	1.919	1.909	1.924	1.929	1.929
0.010	0.005	0.000	0.000	0.015	0.034	0.044	2.686	1.909	1.909	1.904	1.924	1.929	1.924
0.010	0.010	0.000	0.005	0.005	0.020	0.049	2.686	1.904	1.909	1.904	1.924	1.919	1.919
0.015	0.010	-0.005	0.005	0.005	0.020	0.044	2.686	1.899	1.899	1.899	1.919	1.919	1.914
0.034	0.000	0.000	0.000	0.005	0.005	0.044	2.671	1.895	1.895	1.895	1.909	1.914	1.909
-0.010	-0.005	-0.005	-0.005	0.010	0.010	0.044	2.686	1.880	1.880	1.885	1.904	1.904	1.904
0.034	-0.005	0.000	-0.010	0.010	-0.015	0.049	2.690	1.899	1.890	1.885	1.904	1.904	1.899
0.044	0.010	-0.005	0.000	0.010	-0.015	0.044	2.690	1.899	1.890	1.885	1.904	1.904	1.899
0.083	-0.005	-0.005	-0.005	0.005	-0.039	0.049	2.690	1.914	1.899	1.890	1.909	1.899	1.895
0.083	0.020	0.000	-0.005	0.015	-0.029	0.049	2.690	1.909	1.914	1.899	1.914	1.909	1.904
0.034	0.015	0.005	0.000	0.000	-0.024	0.049	2.686	1.895	1.909	1.904	1.914	1.909	1.904
-0.049	0.020	0.010	-0.005	-0.015	-0.024	0.044	2.690	1.880	1.899	1.904	1.919	1.909	1.909
-0.098	-0.005	0.010	-0.005	0.000	-0.039	0.044	2.686	1.875	1.890	1.904	1.924	1.919	1.909
-0.112	-0.005	0.010	0.000	-0.005	0.005	0.044	2.695	1.885	1.895	1.904	1.929	1.919	1.929
-0.107	0.005	0.010	0.010	-0.034	0.000	0.044	2.690	1.899	1.899	1.899	1.929	1.914	1.919
-0.088	0.000	0.000	0.015	-0.039	0.000	0.044	2.690	1.909	1.899	1.899	1.929	1.914	1.924
-0.063	0.020	0.005	0.010	-0.020	0.005	0.044	2.671	1.914	1.909	1.899	1.924	1.924	1.919
0.000	0.010	0.005	0.010	0.010	0.010	0.044	2.676	1.924	1.909	1.904	1.919	1.929	1.924
0.015	0.005	0.000	0.005	0.059	-0.005	0.049	2.686	1.924	1.909	1.899	1.919	1.934	1.929
0.024	0.010	-0.005	0.000	0.024	0.029	0.044	2.676	1.914	1.904	1.899	1.914	1.919	1.929
0.000	0.005	-0.005	0.000	-0.010	0.024	0.044	2.681	1.895	1.895	1.895	1.909	1.899	1.914
0.010	-0.005	-0.005	0.005	-0.005	0.020	0.049	2.686	1.890	1.890	1.890	1.909	1.899	1.909
-0.005	-0.005	-0.005	0.000	0.000	0.020	0.044	2.690	1.890	1.885	1.890	1.904	1.899	1.904
0.010	-0.005	0.000	-0.005	0.020	0.020	0.044	2.686	1.895	1.890	1.885	1.899	1.904	1.904
0.020	0.000	0.005	-0.005	0.034	-0.005	0.044	2.695	1.895	1.895	1.890	1.904	1.909	1.899
0.024	-0.010	0.000	0.005	0.049	0.015	0.044	2.681	1.899	1.895	1.890	1.909	1.909	1.909
0.029	0.000	0.005	0.000	0.005	0.005	0.044	2.690	1.909	1.904	1.895	1.909	1.899	1.904
0.020	0.000	0.005	0.005	-0.010	0.034	0.044	2.695	1.909	1.909	1.904	1.919	1.904	1.914
0.000	0.000	-0.005	0.000	-0.010	0.015	0.044	2.676	1.904	1.909	1.904	1.919	1.909	1.909
0.005	-0.005	0.000	0.000	-0.005	-0.005	0.049	2.690	1.909	1.909	1.909	1.924	1.909	1.909
0.010	-0.005	0.000	-0.005	0.000	-0.010	0.044	2.690	1.919	1.919	1.909	1.924	1.919	1.909
0.010	0.000	0.000	-0.005	-0.010	-0.029	0.044	2.686	1.919	1.919	1.914	1.929	1.919	1.909
0.020	0.000	-0.005	-0.005	0.000	-0.010	0.049	2.690	1.919	1.919	1.914	1.934	1.924	1.919
0.020	-0.010	-0.005	0.005	0.000	-0.020	0.044	2.681	1.914	1.914	1.909	1.934	1.924	1.914
0.039	0.005	-0.005	0.010	-0.015	-0.010	0.049	2.681	1.914	1.914	1.909	1.929	1.919	1.914
0.044	-0.005	-0.005	0.000	-0.010	-0.010	0.044	2.671	1.904	1.904	1.909	1.924	1.919	1.919
0.020	-0.005	0.000	-0.005	-0.005	-0.020	0.044	2.686	1.895	1.895	1.904	1.914	1.914	1.909
0.015	0.000	0.000	-0.005	-0.034	-0.024	0.044	2.681	1.885	1.890	1.895	1.914	1.904	1.904
-0.005	0.000	0.000	0.005	-0.010	0.005	0.044	2.690	1.880	1.885	1.890	1.914	1.914	1.909
-0.034	0.005	0.005	0.010	-0.005	0.015	0.044	2.690	1.875	1.880	1.885	1.914	1.909	1.914
-0.029	0.015	0.005	0.015	-0.015	0.015	0.044	2.686	1.885	1.885	1.885	1.909	1.909	1.914
-0.015	0.010	0.000	0.015	-0.015	0.000	0.049	2.686	1.885	1.880	1.880	1.909	1.904	1.909
-0.020	0.000	0.000	0.010	-0.034	0.020	0.044	2.686	1.890	1.885	1.880	1.904	1.904	1.914
-0.005	0.000	0.005	0.005	0.049	0.034	0.049	2.690	1.909	1.895	1.890	1.909	1.929	1.924
0.000	0.005	0.000	0.000	0.078	0.020	0.049	2.676	1.919	1.904	1.895	1.914	1.929	1.929
-0.005	-0.010	0.000	0.000	0.059	0.005	0.044	2.681	1.914	1.904	1.899	1.914	1.924	1.924
-0.005	-0.015	0.005	0.005	0.044	0.010	0.049	2.686	1.919	1.914	1.909	1.924	1.919	1.924
-0.005	-0.005	0.005	0.005	0.015	0.005	0.044	2.695	1.924	1.914	1.909	1.924	1.909	1.919
0.000	-0.010	0.005	0.005	-0.010	-0.020	0.044	2.686	1.929	1.919	1.909	1.924	1.909	1.909
0.000	-0.020	0.000	0.005	-0.020	-0.005	0.044	2.666	1.914	1.914	1.909	1.924	1.909	1.914
-0.005	-0.005	0.000	0.000	-0.024	-0.005	0.044	2.690	1.904	1.914	1.909	1.924	1.909	1.909
-0.005	0.005	0.000	0.000	-0.010	0.005	0.049	2.686	1.904	1.909	1.909	1.924	1.914	1.914
0.063	0.005	0.005	-0.010	-0.010	-0.015	0.044	2.686	1.919	1.909	1.904	1.919	1.909	1.904
0.054	-0.005	0.005	-0.005	-0.005	0.000	0.044	2.676	1.899	1.904	1.899	1.919	1.914	1.909
0.010	-0.005	0.005	-0.005	0.005	0.005	0.049	2.671	1.880	1.890	1.895	1.914	1.909	1.909
-0.020	0.005	0.005	0.000	0.000	0.010	0.044	2.671	1.875	1.885	1.890	1.909	1.904	1.909
-0.044	-0.005	0.005	0.010	-0.005	0.005	0.049	2.686	1.875	1.875	1.885	1.909	1.904	1.904
-0.049	0.005	0.000	0.005	-0.005	0.010	0.044	2.695	1.880	1.875	1.880	1.909	1.904	1.909
-0.024	0.010	0.000	0.005	0.000	0.015	0.049	2.690	1.890	1.885	1.880	1.904	1.909	1.909
-0.020	0.020	-0.010	0.005	-0.005	0.010	0.044	2.686	1.899	1.890	1.885	1.909	1.904	1.909
0.000	0.010	-0.005	0.010	0.000	-0.015	0.049	2.686	1.919	1.899	1.890	1.909	1.909	1.904
0.005	0.000	-0.005	0.005	0.000	0.000	0.044	2.676	1.919	1.904	1.899	1.914	1.914	1.909
0.015	-0.005	0.000	0.000	0.000	0.005	0.044	2.686	1.924	1.909	1.904	1.919	1.914	1.919
0.010	0.000	-0.005	0.015	0.000	0.005	0.044	2.681	1.924	1.924	1.909	1.924	1.919	1.919
0.010	0.010	0.005	0.005	0.000	0.010	0.049	2.686	1.924	1.924	1.919	1.929	1.919	1.919
0.020	0.010	0.005	0.000	0.005	-0.010	0.044	2.686	1.919	1.924	1.914	1.929	1.919	1.919
0.015	0.010	0.000	-0.005	-0.005	-0.010	0.044	2.695	1.919	1.919	1.914	1.929	1.924	1.919
0.010	0.005	-0.005	-0.005	0.000	-0.005	0.044	2.676	1.904	1.914	1.909	1.924	1.919	1.919
0.005	0.015	0.000	0.000	0.000	-0.015	0.049	2.676	1.899	1.909	1.909	1.924	1.914	1.909
0.005	0.005	-0.005	-0.010	-0.005	0.000	0.044	2.695	1.890	1.895	1.899	1.919	1.914	1.914
0.024	0.000	0.005	-0.005	0.000	0.000	0.049	2.676	1.890	1.890	1.895	1.914	1.909	1.914
0.005	0.005	0.005	-0.005	0.000	-0.034	0.044	2.690	1.885	1.885	1.890	1.909	1.909	1.899
0.005	-0.010	0.000	-0.005	0.000	-0.005	0.044	2.681	1.885	1.880	1.885	1.909	1.904	1.909
0.000	-0.010	0.000	0.000	-0.010	-0.010	0.044	2.676	1.885	1.880	1.880	1.909	1.904	1.904
0.000	-0.005	0.000	0.000	0.000	0.010	0.044	2.690	1.890	1.885	1.880	1.904	1.904	1.909
-0.005	0.000	0.000	0.005	0.000	0.015	0.044	2.690	1.890	1.890	1.885	1.909	1.904	1.914
0.000	0.005	0.005	0.010	0.005	0.020	0.044	2.695	1.904	1.899	1.890	1.909	1.909	1.914
-0.005	0.005	0.005	0.005	0.010	0.020	0.049	2.681	1.909	1.904	1.895	1.914	1.914	1.919
0.005	0.000	0.005	0.000	0.005	0.020	0.044	2.695	1.914	1.909	1.899	1.914	1.914	1.919
-0.005	0.000	0.005	0.000	0.005	0.010	0.044	2.690	1.914	1.914	1.909	1.924	1.919	1.919
-0.015	0.000	0.005	-0.005	0.010	0.020	0.049	2.686	1.919	1.919	1.909	1.924	1.919	1.924
-0.020	0.000	0.005	0.000	0.000	-0.010	0.044	2.676	1.909	1.919	1.914	1.924	1.919	1.914
0.000	0.005	0.000	0.000	-0.005	0.005	0.044	2.686	1.919	1.919	1.909	1.924	1.914	1.914
0.000	-0.010	0.000	-0.005	-0.005	0.000	0.044	2.690	1.909	1.909	1.909	1.924	1.919	1.914
-0.005	-0.005	-0.005	-0.010	0.000	0.000	0.044	2.676	1.904	1.909	1.904	1.924	1.919	1.914
-0.015	-0.005	-0.005	-0.005	-0.005	-0.024	0.044	2.690	1.895	1.899	1.904	1.919	1.914	1.909
-0.005	0.005	-0.005	0.000	0.000	0.010	0.044	2.690	1.899	1.899	1.899	1.914	1.914	1.914
0.000	0.005	0.000	-0.005	-0.005	0.000	0.044	2.686	1.895	1.890	1.895	1.914	1.909	1.909
0.029	-0.010	0.000	0.000	0.005	0.010	0.049	2.681	1.895	1.890	1.890	1.909	1.909	1.909
0.039	0.000	0.000	0.000	0.005	0.015	0.044	2.686	1.895	1.890	1.885	1.909	1.904	1.909
0.024	0.010	0.000	0.000	0.005	0.020	0.049	2.686	1.890	1.890	1.890	1.904	1.904	1.909
0.029	0.005	0.000	-0.005	-0.005	-0.005	0.044	2.671	1.895	1.890	1.890	1.904	1.899	1.899
0.010	0.000	0.000	-0.005	0.005	0.024	0.049	2.700	1.899	1.895	1.890	1.909	1.904	1.909
0.010	0.010	0.000	0.000	0.010	0.020	0.044	2.695	1.904	1.899	1.895	1.914	1.909	1.914
0.015	0.020	0.000	0.010	0.005	-0.010	0.044	2.681	1.909	1.909	1.904	1.919	1.914	1.909
-0.010	-0.005	0.005	0.010	0.005	-0.010	0.049	2.690	1.899	1.899	1.904	1.924	1.919	1.909
-0.029	0.015	0.000	0.020	0.020	-0.034	0.044	2.690	1.899	1.909	1.909	1.929	1.924	1.914
-0.049	0.005	0.000	0.010	0.020	0.000	0.049	2.661	1.899	1.904	1.909	1.929	1.929	1.929
-0.059	0.000	0.005	0.010	0.020	-0.005	0.049	2.681	1.904	1.904	1.909	1.929	1.929	1.924
-0.054	0.000	0.005	0.005	0.015	-0.010	0.049	2.695	1.909	1.904	1.904	1.929	1.924	1.924
-0.044	-0.010	0.005	0.000	0.020	0.005	0.044	2.686	1.904	1.899	1.904	1.924	1.919	1.924
-0.039	-0.005	0.010	0.005	0.020	-0.024	0.049	2.681	1.899	1.899	1.899	1.919	1.919	1.914
-0.020	-0.015	0.005	0.005	0.015	-0.039	0.044	2.681	1.904	1.895	1.895	1.914	1.909	1.909
0.015	-0.005	0.005	0.005	0.010	-0.029	0.044	2.686	1.904	1.899	1.890	1.909	1.904	1.909
0.005	-0.005	0.005	0.005	0.010	-0.054	0.044	2.671	1.895	1.890	1.885	1.904	1.904	1.899
0.005	0.005	0.000	0.005	0.005	-0.020	0.044	2.681	1.890	1.890	1.890	1.904	1.899	1.904
0.029	0.000	0.000	0.005	0.000	-0.010	0.049	2.686	1.895	1.895	1.885	1.904	1.899	1.909
0.039	0.000	0.000	0.010	0.005	0.000	0.044	2.686	1.904	1.890	1.885	1.904	1.899	1.904
0.034	-0.005	-0.005	0.010	0.000	-0.005	0.044	2.661	1.895	1.895	1.890	1.909	1.899	1.904
0.015	0.000	0.000	0.010	0.000	-0.010	0.049	2.695	1.899	1.899	1.895	1.909	1.904	1.904
-0.005	0.005	-0.005	0.000	0.000	0.024	0.044	2.686	1.899	1.895	1.899	1.909	1.909	1.914
-0.005	0.015	-0.005	0.000	-0.005	0.015	0.044	2.690	1.904	1.909	1.899	1.914	1.909	1.914
-0.005	0.000	0.005	0.005	0.000	0.024	0.049	2.700	1.919	1.909	1.909	1.919	1.914	1.919
0.000	0.005	0.000	-0.005	-0.005	0.000	0.044	2.695	1.919	1.919	1.909	1.924	1.919	1.914
0.010	0.005	0.000	0.000	0.000	0.020	0.049	2.666	1.919	1.924	1.914	1.929	1.924	1.919
0.005	0.010	-0.005	-0.005	-0.005	0.010	0.044	2.651	1.914	1.919	1.914	1.929	1.919	1.919
0.015	0.015	-0.005	0.005	-0.010	-0.010	0.049	2.676	1.909	1.919	1.914	1.934	1.919	1.914
0.024	0.005	0.000	0.005	-0.010	0.015	0.049	2.686	1.904	1.909	1.914	1.929	1.919	1.924
0.010	0.010	0.000	0.005	-0.010	0.015	0.049	2.690	1.899	1.904	1.909	1.929	1.919	1.914
0.010	-0.005	-0.005	0.010	-0.015	0.005	0.049	2.686	1.895	1.895	1.899	1.924	1.914	1.909
0.010	0.000	0.000	0.015	-0.005	0.015	0.044	2.671	1.890	1.890	1.895	1.919	1.914	1.914
0.005	-0.005	0.005	0.010	-0.010	0.010	0.044	2.681	1.885	1.885	1.885	1.909	1.909	1.909
0.015	-0.005	0.000	-0.005	-0.010	-0.010	0.044	2.676	1.890	1.885	1.885	1.904	1.904	1.904
0.029	0.010	0.000	-0.010	-0.005	0.015	0.044	2.690	1.895	1.890	1.885	1.904	1.904	1.909
0.034	0.005	0.000	-0.005	-0.015	0.015	0.049	2.686	1.895	1.885	1.885	1.904	1.899	1.904
0.054	0.005	0.005	-0.005	-0.015	0.010	0.044	2.681	1.904	1.895	1.890	1.904	1.904	1.904
0.020	0.005	0.005	-0.010	-0.015	0.015	0.044	2.681	1.899	1.895	1.895	1.904	1.904	1.909
-0.005	0.015	0.000	-0.015	-0.005	0.015	0.044	2.695	1.899	1.904	1.899	1.909	1.909	1.909
-0.039	0.020	0.005	0.005	-0.005	0.010	0.044	2.676	1.895	1.904	1.904	1.919	1.914	1.914
-0.044	0.005	0.000	0.020	0.005	0.000	0.049	2.686	1.899	1.899	1.904	1.929	1.924	1.914
-0.059	-0.005	0.010	0.024	0.000	-0.010	0.044	2.700	1.909	1.904	1.909	1.934	1.924	1.919
-0.044	-0.005	0.000	0.024	0.005	0.010	0.044	2.681	1.914	1.909	1.909	1.929	1.929	1.924
-0.020	-0.005	0.000	0.010	0.010	0.005	0.044	2.671	1.914	1.909	1.904	1.924	1.924	1.924
-0.005	-0.005	0.005	0.005	0.000	-0.020	0.049	2.690	1.919	1.909	1.904	1.924	1.919	1.919
0.000	0.010	0.000	0.000	0.000	0.000	0.049	2.671	1.909	1.914	1.904	1.919	1.919	1.919
0.000	-0.005	0.000	-0.005	0.000	0.005	0.044	2.676	1.904	1.904	1.899	1.914	1.914	1.919
0.010	0.005	0.000	-0.015	0.000	-0.020	0.044	2.686	1.899	1.899	1.895	1.909	1.904	1.909
0.010	0.000	0.000	-0.015	0.000	0.005	0.049	2.695	1.895	1.895	1.895	1.904	1.904	1.909
0.000	-0.005	0.000	-0.020	-0.005	-0.010	0.049	2.686	1.890	1.885	1.890	1.904	1.899	1.895
0.000	-0.010	0.000	-0.010	0.000	-0.015	0.044	2.651	1.885	1.885	1.885	1.904	1.899	1.899
0.015	0.000	0.000	-0.005	0.005	0.010	0.044	2.690	1.890	1.890	1.885	1.904	1.904	1.909
0.010	-0.005	0.005	0.005	0.005	0.010	0.044	2.686	1.895	1.890	1.885	1.909	1.904	1.904
0.015	0.005	0.010	0.005	0.000	0.005	0.044	2.681	1.899	1.899	1.890	1.909	1.904	1.909
0.015	-0.005	0.000	0.005	0.005	0.000	0.044	2.671	1.904	1.899	1.895	1.914	1.909	1.904
0.029	0.000	0.000	0.000	0.000	-0.024	0.044	2.676	1.914	1.909	1.899	1.919	1.909	1.904
0.054	-0.005	0.005	0.000	0.000	0.010	0.044	2.690	1.924	1.914	1.904	1.919	1.914	1.919
0.034	0.000	0.005	0.000	0.000	0.005	0.044	2.686	1.914	1.919	1.909	1.924	1.919	1.919
0.000	0.000	0.005	0.000	0.005	-0.010	0.049	2.676	1.909	1.914	1.914	1.929	1.924	1.919
-0.020	-0.005	-0.005	-0.005	0.005	0.005	0.044	2.690	1.904	1.909	1.909	1.929	1.924	1.924
-0.039	0.000	0.005	0.005	0.005	0.010	0.044	2.695	1.899	1.904	1.909	1.929	1.924	1.924
-0.049	0.000	0.005	0.010	0.005	0.005	0.044	2.671	1.890	1.904	1.904	1.929	1.924	1.924
-0.034	0.000	0.000	0.010	0.000	0.000	0.044	2.676	1.895	1.895	1.899	1.924	1.919	1.919
-0.015	-0.005	0.000	0.015	0.005	-0.005	0.044	2.686	1.904	1.895	1.895	1.924	1.919	1.914
0.010	0.000	0.000	0.015	0.005	-0.020	0.049	2.681	1.909	1.895	1.890	1.914	1.909	1.909
0.005	0.010	0.000	0.015	0.010	-0.010	0.044	2.690	1.899	1.895	1.890	1.909	1.909	1.909
-0.005	0.000	-0.005	-0.005	0.000	-0.005	0.044	2.681	1.890	1.885	1.885	1.899	1.899	1.904
-0.005	-0.005	0.005	-0.010	0.005	0.020	0.044	2.695	1.890	1.885	1.885	1.899	1.904	1.909
-0.010	0.005	0.005	-0.005	0.005	0.010	0.049	2.681	1.890	1.890	1.885	1.904	1.899	1.909
-0.010	-0.005	0.000	-0.005	0.005	0.015	0.044	2.690	1.890	1.890	1.885	1.904	1.899	1.904
-0.015	-0.005	0.000	0.000	0.005	0.005	0.044	2.695	1.904	1.899	1.890	1.909	1.904	1.904
0.005	0.005	-0.005	0.005	0.005	0.000	0.049	2.690	1.914	1.904	1.899	1.914	1.904	1.904
0.020	0.015	0.000	0.000	0.000	0.005	0.044	2.686	1.919	1.919	1.904	1.919	1.909	1.909
0.073	0.010	0.005	0.005	0.000	-0.024	0.049	2.676	1.934	1.924	1.914	1.924	1.914	1.904
0.054	-0.010	0.000	0.000	-0.005	0.015	0.044	2.661	1.924	1.924	1.919	1.929	1.919	1.919
0.015	0.000	0.000	0.005	0.000	-0.015	0.044	2.676	1.909	1.919	1.919	1.934	1.924	1.914
-0.010	-0.005	0.005	0.000	0.000	0.015	0.049	2.671	1.899	1.914	1.919	1.934	1.924	1.929
-0.034	0.000	0.000	-0.010	0.000	0.005	0.044	2.681	1.890	1.909	1.914	1.929	1.924	1.924
-0.020	0.000	0.005	-0.005	0.010	-0.024	0.044	2.671	1.895	1.899	1.904	1.929	1.924	1.914
-0.010	-0.005	0.005	0.000	0.000	-0.005	0.044	2.676	1.899	1.899	1.899	1.924	1.919	1.914
-0.005	-0.005	-0.005	0.005	0.005	0.000	0.049	2.676	1.890	1.890	1.895	1.924	1.919	1.914
0.005	0.005	0.000	0.015	-0.005	-0.005	0.044	2.661	1.895	1.895	1.890	1.919	1.914	1.914
0.015	0.010	0.000	0.015	0.005	0.000	0.049	2.686	1.895	1.890	1.890	1.914	1.909	1.914
0.005	0.010	0.000	0.015	-0.005	0.000	0.044	2.686	1.890	1.890	1.885	1.909	1.904	1.909
0.000	-0.005	0.000	0.010	-0.005	0.000	0.044	2.686	1.890	1.880	1.880	1.904	1.904	1.909
0.010	0.000	0.005	0.010	0.000	0.000	0.049	2.700	1.899	1.890	1.885	1.904	1.904	1.904
0.005	0.005	0.010	0.010	0.005	-0.005	0.044	2.690	1.899	1.895	1.885	1.904	1.904	1.904
-0.005	0.000	0.000	0.000	0.005	0.015	0.044	2.676	1.899	1.899	1.895	1.904	1.909	1.914
-0.015	0.000	0.000	-0.005	0.000	0.010	0.044	2.676	1.904	1.899	1.895	1.909	1.904	1.914
-0.015	0.000	-0.005	-0.010	0.000	0.010	0.044	2.681	1.904	1.904	1.899	1.909	1.909	1.914
-0.010	-0.005	0.000	0.000	0.000	0.005	0.049	2.681	1.914	1.909	1.904	1.924	1.909	1.914
0.005	0.005	0.000	0.000	0.000	0.010	0.044	2.690	1.924	1.919	1.909	1.929	1.919	1.919
0.010	0.000	0.000	0.005	0.005	-0.005	0.049	2.690	1.924	1.919	1.914	1.934	1.919	1.914
0.015	0.000	0.005	0.000	0.005	0.005	0.044	2.690	1.919	1.919	1.914	1.929	1.924	1.919
0.010	0.005	0.000	0.000	0.000	0.010	0.044	2.686	1.909	1.914	1.914	1.929	1.924	1.919
0.005	0.005	0.000	-0.005	0.005	0.005	0.044	2.690	1.909	1.909	1.909	1.924	1.924	1.919
0.005	0.005	0.000	-0.005	0.000	0.000	0.044	2.686	1.899	1.904	1.904	1.924	1.914	1.914
0.000	0.005	0.000	0.000	0.000	-0.005	0.044	2.676	1.890	1.895	1.899	1.919	1.914	1.909
-0.005	-0.005	0.005	0.005	0.000	-0.015	0.049	2.666	1.885	1.890	1.895	1.914	1.909	1.904
0.000	-0.005	0.010	0.000	0.000	0.000	0.049	2.676	1.885	1.885	1.890	1.909	1.909	1.909
0.005	-0.005	0.000	0.000	0.005	0.010	0.049	2.690	1.890	1.880	1.880	1.904	1.904	1.909
0.005	0.000	0.000	-0.005	0.000	0.005	0.049	2.671	1.890	1.880	1.885	1.904	1.904	1.909
0.000	0.000	0.000	-0.005	0.000	0.000	0.049	2.686	1.895	1.885	1.885	1.904	1.904	1.904
0.005	-0.005	-0.005	-0.010	0.000	-0.005	0.049	2.681	1.899	1.890	1.890	1.904	1.899	1.904
0.000	0.000	0.000	0.000	0.010	-0.005	0.049	2.700	1.909	1.899	1.895	1.909	1.909	1.904
0.000	0.000	0.000	0.000	0.000	0.000	0.044	2.676	1.909	1.909	1.899	1.914	1.909	1.909
-0.005	0.000	0.000	-0.005	0.005	0.015	0.044	2.695	1.914	1.914	1.904	1.919	1.914	1.919
-0.005	0.005	0.005	-0.005	0.000	0.010	0.044	2.695	1.919	1.919	1.909	1.924	1.919	1.919
0.000	0.000	-0.005	0.005	0.000	0.015	0.044	2.690	1.924	1.919	1.914	1.929	1.919	1.924
0.000	0.010	0.000	0.000	0.005	0.000	0.049	2.686	1.919	1.924	1.914	1.929	1.924	1.914
0.000	0.000	0.005	-0.005	0.000	0.015	0.049	2.676	1.914	1.914	1.914	1.929	1.924	1.924
0.000	0.005	0.000	-0.005	0.005	0.005	0.044	2.690	1.909	1.914	1.914	1.929	1.919	1.919
0.005	0.010	0.000	0.005	0.000	-0.020	0.044	2.686	1.904	1.909	1.909	1.929	1.919	1.909
-0.005	0.010	0.000	0.015	-0.005	0.005	0.044	2.676	1.895	1.904	1.904	1.929	1.919	1.919
0.005	-0.005	-0.005	0.024	-0.005	0.005	0.044	2.676	1.890	1.890	1.895	1.924	1.919	1.914
-0.015	0.000	0.005	0.024	-0.005	0.005	0.044	2.681	1.885	1.885	1.890	1.919	1.914	1.914
0.000	-0.010	0.000	0.020	0.000	0.000	0.044	2.690	1.890	1.880	1.885	1.909	1.909	1.909
-0.005	-0.005	0.000	0.000	0.005	0.000	0.044	2.686	1.890	1.885	1.880	1.899	1.909	1.909
0.020	-0.015	0.005	-0.005	0.005	0.005	0.044	2.671	1.895	1.885	1.880	1.899	1.904	1.909
0.029	0.000	0.000	-0.005	0.000	0.005	0.049	2.690	1.904	1.895	1.885	1.904	1.904	1.909
0.010	0.000	0.000	-0.005	0.005	-0.005	0.044	2.681	1.904	1.899	1.890	1.904	1.904	1.909
-0.015	0.000	0.000	0.000	0.005	0.005	0.049	2.681	1.899	1.904	1.895	1.909	1.904	1.909
-0.015	0.010	0.005	-0.010	0.000	-0.005	0.044	2.690	1.904	1.904	1.899	1.909	1.904	1.909
-0.024	0.000	0.000	-0.010	0.000	0.000	0.044	2.666	1.904	1.909	1.904	1.919	1.914	1.914
-0.029	0.010	0.000	-0.005	0.005	0.020	0.044	2.671	1.909	1.914	1.909	1.924	1.919	1.924
-0.015	-0.005	0.000	0.000	0.005	0.010	0.049	2.676	1.919	1.909	1.909	1.929	1.919	1.914
-0.005	0.010	0.000	0.005	0.000	0.010	0.044	2.676	1.919	1.919	1.914	1.929	1.924	1.919
0.010	0.000	-0.005	0.000	0.000	-0.024	0.049	2.686	1.919	1.914	1.909	1.929	1.919	1.909
0.005	0.000	0.000	0.005	0.000	0.005	0.044	2.686	1.909	1.909	1.909	1.929	1.924	1.919
0.000	0.010	0.000	0.015	-0.005	-0.005	0.044	2.681	1.904	1.909	1.904	1.929	1.919	1.914
0.020	0.000	0.000	0.015	0.000	0.005	0.044	2.686	1.899	1.899	1.899	1.924	1.919	1.914
0.000	0.010	0.000	0.015	0.005	0.000	0.044	2.681	1.890	1.895	1.899	1.919	1.914	1.914
-0.005	-0.010	0.000	0.010	0.005	-0.015	0.044	2.686	1.885	1.880	1.890	1.909	1.909	1.909
0.000	0.020	0.000	0.000	0.000	-0.005	0.044	2.681	1.885	1.890	1.890	1.904	1.904	1.909
-0.005	0.005	0.010	0.000	-0.005	-0.010	0.044	2.700	1.890	1.885	1.885	1.904	1.899	1.899
0.005	0.010	0.000	-0.005	0.000	0.010	0.044	2.686	1.895	1.890	1.885	1.904	1.904	1.909
0.020	-0.005	0.000	0.000	0.000	0.010	0.049	2.686	1.899	1.890	1.890	1.904	1.904	1.904
0.010	-0.020	0.000	-0.010	0.000	0.010	0.049	2.695	1.904	1.890	1.890	1.904	1.904	1.909
0.015	-0.005	0.000	-0.005	0.000	0.000	0.044	2.690	1.909	1.904	1.895	1.914	1.909	1.909
0.000	-0.010	0.005	0.000	0.005	0.024	0.044	2.695	1.914	1.909	1.904	1.919	1.914	1.919
-0.005	0.000	0.000	-0.010	0.000	0.024	0.044	2.695	1.914	1.914	1.909	1.919	1.914	1.919
0.000	0.005	0.005	-0.010	0.005	0.005	0.044	2.690	1.919	1.924	1.914	1.924	1.919	1.914
-0.010	0.000	0.000	0.000	-0.010	0.005	0.044	2.676	1.909	1.919	1.914	1.934	1.919	1.919
-0.005	0.005	-0.005	0.005	-0.005	0.000	0.044	2.671	1.909	1.914	1.914	1.934	1.924	1.914
0.000	-0.010	0.000	0.015	0.000	-0.005	0.044	2.686	1.909	1.909	1.909	1.934	1.924	1.919
-0.005	0.000	0.000	0.015	0.000	-0.005	0.049	2.681	1.899	1.904	1.909	1.929	1.924	1.919
0.000	0.000	-0.005	0.000	0.000	-0.010	0.044	2.686	1.899	1.899	1.899	1.924	1.919	1.914
0.010	-0.005	0.000	0.000	0.000	0.000	0.049	2.695	1.904	1.899	1.899	1.919	1.914	1.914
0.010	0.015	0.005	0.005	0.005	0.000	0.044	2.681	1.895	1.895	1.895	1.914	1.914	1.914
0.010	0.029	-0.005	0.010	-0.005	-0.029	0.049	2.676	1.885	1.895	1.895	1.914	1.909	1.899
0.000	0.024	0.000	0.015	0.005	0.000	0.049	2.681	1.885	1.890	1.890	1.909	1.909	1.909
0.005	0.005	0.005	0.005	-0.005	0.010	0.039	2.671	1.885	1.880	1.885	1.909	1.904	1.909
0.000	-0.005	0.005	0.005	0.000	0.010	0.044	2.681	1.890	1.880	1.885	1.904	1.904	1.909
0.005	0.000	0.005	0.005	0.010	-0.015	0.044	2.671	1.895	1.890	1.885	1.909	1.909	1.904
-0.005	0.015	0.000	0.005	0.020	0.010	0.044	2.690	1.899	1.899	1.895	1.909	1.914	1.919
0.005	0.005	-0.005	0.005	0.010	0.010	0.044	2.686	1.909	1.899	1.895	1.914	1.914	1.919
0.000	0.005	0.005	0.000	0.010	0.010	0.044	2.690	1.914	1.904	1.904	1.914	1.914	1.919
0.000	-0.005	0.005	0.000	0.005	0.010	0.049	2.666	1.914	1.914	1.904	1.924	1.914	1.919
-0.005	-0.005	0.000	0.000	0.000	0.005	0.049	2.676	1.914	1.914	1.909	1.924	1.914	1.924
0.000	0.010	0.000	0.000	-0.005	0.000	0.044	2.690	1.919	1.919	1.909	1.924	1.919	1.919
-0.010	0.000	0.000	0.000	-0.005	-0.005	0.044	2.681	1.914	1.914	1.909	1.929	1.914	1.919
-0.005	0.005	0.005	-0.005	-0.010	-0.005	0.044	2.686	1.909	1.914	1.909	1.924	1.919	1.914
0.000	0.005	0.000	-0.005	-0.005	-0.024	0.049	2.666	1.904	1.904	1.904	1.919	1.914	1.904
-0.005	0.000	0.000	-0.010	0.005	-0.024	0.044	2.681	1.899	1.895	1.899	1.919	1.914	1.909
0.005	-0.005	0.005	-0.005	0.000	0.010	0.044	2.681	1.895	1.895	1.899	1.914	1.914	1.914
0.000	-0.010	0.005	-0.005	0.005	-0.005	0.044	2.690	1.890	1.885	1.890	1.909	1.909	1.909
0.005	-0.015	0.000	0.000	-0.005	0.005	0.044	2.686	1.890	1.885	1.885	1.909	1.904	1.909
0.000	-0.010	0.005	0.000	-0.005	0.005	0.044	2.690	1.885	1.885	1.880	1.904	1.904	1.904
0.005	0.005	0.005	0.005	0.000	-0.005	0.044	2.676	1.890	1.890	1.885	1.904	1.904	1.904
-0.005	0.000	0.000	-0.005	0.005	0.005	0.044	2.695	1.895	1.885	1.885	1.904	1.904	1.904
0.000	-0.005	0.000	0.010	-0.005	0.005	0.049	2.690	1.904	1.895	1.890	1.909	1.904	1.909
-0.005	0.000	-0.005	0.005	0.000	-0.005	0.044	2.671	1.904	1.899	1.890	1.909	1.909	1.909
0.005	0.000	0.005	0.010	-0.005	-0.010	0.049	2.671	1.909	1.909	1.904	1.919	1.909	1.909
0.000	0.005	0.000	0.010	-0.005	0.010	0.044	2.686	1.914	1.909	1.904	1.924	1.914	1.919
0.005	0.005	0.000	0.005	-0.005	0.010	0.049	2.690	1.919	1.919	1.909	1.929	1.919	1.919
-0.005	-0.005	0.000	0.000	0.005	-0.005	0.044	2.681	1.919	1.914	1.914	1.929	1.924	1.919
0.005	-0.005	0.005	0.000	0.000	-0.005	0.049	2.671	1.909	1.914	1.914	1.929	1.924	1.919
0.000	0.000	0.005	-0.005	0.000	-0.034	0.044	2.690	1.909	1.914	1.914	1.929	1.919	1.914
0.010	-0.010	0.005	-0.005	0.015	-0.005	0.044	2.837	1.924	1.909	1.909	1.924	1.919	1.919
0.000	0.000	0.005	-0.010	0.005	-0.010	0.044	2.646	1.909	1.909	1.904	1.919	1.919	1.914
0.010	-0.005	0.005	-0.005	-0.010	0.015	0.049	2.646	1.895	1.899	1.899	1.919	1.909	1.919
0.000	0.000	0.005	-0.005	0.005	0.010	0.044	2.666	1.885	1.895	1.899	1.914	1.914	1.919
-0.005	0.010	-0.005	0.000	0.005	0.024	0.044	2.656	1.885	1.890	1.895	1.914	1.914	1.914
-0.005	0.024	-0.005	0.000	0.020	0.005	0.044	2.632	1.880	1.890	1.890	1.909	1.909	1.904
-0.005	0.000	0.000	0.005	0.029	0.010	0.044	2.651	1.880	1.875	1.885	1.909	1.909	1.909
-0.005	-0.010	-0.005	0.005	0.005	0.005	0.044	2.690	1.880	1.875	1.885	1.904	1.899	1.904
0.000	0.000	-0.005	0.005	-0.010	-0.010	0.044	2.817	1.909	1.890	1.885	1.904	1.899	1.899
0.000	-0.005	-0.005	0.005	-0.024	-0.010	0.039	2.642	1.909	1.895	1.890	1.904	1.899	1.899
0.000	0.015	-0.005	0.005	-0.059	-0.015	0.044	2.832	1.929	1.909	1.895	1.909	1.890	1.899
0.005	0.010	0.005	0.005	-0.078	-0.010	0.044	2.686	1.924	1.914	1.904	1.919	1.895	1.904
-0.005	0.010	0.005	0.015	-0.054	0.010	0.049	2.695	1.924	1.924	1.914	1.929	1.914	1.914
0.005	-0.005	0.000	0.015	0.015	-0.020	0.049	2.681	1.924	1.919	1.914	1.934	1.938	1.919
0.000	0.010	0.000	0.005	0.044	0.000	0.044	2.666	1.919	1.924	1.919	1.934	1.943	1.934
0.005	0.015	0.000	-0.005	0.103	0.005	0.049	2.686	1.919	1.924	1.919	1.934	1.958	1.943
0.005	-0.010	0.000	-0.005	0.093	-0.010	0.044	2.681	1.914	1.914	1.914	1.934	1.943	1.938
0.000	-0.005	0.000	0.005	0.059	0.010	0.044	2.637	1.904	1.909	1.914	1.929	1.929	1.934
0.000	0.005	0.005	0.005	0.034	-0.010	0.044	2.666	1.895	1.909	1.909	1.929	1.919	1.924
0.005	0.005	0.000	0.005	0.020	0.000	0.044	2.656	1.890	1.899	1.899	1.924	1.914	1.924
0.005	0.010	0.000	0.010	-0.010	0.010	0.044	2.632	1.880	1.890	1.895	1.914	1.904	1.914
0.005	0.010	0.000	0.000	-0.039	0.000	0.044	2.686	1.885	1.885	1.890	1.909	1.890	1.904
0.005	0.005	0.010	0.000	-0.039	0.010	0.044	2.651	1.880	1.880	1.885	1.904	1.895	1.904
0.005	0.005	0.005	0.000	-0.020	0.015	0.049	2.651	1.885	1.880	1.885	1.904	1.899	1.904
0.010	-0.005	0.005	0.000	0.000	0.010	0.044	2.827	1.909	1.885	1.880	1.904	1.909	1.909
0.005	0.000	0.000	0.000	0.005	0.015	0.044	2.671	1.904	1.890	1.890	1.904	1.909	1.909
-0.005	-0.005	0.000	-0.005	0.005	0.010	0.049	2.686	1.909	1.895	1.890	1.909	1.909	1.914
0.005	0.005	0.005	0.000	-0.005	0.015	0.044	2.695	1.914	1.909	1.899	1.914	1.909	1.914
0.010	0.005	0.000	-0.005	-0.005	-0.020	0.044	2.690	1.919	1.914	1.904	1.919	1.909	1.904
0.000	-0.005	0.000	-0.005	-0.005	0.005	0.044	2.681	1.919	1.914	1.909	1.924	1.919	1.919
-0.005	-0.005	-0.005	-0.005	0.000	-0.015	0.044	2.676	1.914	1.919	1.914	1.924	1.919	1.914
0.000	-0.005	0.000	-0.005	-0.005	0.020	0.049	2.666	1.914	1.919	1.914	1.929	1.924	1.929
0.005	-0.010	0.000	-0.005	-0.005	0.024	0.049	2.671	1.909	1.909	1.914	1.934	1.924	1.929
0.000	0.005	0.000	-0.005	0.000	0.005	0.049	2.651	1.904	1.909	1.909	1.929	1.924	1.919
0.005	-0.005	0.005	-0.005	0.010	-0.005	0.049	2.651	1.899	1.904	1.909	1.924	1.924	1.919
0.000	0.000	0.000	0.000	0.005	0.020	0.044	2.681	1.895	1.899	1.899	1.924	1.919	1.919
-0.005	0.000	-0.005	0.005	-0.020	0.015	0.044	2.812	1.904	1.890	1.895	1.919	1.909	1.914
0.005	0.000	-0.005	0.010	-0.024	-0.005	0.044	2.651	1.899	1.890	1.890	1.914	1.904	1.904
-0.010	0.000	0.005	0.020	-0.024	-0.024	0.044	2.637	1.885	1.885	1.885	1.914	1.899	1.895
-0.005	0.010	0.000	0.020	-0.044	-0.039	0.044	2.666	1.880	1.890	1.885	1.904	1.895	1.890
0.005	0.005	0.005	0.015	-0.044	-0.024	0.044	2.671	1.885	1.885	1.885	1.904	1.899	1.895
0.000	0.005	0.000	0.005	-0.039	-0.020	0.049	2.676	1.890	1.885	1.885	1.899	1.899	1.899
-0.005	0.000	0.000	0.000	0.000	-0.010	0.044	2.666	1.890	1.890	1.890	1.904	1.914	1.909
0.000	0.005	-0.005	0.000	0.015	-0.029	0.044	2.681	1.904	1.895	1.890	1.909	1.914	1.909
0.010	0.000	-0.005	0.000	0.010	0.020	0.049	2.681	1.904	1.904	1.899	1.914	1.919	1.924
-0.005	0.000	0.000	0.000	0.034	0.005	0.049	2.666	1.904	1.909	1.899	1.919	1.929	1.924
0.005	0.005	0.000	-0.005	0.059	0.039	0.044	2.656	1.914	1.914	1.904	1.919	1.934	1.943
0.000	0.000	0.005	0.000	0.073	0.020	0.049	2.656	1.914	1.914	1.909	1.924	1.934	1.934
-0.005	0.000	0.000	0.000	0.054	0.029	0.049	2.651	1.909	1.909	1.909	1.929	1.924	1.934
0.000	0.000	0.000	0.005	0.059	0.020	0.049	2.686	1.909	1.909	1.909	1.929	1.929	1.929
0.005	0.005	0.005	0.005	0.015	0.005	0.044	2.808	1.924	1.909	1.904	1.924	1.909	1.919
0.010	0.000	0.000	-0.010	-0.010	-0.020	0.049	2.822	1.934	1.914	1.904	1.914	1.904	1.904
0.000	0.000	0.000	-0.020	-0.020	0.005	0.044	2.827	1.929	1.909	1.904	1.914	1.899	1.909
0.000	-0.005	0.000	-0.005	-0.024	0.010	0.044	2.681	1.914	1.904	1.899	1.914	1.899	1.904
0.005	0.000	0.000	0.010	-0.015	0.020	0.044	2.671	1.904	1.904	1.899	1.919	1.904	1.904
-0.005	-0.005	0.000	0.015	-0.020	0.000	0.044	2.661	1.895	1.899	1.895	1.919	1.904	1.895
0.000	0.000	0.000	0.015	-0.005	-0.005	0.044	2.676	1.890	1.895	1.895	1.914	1.909	1.899
-0.010	0.005	0.005	0.010	0.000	0.000	0.049	2.690	1.890	1.895	1.895	1.914	1.909	1.904
-0.010	-0.005	0.000	0.000	0.000	-0.024	0.049	2.671	1.895	1.895	1.895	1.914	1.909	1.899
-0.005	-0.005	0.000	-0.005	0.000	-0.005	0.044	2.661	1.899	1.899	1.899	1.914	1.914	1.909
0.000	0.000	0.000	-0.005	-0.005	0.000	0.044	2.651	1.904	1.899	1.899	1.914	1.914	1.914
0.010	0.000	0.000	-0.005	-0.029	0.000	0.044	2.651	1.909	1.909	1.904	1.919	1.914	1.914
0.005	0.010	0.000	-0.005	-0.049	-0.024	0.044	2.651	1.904	1.914	1.909	1.924	1.909	1.909
0.000	0.010	0.005	-0.005	-0.024	0.000	0.044	2.676	1.909	1.909	1.914	1.929	1.924	1.924
0.000	0.000	0.000	0.000	0.005	0.010	0.044	2.632	1.924	1.914	1.909	1.934	1.934	1.929
-0.005	0.005	0.005	0.010	-0.020	0.010	0.044	2.642	1.914	1.919	1.914	1.934	1.924	1.924
0.005	0.010	0.000	0.005	-0.054	-0.010	0.049	2.817	1.929	1.919	1.914	1.929	1.914	1.919
0.000	-0.005	0.000	0.005	-0.049	0.005	0.044	2.681	1.914	1.909	1.909	1.929	1.919	1.924
0.000	-0.015	0.000	0.005	-0.020	-0.015	0.049	2.666	1.909	1.904	1.904	1.924	1.924	1.909
0.000	-0.010	0.000	0.000	0.059	-0.005	0.044	2.681	1.899	1.899	1.899	1.924	1.943	1.924
0.000	-0.005	-0.005	0.000	0.083	0.005	0.049	2.686	1.895	1.895	1.895	1.919	1.934	1.929
0.005	0.015	0.000	0.000	0.103	0.000	0.049	2.671	1.895	1.899	1.895	1.914	1.934	1.929
0.000	0.010	0.000	0.000	0.063	0.020	0.044	2.681	1.890	1.890	1.890	1.909	1.909	1.929
0.005	0.010	-0.005	0.000	0.020	0.010	0.049	2.656	1.890	1.890	1.890	1.904	1.899	1.914
0.000	-0.005	0.000	0.000	0.000	0.000	0.044	2.656	1.890	1.890	1.890	1.904	1.895	1.904
0.005	0.010	0.000	-0.005	-0.024	0.005	0.049	2.661	1.895	1.895	1.890	1.909	1.890	1.904
0.010	0.000	0.000	0.005	-0.024	-0.005	0.049	2.651	1.895	1.899	1.895	1.914	1.899	1.904
0.005	0.005	-0.005	0.000	-0.005	0.005	0.044	2.671	1.904	1.904	1.899	1.919	1.909	1.909
0.020	0.000	0.000	0.010	0.005	-0.020	0.044	2.822	1.929	1.909	1.909	1.924	1.919	1.909
0.005	0.000	0.000	0.005	0.039	0.000	0.044	2.642	1.919	1.914	1.909	1.924	1.929	1.919
-0.005	0.000	0.000	0.000	0.020	-0.024	0.044	2.808	1.934	1.919	1.914	1.929	1.924	1.919
-0.005	0.000	0.005	0.000	0.010	-0.005	0.044	2.686	1.943	1.924	1.919	1.934	1.924	1.924
-0.005	-0.010	0.005	0.000	0.024	0.015	0.044	2.676	1.929	1.924	1.919	1.934	1.929	1.934
0.000	0.005	0.000	0.000	0.015	0.010	0.044	2.676	1.919	1.924	1.919	1.934	1.924	1.929
-0.010	0.000	0.000	0.005	-0.005	0.000	0.044	2.671	1.904	1.914	1.914	1.929	1.914	1.919
-0.010	0.005	0.000	0.000	-0.010	0.000	0.049	2.681	1.899	1.909	1.909	1.929	1.914	1.914
-0.010	0.005	-0.005	0.005	-0.010	-0.005	0.044	2.676	1.895	1.899	1.904	1.924	1.914	1.914
0.000	0.000	-0.005	0.000	-0.010	0.000	0.044	2.661	1.890	1.895	1.895	1.919	1.914	1.909
0.000	0.010	0.000	0.000	-0.010	-0.020	0.049	2.661	1.885	1.890	1.895	1.914	1.909	1.904
0.000	-0.005	0.005	-0.005	-0.005	-0.005	0.049	2.651	1.885	1.880	1.890	1.909	1.909	1.904
0.010	-0.010	0.000	-0.005	-0.010	0.005	0.044	2.646	1.885	1.885	1.885	1.909	1.904	1.909
0.000	-0.005	0.000	-0.005	-0.015	-0.020	0.044	2.651	1.885	1.885	1.885	1.909	1.904	1.904
-0.010	-0.005	0.000	0.000	-0.010	0.005	0.044	2.803	1.904	1.890	1.890	1.909	1.909	1.914
-0.010	0.000	0.005	0.005	-0.010	0.024	0.049	2.651	1.909	1.899	1.895	1.914	1.909	1.919
0.020	-0.005	0.000	0.005	-0.020	0.029	0.049	2.656	1.914	1.909	1.904	1.919	1.914	1.924
0.034	0.000	-0.005	0.005	-0.020	0.010	0.049	2.686	1.929	1.919	1.904	1.924	1.914	1.914
0.024	0.000	0.005	0.005	-0.020	0.000	0.049	2.671	1.924	1.919	1.914	1.929	1.919	1.919
0.029	0.000	0.005	0.005	-0.024	-0.010	0.049	2.681	1.924	1.924	1.919	1.934	1.924	1.914
-0.005	0.020	0.005	0.005	0.000	-0.010	0.044	2.681	1.909	1.924	1.919	1.934	1.934	1.919
-0.015	0.000	0.000	0.005	0.005	-0.024	0.049	2.646	1.914	1.914	1.919	1.934	1.929	1.919
-0.024	0.010	0.000	0.010	0.010	-0.015	0.044	2.822	1.924	1.914	1.914	1.934	1.929	1.924
-0.024	0.005	0.005	0.000	0.015	-0.024	0.044	2.637	1.909	1.909	1.909	1.924	1.929	1.919
-0.015	0.005	0.000	-0.005	0.005	-0.005	0.044	2.817	1.919	1.904	1.904	1.919	1.919	1.924
0.005	0.005	0.000	0.000	-0.015	0.005	0.049	2.681	1.914	1.904	1.899	1.919	1.909	1.919
0.010	0.000	0.000	0.000	0.005	0.005	0.044	2.681	1.909	1.899	1.899	1.919	1.914	1.919
0.005	0.005	0.000	0.000	-0.005	0.005	0.049	2.686	1.904	1.899	1.895	1.914	1.909	1.914
0.005	0.010	0.000	0.000	-0.010	-0.010	0.044	2.646	1.895	1.899	1.895	1.914	1.909	1.909
0.005	0.005	0.010	0.000	0.015	-0.015	0.044	2.778	1.904	1.895	1.895	1.914	1.914	1.904
0.000	0.000	0.005	-0.005	0.024	0.020	0.044	2.661	1.904	1.899	1.895	1.914	1.914	1.919
-0.005	0.000	0.000	0.000	0.020	0.020	0.044	2.827	1.924	1.904	1.899	1.919	1.919	1.924
0.000	0.000	0.005	0.000	0.039	0.029	0.049	2.671	1.924	1.914	1.909	1.924	1.929	1.929
-0.010	0.000	-0.005	0.000	0.034	0.034	0.049	2.690	1.924	1.919	1.909	1.924	1.929	1.934
-0.010	-0.005	-0.005	0.005	0.015	0.024	0.044	2.676	1.924	1.924	1.914	1.934	1.919	1.929
-0.005	0.000	0.005	0.000	0.005	0.024	0.044	2.686	1.929	1.924	1.924	1.934	1.924	1.929
0.005	0.000	0.000	0.000	-0.015	0.010	0.044	2.734	1.938	1.929	1.924	1.938	1.924	1.924
-0.005	-0.005	0.000	0.000	-0.015	0.015	0.044	2.822	1.943	1.929	1.929	1.938	1.924	1.924
-0.015	-0.005	0.005	0.000	-0.015	-0.015	0.044	2.651	1.929	1.929	1.924	1.943	1.924	1.914
-0.005	0.000	0.000	0.000	-0.029	-0.020	0.044	2.666	1.919	1.924	1.919	1.938	1.919	1.914
0.000	-0.005	0.000	0.000	-0.059	-0.024	0.044	2.690	1.909	1.914	1.914	1.934	1.914	1.909
0.005	-0.005	0.000	-0.005	-0.083	-0.049	0.044	2.671	1.899	1.909	1.909	1.934	1.909	1.904
-0.005	-0.005	0.005	-0.005	-0.088	-0.029	0.044	2.686	1.890	1.899	1.904	1.924	1.909	1.909
0.010	-0.005	0.000	0.000	-0.029	-0.020	0.044	2.681	1.895	1.895	1.899	1.924	1.929	1.914
0.005	0.005	0.005	0.010	0.059	-0.044	0.044	2.666	1.890	1.890	1.899	1.924	1.948	1.914
0.005	-0.010	0.000	0.000	0.078	-0.010	0.044	2.681	1.890	1.885	1.890	1.919	1.943	1.934
0.000	-0.010	0.005	0.010	0.093	0.029	0.044	2.676	1.890	1.890	1.890	1.914	1.938	1.948
0.005	-0.005	0.005	0.005	0.063	0.024	0.044	2.671	1.904	1.899	1.895	1.919	1.924	1.943
0.010	0.000	0.000	0.005	-0.010	0.039	0.044	2.651	1.904	1.904	1.895	1.919	1.904	1.934
0.010	0.005	0.005	0.000	-0.024	0.039	0.049	2.690	1.914	1.909	1.904	1.919	1.909	1.929
0.000	0.015	0.000	0.005	-0.034	0.020	0.049	2.676	1.919	1.919	1.909	1.924	1.909	1.919
0.005	0.015	0.000	0.000	-0.024	0.010	0.044	2.642	1.919	1.924	1.914	1.929	1.919	1.924
0.005	0.020	0.005	0.000	0.020	0.024	0.044	2.661	1.919	1.924	1.919	1.934	1.934	1.934
0.005	0.010	0.000	0.000	0.049	0.010	0.049	2.798	1.934	1.924	1.919	1.934	1.943	1.929
0.015	0.005	0.000	0.005	0.024	0.005	0.044	2.661	1.929	1.924	1.919	1.934	1.929	1.929
0.000	0.000	0.010	0.005	0.010	0.000	0.049	2.690	1.919	1.919	1.919	1.938	1.929	1.924
0.010	-0.005	0.000	0.005	0.000	0.005	0.044	2.686	1.914	1.909	1.909	1.934	1.924	1.924
0.010	0.000	0.000	0.000	0.000	-0.015	0.044	2.676	1.904	1.909	1.904	1.929	1.919	1.914
0.000	0.005	-0.005	-0.005	0.000	0.000	0.044	2.676	1.895	1.904	1.904	1.919	1.914	1.919
0.010	0.005	0.000	-0.015	0.020	-0.005	0.049	2.686	1.899	1.895	1.895	1.914	1.914	1.914
0.000	0.010	0.005	0.000	0.039	-0.029	0.049	2.671	1.890	1.895	1.895	1.914	1.919	1.904
0.005	-0.005	-0.005	0.005	0.034	-0.005	0.044	2.725	1.895	1.885	1.890	1.914	1.914	1.914
0.015	0.000	0.005	-0.005	-0.020	0.005	0.044	2.847	1.919	1.895	1.890	1.909	1.899	1.914
0.034	0.010	0.000	-0.005	-0.024	0.029	0.044	2.686	1.924	1.909	1.895	1.909	1.899	1.914
0.073	-0.005	-0.005	0.000	-0.010	0.015	0.044	2.651	1.929	1.914	1.899	1.919	1.909	1.909
0.049	-0.005	0.005	0.010	-0.020	0.005	0.044	2.661	1.914	1.914	1.909	1.924	1.909	1.909
0.024	0.005	0.000	0.020	-0.039	0.005	0.044	2.642	1.909	1.919	1.914	1.934	1.914	1.914
-0.024	0.015	0.005	0.024	-0.034	-0.024	0.049	2.656	1.899	1.919	1.919	1.938	1.919	1.909
-0.059	0.005	0.005	0.015	-0.034	0.000	0.049	2.676	1.895	1.914	1.919	1.938	1.929	1.924
-0.078	-0.005	-0.005	0.000	-0.029	0.005	0.049	2.666	1.899	1.904	1.914	1.934	1.929	1.924
-0.073	0.005	0.000	0.000	-0.020	-0.005	0.049	2.690	1.895	1.904	1.914	1.929	1.934	1.929
-0.049	0.000	0.005	0.005	-0.005	-0.010	0.044	2.671	1.909	1.904	1.909	1.934	1.934	1.929
-0.029	-0.010	-0.005	0.000	0.020	0.010	0.044	2.642	1.904	1.904	1.904	1.924	1.934	1.934
-0.020	-0.005	0.000	-0.005	-0.005	0.005	0.044	2.681	1.904	1.899	1.899	1.919	1.924	1.929
0.000	-0.005	0.000	-0.010	0.005	0.010	0.044	2.686	1.904	1.899	1.899	1.914	1.919	1.924
0.015	-0.010	-0.005	-0.010	0.088	0.020	0.044	2.666	1.904	1.895	1.890	1.914	1.938	1.934
0.015	0.000	0.000	0.000	0.142	-0.010	0.044	2.681	1.899	1.895	1.890	1.914	1.938	1.924
0.005	-0.005	0.000	0.005	0.068	-0.005	0.044	2.695	1.895	1.890	1.890	1.909	1.909	1.919
0.000	0.000	0.000	0.005	0.015	-0.010	0.049	2.681	1.890	1.895	1.890	1.904	1.890	1.909
-0.015	0.005	0.005	0.010	-0.039	0.000	0.049	2.681	1.890	1.890	1.890	1.909	1.880	1.899
-0.029	0.010	0.000	0.005	-0.068	-0.005	0.049	2.686	1.895	1.895	1.890	1.909	1.880	1.890
0.005	-0.015	0.000	0.005	-0.029	0.010	0.044	2.690	1.914	1.895	1.895	1.909	1.904	1.904
0.015	-0.005	0.005	0.000	-0.024	0.015	0.044	2.690	1.914	1.909	1.899	1.914	1.904	1.909
0.024	0.000	0.000	-0.005	-0.044	0.000	0.044	2.681	1.919	1.914	1.904	1.919	1.904	1.904
0.020	-0.005	0.000	0.000	-0.034	0.000	0.044	2.769	1.934	1.924	1.914	1.924	1.914	1.909
0.020	0.010	0.000	0.000	-0.034	-0.024	0.044	2.676	1.929	1.929	1.919	1.934	1.919	1.909
0.015	0.005	0.005	0.005	-0.063	-0.005	0.044	2.676	1.924	1.929	1.924	1.938	1.919	1.914
0.005	-0.005	0.010	0.005	-0.059	-0.015	0.044	2.695	1.909	1.919	1.919	1.938	1.924	1.914
0.010	0.000	0.000	0.000	0.005	-0.010	0.044	2.637	1.909	1.914	1.914	1.938	1.943	1.924
-0.005	0.005	0.000	0.000	0.049	-0.015	0.044	2.671	1.895	1.909	1.909	1.929	1.948	1.929
0.010	0.005	0.005	0.005	0.063	0.005	0.044	2.671	1.895	1.904	1.909	1.929	1.943	1.938
0.010	0.005	0.005	0.010	0.073	0.010	0.049	2.686	1.895	1.895	1.904	1.929	1.938	1.938
0.020	0.024	-0.005	0.010	0.054	0.000	0.049	2.681	1.899	1.899	1.895	1.919	1.924	1.929
0.015	0.020	-0.005	0.015	0.020	0.015	0.044	2.671	1.895	1.890	1.890	1.914	1.909	1.924
0.024	0.015	0.000	0.005	0.010	0.015	0.044	2.661	1.895	1.890	1.890	1.909	1.909	1.914
0.020	0.020	0.000	-0.005	0.059	0.015	0.044	2.681	1.895	1.890	1.890	1.909	1.919	1.919
0.029	0.010	0.000	-0.005	0.015	0.010	0.044	2.686	1.899	1.890	1.890	1.909	1.899	1.914
0.015	0.010	-0.005	-0.005	-0.034	0.020	0.044	2.686	1.904	1.895	1.890	1.904	1.890	1.909
-0.005	0.000	0.000	-0.010	-0.020	0.029	0.044	2.690	1.904	1.899	1.895	1.909	1.899	1.914
-0.010	0.000	0.000	-0.005	-0.005	0.010	0.044	2.676	1.904	1.904	1.899	1.914	1.909	1.909
-0.020	0.005	0.000	0.000	0.015	0.015	0.044	2.681	1.909	1.909	1.904	1.924	1.919	1.919
-0.015	0.005	0.000	0.005	0.049	0.020	0.044	2.671	1.914	1.914	1.909	1.929	1.929	1.924
-0.024	0.015	-0.005	0.005	0.005	0.020	0.049	2.681	1.914	1.919	1.914	1.929	1.919	1.924
-0.024	-0.010	0.000	0.000	-0.020	0.005	0.044	2.681	1.914	1.909	1.909	1.929	1.914	1.914
-0.024	-0.020	-0.005	-0.005	-0.024	0.000	0.044	2.681	1.904	1.904	1.909	1.929	1.914	1.914
-0.034	-0.034	0.000	0.010	-0.020	0.005	0.044	2.681	1.899	1.899	1.904	1.929	1.919	1.914
-0.029	-0.024	0.000	0.010	-0.010	0.000	0.049	2.695	1.899	1.899	1.899	1.924	1.919	1.914
-0.005	-0.015	-0.005	0.000	0.005	-0.005	0.049	2.686	1.899	1.899	1.899	1.919	1.919	1.914
-0.005	-0.029	0.005	0.000	0.000	-0.005	0.049	2.686	1.895	1.890	1.890	1.909	1.909	1.914
0.000	-0.024	0.000	0.010	-0.020	-0.015	0.049	2.681	1.895	1.885	1.890	1.909	1.899	1.904
0.000	-0.010	0.000	0.000	-0.029	-0.029	0.044	2.686	1.895	1.890	1.885	1.904	1.895	1.899
0.010	-0.015	0.000	0.005	-0.020	-0.029	0.049	2.681	1.895	1.890	1.885	1.904	1.899	1.895
0.015	0.000	0.000	-0.005	-0.020	-0.020	0.044	2.656	1.895	1.895	1.890	1.904	1.899	1.899
0.015	-0.015	0.000	-0.005	-0.039	-0.005	0.044	2.695	1.899	1.890	1.885	1.904	1.895	1.899
0.005	-0.010	0.005	0.005	-0.059	-0.005	0.049	2.681	1.904	1.899	1.895	1.909	1.895	1.899
0.015	0.005	0.000	0.000	-0.039	0.005	0.044	2.686	1.909	1.909	1.899	1.914	1.904	1.909
0.000	0.005	0.000	0.005	0.015	-0.010	0.044	2.690	1.909	1.909	1.904	1.924	1.924	1.909
0.000	0.010	0.000	0.005	0.015	-0.029	0.044	2.690	1.914	1.914	1.909	1.924	1.924	1.914
0.000	0.000	0.000	-0.010	0.000	-0.005	0.044	2.686	1.919	1.914	1.914	1.924	1.924	1.924
0.005	0.000	0.000	-0.005	0.020	0.000	0.044	2.686	1.919	1.919	1.914	1.929	1.934	1.929
0.000	0.010	0.000	0.005	0.039	0.005	0.044	2.690	1.914	1.919	1.919	1.934	1.938	1.934
0.000	0.000	0.000	0.000	0.073	0.010	0.044	2.690	1.914	1.914	1.914	1.934	1.943	1.938
0.005	0.005	0.005	0.010	0.049	-0.005	0.044	2.681	1.909	1.914	1.914	1.934	1.929	1.929
0.010	0.005	0.000	0.005	0.020	-0.015	0.049	2.676	1.909	1.909	1.909	1.929	1.919	1.924
0.029	0.005	0.000	-0.005	0.073	-0.034	0.049	2.690	1.909	1.904	1.904	1.919	1.929	1.914
0.044	0.015	-0.005	-0.010	0.054	0.005	0.049	2.681	1.904	1.899	1.899	1.919	1.914	1.924
0.024	0.005	0.000	0.000	0.020	0.000	0.044	2.686	1.895	1.895	1.895	1.914	1.904	1.919
0.029	-0.005	0.000	0.000	-0.029	0.000	0.049	2.681	1.895	1.890	1.890	1.909	1.890	1.909
0.029	0.000	0.000	-0.005	-0.059	-0.005	0.044	2.803	1.890	1.885	1.890	1.909	1.885	1.895
0.029	0.005	0.000	0.005	-0.063	0.020	0.044	2.690	1.890	1.895	1.890	1.909	1.890	1.899
0.000	0.005	0.000	0.000	-0.039	0.020	0.044	2.690	1.890	1.890	1.890	1.909	1.904	1.904
-0.029	0.005	0.000	0.000	-0.005	0.024	0.044	2.686	1.885	1.895	1.895	1.914	1.919	1.914
-0.049	0.015	-0.005	0.000	0.024	0.015	0.044	2.686	1.890	1.895	1.895	1.914	1.924	1.914
-0.054	0.015	0.000	-0.005	0.010	0.005	0.049	2.671	1.899	1.899	1.899	1.914	1.919	1.914
-0.020	0.010	0.005	-0.020	0.020	-0.005	0.044	2.700	1.919	1.904	1.904	1.919	1.919	1.919
-0.005	0.005	0.000	-0.015	0.015	0.020	0.049	2.681	1.924	1.914	1.904	1.924	1.924	1.929
-0.005	-0.005	0.000	0.000	0.000	0.000	0.044	2.690	1.924	1.909	1.909	1.929	1.919	1.919
-0.005	0.005	0.000	0.015	-0.039	0.000	0.044	2.690	1.919	1.914	1.909	1.929	1.909	1.919
-0.024	0.000	0.005	0.020	-0.039	-0.024	0.049	2.695	1.914	1.914	1.909	1.934	1.914	1.909
-0.029	-0.005	0.000	0.020	-0.034	-0.010	0.049	2.666	1.904	1.909	1.904	1.924	1.914	1.909
-0.020	0.005	-0.005	0.015	-0.044	-0.015	0.044	2.676	1.895	1.904	1.899	1.919	1.909	1.909
0.015	0.005	0.000	0.005	-0.049	-0.029	0.044	2.700	1.904	1.899	1.895	1.914	1.904	1.899
0.015	0.005	0.000	0.005	-0.049	-0.015	0.044	2.671	1.895	1.895	1.895	1.909	1.904	1.904
0.000	0.000	-0.005	0.015	-0.039	-0.010	0.049	2.666	1.885	1.885	1.890	1.909	1.904	1.904
0.000	-0.010	0.005	0.005	0.005	0.010	0.049	2.686	1.885	1.880	1.885	1.904	1.919	1.914
-0.015	0.005	0.005	0.005	0.039	0.034	0.044	2.676	1.885	1.885	1.885	1.904	1.924	1.924
-0.010	0.024	0.005	0.000	0.024	0.029	0.044	2.690	1.895	1.890	1.890	1.904	1.909	1.914
0.005	0.015	0.000	0.010	0.049	0.024	0.044	2.686	1.904	1.895	1.890	1.909	1.919	1.924
0.015	0.020	0.000	0.010	0.088	0.015	0.044	2.690	1.914	1.904	1.895	1.914	1.924	1.919
0.010	0.015	0.000	0.005	0.078	0.034	0.049	2.686	1.914	1.909	1.899	1.919	1.924	1.929
0.005	0.015	0.000	0.000	0.024	0.024	0.049	2.695	1.919	1.914	1.909	1.919	1.909	1.924
-0.010	0.005	0.000	0.005	0.044	0.024	0.044	2.690	1.919	1.914	1.914	1.924	1.919	1.924
-0.005	-0.010	0.000	0.000	0.044	-0.010	0.044	2.656	1.914	1.914	1.909	1.924	1.919	1.909
0.005	0.000	-0.005	-0.010	-0.039	-0.020	0.044	2.686	1.919	1.914	1.914	1.924	1.895	1.904
0.005	0.000	0.000	-0.010	-0.029	-0.005	0.044	2.695	1.919	1.919	1.914	1.929	1.909	1.914
0.005	-0.005	0.000	-0.010	0.034	-0.020	0.044	2.690	1.914	1.914	1.914	1.929	1.929	1.909
0.010	-0.010	0.005	-0.010	0.015	-0.039	0.049	2.695	1.909	1.904	1.909	1.924	1.914	1.909
0.005	0.000	0.000	-0.005	0.005	-0.015	0.044	2.690	1.899	1.904	1.904	1.924	1.914	1.909
0.010	-0.024	0.005	-0.010	-0.010	0.000	0.049	2.686	1.895	1.890	1.895	1.914	1.909	1.914
0.010	-0.020	0.000	-0.010	0.015	0.020	0.044	2.681	1.890	1.890	1.890	1.914	1.914	1.919
0.010	-0.020	0.005	0.000	0.049	0.034	0.044	2.695	1.890	1.885	1.885	1.909	1.919	1.919
0.005	-0.005	0.000	0.005	0.049	0.015	0.044	2.676	1.890	1.890	1.885	1.909	1.914	1.914
0.015	-0.005	0.010	0.005	0.024	0.024	0.044	2.690	1.895	1.890	1.890	1.909	1.904	1.914
0.010	-0.005	0.000	0.005	-0.005	-0.010	0.044	2.690	1.899	1.895	1.890	1.909	1.895	1.899
0.010	0.000	0.000	-0.005	-0.029	-0.020	0.049	2.661	1.899	1.899	1.890	1.904	1.890	1.895
0.005	0.015	0.005	-0.005	-0.044	-0.005	0.044	2.690	1.904	1.904	1.899	1.909	1.895	1.904
0.000	0.005	0.000	0.000	-0.039	0.020	0.044	2.690	1.909	1.904	1.899	1.914	1.904	1.909
0.000	0.000	0.000	0.000	-0.059	0.005	0.044	2.676	1.914	1.909	1.909	1.924	1.904	1.909
0.005	0.000	0.000	0.000	-0.059	0.000	0.049	2.637	1.914	1.914	1.914	1.924	1.909	1.909
0.005	0.005	0.005	0.005	-0.063	-0.005	0.049	2.690	1.914	1.914	1.914	1.929	1.914	1.909
-0.005	0.000	0.000	0.005	-0.039	0.000	0.039	2.681	1.904	1.914	1.909	1.929	1.924	1.919
-0.005	0.005	0.000	0.000	0.010	0.000	0.044	2.690	1.909	1.914	1.909	1.929	1.938	1.924
0.000	0.005	0.000	0.005	0.039	-0.005	0.044	2.695	1.909	1.909	1.909	1.929	1.943	1.924
0.000	0.010	-0.005	0.000	0.039	0.000	0.044	2.681	1.899	1.904	1.904	1.924	1.934	1.924
0.000	0.000	0.005	0.000	0.034	0.005	0.044	2.690	1.895	1.895	1.899	1.919	1.924	1.924
0.000	0.020	0.000	0.005	0.029	0.000	0.044	2.700	1.895	1.899	1.895	1.919	1.919	1.919
-0.005	0.010	0.005	0.010	0.034	0.000	0.044	2.671	1.890	1.890	1.890	1.914	1.919	1.914
-0.005	0.005	0.000	0.005	0.059	0.000	0.044	2.690	1.885	1.885	1.890	1.909	1.914	1.919
-0.005	0.005	0.000	0.000	0.005	-0.015	0.049	2.676	1.885	1.885	1.885	1.899	1.895	1.909
0.010	0.000	0.000	0.000	-0.034	0.020	0.049	2.695	1.895	1.885	1.885	1.899	1.885	1.904
-0.010	0.005	0.000	-0.005	-0.044	0.020	0.044	2.676	1.895	1.890	1.885	1.904	1.885	1.899
-0.010	-0.010	0.000	-0.005	-0.049	-0.005	0.044	2.686	1.899	1.890	1.890	1.909	1.890	1.895
-0.005	-0.005	0.000	0.010	-0.039	0.010	0.044	2.681	1.904	1.899	1.890	1.914	1.904	1.904
-0.005	0.000	0.000	0.000	-0.034	-0.015	0.049	2.690	1.909	1.909	1.899	1.914	1.904	1.899
-0.010	-0.005	0.005	-0.005	-0.020	0.005	0.049	2.686	1.914	1.909	1.904	1.919	1.914	1.914
0.000	0.000	0.000	0.000	-0.020	0.005	0.044	2.690	1.919	1.914	1.909	1.924	1.919	1.919
0.010	0.005	0.005	0.005	-0.015	-0.024	0.044	2.686	1.919	1.919	1.909	1.929	1.924	1.914
0.000	0.015	-0.005	0.005	0.039	-0.005	0.044	2.686	1.914	1.924	1.914	1.934	1.938	1.924
-0.005	0.005	0.005	0.015	0.073	-0.005	0.044	2.686	1.909	1.914	1.914	1.934	1.943	1.929
-0.005	0.005	0.000	0.005	0.073	0.010	0.044	2.690	1.904	1.909	1.909	1.929	1.934	1.934
-0.005	-0.005	0.000	0.005	0.020	0.024	0.044	2.681	1.899	1.899	1.904	1.924	1.914	1.929
-0.005	0.005	-0.005	-0.005	0.010	0.020	0.044	2.671	1.895	1.895	1.899	1.919	1.909	1.919
-0.005	-0.010	-0.005	0.000	0.020	0.010	0.044	2.646	1.885	1.885	1.890	1.909	1.909	1.914
-0.010	0.005	-0.005	0.000	0.024	0.010	0.044	2.676	1.880	1.890	1.890	1.909	1.909	1.909
-0.005	-0.010	0.000	0.005	0.024	0.010	0.044	2.676	1.880	1.880	1.880	1.904	1.904	1.909
-0.005	-0.015	-0.005	0.000	-0.015	-0.005	0.044	2.690	1.885	1.880	1.880	1.904	1.890	1.895
0.000	-0.010	0.000	0.000	-0.015	-0.010	0.044	2.686	1.895	1.885	1.880	1.904	1.895	1.895
0.000	-0.020	0.000	0.000	0.005	-0.034	0.044	2.695	1.899	1.885	1.885	1.909	1.904	1.890
0.005	-0.005	-0.005	0.010	0.015	0.010	0.049	2.676	1.904	1.899	1.890	1.909	1.909	1.909
0.000	0.000	0.005	0.005	-0.024	0.000	0.049	2.686	1.909	1.904	1.895	1.909	1.895	1.904
-0.010	0.000	0.000	0.000	-0.029	0.010	0.049	2.686	1.909	1.909	1.904	1.914	1.904	1.909
0.000	0.005	0.000	0.000	-0.010	0.024	0.044	2.681	1.919	1.914	1.904	1.919	1.914	1.919
0.000	0.000	0.000	0.000	-0.015	0.034	0.049	2.695	1.919	1.919	1.909	1.924	1.914	1.919
0.010	0.005	0.005	0.000	-0.029	0.024	0.044	2.681	1.919	1.919	1.914	1.929	1.914	1.919
0.005	-0.005	0.005	0.005	-0.049	0.015	0.039	2.769	1.924	1.914	1.914	1.929	1.914	1.914
-0.005	0.039	0.000	0.005	-0.034	-0.005	0.044	2.681	1.914	1.929	1.919	1.929	1.919	1.904
0.000	0.010	0.000	-0.005	-0.005	-0.044	0.044	2.690	1.904	1.909	1.909	1.924	1.924	1.899
0.005	0.005	0.000	0.000	0.020	-0.020	0.044	2.642	1.895	1.899	1.904	1.924	1.929	1.909
0.005	-0.005	0.000	0.000	0.015	-0.020	0.049	2.681	1.890	1.895	1.895	1.919	1.919	1.909
0.005	0.020	0.000	-0.005	-0.005	-0.020	0.049	2.690	1.890	1.895	1.895	1.914	1.909	1.909
-0.005	0.034	0.000	-0.005	0.005	-0.020	0.049	2.681	1.885	1.890	1.890	1.909	1.909	1.909
0.000	0.024	0.000	-0.005	0.024	-0.005	0.044	2.700	1.885	1.880	1.890	1.904	1.909	1.914
0.010	0.005	0.000	-0.005	0.029	0.010	0.044	2.681	1.890	1.885	1.885	1.904	1.914	1.914
0.000	0.005	0.005	0.000	0.083	0.020	0.039	2.695	1.895	1.885	1.885	1.909	1.924	1.924
-0.005	-0.005	0.000	0.000	0.063	0.020	0.049	2.690	1.904	1.890	1.890	1.909	1.914	1.924
-0.005	-0.010	0.005	0.005	-0.005	0.020	0.044	2.681	1.904	1.895	1.895	1.909	1.895	1.919
0.000	-0.010	0.000	0.000	-0.054	0.005	0.044	2.681	1.909	1.899	1.899	1.914	1.890	1.904
-0.005	-0.005	0.010	0.005	-0.039	0.020	0.049	2.686	1.919	1.909	1.904	1.919	1.904	1.914
0.005	-0.010	0.005	-0.005	-0.024	-0.005	0.044	2.676	1.919	1.914	1.909	1.919	1.914	1.909
0.005	-0.005	0.000	-0.005	0.029	0.015	0.049	2.676	1.919	1.919	1.909	1.924	1.934	1.919
0.005	0.015	0.000	0.010	0.088	0.015	0.049	2.686	1.914	1.924	1.914	1.934	1.948	1.929
0.010	0.010	0.000	0.005	0.073	0.005	0.044	2.686	1.914	1.919	1.914	1.934	1.938	1.929
0.000	0.005	0.005	0.000	0.034	0.020	0.049	2.690	1.909	1.914	1.914	1.924	1.919	1.929
0.010	0.005	-0.005	-0.005	0.015	-0.005	0.044	2.666	1.904	1.909	1.904	1.924	1.914	1.914
-0.005	0.005	0.000	0.010	-0.020	0.000	0.044	2.676	1.890	1.899	1.899	1.924	1.904	1.909
0.000	-0.010	0.005	0.015	-0.039	0.000	0.044	2.690	1.895	1.890	1.895	1.919	1.899	1.904
-0.005	-0.010	0.000	0.020	-0.029	-0.010	0.049	2.676	1.885	1.885	1.885	1.914	1.899	1.899
0.000	-0.005	0.005	0.020	-0.039	-0.005	0.044	2.686	1.885	1.880	1.885	1.909	1.895	1.899
0.005	0.005	-0.005	0.015	-0.039	-0.005	0.044	2.681	1.885	1.885	1.885	1.904	1.899	1.899
0.000	0.000	0.000	0.000	-0.020	0.000	0.044	2.681	1.890	1.885	1.885	1.899	1.899	1.899
-0.005	0.010	0.000	-0.005	-0.024	-0.005	0.044	2.695	1.895	1.890	1.885	1.899	1.899	1.899
-0.010	0.005	0.000	-0.005	-0.039	-0.039	0.044	2.661	1.895	1.895	1.890	1.904	1.895	1.890
-0.005	-0.010	0.000	-0.010	-0.044	-0.034	0.044	2.690	1.904	1.895	1.895	1.909	1.899	1.895
0.000	-0.015	0.005	-0.010	-0.020	0.005	0.044	2.695	1.914	1.899	1.895	1.914	1.914	1.914
0.000	-0.005	0.005	-0.010	-0.024	0.010	0.049	2.676	1.914	1.909	1.904	1.919	1.914	1.914
-0.005	0.005	-0.005	-0.005	-0.059	-0.005	0.044	2.686	1.919	1.919	1.909	1.924	1.904	1.914
0.000	-0.010	0.005	-0.005	-0.088	-0.015	0.044	2.686	1.914	1.909	1.909	1.924	1.899	1.909
0.000	0.000	0.000	0.000	-0.039	0.000	0.044	2.686	1.914	1.914	1.909	1.929	1.924	1.914
0.000	-0.005	0.000	0.005	0.020	0.015	0.044	2.690	1.914	1.909	1.914	1.929	1.938	1.929
0.005	-0.015	0.000	0.005	0.083	-0.005	0.044	2.686	1.909	1.904	1.909	1.929	1.948	1.929
0.005	-0.015	0.000	0.000	0.078	0.005	0.044	2.686	1.899	1.899	1.904	1.919	1.938	1.929
-0.005	0.010	0.000	0.000	0.073	-0.010	0.044	2.690	1.895	1.904	1.899	1.914	1.929	1.924
0.000	0.010	0.000	-0.005	0.117	0.005	0.044	2.676	1.895	1.895	1.895	1.914	1.938	1.929
0.000	0.010	0.005	-0.005	0.146	0.000	0.049	2.686	1.890	1.890	1.890	1.909	1.929	1.924
0.005	0.005	0.000	-0.005	0.107	-0.005	0.049	2.676	1.890	1.890	1.890	1.909	1.914	1.919
0.015	0.010	0.000	0.000	0.063	0.020	0.049	2.686	1.895	1.890	1.890	1.904	1.895	1.919
0.005	0.010	0.005	0.000	0.010	-0.010	0.049	2.681	1.895	1.890	1.890	1.904	1.885	1.899
0.005	0.000	0.005	0.010	-0.010	-0.010	0.044	2.798	1.909	1.895	1.890	1.909	1.890	1.899
0.005	0.005	0.005	0.005	-0.010	0.024	0.049	2.676	1.909	1.899	1.895	1.909	1.895	1.909
0.000	0.010	0.000	0.000	-0.005	0.010	0.044	2.676	1.909	1.909	1.899	1.914	1.899	1.909
0.000	0.000	-0.005	0.000	-0.024	0.015	0.049	2.686	1.914	1.914	1.904	1.919	1.904	1.909
-0.005	0.000	-0.005	-0.005	-0.034	0.015	0.044	2.681	1.914	1.914	1.909	1.924	1.909	1.909
0.010	0.000	0.000	0.000	-0.029	0.000	0.044	2.690	1.924	1.919	1.909	1.929	1.914	1.904
-0.005	0.005	0.000	0.005	-0.044	0.020	0.044	2.686	1.914	1.919	1.919	1.934	1.914	1.914
0.000	-0.005	0.000	0.010	-0.059	0.020	0.049	2.690	1.914	1.919	1.914	1.934	1.914	1.914
-0.005	-0.005	0.005	0.015	-0.063	0.005	0.049	2.671	1.904	1.909	1.914	1.934	1.914	1.909
0.005	0.005	0.000	0.005	-0.073	-0.005	0.049	2.690	1.904	1.909	1.909	1.929	1.914	1.909
0.015	0.010	0.000	0.000	-0.068	-0.010	0.044	2.681	1.895	1.899	1.904	1.924	1.914	1.904
0.010	0.015	0.000	-0.005	-0.044	-0.015	0.044	2.686	1.890	1.895	1.895	1.914	1.914	1.904
0.010	-0.005	-0.005	0.000	-0.015	-0.015	0.044	2.676	1.890	1.885	1.890	1.914	1.924	1.909
0.020	0.000	0.000	0.000	0.015	-0.044	0.049	2.686	1.890	1.885	1.885	1.909	1.919	1.904
0.015	0.000	0.000	0.000	0.010	-0.039	0.044	2.666	1.885	1.880	1.885	1.904	1.914	1.909
0.005	-0.005	0.005	0.000	0.005	-0.029	0.044	2.681	1.890	1.880	1.885	1.904	1.909	1.909
-0.010	-0.024	0.005	0.005	0.049	-0.020	0.044	2.690	1.895	1.880	1.885	1.904	1.919	1.919
-0.005	0.010	0.000	-0.005	0.039	0.000	0.049	2.686	1.899	1.895	1.885	1.904	1.914	1.924
-0.005	0.020	0.000	-0.005	-0.024	-0.010	0.049	2.676	1.909	1.904	1.895	1.904	1.895	1.914
0.024	0.029	-0.005	0.000	-0.010	0.010	0.044	2.686	1.919	1.919	1.899	1.914	1.909	1.919
0.010	0.010	0.000	0.010	-0.015	0.024	0.044	2.681	1.914	1.914	1.909	1.919	1.909	1.924
-0.005	0.000	0.005	0.015	-0.044	0.029	0.044	2.681	1.914	1.914	1.909	1.929	1.909	1.924
-0.034	-0.010	0.000	0.005	-0.015	0.034	0.049	2.695	1.909	1.914	1.909	1.929	1.924	1.924
-0.049	-0.015	0.005	0.005	0.054	0.039	0.044	2.681	1.904	1.909	1.909	1.934	1.948	1.934
-0.059	-0.005	0.005	0.000	0.107	0.000	0.044	2.656	1.899	1.909	1.909	1.929	1.948	1.929
-0.054	-0.005	0.000	0.005	0.112	0.029	0.044	2.676	1.899	1.904	1.899	1.924	1.943	1.943
-0.054	-0.020	0.000	-0.005	0.098	0.020	0.044	2.676	1.895	1.895	1.899	1.919	1.929	1.934
-0.049	-0.015	0.000	-0.005	0.049	0.020	0.049	2.681	1.895	1.890	1.890	1.909	1.904	1.919
-0.024	0.010	-0.005	-0.005	0.020	0.000	0.044	2.681	1.899	1.899	1.890	1.904	1.895	1.904
0.005	0.029	0.000	-0.005	-0.020	-0.015	0.044	2.686	1.904	1.899	1.895	1.904	1.885	1.890
0.024	0.010	0.005	0.000	-0.020	0.005	0.044	2.686	1.899	1.890	1.890	1.904	1.890	1.895
0.024	0.010	-0.005	0.000	-0.029	-0.029	0.044	2.671	1.895	1.895	1.885	1.904	1.890	1.880
0.029	0.005	0.000	0.000	-0.044	-0.010	0.044	2.686	1.899	1.895	1.890	1.904	1.885	1.890
0.024	0.005	0.000	0.005	-0.049	-0.010	0.049	2.690	1.899	1.895	1.895	1.909	1.895	1.890
0.024	0.000	0.000	0.000	-0.044	0.010	0.049	2.695	1.904	1.899	1.895	1.914	1.899	1.899
0.029	-0.005	0.000	0.000	-0.034	-0.015	0.049	2.681	1.904	1.899	1.899	1.914	1.909	1.899
0.024	0.000	0.000	-0.005	-0.039	0.020	0.049	2.788	1.924	1.909	1.904	1.919	1.909	1.914
0.020	-0.005	0.005	0.000	-0.034	-0.010	0.044	2.671	1.914	1.914	1.909	1.924	1.919	1.909
0.020	0.005	0.000	0.010	-0.010	0.000	0.044	2.681	1.914	1.919	1.919	1.934	1.929	1.919
0.024	0.000	0.005	0.005	-0.015	0.010	0.049	2.676	1.914	1.914	1.919	1.934	1.929	1.924
0.015	0.000	0.000	0.010	-0.044	0.015	0.044	2.637	1.904	1.914	1.914	1.934	1.919	1.924
0.015	0.020	0.000	0.000	-0.039	0.015	0.044	2.695	1.909	1.914	1.909	1.929	1.919	1.924
0.015	0.020	-0.005	-0.005	-0.034	0.024	0.049	2.686	1.904	1.909	1.909	1.929	1.919	1.924
0.010	-0.005	0.000	-0.010	-0.029	0.015	0.049	2.676	1.895	1.895	1.899	1.919	1.919	1.919
0.010	-0.015	0.000	-0.020	-0.034	0.005	0.044	2.690	1.895	1.885	1.895	1.914	1.914	1.909
0.010	-0.020	0.000	-0.010	-0.029	-0.024	0.044	2.686	1.890	1.880	1.890	1.909	1.909	1.904
-0.005	0.000	0.005	-0.005	-0.005	-0.029	0.044	2.671	1.880	1.885	1.885	1.909	1.914	1.899
0.010	0.000	0.000	0.000	0.034	-0.015	0.049	2.686	1.890	1.885	1.885	1.909	1.919	1.909
0.010	0.005	0.010	0.010	0.015	-0.039	0.049	2.690	1.890	1.885	1.885	1.909	1.909	1.899
0.005	0.000	0.005	0.020	0.034	-0.063	0.049	2.671	1.890	1.885	1.880	1.909	1.914	1.899
-0.005	0.015	0.005	0.024	0.073	-0.039	0.044	2.695	1.895	1.890	1.890	1.909	1.924	1.914
0.000	0.005	0.000	0.015	0.073	-0.010	0.044	2.681	1.904	1.895	1.890	1.914	1.924	1.924
-0.005	0.015	0.000	0.015	0.034	0.000	0.049	2.690	1.909	1.904	1.899	1.914	1.909	1.929
-0.005	0.005	0.000	0.010	0.000	0.015	0.044	2.671	1.909	1.909	1.904	1.914	1.909	1.929
-0.005	-0.010	0.000	-0.005	0.015	0.024	0.044	2.695	1.914	1.909	1.904	1.919	1.914	1.929
0.000	0.000	0.000	0.000	0.029	0.010	0.049	2.690	1.919	1.919	1.909	1.924	1.919	1.924
-0.005	-0.010	0.000	0.015	0.029	0.034	0.044	2.671	1.914	1.909	1.909	1.929	1.924	1.929
0.000	-0.010	0.000	0.015	0.029	0.039	0.044	2.686	1.914	1.914	1.909	1.934	1.929	1.934
0.000	0.000	0.000	0.015	0.054	0.034	0.044	2.686	1.909	1.909	1.909	1.929	1.929	1.924
-0.005	0.000	-0.005	0.005	0.088	0.034	0.044	2.671	1.904	1.909	1.904	1.924	1.934	1.929
-0.020	0.015	0.000	0.000	0.098	0.039	0.044	2.686	1.899	1.904	1.899	1.919	1.924	1.929
0.000	0.000	0.000	0.005	0.034	0.029	0.044	2.690	1.899	1.895	1.895	1.914	1.899	1.914
0.000	-0.015	0.000	0.000	-0.015	-0.005	0.049	2.686	1.895	1.885	1.890	1.909	1.885	1.895
0.000	-0.005	0.005	-0.010	-0.049	0.010	0.044	2.686	1.890	1.890	1.885	1.899	1.880	1.890
-0.005	0.000	-0.005	-0.034	-0.068	-0.005	0.044	2.651	1.885	1.890	1.880	1.890	1.875	1.880
0.005	0.005	0.000	-0.029	-0.078	-0.010	0.044	2.681	1.890	1.890	1.885	1.895	1.880	1.880
0.005	0.010	0.000	-0.015	-0.059	-0.024	0.044	2.686	1.890	1.895	1.885	1.904	1.890	1.875
0.000	0.005	0.005	0.010	-0.073	-0.010	0.049	2.671	1.895	1.890	1.890	1.914	1.895	1.890
0.005	0.015	0.005	0.020	-0.088	-0.024	0.049	2.690	1.899	1.899	1.895	1.919	1.899	1.885
-0.005	0.020	0.000	0.020	-0.083	-0.020	0.044	2.695	1.904	1.904	1.899	1.924	1.909	1.895
-0.010	0.010	0.005	0.020	-0.054	-0.015	0.044	2.686	1.909	1.904	1.904	1.924	1.919	1.904
-0.005	-0.024	0.000	0.010	-0.049	-0.020	0.044	2.686	1.909	1.899	1.904	1.924	1.924	1.914
0.000	-0.034	0.000	0.005	-0.024	-0.015	0.044	2.690	1.914	1.904	1.904	1.924	1.929	1.919
0.010	-0.020	0.000	0.015	-0.010	-0.005	0.049	2.695	1.914	1.914	1.909	1.929	1.934	1.929
0.000	-0.010	0.000	0.010	0.044	0.005	0.049	2.661	1.909	1.914	1.909	1.924	1.948	1.938
-0.005	-0.010	0.000	0.005	0.117	0.020	0.049	2.681	1.904	1.909	1.904	1.924	1.958	1.948
0.005	-0.005	-0.005	-0.005	0.122	0.039	0.049	2.646	1.895	1.904	1.904	1.914	1.943	1.948
0.005	0.010	0.005	-0.015	0.142	0.039	0.049	2.666	1.895	1.904	1.899	1.914	1.938	1.943
-0.005	0.020	0.000	-0.015	0.117	0.024	0.044	2.686	1.890	1.895	1.895	1.909	1.919	1.934
-0.005	0.020	-0.005	-0.010	0.093	0.020	0.049	2.681	1.890	1.890	1.890	1.909	1.909	1.924
0.005	0.010	0.005	-0.010	0.073	0.020	0.044	2.671	1.904	1.890	1.885	1.904	1.899	1.914
0.000	0.000	-0.005	-0.010	0.039	0.010	0.044	2.695	1.895	1.885	1.885	1.904	1.885	1.904
0.005	0.005	0.000	-0.005	-0.020	-0.010	0.044	2.681	1.899	1.890	1.885	1.904	1.870	1.890
-0.010	0.010	0.005	0.000	-0.049	-0.020	0.049	2.690	1.895	1.895	1.890	1.909	1.875	1.885
0.000	0.000	0.000	0.005	-0.049	-0.029	0.044	2.690	1.899	1.895	1.895	1.909	1.885	1.885
-0.005	0.010	-0.005	0.005	-0.049	0.000	0.044	2.666	1.899	1.899	1.895	1.914	1.895	1.895
0.000	0.010	0.000	0.005	-0.059	0.000	0.044	2.681	1.909	1.904	1.899	1.919	1.899	1.899
0.000	0.000	0.005	0.005	-0.029	-0.029	0.044	2.695	1.914	1.909	1.909	1.929	1.919	1.899
-0.005	0.010	0.005	0.010	-0.005	-0.005	0.044	2.681	1.909	1.914	1.909	1.929	1.924	1.914
0.000	0.000	0.000	0.005	-0.010	-0.024	0.049	2.686	1.914	1.909	1.909	1.929	1.924	1.914
0.000	-0.005	0.000	0.005	-0.010	-0.020	0.049	2.681	1.914	1.909	1.909	1.929	1.924	1.919
-0.005	0.054	0.005	0.005	-0.005	-0.005	0.049	2.695	1.909	1.924	1.914	1.929	1.924	1.924
-0.005	0.024	0.000	0.005	-0.005	-0.020	0.049	2.695	1.909	1.909	1.909	1.924	1.919	1.919
0.000	-0.024	0.000	-0.005	-0.020	-0.020	0.044	2.686	1.899	1.885	1.899	1.919	1.914	1.909
0.005	-0.034	0.000	0.000	-0.015	0.000	0.049	2.666	1.890	1.880	1.890	1.914	1.914	1.919
-0.005	0.000	0.005	-0.010	-0.005	-0.010	0.044	2.681	1.885	1.890	1.890	1.909	1.909	1.909
0.005	0.029	0.005	-0.010	-0.015	-0.015	0.044	2.690	1.890	1.890	1.885	1.904	1.904	1.904
0.005	0.010	0.005	-0.005	-0.005	-0.010	0.049	2.666	1.885	1.885	1.885	1.904	1.904	1.904
0.000	-0.010	0.000	0.015	-0.020	-0.020	0.049	2.666	1.885	1.875	1.880	1.904	1.895	1.899
-0.005	-0.010	0.000	0.015	-0.020	0.000	0.044	2.686	1.890	1.880	1.880	1.904	1.899	1.904
0.005	0.000	-0.005	0.015	-0.015	0.000	0.044	2.690	1.899	1.890	1.885	1.904	1.899	1.909
0.000	0.010	0.000	0.029	0.005	0.005	0.044	2.686	1.899	1.895	1.890	1.914	1.914	1.914
0.005	0.000	0.000	0.044	0.024	0.015	0.044	2.661	1.904	1.899	1.895	1.919	1.924	1.919
0.005	0.005	-0.005	0.034	0.034	-0.005	0.044	2.803	1.924	1.909	1.899	1.919	1.924	1.919
0.000	0.000	0.000	0.015	0.059	0.005	0.044	2.671	1.924	1.919	1.909	1.919	1.934	1.929
0.005	-0.005	0.010	0.005	0.049	0.010	0.049	2.788	1.938	1.924	1.914	1.919	1.924	1.924
0.005	-0.005	0.005	0.000	0.029	0.010	0.049	2.803	1.943	1.924	1.919	1.924	1.919	1.929
-0.005	0.005	0.000	0.000	0.020	0.024	0.049	2.671	1.934	1.929	1.919	1.929	1.919	1.929
0.000	-0.010	0.000	-0.005	0.000	0.010	0.044	2.720	1.924	1.924	1.914	1.929	1.914	1.919
-0.005	-0.005	0.000	-0.015	-0.010	0.020	0.044	2.793	1.924	1.924	1.914	1.924	1.909	1.914
0.000	0.000	-0.005	-0.010	-0.024	0.005	0.044	2.651	1.909	1.914	1.909	1.924	1.904	1.904
0.010	0.005	0.000	-0.010	-0.005	0.015	0.044	2.729	1.904	1.909	1.909	1.924	1.909	1.904
0.005	-0.005	0.005	-0.010	-0.015	-0.005	0.044	2.646	1.895	1.899	1.904	1.919	1.909	1.904
0.000	0.000	0.005	-0.015	-0.020	0.015	0.044	2.632	1.880	1.895	1.895	1.914	1.904	1.904
0.000	0.000	0.000	-0.020	0.000	0.015	0.044	2.646	1.875	1.885	1.895	1.914	1.909	1.904
0.000	-0.005	0.010	-0.015	-0.005	0.005	0.049	2.651	1.880	1.885	1.890	1.919	1.909	1.904
-0.010	0.010	0.005	-0.005	-0.029	0.005	0.049	2.651	1.885	1.885	1.890	1.914	1.904	1.904
0.000	0.000	0.000	-0.005	-0.029	0.000	0.049	2.637	1.890	1.890	1.895	1.914	1.909	1.909
0.005	0.010	0.000	0.005	-0.029	0.000	0.049	2.803	1.914	1.899	1.895	1.919	1.914	1.909
0.000	0.000	0.000	0.000	-0.020	0.000	0.044	2.666	1.914	1.904	1.899	1.924	1.919	1.914
0.005	0.000	0.005	0.005	-0.005	0.015	0.044	2.651	1.914	1.909	1.904	1.924	1.924	1.924
0.010	0.015	0.005	0.005	-0.039	-0.015	0.044	2.793	1.929	1.919	1.909	1.929	1.919	1.914
0.010	0.020	0.000	0.010	-0.044	-0.005	0.049	2.661	1.924	1.924	1.914	1.934	1.919	1.924
0.005	0.015	0.000	0.010	-0.063	0.000	0.044	2.739	1.924	1.919	1.914	1.934	1.919	1.914
0.005	-0.005	0.000	0.010	-0.049	0.020	0.049	2.671	1.924	1.919	1.914	1.934	1.924	1.929
-0.005	0.005	0.000	0.010	0.005	0.020	0.044	2.705	1.909	1.914	1.914	1.934	1.943	1.934
0.005	0.000	0.005	0.005	0.029	0.005	0.044	2.686	1.909	1.909	1.909	1.929	1.938	1.929
0.005	-0.015	0.005	0.005	0.059	0.010	0.049	2.661	1.899	1.899	1.904	1.924	1.938	1.929
0.015	-0.020	0.000	-0.005	0.088	-0.005	0.049	2.627	1.890	1.890	1.895	1.919	1.934	1.929
0.010	-0.020	0.000	0.000	0.088	-0.010	0.044	2.754	1.899	1.890	1.890	1.914	1.929	1.924
0.000	-0.020	0.010	0.000	0.073	0.000	0.049	2.715	1.890	1.885	1.885	1.909	1.914	1.924
0.005	-0.010	0.010	0.000	0.049	-0.020	0.049	2.671	1.904	1.890	1.885	1.909	1.904	1.914
0.015	-0.024	0.005	0.000	0.044	0.020	0.049	2.759	1.914	1.890	1.885	1.909	1.904	1.919
0.000	-0.044	-0.005	-0.005	0.039	-0.005	0.044	2.651	1.909	1.890	1.885	1.904	1.899	1.909
0.000	-0.039	0.000	0.000	0.015	0.015	0.044	2.725	1.909	1.899	1.895	1.909	1.899	1.914
0.005	-0.029	0.000	0.000	0.000	0.024	0.044	2.705	1.914	1.909	1.904	1.914	1.899	1.914
0.000	-0.005	0.000	0.005	-0.005	0.010	0.044	2.686	1.919	1.919	1.909	1.924	1.904	1.909
-0.005	0.010	0.005	0.000	-0.015	-0.005	0.044	2.681	1.919	1.929	1.919	1.929	1.909	1.904
0.000	0.020	0.005	0.000	-0.024	-0.005	0.044	2.700	1.924	1.934	1.924	1.934	1.914	1.909
-0.005	0.054	0.005	0.005	-0.020	-0.015	0.049	2.710	1.924	1.943	1.929	1.938	1.924	1.909
-0.010	0.044	0.005	0.005	-0.020	0.000	0.049	2.681	1.919	1.929	1.929	1.943	1.929	1.924
-0.005	0.029	-0.005	0.000	-0.015	0.010	0.049	2.681	1.909	1.919	1.929	1.943	1.929	1.924
-0.005	0.073	0.000	0.005	-0.005	0.015	0.044	2.676	1.909	1.929	1.924	1.943	1.934	1.929
-0.005	0.151	0.000	0.000	-0.010	0.010	0.044	2.671	1.904	1.934	1.929	1.938	1.929	1.924
0.000	0.098	0.000	0.000	-0.015	0.005	0.044	2.666	1.895	1.909	1.919	1.934	1.929	1.924
0.000	0.049	0.000	0.000	-0.024	0.015	0.049	2.676	1.890	1.885	1.904	1.929	1.924	1.924
-0.005	0.015	0.005	0.000	-0.020	0.005	0.049	2.700	1.890	1.875	1.895	1.919	1.919	1.919
0.005	-0.024	0.005	-0.005	-0.024	-0.020	0.044	2.676	1.890	1.870	1.880	1.909	1.909	1.904
0.015	-0.039	0.005	-0.005	-0.015	-0.015	0.049	2.710	1.890	1.870	1.875	1.909	1.909	1.909
-0.005	-0.039	0.005	-0.005	-0.034	-0.015	0.044	2.681	1.895	1.875	1.875	1.904	1.904	1.909
0.010	-0.044	0.000	-0.005	-0.054	-0.015	0.044	2.710	1.904	1.880	1.875	1.899	1.899	1.909
0.010	-0.015	0.000	-0.010	-0.073	-0.020	0.049	2.676	1.904	1.899	1.885	1.904	1.895	1.904
0.000	-0.029	0.000	-0.010	-0.054	-0.020	0.044	2.676	1.904	1.899	1.890	1.909	1.904	1.909
-0.005	-0.015	-0.005	-0.005	-0.054	-0.024	0.044	2.686	1.909	1.909	1.899	1.914	1.904	1.904
-0.015	-0.020	-0.005	-0.005	-0.063	0.000	0.044	2.681	1.909	1.909	1.904	1.919	1.909	1.914
0.000	-0.039	0.005	-0.010	-0.034	-0.015	0.049	2.705	1.919	1.909	1.909	1.924	1.919	1.914
-0.005	-0.039	0.000	-0.005	0.059	-0.005	0.049	2.676	1.914	1.914	1.909	1.929	1.948	1.934
0.010	-0.010	0.005	0.005	0.132	0.005	0.044	2.690	1.924	1.924	1.914	1.934	1.963	1.943
0.000	0.029	0.005	0.015	0.186	0.034	0.049	2.690	1.919	1.934	1.919	1.938	1.973	1.958
-0.005	0.054	0.000	0.015	0.254	0.034	0.044	2.651	1.909	1.924	1.919	1.938	1.973	1.963
0.000	0.034	0.000	0.020	0.195	0.029	0.044	2.783	1.904	1.909	1.914	1.934	1.943	1.953
0.000	0.010	-0.005	0.020	0.098	0.020	0.044	2.798	1.914	1.899	1.904	1.924	1.909	1.934
0.000	-0.005	-0.005	0.015	0.000	0.015	0.044	2.656	1.904	1.895	1.895	1.909	1.880	1.914
0.010	-0.020	0.005	0.005	-0.039	-0.010	0.044	2.632	1.890	1.885	1.890	1.909	1.875	1.895
0.005	-0.015	0.000	0.010	-0.029	0.015	0.049	2.720	1.895	1.885	1.890	1.909	1.885	1.890
0.000	-0.010	0.000	0.000	-0.020	0.010	0.044	2.651	1.890	1.890	1.885	1.904	1.895	1.895
-0.005	-0.010	-0.005	-0.005	-0.034	-0.010	0.044	2.666	1.895	1.890	1.890	1.904	1.895	1.890
0.029	-0.015	-0.005	0.005	-0.044	0.010	0.044	2.725	1.914	1.895	1.890	1.914	1.895	1.899
0.024	-0.029	0.000	0.024	-0.039	0.005	0.049	2.690	1.909	1.899	1.899	1.919	1.904	1.895
0.024	0.044	0.005	0.024	-0.029	0.010	0.049	2.661	1.919	1.929	1.909	1.924	1.914	1.909
0.015	0.010	0.005	0.005	-0.020	0.010	0.049	2.764	1.924	1.919	1.914	1.924	1.919	1.914
0.010	-0.029	0.005	0.000	-0.029	0.010	0.044	2.637	1.919	1.914	1.914	1.929	1.924	1.919
0.039	-0.020	0.005	0.000	-0.024	0.005	0.049	2.729	1.929	1.924	1.914	1.929	1.924	1.919
0.024	0.000	0.000	0.010	-0.034	-0.005	0.044	2.671	1.919	1.924	1.919	1.934	1.924	1.919
0.010	0.015	0.000	0.005	-0.034	-0.010	0.044	2.720	1.919	1.924	1.919	1.934	1.924	1.919
0.044	0.034	0.005	0.000	-0.015	0.000	0.044	2.671	1.924	1.929	1.924	1.934	1.929	1.924
0.039	0.029	0.000	0.000	-0.015	0.000	0.044	2.681	1.909	1.914	1.919	1.929	1.929	1.924
-0.029	0.010	0.000	0.000	-0.010	0.000	0.044	2.681	1.880	1.895	1.909	1.929	1.929	1.919
-0.068	0.000	0.005	-0.020	-0.005	-0.005	0.044	2.666	1.865	1.885	1.899	1.919	1.919	1.919
-0.107	0.000	0.000	-0.024	-0.005	-0.010	0.044	2.695	1.860	1.875	1.890	1.909	1.909	1.909
-0.078	0.020	0.005	-0.029	-0.015	-0.029	0.044	2.686	1.875	1.870	1.880	1.904	1.904	1.904
-0.088	0.005	0.005	-0.024	-0.020	0.005	0.049	2.686	1.880	1.870	1.875	1.904	1.899	1.909
-0.054	-0.015	0.000	-0.010	-0.010	0.000	0.044	2.676	1.890	1.870	1.875	1.899	1.904	1.909
-0.039	-0.015	0.000	-0.015	-0.015	0.005	0.044	2.671	1.899	1.880	1.875	1.899	1.899	1.909
-0.029	-0.015	0.000	-0.015	-0.005	0.010	0.044	2.720	1.914	1.890	1.880	1.904	1.909	1.914
-0.020	-0.024	0.000	0.000	0.020	0.015	0.044	2.681	1.919	1.899	1.885	1.909	1.914	1.914
-0.015	-0.005	0.000	0.010	0.024	-0.015	0.044	2.695	1.919	1.914	1.899	1.914	1.914	1.909
-0.010	0.000	0.005	0.020	0.020	0.010	0.044	2.695	1.929	1.924	1.909	1.929	1.919	1.924
0.000	-0.005	0.000	0.029	0.015	0.005	0.044	2.715	1.934	1.929	1.914	1.934	1.919	1.919
0.015	0.020	0.000	0.034	0.005	-0.005	0.044	2.666	1.929	1.938	1.924	1.934	1.919	1.919
0.024	0.015	-0.005	0.024	-0.005	-0.034	0.049	2.705	1.929	1.934	1.929	1.938	1.919	1.914
0.034	-0.015	-0.005	0.015	-0.010	-0.029	0.044	2.705	1.924	1.919	1.919	1.934	1.919	1.909
0.044	-0.015	0.000	0.000	-0.010	-0.029	0.044	2.700	1.919	1.919	1.919	1.924	1.919	1.914
0.039	-0.005	0.005	0.000	-0.005	-0.005	0.044	2.715	1.914	1.919	1.914	1.929	1.919	1.919
0.049	0.000	0.005	0.000	-0.029	0.015	0.044	2.666	1.899	1.909	1.909	1.924	1.914	1.919
0.039	-0.010	0.000	0.000	-0.034	0.020	0.044	2.705	1.899	1.899	1.904	1.924	1.909	1.919
0.029	-0.005	0.005	-0.005	0.000	0.024	0.049	2.710	1.895	1.895	1.899	1.919	1.919	1.914
0.063	-0.005	0.005	0.005	0.039	0.020	0.044	2.690	1.904	1.895	1.895	1.919	1.929	1.914
0.137	0.000	0.000	0.000	0.039	0.010	0.044	2.681	1.938	1.909	1.899	1.914	1.924	1.919
0.098	0.010	0.000	-0.005	0.024	0.034	0.044	2.656	1.914	1.904	1.904	1.914	1.914	1.924
0.039	0.010	0.005	-0.005	0.024	0.020	0.049	2.798	1.909	1.909	1.904	1.919	1.919	1.919
-0.034	0.005	0.000	-0.005	0.029	0.024	0.044	2.788	1.904	1.909	1.909	1.924	1.919	1.924
-0.049	0.015	0.000	-0.010	0.024	0.029	0.044	2.661	1.904	1.909	1.909	1.929	1.924	1.929
-0.059	0.010	-0.005	-0.015	0.000	-0.010	0.044	2.646	1.904	1.909	1.909	1.929	1.914	1.914
-0.063	0.000	0.000	-0.020	-0.010	-0.010	0.044	2.715	1.909	1.909	1.914	1.934	1.919	1.919
-0.049	0.000	0.000	-0.020	-0.059	-0.024	0.049	2.686	1.914	1.914	1.914	1.934	1.909	1.909
-0.049	0.024	0.000	-0.015	-0.093	-0.039	0.044	2.681	1.909	1.919	1.919	1.934	1.904	1.904
-0.044	0.024	0.000	0.000	-0.063	-0.063	0.049	2.725	1.914	1.914	1.919	1.938	1.919	1.909
-0.049	0.015	0.000	0.010	-0.068	-0.029	0.044	2.764	1.914	1.909	1.914	1.938	1.919	1.914
-0.029	0.015	0.000	0.015	-0.103	-0.029	0.044	2.651	1.909	1.909	1.914	1.934	1.914	1.914
-0.010	0.005	0.000	0.020	-0.098	-0.020	0.044	2.754	1.914	1.904	1.904	1.929	1.919	1.914
0.000	0.005	0.005	0.015	-0.049	-0.015	0.044	2.651	1.904	1.904	1.899	1.924	1.929	1.919
0.010	0.005	0.000	0.015	0.078	0.015	0.044	2.656	1.899	1.895	1.899	1.924	1.963	1.943
0.024	-0.005	0.005	0.015	0.166	0.015	0.044	2.642	1.895	1.890	1.895	1.924	1.968	1.948
0.015	-0.010	0.005	0.020	0.181	0.034	0.044	2.734	1.899	1.890	1.890	1.919	1.958	1.953
0.024	0.000	-0.005	0.010	0.151	0.029	0.049	2.671	1.904	1.895	1.890	1.909	1.934	1.948
0.020	-0.005	0.005	0.010	0.098	0.034	0.049	2.686	1.909	1.899	1.890	1.909	1.914	1.938
0.034	0.000	0.005	0.000	0.059	0.020	0.049	2.671	1.914	1.909	1.899	1.909	1.904	1.924
0.020	-0.005	0.000	-0.005	0.117	0.024	0.044	2.671	1.914	1.909	1.904	1.914	1.924	1.934
0.015	-0.010	0.005	0.000	0.176	0.024	0.044	2.715	1.924	1.909	1.909	1.924	1.943	1.934
0.020	-0.024	0.010	0.000	0.127	0.005	0.044	2.676	1.929	1.919	1.919	1.929	1.924	1.929
0.015	-0.024	-0.010	-0.005	-0.005	-0.005	0.044	2.681	1.929	1.919	1.909	1.929	1.890	1.914
0.010	0.005	-0.005	-0.005	-0.068	0.024	0.049	2.681	1.924	1.934	1.919	1.929	1.885	1.914
0.005	0.010	0.005	-0.005	-0.078	0.000	0.044	2.695	1.924	1.934	1.924	1.934	1.895	1.899
0.010	0.010	0.005	0.000	-0.078	0.000	0.049	2.690	1.924	1.929	1.924	1.934	1.904	1.904
0.010	0.010	0.000	0.000	-0.073	0.005	0.044	2.666	1.909	1.914	1.919	1.938	1.909	1.904
0.005	0.005	0.000	0.005	-0.063	0.005	0.044	2.710	1.904	1.909	1.914	1.934	1.919	1.909
0.000	0.015	0.000	0.005	-0.059	-0.020	0.049	2.686	1.899	1.904	1.909	1.929	1.914	1.899
0.000	0.015	0.000	0.005	-0.054	0.000	0.049	2.671	1.895	1.899	1.904	1.924	1.919	1.909
0.000	0.000	0.000	-0.005	-0.039	0.000	0.044	2.681	1.890	1.885	1.899	1.919	1.914	1.909
0.010	-0.005	-0.005	0.000	-0.029	-0.010	0.049	2.671	1.890	1.885	1.890	1.914	1.914	1.909
-0.005	0.015	0.000	0.000	-0.020	-0.010	0.044	2.700	1.890	1.890	1.890	1.909	1.914	1.904
-0.005	0.088	0.005	0.000	-0.010	0.005	0.049	2.695	1.899	1.914	1.899	1.909	1.919	1.919
0.000	0.029	0.005	0.000	0.010	0.000	0.044	2.700	1.904	1.890	1.899	1.914	1.919	1.919
0.020	-0.098	0.005	0.000	0.000	-0.005	0.049	2.676	1.904	1.865	1.885	1.914	1.914	1.914
0.005	-0.039	0.005	0.000	0.000	0.000	0.049	2.686	1.914	1.899	1.890	1.914	1.919	1.919
0.005	0.010	0.005	-0.005	-0.010	-0.015	0.044	2.661	1.914	1.919	1.899	1.914	1.914	1.919
-0.010	0.029	-0.005	-0.005	-0.020	-0.020	0.044	2.695	1.914	1.929	1.909	1.919	1.919	1.919
-0.005	0.024	0.005	0.000	-0.029	-0.005	0.049	2.695	1.938	1.929	1.919	1.929	1.919	1.924
0.000	-0.005	0.005	0.015	-0.059	0.015	0.044	2.651	1.924	1.919	1.919	1.934	1.914	1.929
0.010	-0.005	0.000	0.010	-0.093	0.034	0.049	2.793	1.938	1.929	1.919	1.938	1.909	1.929
0.015	-0.034	0.000	0.010	-0.049	0.015	0.044	2.798	1.948	1.924	1.914	1.934	1.929	1.919
0.000	-0.005	-0.005	0.010	0.000	0.015	0.049	2.651	1.919	1.929	1.919	1.934	1.943	1.929
0.000	0.015	0.000	0.015	0.049	-0.005	0.049	2.725	1.909	1.924	1.919	1.934	1.948	1.924
-0.005	0.010	-0.005	0.015	0.083	-0.010	0.044	2.661	1.904	1.914	1.914	1.929	1.948	1.929
-0.005	-0.005	0.005	0.000	0.063	-0.010	0.044	2.715	1.904	1.904	1.904	1.924	1.934	1.924
0.005	0.010	0.000	0.000	0.034	-0.010	0.044	2.651	1.895	1.899	1.899	1.919	1.914	1.924
0.005	-0.010	0.000	0.000	-0.010	0.005	0.044	2.754	1.899	1.895	1.895	1.919	1.904	1.919
-0.005	-0.015	0.000	-0.005	-0.015	-0.020	0.044	2.764	1.909	1.895	1.899	1.914	1.899	1.909
0.000	-0.005	0.000	-0.005	-0.020	0.000	0.044	2.622	1.899	1.895	1.899	1.914	1.904	1.914
-0.005	-0.005	0.000	-0.010	-0.015	0.000	0.049	2.656	1.899	1.899	1.899	1.914	1.909	1.914
0.000	-0.024	0.005	-0.005	-0.039	0.020	0.044	2.651	1.904	1.895	1.904	1.919	1.909	1.919
0.005	-0.015	-0.005	0.005	0.005	0.020	0.044	2.646	1.904	1.909	1.904	1.924	1.929	1.924
-0.005	0.000	0.005	0.000	0.005	0.000	0.049	2.646	1.904	1.914	1.909	1.929	1.924	1.919
0.005	0.020	0.000	0.000	0.034	0.005	0.044	2.739	1.924	1.924	1.919	1.934	1.938	1.929
-0.005	0.020	0.000	0.000	0.093	-0.005	0.044	2.695	1.924	1.924	1.919	1.938	1.953	1.938
0.005	0.005	0.005	0.000	0.098	0.005	0.044	2.676	1.924	1.924	1.924	1.938	1.948	1.948
0.005	0.024	0.005	0.000	0.083	0.000	0.049	2.661	1.924	1.929	1.924	1.938	1.943	1.943
-0.010	0.059	0.000	0.000	0.049	0.000	0.044	2.666	1.909	1.929	1.924	1.938	1.929	1.938
-0.015	0.059	0.005	0.000	0.000	0.015	0.049	2.700	1.909	1.924	1.919	1.934	1.914	1.929
-0.005	0.044	0.000	-0.005	-0.020	0.005	0.044	2.671	1.899	1.909	1.914	1.934	1.909	1.924
-0.010	-0.010	0.000	-0.005	-0.020	0.010	0.049	2.681	1.895	1.880	1.899	1.924	1.909	1.919
0.010	-0.039	-0.005	-0.005	-0.020	0.000	0.049	2.671	1.895	1.875	1.890	1.914	1.909	1.909
0.000	-0.049	-0.005	0.000	-0.010	-0.010	0.044	2.681	1.890	1.875	1.880	1.914	1.904	1.904
0.015	0.005	-0.005	0.000	-0.010	0.005	0.044	2.710	1.895	1.890	1.885	1.909	1.904	1.909
0.010	-0.005	0.000	0.010	-0.010	0.015	0.044	2.690	1.899	1.890	1.885	1.909	1.904	1.909
0.000	-0.015	0.000	0.010	-0.015	0.005	0.044	2.710	1.899	1.890	1.890	1.909	1.904	1.909
0.000	0.005	0.005	0.005	-0.034	0.015	0.044	2.681	1.904	1.904	1.895	1.909	1.899	1.909
0.000	-0.010	0.005	0.005	-0.029	0.000	0.044	2.695	1.909	1.904	1.899	1.914	1.904	1.904
-0.010	-0.015	0.005	0.010	-0.024	-0.024	0.044	2.686	1.909	1.904	1.899	1.919	1.909	1.904
-0.005	-0.015	0.005	0.010	-0.020	-0.010	0.049	2.710	1.919	1.914	1.909	1.924	1.919	1.919
0.005	-0.010	0.005	0.015	-0.015	0.005	0.049	2.671	1.924	1.919	1.914	1.929	1.924	1.924
0.005	-0.005	0.005	0.005	-0.015	0.000	0.044	2.700	1.924	1.924	1.914	1.929	1.924	1.919
0.000	0.005	0.000	0.005	-0.005	0.000	0.044	2.710	1.924	1.924	1.919	1.934	1.929	1.929
-0.010	0.005	0.000	0.005	0.010	0.000	0.049	2.681	1.914	1.924	1.919	1.934	1.929	1.929
-0.005	0.005	0.005	0.005	0.034	-0.010	0.049	2.695	1.914	1.919	1.919	1.934	1.938	1.929
0.000	0.015	-0.005	0.000	0.059	-0.010	0.044	2.671	1.909	1.914	1.914	1.929	1.938	1.929
