0.010	-0.005	0.005	0.000	0.000	0.000	0.029	2.661	5.229	3.496	3.135	2.671	2.783	2.588
0.005	-0.015	0.005	0.000	0.000	-0.005	0.029	2.666	4.478	3.789	3.311	2.842	2.793	2.646
0.015	-0.005	0.005	0.005	0.000	0.010	0.029	2.671	3.936	3.853	3.462	3.013	2.847	2.705
0.015	-0.005	0.000	0.005	0.000	0.000	0.029	2.690	3.545	3.779	3.555	3.164	2.930	2.759
0.015	-0.034	0.005	0.000	0.005	0.010	0.029	2.661	3.271	3.643	3.584	3.281	3.027	2.832
0.015	-0.005	0.000	0.005	0.005	0.005	0.024	2.671	3.071	3.501	3.564	3.369	3.120	2.910
0.000	0.000	0.000	0.000	0.000	0.005	0.029	2.705	2.930	3.350	3.511	3.418	3.198	2.983
-0.010	0.005	0.000	0.005	0.005	0.000	0.024	2.695	2.837	3.218	3.433	3.433	3.262	3.062
-0.010	0.024	-0.005	0.005	0.010	0.005	0.029	2.695	2.778	3.105	3.350	3.418	3.306	3.130
0.000	0.000	-0.005	0.000	0.005	0.005	0.024	2.700	2.744	3.008	3.262	3.379	3.325	3.184
-0.005	0.024	0.000	0.005	0.000	0.000	0.029	2.695	2.725	2.944	3.174	3.330	3.330	3.223
-0.005	0.020	0.000	0.000	0.000	-0.005	0.029	2.676	2.710	2.881	3.096	3.271	3.315	3.247
-0.005	0.010	0.000	0.000	0.005	0.000	0.029	2.700	2.705	2.832	3.022	3.208	3.286	3.262
-0.005	0.010	0.005	0.000	0.000	-0.010	0.029	2.695	2.705	2.803	2.959	3.145	3.247	3.257
0.010	0.000	0.000	0.005	0.005	-0.010	0.024	2.676	2.705	2.773	2.910	3.091	3.208	3.247
0.005	-0.005	0.005	0.000	0.005	0.015	0.029	2.676	2.700	2.759	2.866	3.032	3.159	3.228
-0.005	-0.010	0.000	0.005	0.000	0.005	0.029	2.695	2.700	2.749	2.832	2.983	3.110	3.198
0.000	-0.015	0.005	0.000	0.005	0.005	0.029	2.671	2.700	2.734	2.808	2.939	3.062	3.159
0.010	0.000	0.000	0.005	0.000	-0.010	0.029	2.700	2.700	2.729	2.783	2.900	3.018	3.120
0.010	-0.010	0.000	0.005	0.000	0.005	0.024	2.700	2.695	2.725	2.764	2.866	2.974	3.086
0.005	0.000	0.000	0.000	-0.005	0.005	0.024	2.676	2.686	2.720	2.754	2.842	2.935	3.042
0.010	0.000	0.005	0.000	0.005	-0.024	0.029	2.671	2.676	2.715	2.739	2.817	2.905	2.998
0.010	-0.005	0.005	0.005	-0.005	0.005	0.029	2.705	2.671	2.695	2.729	2.798	2.871	2.974
-0.005	-0.005	0.000	0.000	0.000	0.000	0.029	2.681	2.656	2.690	2.715	2.778	2.847	2.935
-0.005	0.000	0.005	0.000	0.000	0.020	0.029	2.686	2.651	2.686	2.710	2.764	2.822	2.910
0.000	0.005	0.000	0.000	0.005	0.010	0.024	2.690	2.642	2.676	2.700	2.754	2.803	2.881
0.005	0.015	-0.005	0.000	0.000	0.005	0.029	2.695	2.632	2.666	2.690	2.739	2.783	2.852
-0.010	-0.010	-0.005	0.000	0.000	0.000	0.029	2.686	2.617	2.651	2.676	2.729	2.769	2.827
-0.005	-0.005	0.000	0.000	0.005	0.000	0.029	2.686	2.607	2.646	2.666	2.715	2.754	2.808
0.000	0.000	-0.005	0.000	0.000	-0.010	0.029	2.690	2.603	2.637	2.661	2.705	2.739	2.788
0.000	0.010	0.000	0.000	0.005	0.010	0.024	2.681	2.588	2.627	2.651	2.695	2.725	2.778
-0.005	0.005	-0.005	0.005	0.010	0.000	0.024	2.671	2.573	2.612	2.642	2.686	2.715	2.759
0.000	0.000	0.005	0.005	0.000	0.000	0.029	2.676	2.568	2.603	2.632	2.676	2.700	2.744
0.005	-0.010	0.005	0.000	0.000	-0.010	0.029	2.676	2.559	2.593	2.622	2.661	2.690	2.725
0.005	0.015	0.005	0.000	0.000	-0.029	0.029	2.676	2.544	2.583	2.612	2.651	2.676	2.710
0.010	0.005	0.005	0.000	-0.005	0.005	0.029	2.681	2.539	2.573	2.598	2.646	2.666	2.705
0.005	0.005	0.000	0.000	-0.005	-0.010	0.024	2.686	2.529	2.559	2.588	2.632	2.656	2.690
0.005	0.000	0.005	0.005	0.000	0.015	0.029	2.681	2.515	2.549	2.573	2.622	2.651	2.686
0.005	0.005	0.000	0.005	0.005	0.010	0.029	2.676	2.515	2.544	2.563	2.612	2.642	2.671
0.000	0.005	-0.005	0.000	0.000	0.010	0.029	2.676	2.505	2.534	2.554	2.603	2.627	2.656
-0.005	0.010	-0.005	0.000	-0.005	0.010	0.024	2.686	2.495	2.524	2.549	2.593	2.612	2.646
-0.005	0.010	0.000	-0.005	0.005	0.005	0.029	2.671	2.485	2.515	2.539	2.583	2.607	2.637
-0.010	-0.005	-0.005	0.000	0.000	0.010	0.029	2.671	2.471	2.500	2.524	2.573	2.598	2.627
-0.010	-0.005	-0.005	0.000	0.000	0.000	0.029	2.681	2.471	2.495	2.520	2.563	2.583	2.617
-0.015	0.000	0.000	0.000	0.000	-0.005	0.029	2.671	2.461	2.490	2.510	2.554	2.578	2.603
-0.005	0.000	0.005	0.005	0.000	-0.010	0.024	2.676	2.456	2.480	2.505	2.544	2.568	2.593
0.000	0.005	0.000	0.000	0.000	-0.015	0.024	2.686	2.451	2.471	2.495	2.534	2.554	2.578
-0.005	-0.005	0.000	0.000	0.000	-0.005	0.029	2.661	2.437	2.466	2.485	2.524	2.544	2.573
0.000	-0.005	0.005	0.000	0.005	0.005	0.024	2.676	2.432	2.451	2.476	2.520	2.534	2.568
0.000	-0.005	0.005	0.000	0.000	0.020	0.029	2.676	2.422	2.446	2.466	2.510	2.529	2.563
0.010	-0.005	0.005	0.000	0.000	0.005	0.029	2.676	2.417	2.441	2.461	2.500	2.515	2.544
0.010	0.005	0.005	0.005	0.000	0.010	0.029	2.671	2.407	2.432	2.451	2.495	2.510	2.539
0.000	0.000	0.005	0.000	0.000	-0.015	0.029	2.671	2.397	2.422	2.441	2.485	2.505	2.524
0.000	-0.010	0.005	0.000	0.005	0.010	0.029	2.681	2.388	2.412	2.432	2.476	2.495	2.520
0.010	-0.005	0.000	0.000	-0.005	0.000	0.029	2.686	2.383	2.407	2.427	2.466	2.485	2.510
0.010	0.000	0.000	0.000	0.005	0.005	0.029	2.661	2.373	2.397	2.417	2.461	2.480	2.500
0.010	0.005	0.000	0.000	0.000	0.005	0.024	2.686	2.368	2.393	2.412	2.451	2.471	2.495
0.005	0.000	-0.005	0.000	0.000	0.000	0.029	2.671	2.358	2.388	2.402	2.441	2.461	2.480
-0.005	0.005	-0.005	0.005	0.000	0.000	0.029	2.686	2.349	2.378	2.397	2.437	2.451	2.476
-0.005	0.000	-0.010	0.005	0.000	-0.005	0.029	2.681	2.344	2.368	2.388	2.427	2.441	2.466
0.005	0.000	-0.005	0.000	0.005	0.000	0.029	2.666	2.344	2.363	2.383	2.422	2.437	2.461
0.000	0.005	-0.005	0.000	0.000	0.005	0.029	2.681	2.334	2.358	2.373	2.412	2.432	2.451
-0.005	0.005	-0.005	0.000	-0.005	0.010	0.024	2.686	2.329	2.349	2.368	2.407	2.422	2.446
0.005	0.000	0.000	0.005	0.000	-0.005	0.029	2.671	2.324	2.344	2.363	2.397	2.417	2.432
0.000	0.005	-0.005	0.000	0.005	0.005	0.024	2.686	2.319	2.339	2.354	2.388	2.407	2.432
0.000	-0.010	-0.005	0.000	0.000	-0.020	0.029	2.671	2.310	2.324	2.344	2.383	2.397	2.422
0.005	-0.020	0.000	0.005	0.000	0.000	0.029	2.686	2.305	2.319	2.339	2.378	2.393	2.412
0.010	-0.010	0.000	0.000	0.005	-0.005	0.029	2.676	2.300	2.314	2.334	2.368	2.383	2.402
0.005	-0.015	0.005	0.000	0.000	0.005	0.024	2.681	2.290	2.310	2.324	2.363	2.378	2.402
0.005	0.000	0.010	0.000	0.010	0.010	0.029	2.686	2.285	2.305	2.319	2.358	2.373	2.393
0.010	-0.005	0.005	0.000	0.005	-0.010	0.029	2.676	2.280	2.300	2.314	2.349	2.363	2.383
0.000	0.000	0.000	0.005	0.000	0.005	0.029	2.666	2.271	2.295	2.310	2.344	2.354	2.378
-0.005	0.000	0.005	0.000	0.000	-0.015	0.024	2.686	2.275	2.290	2.300	2.339	2.349	2.363
-0.005	0.010	0.000	0.000	0.000	0.015	0.024	2.676	2.266	2.285	2.295	2.329	2.344	2.368
0.000	0.029	0.000	0.000	0.000	0.005	0.029	2.686	2.261	2.285	2.295	2.324	2.339	2.358
-0.005	0.024	0.000	0.005	-0.005	0.005	0.029	2.671	2.256	2.275	2.285	2.319	2.329	2.349
-0.015	0.020	0.000	0.005	0.005	0.005	0.029	2.671	2.246	2.266	2.285	2.319	2.329	2.344
-0.010	0.020	-0.005	0.000	0.000	0.000	0.029	2.671	2.236	2.261	2.275	2.310	2.319	2.339
-0.005	0.015	-0.005	0.000	0.005	-0.005	0.029	2.676	2.236	2.256	2.271	2.305	2.319	2.329
-0.010	0.005	-0.005	0.000	0.005	0.005	0.024	2.681	2.227	2.246	2.261	2.300	2.310	2.329
-0.005	-0.005	0.000	0.005	-0.005	-0.015	0.029	2.676	2.227	2.241	2.256	2.295	2.305	2.319
-0.005	0.005	-0.005	0.005	0.000	0.010	0.029	2.676	2.222	2.236	2.251	2.285	2.300	2.319
0.000	-0.005	0.005	0.005	-0.005	0.010	0.029	2.676	2.222	2.231	2.246	2.280	2.295	2.310
0.005	-0.010	0.010	-0.005	0.005	-0.005	0.029	2.671	2.212	2.227	2.236	2.275	2.290	2.300
0.005	-0.015	0.010	0.005	0.000	0.000	0.024	2.676	2.202	2.217	2.231	2.266	2.280	2.300
0.010	-0.015	0.005	0.000	0.005	0.005	0.029	2.661	2.202	2.217	2.227	2.261	2.275	2.295
0.005	-0.010	-0.005	0.005	0.000	0.005	0.029	2.681	2.197	2.212	2.222	2.256	2.266	2.285
0.005	-0.010	0.000	0.000	0.000	0.000	0.029	2.686	2.192	2.207	2.217	2.251	2.261	2.275
0.010	-0.005	-0.005	0.000	-0.005	-0.005	0.024	2.666	2.187	2.202	2.212	2.241	2.256	2.271
0.005	0.000	-0.005	0.000	0.000	-0.020	0.029	2.676	2.187	2.197	2.207	2.241	2.246	2.261
0.000	0.000	-0.005	0.005	0.000	0.005	0.029	2.671	2.178	2.197	2.202	2.236	2.246	2.266
-0.005	0.000	0.000	0.000	-0.005	0.000	0.029	2.686	2.178	2.192	2.202	2.231	2.241	2.256
0.000	0.020	0.000	0.000	0.000	0.005	0.029	2.681	2.173	2.187	2.197	2.227	2.236	2.251
0.000	0.010	-0.005	0.000	0.000	0.000	0.029	2.681	2.168	2.183	2.192	2.222	2.231	2.246
0.000	0.010	0.000	0.000	0.000	0.000	0.024	2.676	2.163	2.183	2.187	2.217	2.227	2.241
-0.010	0.005	0.000	0.005	0.000	0.005	0.029	2.666	2.158	2.178	2.187	2.217	2.222	2.236
-0.005	0.000	-0.005	0.000	0.005	-0.005	0.029	2.666	2.153	2.168	2.183	2.212	2.217	2.231
0.000	0.010	0.000	0.000	0.005	-0.020	0.029	2.676	2.153	2.168	2.178	2.207	2.212	2.222
0.000	-0.005	0.005	0.000	0.000	0.010	0.029	2.681	2.153	2.158	2.173	2.202	2.207	2.227
0.000	-0.005	0.005	0.005	0.000	0.000	0.029	2.676	2.148	2.158	2.168	2.197	2.202	2.217
0.005	-0.005	0.005	0.000	0.000	0.000	0.029	2.681	2.144	2.153	2.163	2.192	2.202	2.212
0.005	-0.010	0.010	0.000	0.000	-0.005	0.029	2.686	2.139	2.148	2.158	2.187	2.192	2.202
0.005	0.010	0.010	-0.005	0.000	0.010	0.029	2.676	2.139	2.148	2.158	2.183	2.192	2.207
0.005	-0.005	0.005	0.000	0.005	-0.010	0.029	2.676	2.134	2.139	2.148	2.183	2.187	2.192
0.010	-0.010	0.000	0.000	0.000	-0.015	0.029	2.676	2.134	2.139	2.144	2.178	2.183	2.187
0.015	-0.005	-0.005	0.005	0.000	0.000	0.029	2.661	2.124	2.139	2.139	2.168	2.183	2.192
-0.005	-0.010	-0.005	0.000	0.000	0.010	0.029	2.671	2.114	2.129	2.134	2.168	2.173	2.187
-0.005	0.005	0.000	0.000	0.000	0.005	0.029	2.676	2.114	2.129	2.134	2.168	2.173	2.183
-0.010	0.000	-0.005	0.000	0.000	0.010	0.029	2.681	2.114	2.124	2.129	2.158	2.168	2.183
0.000	0.000	0.000	0.000	0.000	0.000	0.024	2.676	2.114	2.124	2.129	2.158	2.163	2.173
-0.010	0.015	-0.005	0.005	0.000	0.010	0.029	2.671	2.109	2.124	2.129	2.153	2.163	2.173
-0.005	0.005	0.000	0.000	0.000	0.005	0.024	2.681	2.109	2.119	2.124	2.153	2.158	2.168
-0.010	0.005	-0.005	0.000	0.000	-0.005	0.024	2.686	2.104	2.114	2.124	2.148	2.153	2.163
0.000	0.005	0.005	0.000	0.000	-0.015	0.029	2.690	2.104	2.114	2.119	2.148	2.153	2.158
-0.005	0.005	0.005	0.005	-0.005	0.005	0.029	2.686	2.100	2.109	2.114	2.144	2.148	2.153
0.000	0.020	0.000	0.010	0.005	0.005	0.029	2.676	2.095	2.109	2.114	2.144	2.148	2.158
0.010	0.010	0.005	0.005	0.000	0.005	0.029	2.676	2.095	2.104	2.109	2.134	2.144	2.153
0.015	0.010	0.000	0.000	0.005	0.005	0.029	2.671	2.095	2.100	2.109	2.129	2.139	2.148
0.005	0.000	0.005	0.000	0.005	-0.015	0.029	2.671	2.085	2.095	2.104	2.129	2.134	2.139
0.010	-0.010	0.005	0.000	0.000	0.005	0.029	2.681	2.080	2.090	2.100	2.124	2.129	2.139
0.015	-0.005	0.005	0.000	0.000	0.000	0.029	2.686	2.080	2.085	2.095	2.124	2.124	2.134
0.010	-0.005	0.000	0.000	0.000	-0.005	0.029	2.671	2.075	2.085	2.090	2.119	2.124	2.129
0.005	0.000	-0.005	0.005	-0.005	0.005	0.024	2.676	2.075	2.085	2.085	2.114	2.119	2.134
0.005	0.005	-0.005	0.000	0.000	0.000	0.029	2.671	2.065	2.080	2.080	2.109	2.119	2.124
0.000	0.020	-0.005	0.005	0.000	0.005	0.029	2.681	2.065	2.080	2.085	2.109	2.114	2.124
-0.010	-0.005	-0.010	0.005	0.000	0.005	0.029	2.661	2.065	2.070	2.075	2.109	2.109	2.124
-0.005	-0.005	-0.005	0.000	0.000	0.010	0.029	2.671	2.061	2.065	2.075	2.104	2.104	2.119
-0.005	0.000	-0.005	0.000	0.000	0.010	0.024	2.686	2.061	2.065	2.070	2.100	2.104	2.114
-0.010	-0.005	0.000	-0.005	0.000	0.000	0.029	2.681	2.056	2.065	2.070	2.095	2.100	2.109
0.000	-0.005	0.005	0.000	-0.005	0.000	0.029	2.681	2.061	2.065	2.070	2.095	2.100	2.109
0.000	-0.005	-0.005	0.005	0.005	-0.010	0.029	2.666	2.061	2.061	2.065	2.095	2.095	2.104
-0.005	-0.005	0.005	0.000	0.000	-0.005	0.029	2.671	2.051	2.061	2.065	2.090	2.095	2.100
0.000	-0.005	0.010	0.000	-0.005	0.005	0.029	2.676	2.051	2.056	2.065	2.090	2.090	2.100
0.010	-0.005	0.000	0.005	0.000	-0.010	0.029	2.681	2.051	2.056	2.061	2.085	2.090	2.095
0.005	0.005	0.010	0.000	0.005	0.005	0.024	2.676	2.051	2.056	2.061	2.085	2.085	2.095
0.005	0.010	0.010	0.000	0.000	-0.005	0.029	2.666	2.046	2.056	2.056	2.080	2.085	2.090
0.000	0.010	0.010	0.005	0.010	0.000	0.029	2.676	2.036	2.051	2.056	2.080	2.085	2.090
0.020	0.000	0.010	0.005	0.010	-0.015	0.029	2.676	2.041	2.046	2.051	2.075	2.080	2.085
0.000	0.010	0.000	0.005	0.000	-0.005	0.029	2.676	2.031	2.046	2.046	2.070	2.075	2.085
0.000	0.000	0.000	0.000	0.000	0.000	0.029	2.666	2.031	2.036	2.041	2.070	2.070	2.080
0.005	0.000	0.000	0.000	0.000	0.000	0.029	2.676	2.031	2.036	2.041	2.065	2.070	2.075
-0.005	0.005	0.000	0.000	0.005	0.005	0.024	2.676	2.026	2.036	2.041	2.065	2.065	2.075
-0.010	0.010	-0.005	-0.005	-0.005	-0.015	0.029	2.686	2.026	2.031	2.036	2.061	2.065	2.070
0.000	-0.005	0.000	0.000	0.005	0.005	0.029	2.681	2.026	2.031	2.036	2.061	2.065	2.070
0.000	0.000	0.000	0.000	0.005	0.010	0.029	2.676	2.026	2.031	2.036	2.056	2.061	2.070
0.005	0.005	-0.005	0.000	0.005	0.005	0.029	2.681	2.026	2.031	2.031	2.056	2.061	2.065
0.000	0.000	0.000	0.000	0.005	-0.010	0.029	2.676	2.021	2.026	2.031	2.056	2.056	2.061
0.010	-0.005	0.000	0.000	-0.005	0.000	0.029	2.681	2.021	2.026	2.026	2.051	2.051	2.061
0.010	0.005	0.000	0.000	-0.010	0.010	0.029	2.681	2.026	2.026	2.026	2.051	2.051	2.061
-0.010	-0.005	0.005	0.005	0.000	0.005	0.029	2.666	2.012	2.021	2.026	2.051	2.051	2.061
-0.015	-0.015	0.005	0.000	0.000	0.005	0.029	2.686	2.012	2.017	2.021	2.046	2.051	2.051
0.000	0.000	0.010	0.000	-0.005	0.005	0.029	2.686	2.012	2.017	2.021	2.046	2.046	2.051
-0.010	-0.005	0.005	0.000	0.000	0.005	0.029	2.671	2.007	2.012	2.017	2.041	2.046	2.046
-0.010	-0.005	0.005	0.000	0.005	0.000	0.029	2.666	2.002	2.012	2.017	2.036	2.041	2.046
-0.015	0.005	-0.005	-0.005	0.005	0.000	0.024	2.651	2.002	2.007	2.012	2.031	2.036	2.041
-0.010	-0.005	-0.005	0.000	-0.005	0.000	0.024	2.651	1.997	2.007	2.007	2.031	2.036	2.041
-0.010	-0.005	-0.005	0.000	-0.005	0.000	0.024	2.642	1.997	2.002	2.007	2.031	2.031	2.041
-0.005	0.000	-0.005	0.005	-0.005	0.000	0.029	2.822	2.017	2.007	2.007	2.026	2.031	2.036
-0.010	0.005	-0.005	0.000	0.000	-0.010	0.029	2.671	2.007	2.007	2.007	2.026	2.031	2.031
-0.010	0.005	-0.005	0.000	0.005	0.005	0.029	2.690	2.007	2.007	2.007	2.026	2.026	2.036
-0.005	0.005	-0.005	0.000	0.000	0.000	0.029	2.681	2.007	2.007	2.002	2.026	2.026	2.031
0.010	0.000	-0.005	0.000	0.000	0.000	0.029	2.671	2.002	2.007	2.002	2.026	2.026	2.031
0.005	0.010	0.000	-0.005	0.000	-0.015	0.029	2.671	2.002	2.007	2.007	2.026	2.021	2.026
0.015	0.005	0.000	-0.005	0.000	0.010	0.029	2.681	1.997	2.002	2.007	2.026	2.021	2.026
0.010	-0.005	0.005	0.005	0.005	0.005	0.029	2.661	1.992	1.997	2.002	2.026	2.026	2.026
0.010	0.000	0.000	0.010	0.005	-0.015	0.029	2.642	1.987	1.997	1.997	2.026	2.021	2.021
0.010	0.000	-0.005	0.000	0.000	0.000	0.029	2.646	1.982	1.992	1.992	2.021	2.017	2.026
0.015	-0.010	0.000	0.000	0.000	0.005	0.029	2.646	1.978	1.987	1.992	2.017	2.017	2.026
0.015	0.005	0.010	0.000	-0.005	-0.015	0.029	2.686	1.982	1.987	1.992	2.017	2.017	2.017
0.010	-0.005	0.005	0.005	0.000	0.000	0.029	2.808	1.997	1.987	1.987	2.012	2.012	2.017
0.000	-0.010	0.005	0.000	0.000	0.005	0.029	2.651	1.987	1.987	1.987	2.012	2.012	2.017
0.005	0.000	0.000	0.005	0.000	-0.010	0.029	2.842	2.002	1.987	1.987	2.012	2.007	2.012
0.005	0.000	-0.005	0.005	0.000	0.005	0.029	2.681	1.992	1.992	1.987	2.007	2.012	2.017
0.000	0.000	0.010	0.000	0.005	0.010	0.024	2.671	1.987	1.992	1.992	2.007	2.012	2.017
-0.005	0.005	0.005	0.000	0.005	0.000	0.024	2.671	1.982	1.987	1.992	2.007	2.007	2.012
-0.010	0.010	0.005	-0.005	0.005	0.000	0.029	2.676	1.982	1.987	1.987	2.007	2.007	2.012
-0.005	0.005	0.000	0.005	0.005	-0.010	0.029	2.666	1.978	1.982	1.987	2.007	2.007	2.007
-0.005	0.010	-0.005	0.000	0.000	-0.005	0.029	2.676	1.978	1.982	1.982	2.007	2.002	2.007
-0.005	0.015	-0.005	0.000	0.005	0.005	0.029	2.666	1.973	1.982	1.982	2.007	2.007	2.012
0.000	0.000	0.000	0.000	0.000	0.010	0.029	2.651	1.973	1.978	1.982	2.002	2.002	2.007
0.005	0.000	0.005	0.000	0.005	-0.005	0.029	2.646	1.973	1.973	1.982	2.002	2.002	2.002
0.000	-0.005	0.000	0.000	0.000	0.010	0.029	2.651	1.968	1.973	1.978	2.002	2.002	2.007
0.000	0.005	0.000	0.005	0.010	0.005	0.029	2.690	1.968	1.973	1.978	2.002	1.997	2.007
0.005	-0.010	0.000	0.005	0.005	-0.010	0.029	2.808	1.982	1.968	1.973	1.997	1.992	1.997
-0.005	-0.005	0.000	-0.005	-0.005	0.010	0.029	2.627	1.968	1.968	1.968	1.992	1.992	2.002
0.005	-0.020	-0.005	0.000	0.000	0.005	0.024	2.832	1.987	1.973	1.968	1.992	1.992	1.997
0.000	-0.005	-0.005	0.000	0.000	-0.005	0.029	2.681	1.978	1.978	1.968	1.992	1.987	1.992
0.010	0.000	-0.010	0.000	0.000	0.000	0.029	2.671	1.973	1.978	1.973	1.987	1.987	1.997
0.005	-0.005	-0.005	0.000	0.005	0.000	0.029	2.671	1.968	1.973	1.973	1.992	1.987	1.992
0.015	-0.005	0.000	0.005	0.000	-0.010	0.029	2.671	1.968	1.973	1.973	1.992	1.987	1.992
0.024	0.000	0.005	0.005	-0.005	0.000	0.029	2.656	1.968	1.973	1.973	1.992	1.987	1.992
0.020	0.015	0.005	0.000	0.000	-0.015	0.024	2.661	1.958	1.973	1.973	1.992	1.987	1.987
0.005	0.020	0.005	0.000	0.000	0.010	0.029	2.656	1.958	1.968	1.973	1.992	1.987	1.992
-0.010	0.020	0.000	0.000	0.005	0.005	0.029	2.661	1.953	1.963	1.968	1.992	1.987	1.992
-0.005	0.015	0.005	0.000	0.000	0.000	0.029	2.651	1.948	1.958	1.963	1.992	1.987	1.987
-0.015	-0.005	0.005	0.005	0.005	0.005	0.029	2.651	1.943	1.953	1.963	1.987	1.987	1.987
-0.020	0.000	0.005	0.005	0.000	0.005	0.024	2.681	1.948	1.948	1.958	1.982	1.987	1.987
-0.015	-0.005	-0.005	0.005	0.005	0.005	0.029	2.822	1.953	1.948	1.953	1.982	1.982	1.987
-0.020	-0.005	-0.005	0.005	0.000	0.000	0.029	2.632	1.943	1.948	1.948	1.978	1.982	1.987
-0.015	0.005	0.000	0.005	0.000	-0.010	0.029	2.827	1.963	1.953	1.953	1.978	1.978	1.982
-0.015	-0.015	0.000	0.000	0.000	-0.015	0.029	2.681	1.963	1.948	1.953	1.973	1.973	1.978
-0.005	-0.005	0.000	0.000	0.000	0.005	0.029	2.661	1.953	1.953	1.953	1.973	1.973	1.987
0.005	-0.005	0.000	0.005	0.000	0.000	0.029	2.666	1.958	1.958	1.948	1.973	1.968	1.973
0.005	0.010	0.000	0.000	0.000	0.005	0.029	2.666	1.953	1.958	1.953	1.973	1.968	1.978
0.015	0.015	0.000	0.000	0.005	-0.005	0.029	2.686	1.958	1.958	1.953	1.973	1.968	1.973
0.010	0.024	0.000	-0.005	0.000	0.005	0.029	2.661	1.948	1.958	1.953	1.973	1.968	1.978
0.015	0.020	0.005	0.000	0.000	0.005	0.029	2.642	1.948	1.953	1.958	1.973	1.968	1.973
0.054	0.010	0.010	0.000	0.005	0.005	0.024	2.656	1.953	1.948	1.958	1.973	1.968	1.973
0.039	0.005	0.005	0.000	0.000	0.010	0.024	2.646	1.948	1.953	1.953	1.973	1.968	1.973
0.015	0.000	0.000	0.000	0.005	0.005	0.029	2.646	1.938	1.943	1.948	1.973	1.968	1.968
-0.010	0.010	0.000	0.000	0.000	-0.015	0.029	2.681	1.929	1.943	1.943	1.973	1.968	1.963
-0.024	0.000	0.005	0.000	0.000	0.000	0.024	2.817	1.943	1.938	1.943	1.968	1.963	1.968
-0.029	-0.005	0.000	0.000	0.000	0.005	0.024	2.642	1.938	1.938	1.943	1.963	1.968	1.973
-0.039	0.000	0.000	0.000	0.005	-0.005	0.024	2.651	1.938	1.938	1.938	1.963	1.963	1.968
-0.029	0.000	0.010	0.000	0.010	0.000	0.029	2.690	1.938	1.938	1.943	1.963	1.963	1.968
-0.029	0.000	0.005	0.000	0.005	-0.010	0.029	2.666	1.938	1.938	1.938	1.963	1.963	1.958
-0.020	-0.015	0.000	0.005	0.005	0.005	0.029	2.661	1.938	1.938	1.938	1.958	1.958	1.968
-0.015	-0.015	0.005	0.000	0.000	0.010	0.029	2.671	1.943	1.934	1.934	1.958	1.958	1.968
0.005	-0.010	0.010	0.000	0.000	-0.020	0.029	2.661	1.943	1.938	1.938	1.958	1.953	1.953
-0.005	-0.015	0.000	0.000	0.000	0.015	0.024	2.651	1.934	1.938	1.934	1.953	1.953	1.963
0.010	-0.010	0.005	0.000	0.000	0.010	0.029	2.666	1.943	1.938	1.934	1.953	1.953	1.958
0.024	0.000	0.000	0.005	0.000	0.000	0.029	2.661	1.938	1.943	1.934	1.953	1.953	1.958
0.020	0.005	0.000	0.000	0.000	0.015	0.024	2.651	1.934	1.934	1.938	1.953	1.948	1.958
0.029	0.005	0.000	0.000	0.000	0.005	0.029	2.656	1.938	1.938	1.938	1.953	1.948	1.953
0.044	0.000	-0.005	0.000	0.000	0.005	0.029	2.676	1.938	1.938	1.934	1.953	1.948	1.953
0.039	0.005	0.000	0.005	0.000	0.000	0.029	2.812	1.953	1.943	1.934	1.953	1.948	1.948
0.015	0.020	-0.005	-0.005	0.000	-0.010	0.029	2.803	1.953	1.948	1.938	1.953	1.948	1.948
-0.015	-0.005	-0.005	0.000	0.000	-0.005	0.029	2.646	1.938	1.938	1.938	1.953	1.948	1.953
-0.029	0.010	0.000	0.005	-0.005	0.010	0.024	2.676	1.934	1.938	1.938	1.958	1.948	1.953
-0.029	0.020	0.000	0.005	0.000	0.015	0.024	2.676	1.929	1.943	1.938	1.958	1.953	1.953
-0.039	0.010	0.005	0.005	0.005	-0.005	0.029	2.666	1.929	1.934	1.938	1.958	1.948	1.948
-0.034	0.010	0.005	0.000	0.005	-0.005	0.029	2.690	1.929	1.929	1.934	1.958	1.948	1.953
-0.015	-0.005	0.005	0.005	0.000	0.005	0.029	2.666	1.934	1.929	1.929	1.953	1.948	1.953
-0.010	-0.010	0.005	0.005	-0.005	0.005	0.029	2.656	1.934	1.929	1.929	1.953	1.948	1.948
0.005	-0.020	0.010	-0.005	0.000	0.005	0.029	2.661	1.934	1.929	1.929	1.948	1.948	1.953
0.005	-0.010	0.005	0.000	0.000	0.005	0.029	2.637	1.924	1.929	1.929	1.948	1.948	1.953
0.024	-0.015	0.010	0.000	0.005	-0.010	0.029	2.651	1.929	1.924	1.929	1.948	1.943	1.943
0.020	-0.005	0.005	0.000	0.005	0.005	0.029	2.646	1.929	1.929	1.929	1.948	1.943	1.948
0.024	0.000	0.010	0.000	-0.005	0.015	0.029	2.651	1.924	1.929	1.929	1.948	1.943	1.953
0.029	0.000	0.005	0.000	0.005	-0.005	0.024	2.808	1.919	1.924	1.924	1.948	1.943	1.943
0.044	0.005	0.000	0.000	0.000	0.000	0.024	2.656	1.929	1.924	1.924	1.948	1.943	1.943
0.034	0.015	-0.005	0.005	0.005	0.000	0.029	2.637	1.938	1.934	1.924	1.943	1.948	1.948
0.024	0.005	-0.005	0.000	0.000	0.000	0.029	2.666	1.934	1.929	1.924	1.943	1.938	1.943
-0.005	0.000	-0.010	0.005	0.005	0.005	0.029	2.681	1.919	1.924	1.924	1.943	1.943	1.948
-0.015	0.000	-0.005	0.005	0.000	-0.005	0.024	2.681	1.924	1.924	1.924	1.943	1.938	1.943
-0.020	-0.024	-0.005	-0.005	0.000	0.000	0.029	2.671	1.919	1.914	1.919	1.943	1.938	1.943
-0.024	-0.020	-0.005	0.000	-0.005	0.015	0.029	2.676	1.914	1.914	1.919	1.938	1.938	1.943
-0.024	-0.015	0.005	0.000	-0.005	-0.010	0.029	2.676	1.919	1.914	1.919	1.938	1.934	1.938
-0.024	-0.010	0.005	0.005	0.000	0.010	0.029	2.651	1.919	1.919	1.919	1.938	1.938	1.943
-0.010	0.000	0.000	0.000	-0.005	-0.020	0.029	2.651	1.919	1.924	1.919	1.938	1.934	1.934
-0.015	0.010	0.005	0.000	0.000	0.005	0.024	2.749	1.929	1.924	1.919	1.943	1.938	1.938
0.015	-0.015	0.005	0.000	-0.005	0.005	0.029	2.676	1.934	1.924	1.919	1.938	1.938	1.938
0.029	0.010	0.000	0.005	0.005	0.010	0.029	2.671	1.934	1.929	1.919	1.938	1.934	1.938
0.054	0.024	0.005	0.000	0.005	0.005	0.029	2.676	1.938	1.934	1.929	1.938	1.934	1.938
0.068	0.015	-0.005	0.000	0.005	0.000	0.029	2.676	1.934	1.934	1.924	1.938	1.934	1.938
0.049	0.010	0.005	0.000	0.000	-0.005	0.029	2.676	1.924	1.929	1.924	1.943	1.934	1.934
0.015	0.020	0.000	0.000	-0.005	0.000	0.024	2.651	1.914	1.929	1.929	1.943	1.934	1.934
-0.010	0.005	0.000	0.000	-0.005	0.000	0.029	2.676	1.904	1.919	1.924	1.938	1.938	1.934
-0.044	0.005	-0.005	0.000	0.000	-0.005	0.029	2.686	1.899	1.909	1.919	1.938	1.938	1.934
-0.059	0.005	0.000	0.000	0.000	-0.020	0.024	2.671	1.899	1.909	1.914	1.938	1.934	1.934
-0.059	0.000	0.000	0.000	0.000	0.010	0.024	2.681	1.909	1.909	1.914	1.938	1.938	1.938
-0.039	0.005	0.000	0.000	0.005	0.000	0.029	2.686	1.914	1.909	1.909	1.934	1.938	1.934
-0.034	0.005	0.005	0.000	-0.005	0.005	0.029	2.671	1.919	1.914	1.909	1.934	1.934	1.938
-0.005	-0.005	0.000	0.000	0.005	-0.005	0.029	2.656	1.924	1.914	1.909	1.934	1.934	1.934
0.020	-0.005	0.005	0.000	0.005	0.000	0.024	2.651	1.924	1.914	1.914	1.929	1.934	1.938
0.029	-0.005	0.000	0.000	0.010	0.005	0.024	2.803	1.938	1.919	1.914	1.934	1.929	1.934
0.034	-0.005	0.005	0.000	0.005	-0.005	0.024	2.676	1.934	1.924	1.914	1.934	1.929	1.929
0.020	-0.005	0.000	0.005	-0.005	0.005	0.029	2.666	1.919	1.924	1.914	1.934	1.924	1.934
0.000	-0.005	0.000	0.005	0.000	-0.010	0.029	2.671	1.919	1.919	1.919	1.934	1.929	1.929
-0.010	-0.005	-0.005	0.005	0.000	0.015	0.029	2.671	1.909	1.914	1.914	1.934	1.929	1.934
-0.010	-0.015	0.005	0.005	0.000	0.010	0.024	2.676	1.909	1.909	1.914	1.934	1.929	1.934
-0.024	-0.005	0.005	0.000	0.000	-0.005	0.024	2.661	1.909	1.914	1.914	1.929	1.929	1.929
-0.034	0.000	-0.005	0.000	0.005	0.005	0.029	2.651	1.904	1.914	1.909	1.929	1.929	1.929
-0.005	-0.005	0.000	0.000	-0.005	0.005	0.029	2.646	1.909	1.909	1.909	1.929	1.924	1.929
0.015	-0.005	0.000	0.000	0.000	-0.005	0.029	2.622	1.909	1.909	1.909	1.929	1.929	1.924
0.010	0.000	0.005	0.000	0.000	0.015	0.024	2.686	1.909	1.909	1.909	1.929	1.929	1.929
0.000	0.020	0.005	-0.005	0.005	-0.005	0.029	2.651	1.909	1.919	1.909	1.929	1.929	1.924
0.010	0.029	0.000	0.005	0.000	0.015	0.029	2.646	1.929	1.924	1.914	1.929	1.929	1.929
-0.005	0.024	0.000	0.000	0.000	0.000	0.029	2.666	1.919	1.914	1.914	1.934	1.929	1.929
0.005	0.015	0.000	0.000	-0.005	0.000	0.029	2.661	1.919	1.914	1.914	1.929	1.924	1.924
0.000	0.005	0.000	0.005	0.000	0.000	0.029	2.749	1.919	1.914	1.914	1.934	1.929	1.929
0.005	0.000	0.000	-0.005	0.005	0.005	0.024	2.676	1.924	1.914	1.914	1.934	1.929	1.929
0.029	-0.005	0.005	0.000	0.000	0.010	0.029	2.666	1.924	1.914	1.914	1.934	1.929	1.929
0.039	-0.010	0.005	0.005	0.005	0.000	0.029	2.671	1.924	1.914	1.914	1.934	1.929	1.929
0.054	-0.015	0.000	0.005	0.000	0.000	0.029	2.651	1.924	1.914	1.914	1.934	1.929	1.929
0.063	-0.024	0.005	0.005	0.000	0.000	0.029	2.666	1.919	1.914	1.914	1.934	1.924	1.924
0.044	-0.015	0.005	-0.005	0.005	-0.010	0.029	2.666	1.909	1.914	1.914	1.929	1.924	1.924
0.010	-0.015	0.015	0.005	0.000	0.015	0.029	2.661	1.899	1.909	1.914	1.934	1.929	1.934
-0.015	-0.015	0.010	0.005	0.000	0.010	0.029	2.642	1.890	1.904	1.909	1.934	1.929	1.929
-0.029	0.010	0.005	0.005	0.000	0.000	0.024	2.646	1.890	1.904	1.909	1.929	1.924	1.929
-0.044	0.020	0.000	0.000	0.000	0.005	0.029	2.671	1.890	1.904	1.904	1.929	1.924	1.929
-0.054	0.005	-0.005	0.000	0.000	0.000	0.029	2.666	1.890	1.895	1.904	1.924	1.924	1.929
-0.059	0.000	0.000	0.000	0.000	-0.005	0.029	2.666	1.895	1.895	1.899	1.924	1.924	1.919
-0.054	0.005	-0.005	0.010	0.000	-0.015	0.029	2.808	1.919	1.899	1.899	1.924	1.924	1.919
-0.034	0.015	-0.010	0.015	0.000	0.010	0.029	2.808	1.914	1.904	1.904	1.924	1.924	1.929
-0.044	-0.005	-0.005	0.015	-0.005	0.005	0.029	2.642	1.909	1.904	1.899	1.919	1.919	1.924
-0.024	0.000	-0.005	0.010	-0.005	0.005	0.024	2.637	1.909	1.909	1.904	1.919	1.924	1.924
-0.010	-0.005	0.000	0.000	0.000	0.005	0.029	2.681	1.914	1.909	1.904	1.919	1.919	1.919
0.010	-0.005	0.000	0.005	0.000	0.005	0.029	2.681	1.919	1.909	1.909	1.919	1.919	1.919
0.059	-0.010	-0.005	0.000	0.000	0.005	0.029	2.681	1.929	1.914	1.909	1.919	1.919	1.919
0.073	-0.005	0.005	-0.005	0.005	0.005	0.029	2.671	1.929	1.919	1.914	1.919	1.919	1.919
0.068	-0.010	0.010	-0.005	0.005	0.005	0.029	2.627	1.909	1.914	1.914	1.924	1.919	1.919
0.039	-0.010	0.005	-0.005	0.000	0.010	0.029	2.666	1.904	1.909	1.909	1.924	1.919	1.919
0.015	-0.005	-0.005	-0.005	0.005	0.005	0.029	2.671	1.895	1.904	1.904	1.924	1.919	1.919
0.005	0.005	-0.005	-0.010	0.000	-0.005	0.029	2.671	1.899	1.904	1.904	1.924	1.914	1.914
-0.010	0.005	-0.005	-0.005	0.000	0.005	0.029	2.666	1.890	1.899	1.904	1.924	1.919	1.919
-0.015	0.010	-0.005	-0.005	0.005	0.005	0.029	2.686	1.895	1.899	1.899	1.924	1.919	1.919
-0.034	0.005	0.000	0.000	0.005	-0.020	0.029	2.681	1.895	1.899	1.904	1.924	1.919	1.914
-0.029	0.000	0.000	0.000	-0.005	0.005	0.029	2.681	1.895	1.895	1.899	1.919	1.919	1.919
-0.020	0.015	0.000	0.000	0.000	-0.005	0.029	2.627	1.899	1.899	1.899	1.924	1.914	1.919
-0.020	0.015	0.000	0.005	-0.005	0.000	0.029	2.681	1.904	1.899	1.899	1.924	1.919	1.919
-0.015	0.005	0.000	0.005	0.005	0.005	0.029	2.671	1.904	1.899	1.899	1.919	1.919	1.919
0.000	0.010	0.005	-0.005	0.000	0.005	0.029	2.690	1.909	1.904	1.899	1.919	1.919	1.919
0.015	0.000	0.005	0.000	0.000	-0.005	0.029	2.676	1.909	1.904	1.899	1.919	1.919	1.919
0.015	-0.005	0.005	0.000	-0.005	0.000	0.029	2.666	1.909	1.904	1.899	1.919	1.914	1.919
0.034	0.015	0.000	0.000	0.005	-0.005	0.029	2.681	1.919	1.914	1.904	1.919	1.919	1.914
0.039	-0.005	0.005	0.000	0.000	0.005	0.029	2.676	1.914	1.909	1.904	1.919	1.919	1.914
0.039	-0.010	0.000	0.000	0.005	0.005	0.029	2.622	1.899	1.904	1.899	1.919	1.919	1.919
0.029	-0.010	0.005	0.000	0.005	0.005	0.029	2.666	1.895	1.899	1.904	1.919	1.919	1.919
0.015	-0.005	0.005	0.000	0.005	-0.005	0.029	2.676	1.895	1.899	1.899	1.919	1.914	1.914
0.015	-0.010	0.005	0.005	0.000	0.000	0.029	2.676	1.895	1.899	1.899	1.919	1.914	1.914
0.005	0.000	0.005	0.005	0.000	0.000	0.024	2.676	1.895	1.899	1.899	1.919	1.914	1.914
-0.005	-0.005	0.000	0.000	0.000	0.015	0.024	2.686	1.899	1.895	1.895	1.914	1.914	1.919
-0.010	0.010	0.000	-0.005	0.000	0.005	0.029	2.681	1.899	1.899	1.895	1.914	1.909	1.914
-0.005	0.005	-0.005	0.005	0.000	0.000	0.029	2.671	1.899	1.899	1.895	1.914	1.914	1.909
-0.005	0.000	-0.005	0.000	0.005	-0.005	0.024	2.622	1.895	1.899	1.895	1.914	1.914	1.914
-0.010	0.010	-0.005	0.000	0.000	0.005	0.029	2.686	1.899	1.899	1.895	1.914	1.909	1.909
-0.005	0.015	0.000	0.000	0.000	0.005	0.024	2.686	1.904	1.899	1.899	1.919	1.914	1.914
0.010	0.005	-0.005	0.000	0.000	-0.005	0.024	2.671	1.904	1.899	1.895	1.914	1.914	1.909
0.024	0.000	-0.005	0.000	0.000	0.005	0.029	2.671	1.904	1.899	1.899	1.914	1.909	1.914
0.015	0.020	0.005	0.005	0.000	-0.010	0.029	2.661	1.904	1.904	1.899	1.919	1.914	1.909
-0.005	0.000	0.005	0.005	0.000	0.015	0.024	2.681	1.899	1.899	1.899	1.919	1.914	1.914
-0.010	0.005	0.005	0.005	0.000	-0.005	0.029	2.686	1.899	1.899	1.899	1.919	1.909	1.909
-0.020	-0.005	0.005	0.000	0.000	0.005	0.024	2.637	1.890	1.895	1.895	1.914	1.909	1.914
-0.024	0.005	0.000	0.005	0.000	0.000	0.029	2.676	1.890	1.895	1.895	1.914	1.909	1.909
-0.029	-0.005	0.000	0.000	0.000	0.010	0.024	2.676	1.895	1.890	1.895	1.914	1.909	1.909
-0.020	-0.005	0.005	0.005	0.005	-0.010	0.029	2.671	1.895	1.895	1.890	1.914	1.914	1.909
-0.005	-0.010	0.000	0.000	0.000	0.010	0.024	2.681	1.899	1.890	1.890	1.909	1.909	1.914
-0.005	0.005	0.000	-0.010	0.000	0.010	0.029	2.686	1.904	1.899	1.890	1.909	1.909	1.909
-0.005	0.005	0.000	-0.010	-0.005	0.010	0.029	2.686	1.904	1.899	1.890	1.909	1.909	1.909
-0.015	0.000	0.005	-0.010	-0.005	0.005	0.029	2.681	1.899	1.899	1.895	1.909	1.904	1.909
0.000	0.000	0.005	-0.005	0.000	0.010	0.029	2.612	1.895	1.899	1.899	1.914	1.909	1.909
-0.010	0.005	0.000	0.005	0.005	0.005	0.029	2.690	1.895	1.899	1.895	1.919	1.909	1.904
-0.005	-0.005	0.000	0.010	0.000	0.000	0.029	2.671	1.904	1.899	1.895	1.919	1.909	1.904
-0.005	0.000	0.000	0.015	0.000	-0.005	0.024	2.671	1.899	1.899	1.895	1.919	1.914	1.909
-0.005	0.000	0.000	0.010	0.000	0.005	0.029	2.686	1.899	1.899	1.899	1.919	1.909	1.909
0.000	-0.005	0.000	0.010	0.005	0.000	0.029	2.681	1.899	1.899	1.895	1.914	1.909	1.909
0.000	0.000	0.000	0.005	0.000	-0.020	0.029	2.686	1.899	1.895	1.895	1.914	1.909	1.909
0.010	0.000	0.005	0.005	-0.005	0.005	0.029	2.686	1.904	1.899	1.895	1.914	1.909	1.914
0.005	-0.010	0.005	0.005	-0.005	0.005	0.029	2.642	1.899	1.895	1.895	1.914	1.914	1.909
0.015	-0.010	-0.005	0.005	0.005	-0.005	0.029	2.681	1.899	1.895	1.895	1.909	1.909	1.909
0.015	-0.010	0.005	0.000	0.000	-0.005	0.024	2.681	1.904	1.899	1.895	1.914	1.909	1.909
0.005	-0.010	0.000	0.000	0.000	-0.024	0.029	2.676	1.895	1.895	1.895	1.914	1.909	1.904
0.010	-0.005	0.005	0.000	0.000	-0.015	0.029	2.681	1.895	1.895	1.895	1.914	1.909	1.909
0.005	-0.005	0.005	0.000	0.000	0.020	0.029	2.695	1.904	1.899	1.895	1.914	1.909	1.914
0.005	0.000	0.000	0.000	-0.005	0.005	0.024	2.686	1.899	1.899	1.895	1.914	1.909	1.909
0.000	-0.005	0.000	0.000	0.005	-0.010	0.024	2.681	1.899	1.899	1.895	1.914	1.909	1.909
0.005	-0.005	0.005	-0.005	0.000	0.015	0.029	2.632	1.899	1.899	1.895	1.914	1.909	1.914
0.000	0.010	0.000	0.000	0.000	0.015	0.024	2.681	1.899	1.904	1.895	1.914	1.909	1.914
0.005	0.005	0.000	-0.005	0.005	-0.005	0.029	2.676	1.904	1.899	1.899	1.914	1.909	1.909
0.000	0.010	0.000	-0.005	0.000	-0.010	0.024	2.681	1.895	1.899	1.895	1.914	1.909	1.904
0.000	0.005	-0.005	0.000	0.000	0.005	0.029	2.671	1.899	1.899	1.895	1.914	1.909	1.909
0.010	0.010	0.000	0.005	0.000	-0.015	0.029	2.671	1.904	1.904	1.899	1.919	1.909	1.909
0.005	0.005	-0.005	0.000	-0.005	0.005	0.029	2.671	1.899	1.899	1.895	1.914	1.909	1.909
0.005	-0.005	0.000	0.000	-0.005	-0.015	0.029	2.661	1.899	1.895	1.899	1.914	1.909	1.904
0.005	-0.010	0.000	0.000	0.000	0.005	0.024	2.627	1.895	1.895	1.895	1.914	1.914	1.914
0.005	-0.005	0.000	0.005	0.000	0.015	0.029	2.661	1.895	1.895	1.895	1.914	1.914	1.914
0.015	-0.005	0.010	0.005	0.005	0.000	0.029	2.671	1.899	1.895	1.895	1.914	1.909	1.914
0.015	-0.005	0.000	0.000	0.000	-0.020	0.029	2.681	1.899	1.890	1.895	1.914	1.909	1.904
0.010	-0.005	0.005	0.005	0.000	0.010	0.029	2.681	1.899	1.895	1.895	1.914	1.909	1.914
-0.005	0.000	0.005	0.005	0.005	0.015	0.029	2.676	1.895	1.895	1.890	1.914	1.914	1.914
-0.010	0.000	0.000	0.000	0.000	0.005	0.024	2.690	1.899	1.895	1.890	1.914	1.909	1.909
-0.020	0.005	0.000	0.005	0.000	0.005	0.029	2.666	1.890	1.895	1.890	1.909	1.909	1.909
-0.015	0.005	0.000	-0.005	0.000	0.015	0.024	2.642	1.895	1.895	1.895	1.909	1.909	1.909
-0.029	0.015	0.005	0.005	0.000	0.005	0.029	2.671	1.895	1.899	1.895	1.914	1.909	1.909
-0.024	-0.005	0.000	-0.005	0.005	0.005	0.024	2.681	1.895	1.890	1.890	1.909	1.909	1.909
-0.015	0.005	-0.005	-0.005	0.000	0.005	0.029	2.671	1.895	1.899	1.895	1.909	1.909	1.909
-0.010	0.010	-0.005	-0.005	0.000	-0.005	0.029	2.681	1.899	1.895	1.895	1.909	1.904	1.904
-0.010	0.015	-0.005	0.000	0.005	-0.005	0.029	2.681	1.904	1.899	1.895	1.909	1.909	1.909
-0.005	0.005	-0.005	0.010	0.000	-0.005	0.029	2.676	1.904	1.895	1.895	1.914	1.904	1.904
0.010	0.005	-0.005	0.005	0.000	-0.024	0.029	2.681	1.904	1.899	1.895	1.914	1.909	1.904
0.005	0.000	0.005	0.005	0.000	0.010	0.029	2.617	1.899	1.899	1.895	1.914	1.909	1.914
0.010	0.000	0.005	0.000	0.005	0.000	0.024	2.676	1.899	1.899	1.895	1.914	1.909	1.909
0.010	0.000	-0.005	0.010	0.005	-0.020	0.029	2.671	1.895	1.899	1.895	1.914	1.909	1.904
0.005	-0.005	0.005	0.005	0.005	0.005	0.029	2.690	1.895	1.895	1.895	1.914	1.909	1.914
0.005	-0.010	0.010	-0.005	0.000	0.005	0.029	2.671	1.895	1.895	1.895	1.909	1.909	1.909
0.005	-0.010	0.010	-0.005	0.005	0.000	0.029	2.671	1.899	1.890	1.895	1.909	1.904	1.909
0.015	-0.010	0.005	-0.005	0.000	-0.020	0.024	2.676	1.895	1.895	1.895	1.909	1.904	1.904
0.010	0.000	0.000	-0.010	0.005	0.005	0.029	2.686	1.899	1.895	1.895	1.909	1.909	1.909
0.010	0.000	0.000	-0.005	0.000	-0.005	0.024	2.622	1.890	1.895	1.890	1.909	1.904	1.904
0.010	0.000	-0.005	0.000	0.000	-0.015	0.029	2.661	1.895	1.895	1.890	1.909	1.904	1.904
0.010	0.005	-0.005	0.005	0.005	0.005	0.029	2.686	1.895	1.895	1.890	1.909	1.909	1.914
0.005	0.015	0.000	0.000	0.000	0.015	0.029	2.681	1.895	1.895	1.895	1.914	1.909	1.914
0.020	0.005	0.000	0.010	0.005	0.010	0.029	2.661	1.904	1.895	1.895	1.914	1.909	1.909
0.024	0.000	-0.005	0.005	0.000	-0.010	0.029	2.676	1.899	1.895	1.895	1.914	1.904	1.904
0.020	0.015	0.000	0.005	0.000	0.000	0.029	2.686	1.899	1.899	1.895	1.914	1.909	1.909
0.000	0.000	0.000	0.005	0.000	0.005	0.029	2.681	1.890	1.895	1.895	1.914	1.909	1.909
-0.020	0.000	0.000	0.005	0.000	0.005	0.029	2.627	1.885	1.890	1.895	1.909	1.909	1.909
-0.024	-0.005	0.005	0.000	0.005	-0.015	0.024	2.690	1.890	1.885	1.890	1.909	1.909	1.904
-0.024	0.000	0.000	0.005	0.005	0.015	0.029	2.686	1.890	1.885	1.890	1.914	1.909	1.914
-0.010	-0.015	0.005	0.010	0.005	-0.010	0.029	2.671	1.895	1.885	1.890	1.909	1.909	1.904
-0.020	-0.010	0.005	0.005	0.000	-0.005	0.024	2.681	1.890	1.890	1.885	1.909	1.904	1.904
-0.020	-0.005	0.005	0.000	0.000	0.010	0.029	2.681	1.895	1.885	1.885	1.904	1.904	1.909
-0.005	-0.005	0.000	-0.005	0.000	0.005	0.029	2.681	1.899	1.890	1.885	1.904	1.904	1.909
-0.015	0.005	-0.005	-0.010	-0.005	-0.005	0.029	2.676	1.895	1.895	1.890	1.899	1.899	1.904
0.005	0.005	0.000	-0.015	-0.005	0.010	0.029	2.642	1.899	1.895	1.890	1.904	1.899	1.904
0.039	0.005	0.000	-0.010	0.000	0.005	0.029	2.671	1.909	1.899	1.895	1.904	1.899	1.904
0.049	0.010	0.000	-0.005	0.000	-0.020	0.024	2.686	1.904	1.904	1.895	1.909	1.899	1.895
0.073	0.029	0.000	0.005	0.000	-0.005	0.029	2.686	1.914	1.909	1.899	1.914	1.904	1.899
0.103	0.000	0.000	0.015	0.000	0.015	0.024	2.681	1.919	1.904	1.899	1.919	1.909	1.909
0.049	0.005	-0.005	0.000	0.000	-0.005	0.029	2.686	1.899	1.904	1.899	1.914	1.909	1.904
-0.010	-0.005	-0.005	-0.005	0.000	-0.010	0.024	2.681	1.875	1.890	1.895	1.914	1.909	1.904
-0.059	-0.005	-0.005	-0.005	0.000	0.005	0.029	2.681	1.865	1.880	1.895	1.909	1.909	1.909
-0.093	0.000	0.000	-0.005	-0.005	0.010	0.029	2.754	1.870	1.880	1.890	1.909	1.909	1.909
-0.107	0.000	0.010	0.010	0.000	-0.005	0.029	2.661	1.870	1.875	1.885	1.914	1.909	1.909
-0.107	0.015	0.000	0.010	0.000	0.010	0.024	2.671	1.875	1.880	1.885	1.909	1.909	1.909
-0.093	0.015	0.000	0.005	0.000	-0.005	0.029	2.676	1.885	1.880	1.880	1.904	1.904	1.899
-0.063	0.010	0.005	0.000	0.000	0.000	0.029	2.681	1.890	1.880	1.880	1.899	1.904	1.909
-0.034	-0.005	0.010	0.000	0.000	0.005	0.029	2.676	1.904	1.885	1.885	1.899	1.904	1.904
-0.015	-0.005	0.005	0.005	0.010	-0.015	0.029	2.676	1.904	1.885	1.885	1.899	1.899	1.899
0.015	0.000	0.005	0.010	0.005	-0.005	0.024	2.681	1.909	1.895	1.885	1.904	1.899	1.904
0.020	-0.005	0.000	0.005	0.005	0.005	0.024	2.642	1.904	1.895	1.890	1.899	1.899	1.904
0.034	-0.005	0.000	0.010	0.005	0.000	0.029	2.676	1.904	1.899	1.890	1.904	1.899	1.904
0.029	0.000	0.000	0.000	0.005	-0.010	0.029	2.681	1.904	1.899	1.890	1.904	1.895	1.895
0.029	0.010	0.000	0.000	-0.005	0.005	0.029	2.671	1.899	1.904	1.890	1.904	1.899	1.899
0.020	0.020	-0.005	0.000	-0.010	-0.015	0.024	2.686	1.899	1.904	1.895	1.909	1.895	1.899
0.029	0.005	-0.005	0.005	-0.005	0.010	0.029	2.671	1.899	1.899	1.895	1.914	1.904	1.904
0.029	0.010	-0.005	0.005	0.000	0.000	0.024	2.686	1.899	1.899	1.895	1.914	1.904	1.899
0.024	0.000	-0.005	0.005	0.000	-0.010	0.029	2.632	1.890	1.895	1.895	1.914	1.904	1.899
0.015	-0.005	0.000	0.005	0.005	0.005	0.029	2.686	1.890	1.895	1.895	1.914	1.909	1.904
0.005	-0.005	0.005	-0.005	0.005	0.010	0.029	2.686	1.890	1.890	1.895	1.909	1.904	1.909
0.015	-0.010	-0.005	-0.010	0.005	0.005	0.024	2.676	1.890	1.890	1.890	1.909	1.904	1.904
0.020	-0.005	0.005	-0.005	0.000	0.000	0.029	2.666	1.895	1.895	1.890	1.909	1.904	1.904
0.020	-0.005	0.005	-0.005	0.000	0.010	0.029	2.681	1.899	1.895	1.890	1.909	1.904	1.909
0.029	-0.005	0.005	-0.005	-0.005	0.010	0.029	2.686	1.899	1.895	1.890	1.909	1.904	1.909
0.034	0.000	0.005	0.000	0.005	0.005	0.029	2.671	1.895	1.895	1.895	1.909	1.909	1.904
0.020	-0.005	0.000	0.000	0.000	-0.005	0.029	2.744	1.899	1.890	1.890	1.909	1.904	1.904
0.020	-0.005	0.000	-0.005	0.005	-0.010	0.029	2.681	1.899	1.890	1.890	1.909	1.904	1.904
0.015	-0.005	0.000	-0.005	0.005	0.010	0.029	2.690	1.895	1.890	1.895	1.909	1.904	1.909
0.005	0.005	-0.005	-0.005	0.000	-0.005	0.029	2.686	1.895	1.895	1.890	1.909	1.904	1.904
-0.015	0.000	0.000	-0.005	0.000	-0.015	0.029	2.681	1.890	1.895	1.890	1.909	1.904	1.899
-0.020	0.015	0.000	0.000	0.005	-0.005	0.029	2.671	1.890	1.895	1.890	1.914	1.904	1.904
-0.020	0.000	-0.005	0.005	0.005	0.010	0.029	2.681	1.890	1.890	1.890	1.909	1.909	1.909
-0.015	0.015	0.005	0.005	0.000	0.005	0.029	2.686	1.895	1.895	1.895	1.914	1.904	1.904
-0.024	0.005	0.000	0.010	0.005	0.000	0.029	2.627	1.890	1.890	1.890	1.909	1.909	1.909
-0.015	0.000	0.000	0.005	0.000	0.005	0.029	2.686	1.899	1.890	1.890	1.909	1.909	1.909
-0.020	0.000	0.000	-0.005	0.005	0.000	0.024	2.681	1.895	1.890	1.890	1.909	1.909	1.904
-0.010	0.005	0.000	0.000	0.000	0.005	0.029	2.676	1.895	1.895	1.890	1.909	1.904	1.909
-0.005	-0.005	0.000	0.010	0.000	-0.015	0.029	2.690	1.899	1.890	1.890	1.914	1.904	1.904
0.005	0.000	0.000	0.020	0.000	0.010	0.029	2.686	1.899	1.895	1.890	1.914	1.909	1.909
0.010	0.000	0.005	0.020	0.000	0.000	0.029	2.671	1.904	1.899	1.895	1.909	1.909	1.904
0.020	-0.024	0.000	0.010	0.000	-0.005	0.029	2.666	1.895	1.890	1.890	1.909	1.904	1.904
0.010	-0.015	0.005	-0.005	-0.005	0.000	0.024	2.734	1.899	1.895	1.890	1.904	1.904	1.904
0.005	-0.010	0.010	-0.020	0.000	-0.015	0.029	2.676	1.904	1.895	1.890	1.899	1.899	1.899
0.005	-0.005	0.000	-0.024	-0.005	0.005	0.029	2.681	1.899	1.899	1.895	1.904	1.899	1.904
0.000	0.010	0.000	-0.024	-0.005	0.000	0.029	2.676	1.899	1.899	1.895	1.904	1.899	1.904
0.000	0.015	0.000	-0.024	-0.005	0.000	0.029	2.676	1.895	1.899	1.895	1.909	1.904	1.904
0.000	0.020	0.000	-0.010	-0.005	0.000	0.029	2.690	1.899	1.899	1.895	1.914	1.904	1.899
0.000	0.015	0.000	0.010	0.000	-0.005	0.029	2.686	1.899	1.899	1.899	1.919	1.909	1.904
-0.005	0.005	0.000	0.015	-0.005	-0.020	0.029	2.671	1.890	1.895	1.895	1.919	1.914	1.899
-0.005	0.015	-0.010	0.015	0.010	-0.005	0.029	2.632	1.890	1.895	1.895	1.919	1.914	1.914
-0.005	0.010	0.000	0.005	0.005	0.005	0.024	2.681	1.890	1.895	1.895	1.914	1.914	1.914
-0.005	-0.010	-0.005	0.005	0.000	0.015	0.029	2.690	1.895	1.885	1.890	1.914	1.909	1.914
-0.005	0.000	0.000	0.010	0.000	0.010	0.024	2.676	1.895	1.895	1.890	1.914	1.914	1.909
-0.010	-0.010	0.005	0.010	0.000	0.010	0.024	2.681	1.899	1.890	1.890	1.909	1.909	1.909
0.000	-0.010	0.005	0.005	0.000	-0.015	0.024	2.676	1.899	1.895	1.890	1.909	1.909	1.904
0.005	-0.010	0.000	0.015	0.000	0.000	0.029	2.676	1.899	1.895	1.890	1.914	1.909	1.909
0.005	-0.010	0.005	0.015	0.005	0.010	0.029	2.686	1.899	1.895	1.895	1.914	1.909	1.914
-0.005	0.000	0.010	0.015	0.005	0.005	0.029	2.661	1.895	1.895	1.895	1.909	1.909	1.914
0.005	-0.010	0.000	0.010	0.010	0.000	0.024	2.671	1.895	1.895	1.890	1.909	1.909	1.909
0.005	0.005	0.005	0.000	0.005	0.000	0.029	2.690	1.895	1.899	1.890	1.909	1.904	1.904
0.000	0.010	0.000	0.000	0.010	0.000	0.029	2.676	1.895	1.895	1.890	1.909	1.904	1.909
-0.005	0.005	0.000	0.000	-0.005	0.005	0.029	2.676	1.895	1.895	1.890	1.904	1.904	1.909
0.000	0.005	0.000	-0.010	0.000	0.000	0.029	2.666	1.895	1.895	1.895	1.904	1.904	1.904
0.000	-0.005	0.000	0.015	-0.005	0.010	0.029	2.686	1.895	1.890	1.895	1.914	1.904	1.909
-0.005	0.000	0.000	0.039	0.000	0.000	0.029	2.681	1.899	1.895	1.895	1.924	1.909	1.904
0.005	0.015	-0.005	0.029	0.005	0.000	0.029	2.666	1.899	1.899	1.895	1.914	1.909	1.904
-0.005	0.010	-0.005	0.005	0.005	0.000	0.029	2.686	1.895	1.895	1.895	1.909	1.909	1.909
-0.005	0.010	0.000	-0.020	0.000	0.010	0.029	2.686	1.895	1.895	1.895	1.904	1.904	1.909
-0.005	0.005	-0.005	-0.039	-0.005	0.010	0.029	2.686	1.895	1.895	1.890	1.899	1.899	1.904
0.000	0.005	0.000	-0.054	-0.010	0.010	0.029	2.671	1.899	1.895	1.890	1.895	1.895	1.904
-0.005	0.000	0.000	-0.059	-0.010	0.005	0.029	2.681	1.895	1.895	1.890	1.899	1.895	1.899
0.000	0.005	0.010	-0.044	-0.010	0.000	0.029	2.671	1.895	1.895	1.895	1.909	1.899	1.899
0.015	0.000	0.000	-0.024	-0.005	0.005	0.029	2.666	1.899	1.895	1.890	1.914	1.904	1.904
0.010	0.015	0.000	0.000	-0.005	0.010	0.029	2.676	1.895	1.899	1.895	1.919	1.909	1.904
0.010	0.000	0.010	0.005	0.010	-0.005	0.029	2.686	1.899	1.890	1.895	1.919	1.909	1.899
0.005	0.005	0.010	0.010	0.024	-0.005	0.029	2.671	1.890	1.890	1.895	1.919	1.919	1.909
0.010	0.005	0.005	0.029	0.020	-0.005	0.024	2.686	1.895	1.890	1.890	1.924	1.914	1.909
0.005	0.000	0.000	0.034	0.015	-0.010	0.029	2.681	1.895	1.890	1.890	1.919	1.914	1.909
-0.005	0.005	-0.005	0.049	-0.005	-0.020	0.029	2.681	1.895	1.890	1.890	1.924	1.909	1.909
-0.005	0.015	0.000	0.063	-0.005	-0.010	0.029	2.686	1.895	1.895	1.890	1.924	1.909	1.909
0.000	-0.010	0.000	0.034	-0.015	0.015	0.024	2.681	1.895	1.885	1.885	1.909	1.909	1.914
-0.005	-0.015	-0.005	-0.010	-0.005	0.000	0.024	2.676	1.895	1.890	1.885	1.895	1.904	1.904
-0.010	-0.015	0.000	-0.015	0.005	0.010	0.029	2.671	1.895	1.890	1.885	1.895	1.904	1.914
-0.005	0.000	-0.005	-0.005	0.015	-0.005	0.024	2.686	1.895	1.895	1.890	1.904	1.904	1.909
-0.005	0.010	-0.005	0.034	0.020	0.015	0.029	2.686	1.904	1.899	1.895	1.919	1.909	1.914
-0.010	0.000	0.000	0.020	0.010	0.005	0.024	2.690	1.904	1.895	1.895	1.914	1.904	1.904
0.000	0.000	-0.005	0.000	0.000	-0.010	0.029	2.666	1.899	1.899	1.890	1.904	1.899	1.899
-0.005	0.000	0.010	0.000	-0.015	0.005	0.024	2.686	1.899	1.895	1.895	1.909	1.899	1.904
0.005	0.005	0.005	0.010	-0.010	-0.010	0.029	2.681	1.899	1.899	1.895	1.909	1.899	1.899
0.005	-0.010	0.005	0.000	0.000	0.005	0.024	2.671	1.899	1.890	1.895	1.909	1.904	1.904
0.010	-0.024	0.010	0.005	-0.005	-0.010	0.029	2.661	1.899	1.890	1.890	1.909	1.899	1.899
0.015	-0.020	0.010	0.005	-0.010	0.000	0.029	2.690	1.899	1.895	1.890	1.909	1.904	1.904
0.015	-0.015	0.010	0.010	0.000	-0.010	0.024	2.681	1.899	1.895	1.895	1.909	1.904	1.899
0.005	-0.010	0.000	-0.024	0.000	-0.005	0.029	2.681	1.890	1.895	1.890	1.899	1.904	1.904
0.005	0.000	0.000	-0.068	0.000	0.000	0.024	2.681	1.890	1.895	1.890	1.890	1.895	1.904
0.000	0.010	0.000	-0.068	0.005	-0.020	0.029	2.676	1.890	1.895	1.890	1.895	1.895	1.895
-0.010	0.010	0.005	-0.044	0.005	0.010	0.029	2.676	1.890	1.895	1.895	1.909	1.899	1.904
0.005	0.010	-0.005	-0.010	0.010	0.000	0.029	2.676	1.895	1.895	1.890	1.914	1.904	1.899
-0.010	0.029	-0.005	0.000	0.005	0.005	0.029	2.686	1.890	1.895	1.895	1.919	1.904	1.904
-0.010	0.024	0.000	0.000	0.000	0.010	0.024	2.690	1.890	1.895	1.895	1.914	1.909	1.909
-0.010	0.015	0.005	0.005	0.000	0.000	0.029	2.681	1.895	1.895	1.895	1.919	1.909	1.904
-0.010	0.010	0.000	0.020	-0.005	0.010	0.029	2.681	1.895	1.890	1.890	1.919	1.909	1.909
-0.005	-0.005	0.000	0.034	-0.015	0.010	0.029	2.686	1.899	1.890	1.895	1.919	1.909	1.909
0.000	0.000	0.000	0.063	-0.024	0.000	0.029	2.676	1.899	1.895	1.895	1.924	1.909	1.909
0.005	-0.020	0.000	0.044	-0.020	0.000	0.029	2.676	1.899	1.885	1.890	1.914	1.909	1.909
0.010	-0.010	0.005	0.010	-0.015	0.015	0.024	2.681	1.899	1.890	1.890	1.904	1.909	1.914
0.005	-0.010	0.005	-0.005	0.000	0.010	0.024	2.686	1.899	1.895	1.890	1.899	1.914	1.909
0.005	-0.010	0.000	-0.005	0.015	-0.015	0.029	2.676	1.895	1.895	1.890	1.904	1.909	1.904
0.005	0.015	0.005	-0.005	0.020	0.000	0.029	2.676	1.899	1.904	1.890	1.904	1.909	1.909
0.005	0.005	0.005	-0.010	0.015	0.005	0.029	2.686	1.899	1.899	1.895	1.904	1.904	1.909
0.005	0.010	0.005	-0.010	0.005	0.010	0.029	2.666	1.895	1.899	1.895	1.904	1.904	1.909
0.010	0.015	0.005	0.005	0.015	0.000	0.029	2.676	1.895	1.899	1.899	1.914	1.904	1.904
0.005	0.015	0.000	0.010	0.010	0.000	0.024	2.671	1.895	1.895	1.895	1.914	1.909	1.904
0.000	0.005	0.000	0.015	0.015	-0.015	0.029	2.695	1.895	1.895	1.895	1.914	1.909	1.899
0.005	0.005	0.000	0.015	0.024	0.000	0.029	2.671	1.895	1.895	1.890	1.919	1.914	1.909
-0.005	0.005	-0.005	0.015	0.029	0.005	0.029	2.681	1.890	1.895	1.890	1.914	1.909	1.914
0.005	0.010	-0.010	0.015	0.029	0.005	0.029	2.681	1.899	1.895	1.890	1.914	1.909	1.914
-0.005	0.000	-0.005	0.010	0.015	-0.020	0.029	2.676	1.895	1.895	1.890	1.909	1.909	1.904
-0.005	-0.005	0.000	0.000	0.010	0.000	0.029	2.686	1.895	1.890	1.890	1.909	1.904	1.909
-0.005	-0.005	0.000	0.000	0.000	-0.024	0.029	2.681	1.899	1.895	1.890	1.909	1.899	1.899
-0.010	-0.005	0.005	-0.005	-0.005	0.000	0.024	2.686	1.895	1.895	1.890	1.904	1.899	1.909
0.000	0.000	0.005	-0.010	0.005	-0.010	0.029	2.676	1.895	1.895	1.890	1.904	1.899	1.899
0.000	-0.005	0.000	-0.010	0.000	-0.015	0.029	2.671	1.899	1.890	1.890	1.909	1.904	1.904
-0.005	0.000	0.005	-0.010	0.000	-0.015	0.029	2.681	1.895	1.895	1.895	1.909	1.904	1.904
0.000	0.000	0.005	-0.010	-0.005	0.015	0.024	2.681	1.899	1.895	1.890	1.909	1.904	1.909
0.005	-0.005	0.010	-0.015	-0.005	0.005	0.024	2.671	1.895	1.890	1.890	1.909	1.904	1.904
0.005	-0.005	0.005	-0.015	0.010	-0.010	0.024	2.676	1.895	1.890	1.890	1.909	1.909	1.899
0.000	0.000	0.000	-0.020	0.015	0.000	0.029	2.676	1.895	1.895	1.890	1.909	1.904	1.904
0.000	0.000	0.000	-0.020	0.010	-0.005	0.029	2.690	1.895	1.895	1.890	1.909	1.904	1.904
0.000	-0.005	-0.005	-0.015	0.015	-0.015	0.029	2.686	1.895	1.890	1.890	1.909	1.904	1.904
-0.005	0.000	0.000	-0.010	0.005	0.005	0.029	2.690	1.895	1.895	1.890	1.909	1.899	1.909
-0.005	0.000	0.000	0.000	0.000	0.005	0.029	2.690	1.899	1.899	1.895	1.914	1.904	1.904
-0.010	-0.005	-0.005	0.005	-0.005	-0.005	0.029	2.686	1.895	1.895	1.890	1.914	1.904	1.904
-0.010	0.000	-0.005	0.005	0.000	0.005	0.024	2.666	1.895	1.895	1.895	1.909	1.909	1.909
-0.005	-0.010	0.000	-0.005	0.005	0.005	0.029	2.686	1.895	1.890	1.890	1.909	1.909	1.909
0.005	0.000	0.000	0.005	0.005	0.000	0.029	2.661	1.899	1.899	1.895	1.914	1.909	1.909
0.005	0.005	0.000	0.005	0.000	0.000	0.029	2.666	1.899	1.899	1.895	1.914	1.909	1.909
0.010	0.000	0.000	0.015	0.000	0.010	0.029	2.681	1.895	1.895	1.895	1.914	1.909	1.909
0.005	0.010	0.005	0.015	-0.010	0.005	0.024	2.686	1.895	1.899	1.895	1.914	1.904	1.904
0.015	0.000	0.010	0.015	-0.015	0.015	0.029	2.681	1.899	1.899	1.895	1.914	1.909	1.909
0.010	0.000	0.005	0.015	-0.020	0.000	0.029	2.666	1.895	1.895	1.895	1.914	1.904	1.904
0.010	0.005	0.005	0.015	-0.039	0.000	0.029	2.651	1.895	1.895	1.895	1.914	1.899	1.899
0.005	0.000	0.000	0.010	-0.039	0.005	0.029	2.671	1.890	1.890	1.890	1.909	1.899	1.904
0.020	-0.005	0.000	0.015	-0.034	0.000	0.029	2.671	1.895	1.890	1.890	1.909	1.904	1.904
0.005	0.005	0.000	0.015	-0.049	-0.020	0.029	2.671	1.895	1.890	1.890	1.909	1.899	1.899
0.010	0.015	-0.005	0.005	-0.029	0.000	0.024	2.671	1.890	1.895	1.890	1.909	1.909	1.909
-0.005	0.010	0.000	0.005	0.005	0.000	0.024	2.681	1.890	1.890	1.890	1.909	1.914	1.909
0.000	-0.010	0.005	0.000	0.034	0.005	0.024	2.686	1.890	1.885	1.890	1.909	1.919	1.914
-0.005	-0.010	-0.005	0.000	0.034	-0.005	0.029	2.671	1.895	1.890	1.890	1.904	1.914	1.914
-0.010	0.015	0.000	-0.005	0.029	0.010	0.029	2.690	1.899	1.895	1.890	1.909	1.909	1.914
-0.005	0.010	-0.005	-0.010	0.020	0.015	0.029	2.681	1.899	1.895	1.890	1.904	1.904	1.914
-0.005	0.015	-0.005	-0.010	0.000	0.000	0.029	2.681	1.899	1.895	1.890	1.904	1.899	1.909
-0.010	0.005	0.005	-0.020	0.000	0.015	0.024	2.686	1.899	1.895	1.895	1.904	1.899	1.909
0.000	0.010	0.000	-0.015	-0.005	0.005	0.024	2.676	1.899	1.895	1.895	1.909	1.899	1.904
0.005	0.005	0.000	-0.010	0.015	0.005	0.024	2.681	1.899	1.895	1.895	1.909	1.909	1.904
0.010	-0.010	0.005	0.000	0.059	-0.005	0.029	2.676	1.899	1.890	1.895	1.914	1.919	1.904
0.005	-0.010	0.000	0.005	0.054	0.015	0.029	2.666	1.895	1.890	1.890	1.914	1.919	1.914
0.010	-0.005	0.005	0.010	0.029	0.015	0.029	2.666	1.895	1.895	1.895	1.914	1.909	1.909
0.010	0.000	0.005	0.020	-0.015	0.005	0.024	2.681	1.895	1.895	1.895	1.919	1.895	1.904
0.000	0.000	0.005	0.020	-0.039	0.000	0.029	2.666	1.895	1.895	1.895	1.914	1.895	1.899
0.000	0.005	0.005	0.034	-0.034	-0.005	0.029	2.686	1.895	1.895	1.890	1.914	1.899	1.899
0.000	0.010	-0.005	0.024	-0.024	0.015	0.024	2.686	1.895	1.895	1.890	1.914	1.904	1.904
-0.005	-0.005	0.005	0.005	-0.024	0.005	0.029	2.690	1.895	1.890	1.890	1.904	1.899	1.899
0.005	-0.005	0.000	-0.005	-0.044	0.005	0.029	2.686	1.895	1.890	1.890	1.904	1.895	1.904
-0.010	0.000	-0.005	-0.015	-0.044	0.010	0.024	2.690	1.895	1.895	1.890	1.899	1.895	1.899
-0.005	0.000	0.000	-0.015	-0.034	0.005	0.024	2.686	1.895	1.895	1.890	1.904	1.899	1.899
-0.005	0.000	-0.005	-0.015	-0.020	0.000	0.024	2.681	1.895	1.895	1.890	1.904	1.904	1.899
-0.015	0.000	0.000	-0.005	-0.005	-0.005	0.029	2.671	1.895	1.895	1.895	1.909	1.909	1.904
-0.015	0.010	0.005	-0.005	0.010	0.005	0.024	2.686	1.895	1.895	1.895	1.909	1.914	1.909
0.000	0.015	0.005	0.000	0.029	-0.010	0.029	2.690	1.899	1.895	1.895	1.914	1.914	1.909
0.005	0.015	0.000	0.010	0.024	-0.020	0.029	2.686	1.899	1.895	1.890	1.914	1.914	1.904
0.005	0.015	0.000	0.015	0.029	-0.020	0.029	2.671	1.899	1.899	1.895	1.914	1.914	1.904
0.005	0.015	0.000	0.010	0.034	0.005	0.029	2.661	1.895	1.895	1.895	1.914	1.919	1.919
0.010	0.005	0.000	0.015	0.034	0.000	0.024	2.671	1.895	1.895	1.895	1.914	1.909	1.909
0.010	-0.015	0.010	0.015	0.020	-0.015	0.029	2.671	1.895	1.890	1.890	1.914	1.904	1.909
0.005	-0.010	0.010	0.000	0.024	0.010	0.029	2.686	1.899	1.890	1.890	1.909	1.909	1.914
0.010	-0.015	0.005	-0.010	0.054	0.000	0.029	2.686	1.899	1.890	1.890	1.904	1.914	1.909
0.015	-0.010	-0.005	-0.015	0.063	0.000	0.029	2.676	1.895	1.890	1.885	1.904	1.909	1.914
0.005	-0.005	0.000	-0.015	0.039	-0.005	0.029	2.681	1.899	1.895	1.890	1.904	1.904	1.904
-0.005	-0.005	0.000	-0.010	0.024	-0.020	0.029	2.690	1.899	1.895	1.890	1.909	1.899	1.899
-0.010	-0.010	-0.005	-0.005	-0.015	0.005	0.029	2.686	1.895	1.890	1.890	1.909	1.890	1.904
-0.005	0.005	-0.005	0.005	-0.020	-0.020	0.029	2.681	1.899	1.895	1.890	1.909	1.895	1.899
-0.005	0.000	0.000	0.005	-0.039	0.005	0.029	2.686	1.899	1.895	1.895	1.909	1.890	1.899
-0.005	0.000	-0.005	0.005	-0.054	-0.010	0.029	2.686	1.899	1.899	1.895	1.909	1.890	1.895
-0.005	-0.005	0.000	0.010	-0.034	0.005	0.029	2.676	1.895	1.895	1.895	1.914	1.904	1.899
-0.005	-0.010	0.000	0.020	-0.015	0.015	0.024	2.686	1.895	1.895	1.895	1.919	1.914	1.904
0.000	-0.005	0.000	0.015	0.000	-0.010	0.029	2.656	1.895	1.895	1.895	1.914	1.914	1.904
0.000	-0.010	0.000	0.010	0.000	0.015	0.029	2.676	1.899	1.890	1.890	1.914	1.914	1.914
0.000	-0.015	0.005	0.015	-0.020	0.015	0.029	2.651	1.895	1.895	1.890	1.909	1.904	1.909
0.005	-0.015	0.000	0.005	-0.020	-0.015	0.029	2.661	1.890	1.890	1.890	1.909	1.904	1.904
0.005	-0.010	0.000	-0.010	-0.029	0.000	0.029	2.637	1.890	1.890	1.890	1.904	1.899	1.904
0.005	0.000	0.005	-0.005	-0.034	0.000	0.024	2.666	1.890	1.890	1.890	1.904	1.899	1.899
0.000	0.010	0.005	-0.015	-0.029	0.015	0.029	2.681	1.890	1.895	1.890	1.904	1.899	1.909
0.000	0.000	0.005	-0.010	-0.034	0.000	0.029	2.681	1.890	1.890	1.890	1.904	1.899	1.899
0.005	0.005	0.000	-0.005	-0.024	-0.005	0.029	2.661	1.890	1.890	1.890	1.904	1.904	1.899
0.000	-0.005	0.000	-0.005	0.005	0.000	0.029	2.666	1.890	1.890	1.890	1.909	1.914	1.904
0.000	0.010	0.000	0.000	0.024	-0.010	0.029	2.676	1.895	1.890	1.890	1.909	1.919	1.909
-0.005	0.015	-0.005	0.010	0.054	0.005	0.029	2.666	1.890	1.890	1.890	1.914	1.924	1.914
-0.010	0.020	0.000	0.015	0.073	0.000	0.029	2.666	1.890	1.895	1.890	1.914	1.924	1.919
-0.005	0.029	-0.005	0.024	0.068	0.005	0.029	2.656	1.895	1.899	1.895	1.919	1.919	1.919
-0.005	0.039	0.005	0.029	0.059	0.010	0.029	2.656	1.890	1.899	1.895	1.919	1.914	1.919
0.000	0.054	-0.005	0.010	0.029	0.000	0.029	2.656	1.895	1.899	1.895	1.909	1.904	1.914
0.010	0.049	0.000	0.010	-0.005	-0.010	0.029	2.720	1.904	1.899	1.895	1.909	1.895	1.904
-0.010	0.029	0.005	-0.005	-0.029	0.015	0.029	2.827	1.914	1.895	1.895	1.904	1.890	1.909
0.010	0.005	0.000	-0.005	-0.020	0.010	0.029	2.651	1.909	1.895	1.890	1.909	1.899	1.904
0.000	-0.010	0.005	-0.024	-0.005	-0.010	0.024	2.847	1.924	1.895	1.890	1.904	1.899	1.895
0.015	-0.024	0.005	-0.020	0.020	0.010	0.029	2.671	1.909	1.895	1.895	1.909	1.909	1.904
0.000	-0.024	0.000	-0.020	0.024	-0.010	0.029	2.676	1.904	1.895	1.890	1.909	1.909	1.904
0.010	-0.044	0.005	-0.010	0.015	0.005	0.029	2.681	1.899	1.890	1.890	1.909	1.904	1.904
0.000	-0.049	0.005	0.000	0.005	-0.010	0.029	2.671	1.895	1.890	1.890	1.914	1.904	1.904
0.005	-0.039	0.000	0.000	0.000	0.005	0.029	2.671	1.895	1.895	1.895	1.909	1.904	1.904
-0.005	-0.029	0.000	0.005	-0.005	0.010	0.029	2.661	1.890	1.895	1.890	1.914	1.904	1.904
-0.005	-0.015	0.000	0.010	-0.024	0.010	0.029	2.666	1.890	1.899	1.895	1.914	1.899	1.899
0.000	0.000	0.000	0.010	-0.024	-0.015	0.029	2.651	1.890	1.899	1.895	1.914	1.899	1.895
-0.005	0.020	-0.005	0.010	-0.020	0.005	0.029	2.656	1.890	1.899	1.895	1.914	1.904	1.904
0.000	0.000	0.000	0.015	-0.020	0.000	0.029	2.656	1.890	1.895	1.895	1.914	1.909	1.904
0.000	0.020	-0.005	0.005	-0.024	0.005	0.029	2.695	1.895	1.899	1.895	1.909	1.904	1.909
0.000	0.020	0.000	-0.005	-0.015	-0.010	0.029	2.642	1.919	1.904	1.899	1.909	1.909	1.904
-0.010	0.024	0.005	-0.010	-0.015	0.000	0.029	2.642	1.909	1.904	1.899	1.914	1.909	1.909
0.000	0.010	0.000	0.010	-0.005	0.005	0.024	2.832	1.924	1.904	1.899	1.919	1.909	1.909
-0.005	0.010	0.000	-0.020	0.000	0.010	0.029	2.671	1.914	1.909	1.899	1.909	1.914	1.909
0.005	0.024	0.000	-0.020	0.000	0.005	0.029	2.681	1.914	1.914	1.904	1.914	1.909	1.909
0.005	0.015	0.005	0.000	0.005	0.005	0.024	2.686	1.904	1.909	1.904	1.924	1.914	1.909
0.000	0.000	0.005	0.015	0.010	-0.015	0.029	2.681	1.899	1.904	1.904	1.924	1.919	1.909
0.010	-0.005	0.005	0.010	0.000	0.000	0.024	2.676	1.904	1.899	1.899	1.924	1.914	1.914
0.010	0.000	0.005	0.015	-0.005	0.005	0.024	2.661	1.895	1.899	1.899	1.924	1.914	1.914
0.000	-0.015	0.005	0.000	-0.020	0.010	0.024	2.676	1.895	1.895	1.895	1.914	1.909	1.914
0.005	-0.010	0.000	-0.005	-0.039	-0.010	0.029	2.646	1.890	1.895	1.895	1.909	1.904	1.904
0.005	-0.005	0.000	-0.010	-0.044	0.000	0.029	2.656	1.890	1.890	1.890	1.914	1.904	1.904
0.005	-0.005	-0.005	0.000	-0.034	-0.005	0.024	2.646	1.890	1.895	1.890	1.914	1.909	1.904
-0.010	-0.010	-0.005	0.015	-0.005	-0.015	0.029	2.695	1.890	1.890	1.890	1.919	1.919	1.904
-0.005	-0.015	0.000	0.029	0.029	-0.005	0.029	2.803	1.904	1.895	1.890	1.919	1.929	1.919
-0.010	0.000	0.000	0.024	0.059	-0.005	0.029	2.637	1.895	1.899	1.895	1.919	1.934	1.924
-0.010	0.005	-0.005	0.024	0.063	-0.005	0.029	2.827	1.919	1.904	1.899	1.919	1.929	1.924
-0.010	0.010	-0.005	0.029	0.049	0.000	0.029	2.671	1.914	1.909	1.899	1.919	1.919	1.929
-0.005	-0.010	0.000	0.020	0.039	0.000	0.024	2.681	1.909	1.904	1.899	1.914	1.914	1.924
0.005	-0.005	0.000	0.010	0.005	0.005	0.029	2.681	1.909	1.904	1.899	1.914	1.904	1.919
0.005	-0.010	0.000	0.005	-0.029	0.010	0.029	2.676	1.909	1.904	1.899	1.914	1.895	1.909
0.000	-0.015	0.000	0.000	-0.073	-0.005	0.029	2.666	1.899	1.899	1.899	1.909	1.885	1.899
0.015	-0.020	0.010	0.000	-0.068	0.000	0.024	2.666	1.904	1.899	1.899	1.914	1.895	1.899
0.010	-0.020	0.005	-0.005	0.000	0.020	0.029	2.651	1.895	1.899	1.899	1.919	1.919	1.909
0.000	0.000	0.005	-0.005	0.098	-0.005	0.029	2.651	1.890	1.899	1.899	1.919	1.943	1.914
0.000	0.005	0.010	-0.005	0.127	0.015	0.029	2.646	1.890	1.899	1.899	1.919	1.943	1.929
0.000	0.010	0.005	-0.005	0.088	-0.010	0.029	2.642	1.890	1.895	1.895	1.914	1.919	1.924
0.005	0.000	0.000	-0.005	0.054	0.005	0.029	2.671	1.895	1.890	1.895	1.914	1.909	1.919
0.005	-0.005	0.000	0.005	0.020	0.010	0.029	2.808	1.909	1.895	1.895	1.914	1.904	1.914
0.000	-0.005	0.005	-0.010	0.015	0.005	0.029	2.637	1.899	1.899	1.895	1.909	1.899	1.909
-0.010	0.000	0.000	-0.029	-0.005	0.000	0.029	2.666	1.899	1.895	1.890	1.904	1.895	1.899
-0.005	0.010	0.000	-0.049	-0.015	0.000	0.029	2.690	1.895	1.899	1.890	1.899	1.890	1.899
-0.010	0.000	0.005	-0.049	-0.029	0.000	0.029	2.686	1.899	1.899	1.895	1.904	1.890	1.899
0.000	0.005	0.000	-0.034	-0.044	-0.020	0.029	2.681	1.899	1.895	1.895	1.909	1.890	1.890
0.005	-0.010	-0.005	-0.005	-0.039	-0.005	0.024	2.681	1.895	1.895	1.895	1.919	1.899	1.899
0.005	-0.015	-0.005	0.015	-0.024	-0.015	0.024	2.676	1.899	1.890	1.895	1.924	1.909	1.899
0.000	-0.029	-0.005	0.044	-0.024	-0.005	0.029	2.656	1.895	1.890	1.895	1.924	1.909	1.904
0.005	-0.029	0.000	0.044	-0.024	0.005	0.029	2.671	1.895	1.890	1.895	1.924	1.914	1.914
0.005	-0.015	0.000	0.039	-0.024	-0.024	0.029	2.646	1.895	1.899	1.895	1.919	1.914	1.904
0.005	-0.024	0.005	0.034	-0.024	0.000	0.024	2.651	1.890	1.890	1.890	1.914	1.914	1.909
0.015	-0.010	0.010	0.024	-0.005	0.005	0.024	2.646	1.890	1.895	1.895	1.909	1.919	1.914
0.010	0.000	0.010	0.020	-0.005	0.000	0.024	2.671	1.895	1.899	1.895	1.909	1.914	1.914
0.010	-0.005	0.010	0.015	-0.005	0.000	0.029	2.812	1.909	1.899	1.895	1.909	1.909	1.914
0.010	0.015	0.000	0.005	-0.010	0.000	0.029	2.651	1.899	1.904	1.895	1.909	1.909	1.914
0.000	0.029	0.000	-0.005	-0.005	0.010	0.024	2.637	1.895	1.904	1.895	1.909	1.909	1.909
-0.005	0.015	0.000	-0.010	0.005	0.010	0.024	2.681	1.895	1.899	1.895	1.909	1.909	1.909
-0.005	0.029	0.000	-0.015	0.005	0.010	0.029	2.686	1.899	1.904	1.899	1.909	1.909	1.909
-0.005	0.039	0.000	-0.010	0.015	0.000	0.029	2.676	1.899	1.904	1.899	1.914	1.909	1.904
-0.005	0.034	-0.005	-0.005	0.005	0.005	0.029	2.676	1.899	1.904	1.899	1.914	1.909	1.909
-0.010	0.039	-0.005	-0.010	0.005	-0.015	0.024	2.666	1.899	1.899	1.899	1.914	1.909	1.904
0.000	0.024	-0.005	-0.005	0.010	0.015	0.029	2.651	1.895	1.895	1.895	1.914	1.909	1.914
0.000	0.015	0.000	-0.005	0.000	0.010	0.029	2.666	1.890	1.890	1.899	1.914	1.909	1.909
-0.005	0.005	0.000	-0.015	0.005	0.000	0.029	2.671	1.895	1.890	1.895	1.914	1.909	1.909
-0.005	0.005	0.000	-0.010	0.000	0.000	0.029	2.656	1.890	1.890	1.895	1.914	1.909	1.904
0.005	-0.010	0.000	-0.010	0.000	-0.015	0.029	2.642	1.890	1.885	1.895	1.909	1.904	1.909
-0.005	-0.015	0.005	-0.005	-0.005	0.010	0.024	2.656	1.890	1.885	1.890	1.914	1.904	1.914
0.005	-0.010	0.010	0.005	-0.010	-0.010	0.024	2.817	1.909	1.890	1.890	1.914	1.904	1.899
0.015	0.000	0.005	0.000	-0.020	-0.010	0.029	2.646	1.904	1.899	1.890	1.909	1.904	1.904
0.010	0.024	0.005	-0.005	-0.020	-0.005	0.029	2.651	1.895	1.904	1.895	1.909	1.904	1.904
-0.005	0.005	0.000	0.000	-0.015	0.005	0.029	2.676	1.899	1.895	1.890	1.914	1.904	1.909
0.005	0.010	0.005	0.010	-0.010	-0.015	0.029	2.671	1.899	1.899	1.890	1.914	1.909	1.904
0.005	0.029	-0.005	0.010	-0.010	0.010	0.024	2.681	1.899	1.904	1.895	1.914	1.909	1.909
0.005	0.010	-0.005	0.010	0.000	0.005	0.024	2.681	1.899	1.890	1.895	1.914	1.909	1.909
-0.005	0.000	-0.005	0.020	0.010	0.005	0.029	2.686	1.899	1.890	1.890	1.919	1.914	1.909
-0.005	-0.020	-0.005	0.015	0.020	-0.005	0.029	2.671	1.895	1.890	1.890	1.914	1.914	1.909
-0.010	-0.005	0.000	0.000	0.029	0.000	0.029	2.656	1.895	1.890	1.890	1.909	1.914	1.909
0.000	-0.010	-0.005	0.000	0.034	-0.005	0.029	2.651	1.895	1.890	1.890	1.909	1.914	1.914
-0.010	-0.015	0.000	0.005	0.039	0.000	0.029	2.759	1.904	1.895	1.890	1.909	1.914	1.914
-0.005	-0.005	0.000	-0.015	0.039	0.000	0.024	2.681	1.909	1.899	1.895	1.904	1.909	1.914
-0.005	-0.010	0.000	-0.015	0.020	0.000	0.029	2.676	1.904	1.895	1.895	1.909	1.904	1.909
0.000	-0.010	0.010	-0.010	0.010	-0.005	0.029	2.681	1.904	1.899	1.895	1.909	1.904	1.904
0.020	-0.010	0.005	-0.005	0.010	0.005	0.024	2.666	1.904	1.904	1.895	1.909	1.904	1.904
0.015	0.000	0.000	0.000	0.005	0.015	0.029	2.661	1.899	1.904	1.895	1.914	1.904	1.909
0.010	-0.005	-0.005	0.010	0.010	0.020	0.024	2.661	1.895	1.899	1.899	1.914	1.909	1.909
0.010	-0.005	0.000	0.010	0.000	0.010	0.024	2.690	1.895	1.895	1.895	1.914	1.904	1.904
0.000	0.005	0.000	0.005	-0.010	0.005	0.029	2.681	1.895	1.895	1.895	1.914	1.904	1.904
0.000	0.000	0.000	0.010	-0.005	-0.020	0.029	2.671	1.895	1.895	1.895	1.914	1.904	1.899
0.005	0.000	0.005	0.010	0.010	0.000	0.029	2.681	1.895	1.895	1.899	1.914	1.914	1.909
0.000	0.000	0.005	0.015	0.034	-0.010	0.024	2.681	1.890	1.895	1.895	1.919	1.919	1.909
-0.005	-0.005	0.005	0.005	0.039	-0.005	0.029	2.676	1.895	1.890	1.895	1.914	1.919	1.914
-0.005	0.000	0.000	0.000	0.044	0.010	0.029	2.671	1.895	1.890	1.895	1.909	1.914	1.919
-0.010	0.005	0.000	-0.005	0.034	0.000	0.029	2.666	1.895	1.895	1.895	1.909	1.909	1.909
0.000	0.010	-0.005	-0.005	0.024	0.000	0.029	2.769	1.909	1.895	1.895	1.909	1.909	1.909
-0.005	0.015	0.000	0.000	0.005	0.005	0.024	2.690	1.909	1.899	1.895	1.914	1.904	1.909
-0.015	0.005	-0.005	0.000	-0.005	-0.005	0.029	2.676	1.899	1.895	1.895	1.914	1.899	1.904
-0.020	0.005	0.000	0.000	-0.029	0.015	0.029	2.671	1.899	1.895	1.895	1.914	1.895	1.904
0.000	-0.005	0.005	0.005	-0.039	0.010	0.029	2.671	1.899	1.899	1.895	1.914	1.899	1.899
-0.010	-0.005	0.005	0.000	-0.049	0.010	0.029	2.671	1.899	1.895	1.895	1.914	1.899	1.899
-0.005	-0.020	0.005	0.000	-0.054	0.005	0.024	2.656	1.899	1.895	1.895	1.914	1.899	1.899
0.020	0.005	0.005	-0.005	-0.034	0.000	0.024	2.651	1.904	1.904	1.899	1.914	1.904	1.899
0.024	-0.005	0.010	0.000	-0.015	0.005	0.029	2.637	1.890	1.895	1.895	1.914	1.914	1.909
0.015	-0.005	0.005	0.000	0.000	0.005	0.029	2.651	1.890	1.890	1.895	1.914	1.914	1.909
0.005	0.010	0.005	0.000	0.005	-0.010	0.029	2.676	1.890	1.895	1.895	1.914	1.914	1.909
0.010	0.010	0.000	0.005	0.000	0.000	0.024	2.637	1.890	1.890	1.895	1.914	1.914	1.909
0.000	0.005	0.000	-0.005	0.000	0.000	0.029	2.642	1.885	1.885	1.890	1.909	1.909	1.909
-0.005	-0.005	0.000	-0.005	0.010	0.005	0.024	2.676	1.885	1.885	1.885	1.909	1.909	1.909
-0.015	-0.005	0.000	-0.015	0.020	-0.010	0.029	2.651	1.885	1.885	1.885	1.904	1.914	1.909
-0.020	0.000	-0.010	-0.015	0.020	0.000	0.029	2.754	1.895	1.890	1.885	1.904	1.909	1.909
-0.015	-0.005	-0.005	-0.005	0.029	0.005	0.029	2.671	1.899	1.890	1.885	1.909	1.909	1.914
-0.010	0.000	-0.005	0.005	-0.015	0.000	0.024	2.681	1.899	1.890	1.885	1.909	1.895	1.904
0.015	-0.005	-0.005	0.005	-0.073	-0.015	0.024	2.681	1.909	1.895	1.890	1.909	1.880	1.890
0.029	0.005	0.000	0.005	-0.112	-0.015	0.029	2.661	1.904	1.899	1.895	1.909	1.880	1.890
0.020	0.010	0.000	0.010	-0.093	-0.005	0.029	2.671	1.899	1.899	1.899	1.909	1.890	1.890
0.010	0.020	0.005	0.010	-0.088	-0.005	0.029	2.661	1.895	1.899	1.895	1.909	1.899	1.890
0.000	0.010	0.000	0.000	-0.054	-0.010	0.029	2.656	1.885	1.895	1.895	1.909	1.909	1.895
0.000	0.000	0.010	0.000	-0.059	-0.010	0.029	2.651	1.885	1.890	1.895	1.914	1.904	1.899
-0.015	0.010	0.005	0.010	-0.068	-0.005	0.029	2.646	1.880	1.885	1.890	1.909	1.904	1.899
-0.015	0.000	0.005	0.010	-0.078	-0.010	0.029	2.686	1.885	1.880	1.890	1.909	1.899	1.899
-0.015	-0.005	0.005	0.020	-0.073	-0.005	0.029	2.666	1.885	1.880	1.885	1.914	1.904	1.904
-0.015	-0.015	0.000	0.010	-0.049	-0.010	0.029	2.681	1.885	1.875	1.880	1.909	1.909	1.904
-0.005	-0.015	0.000	0.010	0.029	0.010	0.029	2.754	1.904	1.885	1.880	1.904	1.934	1.919
0.005	-0.015	0.005	0.000	0.161	0.024	0.029	2.803	1.919	1.890	1.885	1.904	1.963	1.938
0.000	-0.005	0.000	0.000	0.273	0.029	0.029	2.637	1.914	1.899	1.890	1.909	1.973	1.948
0.034	-0.010	0.000	-0.005	0.293	0.029	0.029	2.646	1.919	1.904	1.895	1.909	1.963	1.953
0.034	0.005	-0.010	-0.010	0.269	0.029	0.024	2.666	1.914	1.909	1.895	1.909	1.938	1.948
0.015	-0.005	-0.005	-0.015	0.176	0.029	0.029	2.700	1.914	1.909	1.899	1.909	1.904	1.934
0.000	0.005	-0.010	-0.005	0.098	0.010	0.029	2.676	1.904	1.914	1.899	1.909	1.885	1.909
-0.015	0.005	-0.005	-0.005	0.029	0.000	0.029	2.686	1.899	1.904	1.904	1.909	1.870	1.899
-0.015	-0.010	0.000	0.005	-0.020	0.029	0.029	2.690	1.899	1.899	1.899	1.914	1.870	1.895
-0.029	-0.005	0.005	0.010	-0.054	0.000	0.029	2.646	1.890	1.899	1.899	1.919	1.875	1.880
-0.020	0.010	0.005	0.020	-0.068	0.015	0.029	2.666	1.895	1.899	1.899	1.919	1.880	1.880
-0.015	0.005	0.005	0.015	-0.054	0.000	0.029	2.681	1.895	1.895	1.899	1.919	1.895	1.885
0.000	0.000	0.005	0.010	-0.049	-0.015	0.029	2.686	1.899	1.895	1.895	1.914	1.899	1.880
0.000	-0.005	0.005	0.005	-0.059	-0.020	0.029	2.686	1.899	1.890	1.895	1.914	1.899	1.890
0.010	-0.005	0.005	-0.005	-0.068	-0.005	0.029	2.681	1.899	1.895	1.895	1.909	1.899	1.895
0.010	0.005	0.005	-0.005	-0.059	0.000	0.024	2.671	1.899	1.899	1.895	1.909	1.904	1.895
0.020	0.000	-0.005	-0.010	-0.054	0.000	0.029	2.681	1.895	1.895	1.890	1.909	1.904	1.899
0.005	0.010	-0.005	-0.020	-0.054	0.005	0.029	2.681	1.895	1.899	1.895	1.909	1.904	1.904
0.015	0.015	0.005	-0.020	-0.054	0.000	0.029	2.686	1.899	1.899	1.895	1.909	1.904	1.899
0.005	0.015	0.000	-0.005	-0.039	0.005	0.029	2.676	1.890	1.895	1.895	1.914	1.909	1.904
0.000	0.029	-0.005	0.000	-0.034	0.005	0.029	2.686	1.895	1.899	1.895	1.914	1.909	1.904
0.000	0.024	0.000	-0.005	-0.029	-0.010	0.029	2.686	1.895	1.895	1.895	1.914	1.914	1.909
0.010	0.020	0.000	-0.015	-0.015	0.000	0.029	2.681	1.899	1.895	1.895	1.914	1.914	1.909
0.020	0.010	0.000	0.005	-0.005	0.000	0.024	2.676	1.899	1.895	1.895	1.919	1.919	1.914
0.044	0.015	-0.005	0.024	-0.005	0.005	0.029	2.656	1.909	1.899	1.895	1.924	1.919	1.919
0.034	0.005	0.000	0.020	0.000	-0.020	0.029	2.671	1.904	1.895	1.899	1.919	1.914	1.914
0.024	0.000	0.005	0.024	0.000	-0.010	0.029	2.676	1.899	1.895	1.895	1.919	1.919	1.914
0.029	0.005	0.000	0.020	-0.005	0.000	0.029	2.671	1.895	1.899	1.895	1.914	1.914	1.919
0.000	0.000	0.005	0.015	-0.020	0.000	0.029	2.686	1.890	1.890	1.895	1.914	1.909	1.919
-0.020	-0.010	0.005	0.020	-0.020	0.000	0.029	2.676	1.885	1.890	1.890	1.914	1.909	1.914
-0.044	-0.005	0.005	0.024	-0.015	0.005	0.029	2.671	1.880	1.885	1.890	1.914	1.909	1.914
-0.049	-0.005	0.005	0.020	-0.015	-0.024	0.029	2.676	1.885	1.880	1.890	1.909	1.909	1.904
-0.049	-0.010	0.000	0.015	-0.010	0.000	0.029	2.676	1.885	1.880	1.885	1.904	1.909	1.909
-0.044	-0.020	0.005	0.005	-0.005	-0.005	0.029	2.686	1.899	1.880	1.880	1.904	1.904	1.909
-0.020	-0.024	0.000	0.005	0.000	0.005	0.024	2.686	1.904	1.890	1.880	1.899	1.904	1.909
-0.005	-0.020	0.000	0.000	0.005	0.000	0.029	2.676	1.909	1.895	1.885	1.899	1.904	1.904
0.005	-0.015	-0.005	-0.010	0.005	0.005	0.029	2.686	1.909	1.899	1.890	1.899	1.899	1.909
0.005	-0.010	-0.005	-0.015	0.010	0.000	0.029	2.671	1.909	1.904	1.890	1.904	1.899	1.904
0.015	-0.005	0.000	-0.010	0.005	0.005	0.029	2.676	1.909	1.909	1.895	1.904	1.899	1.904
0.015	-0.010	0.000	-0.010	0.010	0.000	0.024	2.690	1.904	1.904	1.899	1.909	1.904	1.899
0.015	0.000	0.005	-0.015	0.010	0.010	0.029	2.627	1.899	1.904	1.904	1.909	1.904	1.909
0.005	0.000	0.005	-0.010	0.005	-0.005	0.029	2.681	1.895	1.904	1.899	1.914	1.904	1.904
0.034	0.000	0.005	-0.010	0.005	0.010	0.029	2.686	1.904	1.904	1.899	1.914	1.909	1.909
0.059	0.000	0.005	-0.010	0.015	-0.005	0.029	2.676	1.909	1.904	1.904	1.914	1.909	1.904
0.068	-0.005	0.005	-0.015	0.010	0.010	0.029	2.681	1.909	1.904	1.899	1.919	1.914	1.909
0.034	0.000	-0.005	-0.015	0.015	0.010	0.029	2.676	1.895	1.904	1.899	1.919	1.909	1.914
0.020	0.015	-0.005	-0.005	0.005	0.010	0.029	2.666	1.890	1.904	1.899	1.919	1.909	1.909
-0.015	0.010	-0.005	-0.005	0.015	-0.005	0.029	2.671	1.880	1.895	1.899	1.914	1.914	1.909
-0.039	0.010	0.005	0.000	0.015	0.010	0.029	2.822	1.899	1.890	1.895	1.919	1.909	1.909
-0.044	0.010	0.005	0.000	0.015	-0.015	0.029	2.676	1.895	1.890	1.895	1.914	1.914	1.904
-0.039	0.010	0.005	0.010	0.010	0.010	0.029	2.676	1.895	1.890	1.895	1.919	1.914	1.914
-0.049	0.015	0.005	0.010	0.010	-0.005	0.029	2.681	1.890	1.890	1.895	1.919	1.914	1.909
-0.039	0.015	0.000	0.005	0.015	0.005	0.029	2.681	1.895	1.890	1.890	1.914	1.909	1.914
-0.029	0.010	-0.005	-0.005	0.010	0.000	0.029	2.681	1.899	1.895	1.890	1.909	1.909	1.914
-0.020	-0.010	-0.005	-0.005	0.005	-0.005	0.029	2.676	1.904	1.890	1.890	1.909	1.909	1.909
-0.005	-0.005	-0.005	-0.010	0.010	-0.010	0.024	2.676	1.904	1.895	1.890	1.904	1.904	1.904
-0.010	-0.010	-0.005	-0.010	0.005	0.015	0.024	2.686	1.904	1.895	1.890	1.909	1.904	1.914
-0.015	0.000	0.000	0.000	0.000	0.005	0.029	2.686	1.904	1.899	1.895	1.914	1.904	1.909
0.000	0.005	0.000	0.000	0.000	0.005	0.029	2.676	1.909	1.904	1.899	1.914	1.909	1.909
0.010	-0.005	0.005	0.005	0.010	-0.005	0.029	2.676	1.904	1.904	1.899	1.919	1.909	1.904
0.010	0.005	0.005	0.010	0.005	0.005	0.029	2.769	1.914	1.904	1.899	1.919	1.909	1.909
0.010	0.005	0.005	0.015	0.010	-0.005	0.029	2.666	1.904	1.909	1.899	1.919	1.914	1.909
0.000	0.005	0.010	0.005	0.010	0.010	0.029	2.690	1.904	1.904	1.904	1.919	1.914	1.914
0.000	-0.005	0.005	0.020	0.005	0.005	0.029	2.676	1.899	1.899	1.899	1.924	1.914	1.914
0.015	-0.005	0.005	0.010	0.000	-0.010	0.029	2.681	1.899	1.899	1.899	1.919	1.914	1.909
0.020	0.000	0.000	0.015	0.005	0.005	0.024	2.671	1.904	1.899	1.899	1.919	1.914	1.914
0.020	0.005	0.005	0.000	0.000	0.010	0.029	2.671	1.899	1.899	1.899	1.914	1.909	1.914
0.015	0.010	0.005	0.005	0.000	0.005	0.029	2.681	1.899	1.899	1.899	1.914	1.909	1.909
0.010	0.010	0.000	-0.010	-0.005	0.000	0.029	2.666	1.895	1.899	1.899	1.909	1.909	1.909
0.000	0.010	0.000	-0.029	0.000	0.000	0.029	2.676	1.895	1.895	1.899	1.909	1.909	1.909
-0.005	0.005	0.000	-0.034	-0.005	0.000	0.024	2.676	1.890	1.895	1.895	1.904	1.904	1.909
-0.005	-0.005	0.000	-0.029	-0.010	0.005	0.029	2.676	1.895	1.890	1.895	1.914	1.904	1.904
-0.010	-0.005	-0.005	-0.015	-0.005	0.000	0.029	2.671	1.890	1.890	1.895	1.914	1.909	1.909
-0.010	0.010	-0.005	0.000	0.000	-0.010	0.029	2.671	1.895	1.895	1.895	1.919	1.914	1.909
0.000	0.000	-0.005	0.024	0.005	0.010	0.029	2.676	1.899	1.895	1.895	1.924	1.914	1.914
0.000	0.005	-0.005	0.039	0.015	0.015	0.024	2.686	1.899	1.895	1.895	1.924	1.919	1.914
0.010	-0.005	0.005	0.054	0.015	0.005	0.024	2.676	1.904	1.895	1.895	1.924	1.924	1.919
0.010	0.000	0.005	0.044	0.015	-0.010	0.029	2.661	1.899	1.899	1.895	1.919	1.919	1.914
0.010	-0.015	0.015	0.034	0.010	0.005	0.029	2.671	1.895	1.895	1.895	1.914	1.914	1.919
0.005	-0.005	0.010	0.020	0.000	0.020	0.029	2.676	1.899	1.899	1.895	1.909	1.909	1.919
0.005	-0.005	0.005	0.015	0.000	0.005	0.029	2.637	1.895	1.895	1.895	1.909	1.909	1.909
0.015	0.000	0.000	0.000	-0.010	0.000	0.029	2.681	1.899	1.895	1.890	1.904	1.904	1.909
0.015	-0.015	0.005	-0.015	-0.005	0.000	0.029	2.671	1.895	1.890	1.890	1.899	1.899	1.904
0.010	-0.005	-0.005	-0.024	-0.005	0.000	0.029	2.666	1.895	1.895	1.890	1.899	1.899	1.904
-0.005	0.000	-0.010	-0.034	-0.005	-0.020	0.029	2.686	1.890	1.895	1.890	1.899	1.899	1.899
0.005	0.000	0.000	-0.034	-0.005	0.005	0.024	2.695	1.899	1.895	1.895	1.904	1.899	1.904
0.010	0.005	0.000	-0.020	-0.005	0.000	0.029	2.676	1.895	1.895	1.895	1.909	1.899	1.899
0.015	0.010	-0.005	-0.005	-0.005	0.010	0.029	2.676	1.899	1.899	1.890	1.914	1.904	1.904
0.005	0.005	0.005	-0.005	-0.010	-0.010	0.029	2.637	1.895	1.895	1.895	1.914	1.904	1.899
0.039	-0.005	0.000	-0.015	-0.005	0.005	0.029	2.656	1.904	1.895	1.895	1.909	1.909	1.904
0.034	0.010	-0.005	0.000	-0.010	0.000	0.029	2.681	1.895	1.899	1.895	1.914	1.909	1.904
0.010	0.024	-0.005	0.015	-0.005	0.000	0.029	2.681	1.890	1.899	1.899	1.919	1.909	1.904
-0.010	0.015	0.000	0.015	-0.005	-0.010	0.029	2.686	1.890	1.890	1.895	1.919	1.909	1.904
-0.005	0.005	0.000	0.020	0.000	0.005	0.029	2.671	1.890	1.890	1.895	1.914	1.914	1.909
-0.024	0.024	0.000	0.015	0.000	0.000	0.029	2.671	1.885	1.890	1.895	1.914	1.909	1.909
-0.020	0.005	0.005	0.010	0.000	0.000	0.029	2.686	1.890	1.885	1.890	1.909	1.909	1.909
-0.005	-0.005	0.010	-0.005	0.000	0.000	0.029	2.671	1.895	1.885	1.890	1.904	1.909	1.909
0.005	-0.005	0.005	-0.024	0.000	0.000	0.029	2.661	1.895	1.890	1.885	1.899	1.904	1.909
0.005	-0.015	0.010	-0.020	0.005	0.000	0.024	2.686	1.895	1.885	1.885	1.904	1.904	1.904
0.005	-0.005	0.005	0.000	0.005	0.005	0.024	2.676	1.895	1.890	1.885	1.909	1.904	1.904
-0.005	-0.005	0.000	0.029	0.005	0.005	0.029	2.681	1.895	1.890	1.885	1.919	1.909	1.909
0.000	0.010	-0.005	0.024	-0.005	-0.005	0.024	2.681	1.899	1.895	1.890	1.914	1.904	1.904
0.000	0.000	0.000	0.020	0.000	0.005	0.029	2.671	1.895	1.895	1.890	1.909	1.904	1.904
0.000	0.000	0.005	0.005	0.000	-0.005	0.029	2.671	1.895	1.895	1.890	1.904	1.904	1.904
0.000	0.005	0.000	-0.005	0.010	-0.015	0.029	2.690	1.899	1.895	1.890	1.904	1.904	1.904
0.000	0.005	-0.005	-0.010	0.015	0.000	0.029	2.671	1.895	1.895	1.890	1.904	1.904	1.909
0.000	0.010	-0.005	0.000	0.020	-0.005	0.029	2.676	1.895	1.895	1.890	1.909	1.904	1.909
-0.005	-0.010	0.000	0.005	0.024	0.005	0.029	2.671	1.895	1.890	1.895	1.909	1.909	1.909
-0.010	-0.005	-0.005	0.015	0.029	0.000	0.029	2.676	1.895	1.895	1.890	1.914	1.909	1.909
-0.005	0.000	0.005	0.010	0.029	0.005	0.024	2.690	1.899	1.895	1.895	1.909	1.909	1.904
0.005	-0.005	0.005	0.000	0.015	0.015	0.029	2.676	1.899	1.899	1.895	1.909	1.904	1.909
0.000	-0.020	0.005	-0.005	0.024	-0.005	0.024	2.681	1.899	1.890	1.890	1.909	1.904	1.904
0.010	-0.005	0.000	-0.005	0.020	-0.005	0.029	2.686	1.899	1.899	1.890	1.909	1.904	1.904
0.015	-0.010	-0.005	-0.010	0.020	0.020	0.029	2.681	1.899	1.895	1.890	1.909	1.904	1.904
0.000	0.000	-0.005	-0.010	0.015	0.005	0.029	2.671	1.895	1.899	1.895	1.909	1.899	1.904
0.000	-0.010	0.005	-0.010	0.020	-0.005	0.024	2.690	1.895	1.895	1.895	1.909	1.904	1.899
0.005	-0.015	0.000	0.000	0.015	0.005	0.029	2.676	1.895	1.890	1.890	1.909	1.904	1.904
0.010	-0.010	-0.005	0.000	0.010	-0.005	0.024	2.686	1.895	1.890	1.890	1.909	1.899	1.899
0.000	0.005	-0.005	0.000	0.005	-0.005	0.029	2.686	1.899	1.899	1.895	1.909	1.899	1.904
0.005	-0.005	-0.005	-0.005	-0.005	-0.010	0.024	2.676	1.899	1.895	1.895	1.909	1.899	1.899
-0.005	-0.005	-0.005	-0.005	-0.010	0.005	0.029	2.637	1.890	1.895	1.890	1.909	1.899	1.899
0.000	-0.005	0.000	-0.005	-0.010	0.005	0.024	2.686	1.890	1.890	1.890	1.909	1.904	1.904
-0.005	0.010	0.005	-0.010	-0.005	0.005	0.029	2.686	1.890	1.899	1.895	1.909	1.904	1.904
-0.010	0.005	0.000	-0.010	-0.005	0.005	0.029	2.661	1.890	1.895	1.895	1.909	1.904	1.904
-0.010	0.015	0.000	-0.005	0.005	-0.020	0.029	2.681	1.895	1.895	1.895	1.909	1.904	1.899
0.000	-0.005	0.005	-0.005	0.010	0.010	0.029	2.676	1.895	1.890	1.895	1.914	1.909	1.909
0.005	-0.010	0.005	0.000	0.000	0.000	0.029	2.686	1.899	1.895	1.890	1.914	1.909	1.904
0.000	-0.005	0.000	0.010	0.005	0.005	0.029	2.676	1.899	1.895	1.890	1.914	1.909	1.909
0.000	0.000	0.005	0.015	0.000	0.010	0.029	2.632	1.890	1.895	1.895	1.914	1.909	1.909
0.010	0.000	0.010	0.015	-0.015	-0.005	0.029	2.681	1.895	1.895	1.895	1.914	1.904	1.904
0.005	0.005	0.005	0.015	-0.015	0.010	0.029	2.681	1.895	1.895	1.890	1.909	1.904	1.909
0.010	0.005	0.005	0.010	-0.020	-0.005	0.029	2.671	1.895	1.895	1.890	1.909	1.904	1.904
0.005	-0.010	0.005	0.005	-0.020	0.005	0.024	2.686	1.895	1.890	1.890	1.909	1.899	1.904
0.005	0.000	0.000	0.015	-0.024	-0.015	0.029	2.666	1.890	1.890	1.890	1.909	1.899	1.899
-0.005	0.005	-0.005	0.024	-0.034	-0.020	0.029	2.671	1.890	1.895	1.890	1.909	1.899	1.899
-0.015	0.010	-0.005	0.010	-0.044	0.000	0.029	2.686	1.895	1.890	1.890	1.909	1.899	1.899
-0.005	0.020	0.000	0.000	-0.039	0.010	0.029	2.690	1.895	1.895	1.890	1.904	1.899	1.904
-0.010	0.015	0.000	-0.005	-0.029	-0.010	0.024	2.686	1.890	1.890	1.890	1.904	1.904	1.899
-0.010	-0.010	-0.005	-0.015	-0.024	0.010	0.029	2.690	1.895	1.890	1.890	1.904	1.904	1.904
-0.020	-0.010	-0.005	-0.005	-0.010	0.015	0.029	2.690	1.895	1.890	1.890	1.909	1.909	1.909
-0.005	-0.005	-0.005	0.010	0.015	0.015	0.029	2.676	1.899	1.899	1.890	1.914	1.914	1.909
0.000	0.000	-0.005	0.020	0.034	0.005	0.029	2.686	1.899	1.895	1.895	1.914	1.919	1.909
-0.005	-0.005	-0.005	0.010	0.049	0.015	0.024	2.676	1.899	1.899	1.890	1.909	1.924	1.919
-0.005	-0.005	0.000	0.000	0.068	0.010	0.029	2.681	1.899	1.895	1.895	1.909	1.919	1.919
-0.005	-0.005	0.000	-0.005	0.068	0.010	0.024	2.686	1.895	1.895	1.895	1.909	1.914	1.919
0.000	-0.005	0.000	-0.010	0.054	-0.015	0.029	2.686	1.899	1.890	1.895	1.909	1.904	1.904
0.000	-0.005	-0.005	-0.010	0.029	-0.015	0.029	2.661	1.895	1.895	1.890	1.904	1.899	1.904
0.005	-0.005	0.000	-0.010	0.000	0.005	0.029	2.676	1.895	1.895	1.890	1.909	1.895	1.904
0.010	0.000	0.000	-0.005	-0.015	0.000	0.029	2.690	1.899	1.895	1.890	1.909	1.895	1.899
0.005	0.005	0.000	0.000	-0.034	0.000	0.029	2.681	1.895	1.899	1.895	1.909	1.890	1.899
0.015	0.005	0.005	-0.005	-0.039	0.000	0.029	2.681	1.899	1.895	1.895	1.909	1.895	1.899
0.000	0.015	0.005	-0.010	-0.034	0.005	0.029	2.681	1.895	1.899	1.895	1.909	1.895	1.899
0.000	0.000	-0.005	-0.005	-0.034	0.000	0.029	2.676	1.895	1.890	1.890	1.909	1.899	1.895
0.000	-0.010	0.000	-0.005	-0.024	0.010	0.029	2.686	1.895	1.890	1.895	1.909	1.904	1.904
-0.005	0.005	0.000	0.000	-0.020	0.010	0.029	2.695	1.895	1.899	1.890	1.914	1.909	1.904
-0.005	0.005	-0.005	0.010	-0.010	0.010	0.029	2.686	1.895	1.895	1.895	1.914	1.909	1.909
0.000	0.010	-0.005	0.020	-0.015	-0.020	0.029	2.690	1.899	1.899	1.895	1.919	1.909	1.904
0.005	0.005	0.000	0.015	-0.005	0.010	0.029	2.690	1.899	1.895	1.895	1.914	1.914	1.914
-0.005	0.005	-0.005	0.010	0.000	-0.005	0.029	2.681	1.895	1.899	1.895	1.909	1.914	1.909
0.005	-0.015	0.000	0.015	0.005	0.000	0.029	2.686	1.899	1.890	1.895	1.914	1.914	1.909
0.015	-0.015	0.005	0.010	0.000	0.010	0.029	2.715	1.909	1.895	1.895	1.914	1.909	1.914
0.020	-0.010	-0.005	0.015	0.000	-0.005	0.029	2.666	1.909	1.899	1.895	1.914	1.909	1.909
0.015	-0.005	0.000	0.015	0.000	-0.010	0.029	2.661	1.904	1.904	1.895	1.914	1.909	1.909
0.010	0.000	0.005	0.000	0.005	-0.020	0.029	2.681	1.899	1.904	1.899	1.909	1.909	1.904
0.010	0.005	0.005	-0.005	0.000	0.010	0.029	2.686	1.899	1.899	1.899	1.909	1.909	1.914
0.010	0.010	0.000	-0.015	0.010	-0.010	0.029	2.676	1.895	1.899	1.895	1.904	1.909	1.904
-0.010	0.049	-0.005	-0.015	-0.005	0.000	0.029	2.681	1.895	1.909	1.899	1.914	1.904	1.909
0.000	0.044	0.000	-0.020	-0.005	0.010	0.029	2.671	1.895	1.904	1.899	1.909	1.904	1.909
0.000	0.020	0.000	-0.015	-0.005	0.005	0.029	2.646	1.909	1.899	1.899	1.914	1.909	1.904
-0.005	0.010	-0.010	-0.020	0.000	0.010	0.029	2.681	1.904	1.895	1.895	1.914	1.909	1.909
-0.005	0.005	-0.005	-0.020	0.005	-0.005	0.029	2.686	1.904	1.895	1.895	1.914	1.909	1.909
-0.005	-0.010	0.000	-0.010	0.005	-0.005	0.029	2.695	1.904	1.895	1.895	1.919	1.909	1.909
-0.005	-0.020	0.000	0.000	0.010	0.000	0.029	2.681	1.899	1.895	1.895	1.919	1.914	1.909
0.000	0.000	-0.005	0.005	0.005	0.000	0.029	2.690	1.904	1.904	1.895	1.919	1.914	1.909
-0.005	-0.010	0.000	0.000	0.000	0.005	0.029	2.661	1.899	1.904	1.899	1.914	1.914	1.909
0.005	-0.015	0.000	0.005	0.005	0.005	0.029	2.681	1.904	1.899	1.899	1.919	1.914	1.909
0.005	0.000	0.000	0.005	-0.005	-0.010	0.029	2.676	1.899	1.904	1.899	1.914	1.909	1.909
0.005	0.000	0.000	0.010	-0.010	0.005	0.024	2.681	1.899	1.899	1.899	1.919	1.909	1.914
-0.005	-0.005	0.005	0.024	-0.029	0.010	0.029	2.676	1.899	1.899	1.899	1.924	1.909	1.909
0.005	-0.005	0.005	0.015	-0.029	0.005	0.029	2.686	1.899	1.899	1.895	1.919	1.909	1.909
-0.005	-0.010	0.005	0.005	-0.015	-0.010	0.029	2.783	1.904	1.895	1.895	1.914	1.914	1.904
-0.005	-0.005	0.005	0.005	0.000	-0.005	0.024	2.681	1.904	1.899	1.899	1.914	1.919	1.909
-0.005	0.005	0.000	0.005	0.015	-0.005	0.029	2.681	1.904	1.904	1.899	1.914	1.919	1.914
0.000	0.015	0.000	-0.010	0.039	0.005	0.029	2.686	1.899	1.904	1.899	1.914	1.919	1.919
-0.005	0.010	-0.005	0.005	0.054	0.005	0.029	2.700	1.904	1.904	1.899	1.919	1.924	1.919
0.000	0.000	-0.005	0.005	0.054	0.000	0.029	2.690	1.904	1.899	1.899	1.919	1.919	1.919
-0.005	0.015	0.005	0.005	0.039	-0.015	0.029	2.681	1.904	1.904	1.904	1.919	1.914	1.914
-0.005	0.010	0.005	0.010	0.015	0.000	0.024	2.686	1.904	1.904	1.904	1.919	1.909	1.914
-0.005	0.015	0.010	0.010	-0.005	-0.005	0.029	2.681	1.899	1.904	1.904	1.919	1.909	1.914
-0.005	0.005	0.010	0.005	-0.024	0.000	0.029	2.690	1.904	1.899	1.899	1.919	1.904	1.909
0.000	0.005	0.000	0.010	-0.034	-0.005	0.029	2.666	1.904	1.904	1.899	1.919	1.904	1.909
0.015	0.010	0.000	0.010	-0.029	0.005	0.029	2.676	1.899	1.899	1.904	1.919	1.909	1.909
0.015	-0.005	0.000	0.005	-0.020	0.010	0.029	2.686	1.899	1.899	1.899	1.919	1.914	1.909
-0.005	-0.010	0.005	0.010	0.000	0.010	0.029	2.661	1.899	1.899	1.895	1.919	1.919	1.914
0.000	-0.015	0.000	0.000	0.015	0.010	0.029	2.671	1.895	1.895	1.895	1.914	1.919	1.919
0.010	-0.029	0.010	0.000	0.015	0.005	0.029	2.686	1.899	1.895	1.895	1.914	1.919	1.914
0.015	-0.020	0.005	0.000	0.024	0.005	0.029	2.686	1.904	1.895	1.895	1.914	1.914	1.914
0.015	0.000	0.000	-0.010	0.015	0.010	0.029	2.676	1.904	1.904	1.895	1.909	1.914	1.914
0.000	0.000	0.000	-0.015	0.015	0.000	0.024	2.686	1.899	1.899	1.895	1.909	1.909	1.909
0.015	-0.015	-0.005	-0.015	-0.005	0.010	0.029	2.744	1.899	1.895	1.895	1.914	1.904	1.909
0.005	0.005	0.000	-0.010	-0.020	-0.005	0.029	2.656	1.895	1.899	1.895	1.909	1.899	1.904
0.010	0.015	0.000	-0.005	-0.010	-0.005	0.029	2.681	1.895	1.899	1.899	1.914	1.904	1.909
0.000	0.015	0.000	-0.010	-0.010	0.005	0.024	2.681	1.899	1.895	1.899	1.914	1.904	1.909
0.000	0.015	0.005	-0.005	-0.005	0.005	0.024	2.676	1.895	1.895	1.899	1.919	1.909	1.909
-0.005	0.005	0.000	-0.010	-0.005	0.005	0.024	2.681	1.895	1.895	1.899	1.914	1.909	1.909
-0.005	0.010	0.005	-0.005	-0.005	-0.024	0.029	2.676	1.895	1.899	1.899	1.914	1.909	1.904
-0.010	0.005	0.000	-0.005	0.005	-0.020	0.029	2.681	1.899	1.895	1.895	1.914	1.914	1.909
-0.010	-0.005	-0.005	-0.005	0.000	-0.005	0.029	2.808	1.909	1.895	1.895	1.914	1.909	1.914
-0.010	-0.010	0.005	-0.005	0.000	0.000	0.029	2.681	1.904	1.895	1.895	1.914	1.909	1.914
-0.005	0.000	0.000	-0.010	0.000	0.015	0.029	2.671	1.904	1.899	1.899	1.914	1.909	1.919
0.005	0.005	-0.005	-0.005	0.000	0.005	0.029	2.671	1.909	1.904	1.895	1.914	1.909	1.914
0.005	-0.020	0.000	0.005	0.005	0.005	0.029	2.671	1.899	1.899	1.899	1.919	1.914	1.914
0.000	-0.024	0.000	0.024	0.010	0.005	0.029	2.681	1.895	1.895	1.895	1.924	1.919	1.914
0.005	0.000	0.005	0.020	0.005	-0.015	0.029	2.676	1.899	1.899	1.899	1.919	1.914	1.909
0.005	-0.005	0.000	0.020	0.000	-0.005	0.029	2.661	1.895	1.899	1.899	1.919	1.914	1.909
0.010	-0.005	0.005	0.020	0.000	0.005	0.029	2.686	1.899	1.899	1.899	1.919	1.914	1.919
0.010	0.000	0.000	0.015	0.005	0.005	0.024	2.681	1.899	1.899	1.895	1.919	1.914	1.914
0.000	0.000	0.000	0.010	0.010	-0.010	0.029	2.671	1.904	1.899	1.895	1.914	1.914	1.909
0.005	0.020	0.000	0.005	0.005	0.005	0.029	2.671	1.904	1.904	1.899	1.914	1.909	1.914
0.005	0.010	0.000	0.005	0.010	0.005	0.029	2.690	1.899	1.899	1.899	1.914	1.914	1.914
-0.005	0.005	-0.005	-0.005	0.000	0.005	0.029	2.671	1.899	1.899	1.895	1.909	1.909	1.909
-0.015	0.015	0.000	-0.005	0.005	-0.010	0.024	2.676	1.899	1.899	1.899	1.914	1.909	1.909
-0.005	-0.029	-0.005	-0.005	0.005	0.005	0.029	2.676	1.899	1.890	1.895	1.914	1.909	1.914
-0.015	-0.020	-0.005	0.000	-0.005	-0.010	0.029	2.671	1.895	1.895	1.895	1.914	1.909	1.909
-0.010	0.005	-0.005	0.000	0.005	-0.020	0.029	2.671	1.904	1.899	1.895	1.914	1.909	1.909
-0.005	0.005	0.005	-0.010	0.005	0.005	0.029	2.676	1.899	1.899	1.899	1.909	1.909	1.914
0.010	0.000	-0.005	-0.010	0.005	0.005	0.024	2.690	1.909	1.899	1.895	1.914	1.904	1.914
-0.005	-0.005	0.000	-0.015	0.005	0.000	0.024	2.686	1.899	1.899	1.899	1.914	1.909	1.909
-0.005	0.015	0.005	-0.015	0.000	-0.005	0.029	2.671	1.899	1.904	1.899	1.914	1.909	1.909
0.015	0.039	0.000	-0.005	0.005	0.010	0.029	2.681	1.909	1.909	1.904	1.919	1.909	1.914
0.010	0.029	0.000	-0.010	0.005	0.020	0.029	2.676	1.904	1.904	1.899	1.919	1.909	1.914
0.015	0.034	0.005	-0.010	0.010	0.010	0.029	2.681	1.904	1.904	1.904	1.919	1.914	1.909
0.000	-0.020	0.000	-0.005	0.005	0.010	0.029	2.676	1.895	1.885	1.899	1.914	1.909	1.914
0.000	-0.054	0.000	0.000	-0.005	-0.029	0.029	2.676	1.895	1.880	1.890	1.919	1.909	1.899
-0.005	-0.010	0.005	0.000	0.000	-0.029	0.029	2.681	1.899	1.895	1.895	1.914	1.909	1.904
0.000	0.015	0.005	-0.005	0.000	0.000	0.029	2.686	1.899	1.899	1.899	1.914	1.909	1.914
0.000	0.020	0.005	0.000	-0.005	-0.015	0.029	2.676	1.899	1.904	1.899	1.914	1.909	1.909
-0.010	0.005	0.000	0.010	0.005	-0.005	0.024	2.686	1.895	1.895	1.895	1.919	1.914	1.914
-0.005	-0.005	0.005	0.015	-0.005	0.005	0.029	2.681	1.899	1.895	1.895	1.919	1.914	1.914
-0.010	-0.005	0.000	0.020	0.000	0.015	0.029	2.764	1.909	1.899	1.895	1.919	1.914	1.919
-0.005	-0.015	0.000	0.024	-0.005	0.010	0.029	2.681	1.909	1.899	1.895	1.919	1.914	1.914
0.000	-0.005	0.000	0.034	-0.005	-0.005	0.029	2.686	1.909	1.904	1.899	1.919	1.914	1.909
0.000	0.020	0.000	0.024	0.000	-0.005	0.024	2.686	1.909	1.909	1.899	1.919	1.914	1.909
0.010	0.015	0.005	0.020	0.000	-0.010	0.029	2.666	1.909	1.909	1.904	1.914	1.914	1.909
0.005	0.000	0.005	0.015	0.010	0.010	0.029	2.661	1.899	1.904	1.899	1.919	1.919	1.919
0.005	-0.005	0.000	0.015	0.000	0.005	0.029	2.681	1.899	1.899	1.899	1.919	1.914	1.914
0.010	0.000	0.015	0.010	-0.005	0.005	0.029	2.686	1.904	1.899	1.899	1.919	1.909	1.914
0.015	-0.010	0.000	0.010	0.000	-0.005	0.029	2.632	1.895	1.895	1.899	1.919	1.914	1.909
0.015	-0.010	0.000	0.005	0.000	0.015	0.024	2.690	1.899	1.895	1.895	1.914	1.909	1.914
0.010	-0.005	0.005	0.000	-0.005	0.010	0.029	2.681	1.899	1.895	1.895	1.909	1.909	1.914
0.010	0.000	0.000	0.000	0.000	0.015	0.029	2.686	1.899	1.899	1.895	1.909	1.909	1.914
-0.010	0.020	0.000	-0.005	0.010	0.010	0.029	2.686	1.895	1.899	1.899	1.909	1.909	1.914
-0.005	0.005	0.005	-0.015	0.005	-0.005	0.029	2.681	1.899	1.899	1.899	1.909	1.909	1.909
0.005	0.010	0.000	-0.015	0.005	0.005	0.024	2.676	1.899	1.899	1.895	1.909	1.909	1.909
0.000	0.010	-0.005	-0.010	0.010	0.005	0.029	2.681	1.899	1.899	1.895	1.914	1.909	1.909
0.000	0.005	-0.005	-0.015	0.005	0.000	0.029	2.671	1.899	1.899	1.895	1.914	1.909	1.909
-0.010	-0.005	-0.010	-0.010	0.005	-0.005	0.029	2.661	1.895	1.890	1.890	1.914	1.909	1.909
-0.010	0.010	-0.010	-0.015	0.000	-0.005	0.029	2.690	1.895	1.899	1.895	1.914	1.909	1.904
-0.005	0.034	-0.005	-0.015	0.010	-0.010	0.029	2.671	1.899	1.904	1.899	1.914	1.909	1.909
0.000	0.000	0.000	-0.015	0.010	0.000	0.024	2.637	1.895	1.895	1.895	1.914	1.909	1.909
0.005	-0.015	0.005	-0.005	0.005	0.005	0.029	2.671	1.899	1.895	1.895	1.914	1.909	1.909
0.000	-0.005	0.005	-0.005	0.005	0.000	0.029	2.681	1.899	1.895	1.895	1.919	1.914	1.909
0.015	-0.049	0.015	0.010	0.000	0.000	0.029	2.676	1.899	1.885	1.895	1.919	1.909	1.909
0.010	-0.054	0.010	0.000	0.000	-0.020	0.029	2.690	1.899	1.885	1.890	1.914	1.909	1.904
0.010	-0.044	0.005	-0.005	0.000	0.005	0.029	2.686	1.899	1.890	1.890	1.909	1.909	1.909
0.015	-0.015	0.000	-0.010	0.000	-0.005	0.029	2.671	1.899	1.899	1.890	1.904	1.909	1.904
0.005	0.010	0.005	0.000	-0.010	0.010	0.029	2.671	1.895	1.909	1.895	1.909	1.904	1.909
0.005	0.044	0.005	0.005	0.000	0.005	0.029	2.686	1.899	1.914	1.899	1.914	1.909	1.909
-0.005	0.073	0.005	0.015	0.005	0.005	0.024	2.681	1.899	1.919	1.904	1.919	1.909	1.909
-0.010	0.083	0.000	0.015	0.010	0.005	0.029	2.686	1.895	1.914	1.909	1.919	1.914	1.909
-0.005	0.073	0.005	0.010	0.005	0.000	0.029	2.681	1.899	1.909	1.909	1.924	1.914	1.914
-0.005	0.083	-0.005	0.005	0.005	-0.015	0.029	2.686	1.899	1.904	1.904	1.919	1.914	1.904
-0.010	-0.010	-0.005	0.010	0.010	0.010	0.029	2.681	1.899	1.880	1.895	1.919	1.919	1.914
-0.005	-0.034	-0.005	0.005	0.010	-0.015	0.029	2.671	1.899	1.880	1.890	1.914	1.919	1.909
-0.005	-0.034	0.005	0.000	0.005	0.005	0.024	2.686	1.899	1.885	1.890	1.914	1.914	1.914
0.000	-0.029	0.005	-0.010	0.000	0.015	0.029	2.686	1.904	1.890	1.890	1.909	1.909	1.914
0.005	-0.029	0.005	-0.010	0.005	0.000	0.029	2.676	1.904	1.895	1.890	1.909	1.909	1.914
0.000	-0.024	0.005	0.000	0.010	0.005	0.029	2.676	1.899	1.899	1.890	1.909	1.909	1.909
0.005	-0.015	0.005	0.000	0.005	0.005	0.024	2.686	1.895	1.899	1.895	1.909	1.909	1.909
0.005	-0.015	-0.010	0.005	0.010	0.000	0.024	2.627	1.890	1.895	1.890	1.914	1.909	1.909
0.005	-0.015	-0.005	0.015	0.010	0.000	0.029	2.666	1.895	1.899	1.895	1.914	1.909	1.909
0.000	-0.005	0.005	0.005	0.010	-0.005	0.029	2.681	1.895	1.899	1.895	1.914	1.904	1.904
0.005	0.000	0.000	0.010	0.010	-0.010	0.029	2.666	1.895	1.899	1.895	1.914	1.909	1.904
0.005	0.015	0.005	0.000	0.000	0.005	0.029	2.686	1.895	1.899	1.895	1.909	1.909	1.909
0.000	-0.005	-0.005	0.005	0.005	0.005	0.029	2.681	1.895	1.895	1.895	1.909	1.909	1.909
0.000	-0.039	-0.005	0.000	0.010	0.000	0.029	2.666	1.890	1.880	1.885	1.909	1.909	1.904
0.005	-0.049	-0.010	-0.005	0.010	-0.005	0.029	2.690	1.895	1.880	1.885	1.904	1.904	1.904
-0.005	-0.020	-0.005	0.000	0.005	0.005	0.024	2.788	1.890	1.895	1.890	1.909	1.904	1.909
0.010	-0.024	0.000	0.005	0.005	-0.010	0.029	2.656	1.895	1.895	1.890	1.909	1.904	1.904
-0.005	-0.015	-0.005	0.005	0.000	0.000	0.029	2.686	1.890	1.895	1.890	1.909	1.904	1.904
0.000	0.005	-0.005	0.005	0.005	0.000	0.029	2.793	1.909	1.904	1.895	1.914	1.904	1.904
-0.005	0.054	-0.005	0.010	0.005	-0.005	0.029	2.651	1.904	1.924	1.904	1.914	1.909	1.909
0.000	0.103	-0.005	0.010	0.005	0.005	0.029	2.637	1.899	1.924	1.909	1.919	1.909	1.909
-0.005	0.063	-0.005	0.010	0.005	-0.020	0.024	2.729	1.899	1.909	1.904	1.919	1.909	1.899
0.005	0.054	0.005	0.000	0.005	0.000	0.024	2.651	1.895	1.904	1.904	1.919	1.909	1.914
0.010	0.000	0.000	-0.010	0.005	-0.010	0.029	2.729	1.885	1.880	1.899	1.914	1.909	1.909
-0.005	-0.015	0.010	-0.015	0.010	-0.015	0.029	2.729	1.895	1.880	1.890	1.909	1.909	1.904
0.005	-0.029	0.015	-0.015	0.005	0.000	0.029	2.627	1.890	1.875	1.890	1.909	1.909	1.909
-0.005	-0.049	0.015	-0.010	0.005	0.015	0.029	2.734	1.895	1.880	1.885	1.914	1.909	1.914
0.015	-0.039	0.010	0.000	0.000	-0.005	0.029	2.720	1.904	1.885	1.880	1.909	1.909	1.904
0.010	-0.039	0.000	-0.005	0.000	-0.010	0.029	2.729	1.904	1.890	1.880	1.904	1.904	1.904
0.010	-0.024	-0.005	-0.005	0.000	0.010	0.024	2.642	1.904	1.899	1.885	1.904	1.904	1.909
0.015	0.005	-0.005	-0.010	0.005	0.010	0.029	2.632	1.904	1.914	1.890	1.904	1.904	1.909
-0.010	0.059	0.000	-0.010	0.005	0.015	0.029	2.661	1.899	1.919	1.899	1.909	1.904	1.909
0.000	0.015	-0.010	-0.005	0.005	0.005	0.029	2.695	1.899	1.899	1.899	1.914	1.904	1.909
0.000	0.010	-0.005	0.005	0.005	-0.005	0.029	2.642	1.895	1.899	1.895	1.914	1.909	1.904
-0.005	0.015	0.005	0.020	0.005	0.000	0.029	2.651	1.895	1.899	1.904	1.924	1.909	1.904
-0.010	0.044	0.015	0.024	0.005	0.010	0.029	2.646	1.895	1.904	1.904	1.924	1.914	1.909
0.000	0.029	0.015	0.034	0.010	-0.015	0.029	2.676	1.890	1.895	1.904	1.924	1.919	1.904
0.005	-0.034	0.000	0.044	0.010	0.010	0.029	2.705	1.899	1.880	1.890	1.924	1.919	1.914
0.000	-0.034	0.000	0.029	0.005	-0.005	0.029	2.671	1.899	1.880	1.890	1.914	1.914	1.914
-0.005	-0.029	-0.005	0.015	0.005	0.010	0.029	2.715	1.899	1.890	1.885	1.909	1.914	1.914
0.010	-0.020	-0.005	0.010	0.000	0.000	0.029	2.822	1.914	1.899	1.890	1.904	1.904	1.914
0.000	-0.010	0.000	-0.039	-0.005	-0.010	0.029	2.656	1.904	1.899	1.890	1.895	1.899	1.899
0.005	-0.010	0.000	-0.039	0.005	0.000	0.029	2.725	1.909	1.899	1.890	1.895	1.899	1.904
0.000	-0.010	0.005	-0.020	0.005	0.005	0.029	2.725	1.909	1.904	1.895	1.909	1.899	1.904
0.010	-0.005	0.005	0.000	0.005	0.015	0.029	2.749	1.914	1.904	1.899	1.914	1.904	1.909
0.015	-0.024	0.000	0.005	0.015	0.010	0.029	2.749	1.909	1.904	1.899	1.919	1.909	1.909
0.000	-0.020	0.000	0.024	0.015	0.010	0.029	2.729	1.914	1.904	1.899	1.924	1.914	1.909
-0.010	-0.015	0.000	0.029	0.010	0.010	0.029	2.671	1.904	1.904	1.904	1.924	1.914	1.909
-0.010	-0.005	-0.005	0.015	0.015	-0.010	0.029	2.695	1.899	1.904	1.899	1.919	1.914	1.909
-0.005	-0.005	0.000	0.015	0.015	-0.005	0.029	2.700	1.904	1.909	1.904	1.919	1.914	1.909
0.000	0.020	-0.005	0.005	0.010	0.005	0.029	2.666	1.899	1.914	1.904	1.914	1.914	1.914
-0.015	0.049	0.000	-0.010	0.020	0.005	0.029	2.676	1.899	1.914	1.909	1.914	1.914	1.914
-0.005	0.044	0.005	-0.024	0.024	-0.010	0.029	2.671	1.899	1.909	1.909	1.914	1.914	1.909
0.000	0.088	-0.005	-0.024	0.015	-0.010	0.029	2.695	1.904	1.919	1.909	1.919	1.914	1.909
-0.005	0.015	0.000	-0.020	0.015	0.015	0.029	2.681	1.899	1.895	1.904	1.919	1.914	1.919
0.000	-0.039	0.000	-0.024	0.015	0.005	0.029	2.690	1.899	1.880	1.895	1.919	1.914	1.914
0.000	-0.039	0.005	-0.029	0.024	0.010	0.029	2.695	1.899	1.885	1.895	1.914	1.914	1.914
0.010	-0.029	0.005	-0.024	0.034	0.005	0.029	2.681	1.899	1.890	1.890	1.914	1.914	1.919
-0.005	-0.020	-0.005	-0.020	0.034	0.000	0.029	2.705	1.904	1.895	1.890	1.914	1.914	1.914
-0.005	-0.010	0.000	-0.010	0.044	0.000	0.029	2.700	1.904	1.899	1.895	1.919	1.914	1.914
-0.010	-0.005	0.000	0.015	0.059	0.010	0.029	2.705	1.904	1.904	1.895	1.924	1.924	1.919
0.005	0.024	0.005	0.034	0.063	0.005	0.029	2.676	1.904	1.909	1.904	1.929	1.924	1.919
0.005	0.029	0.005	0.039	0.059	0.000	0.029	2.666	1.904	1.909	1.904	1.929	1.924	1.919
0.005	0.010	0.010	0.039	0.063	0.000	0.029	2.676	1.899	1.904	1.904	1.924	1.924	1.919
0.010	0.024	0.005	0.029	0.068	-0.005	0.029	2.676	1.904	1.909	1.904	1.924	1.924	1.919
0.010	0.015	0.005	0.039	0.059	-0.005	0.029	2.671	1.899	1.899	1.899	1.924	1.919	1.919
0.010	0.000	0.000	0.034	0.054	0.005	0.029	2.705	1.904	1.899	1.899	1.924	1.919	1.919
-0.005	-0.005	0.000	0.000	0.044	-0.020	0.029	2.700	1.904	1.899	1.895	1.909	1.909	1.909
-0.005	0.024	-0.005	0.000	0.034	0.000	0.029	2.695	1.904	1.909	1.899	1.914	1.909	1.914
-0.020	0.005	-0.010	-0.005	0.024	0.000	0.029	2.686	1.899	1.899	1.895	1.909	1.904	1.909
-0.015	-0.010	-0.010	-0.010	0.015	0.005	0.024	2.676	1.904	1.895	1.895	1.909	1.904	1.909
-0.005	-0.015	-0.005	-0.015	0.000	0.005	0.029	2.622	1.899	1.899	1.895	1.909	1.899	1.904
-0.005	-0.024	-0.005	-0.024	0.005	0.005	0.029	2.681	1.899	1.895	1.895	1.909	1.899	1.904
-0.005	-0.015	0.000	-0.024	0.005	0.010	0.024	2.778	1.909	1.904	1.899	1.909	1.904	1.909
-0.005	-0.005	0.010	-0.015	0.000	-0.010	0.029	2.651	1.909	1.904	1.899	1.914	1.899	1.899
0.005	0.000	0.015	-0.010	-0.005	-0.010	0.029	2.646	1.899	1.904	1.904	1.914	1.904	1.899
0.005	0.010	0.015	-0.010	-0.020	0.000	0.029	2.690	1.904	1.904	1.904	1.919	1.904	1.904
0.010	0.010	0.005	-0.005	-0.029	-0.015	0.029	2.739	1.904	1.904	1.899	1.919	1.904	1.899
0.010	0.015	0.005	-0.005	-0.039	0.005	0.029	2.700	1.909	1.909	1.899	1.919	1.904	1.904
0.005	0.020	0.000	0.005	-0.044	0.005	0.029	2.720	1.904	1.909	1.904	1.924	1.909	1.904
-0.010	0.005	-0.005	-0.005	-0.059	0.005	0.029	2.817	1.914	1.904	1.899	1.919	1.904	1.904
-0.015	-0.005	-0.005	-0.005	-0.063	0.005	0.029	2.739	1.914	1.899	1.899	1.919	1.904	1.909
-0.020	-0.005	-0.010	0.000	-0.073	0.010	0.029	2.715	1.899	1.904	1.899	1.919	1.909	1.909
0.044	-0.024	-0.005	0.005	-0.073	0.020	0.029	2.715	1.924	1.904	1.904	1.919	1.909	1.909
0.063	-0.015	0.000	0.005	-0.083	0.010	0.024	2.637	1.909	1.909	1.904	1.924	1.909	1.909
0.029	-0.005	-0.005	-0.005	-0.073	-0.015	0.024	2.749	1.904	1.909	1.904	1.919	1.914	1.904
0.005	-0.020	0.005	-0.010	-0.083	0.005	0.024	2.744	1.909	1.904	1.904	1.919	1.909	1.909
-0.005	-0.010	-0.005	-0.015	-0.083	0.010	0.024	2.637	1.895	1.904	1.899	1.919	1.909	1.909
-0.015	-0.015	0.005	-0.015	-0.083	0.000	0.029	2.676	1.895	1.899	1.899	1.919	1.909	1.909
-0.005	-0.015	0.005	-0.010	-0.093	0.005	0.029	2.656	1.890	1.899	1.899	1.919	1.909	1.914
-0.024	0.005	0.005	-0.005	-0.083	0.010	0.024	2.656	1.890	1.899	1.904	1.924	1.914	1.909
-0.015	0.005	-0.005	0.010	-0.083	0.005	0.024	2.661	1.890	1.899	1.895	1.924	1.919	1.909
-0.024	0.005	0.000	0.024	-0.073	-0.020	0.029	2.671	1.885	1.895	1.895	1.924	1.919	1.909
-0.029	0.000	0.010	0.029	-0.073	-0.005	0.029	2.695	1.895	1.890	1.895	1.924	1.919	1.914
-0.010	-0.005	0.010	0.039	-0.073	0.015	0.029	2.700	1.904	1.890	1.895	1.924	1.919	1.924
0.000	0.000	0.010	0.029	-0.068	0.000	0.029	2.666	1.904	1.895	1.895	1.919	1.919	1.924
0.005	0.005	0.010	0.024	-0.063	0.005	0.024	2.710	1.909	1.899	1.895	1.919	1.919	1.919
0.015	0.005	0.015	0.020	-0.063	-0.005	0.024	2.690	1.909	1.904	1.895	1.914	1.914	1.919
0.005	0.005	0.005	0.010	-0.049	0.000	0.029	2.705	1.909	1.904	1.895	1.914	1.914	1.914
0.010	0.010	-0.010	0.005	-0.049	0.005	0.029	2.700	1.909	1.909	1.895	1.909	1.914	1.914
0.010	0.015	-0.005	-0.010	-0.044	0.000	0.029	2.666	1.904	1.909	1.899	1.909	1.909	1.914
0.000	0.015	0.000	-0.020	-0.044	-0.010	0.024	2.671	1.899	1.904	1.899	1.909	1.909	1.914
0.000	0.015	-0.005	-0.024	-0.039	0.010	0.029	2.690	1.904	1.904	1.899	1.909	1.909	1.914
0.015	0.010	-0.005	-0.015	-0.029	0.000	0.029	2.676	1.904	1.904	1.899	1.914	1.909	1.914
0.005	0.000	0.000	-0.005	-0.024	0.005	0.029	2.700	1.904	1.904	1.899	1.919	1.914	1.914
0.020	0.000	0.005	0.000	-0.020	0.000	0.029	2.666	1.904	1.909	1.904	1.924	1.919	1.914
0.010	0.010	0.000	-0.005	-0.024	0.000	0.029	2.671	1.904	1.904	1.904	1.919	1.914	1.914
0.010	0.005	0.005	-0.005	-0.020	0.005	0.029	2.705	1.904	1.899	1.899	1.919	1.919	1.914
0.015	-0.005	0.005	-0.005	-0.010	0.005	0.024	2.695	1.904	1.899	1.904	1.919	1.919	1.914
0.005	-0.015	0.010	-0.010	-0.015	-0.010	0.029	2.681	1.899	1.895	1.899	1.914	1.914	1.909
0.015	-0.024	0.015	-0.010	-0.015	-0.010	0.029	2.681	1.899	1.895	1.899	1.914	1.914	1.914
0.005	-0.015	0.000	-0.005	-0.010	0.000	0.029	2.637	1.890	1.895	1.895	1.914	1.914	1.919
0.000	-0.010	0.000	-0.010	-0.010	0.000	0.029	2.686	1.895	1.895	1.895	1.914	1.914	1.914
-0.005	-0.005	0.000	-0.010	-0.005	0.000	0.029	2.783	1.909	1.899	1.895	1.914	1.914	1.914
0.000	-0.005	-0.005	0.000	-0.010	-0.010	0.029	2.661	1.904	1.899	1.895	1.914	1.914	1.914
0.010	0.005	0.000	0.010	0.000	0.000	0.029	2.637	1.899	1.904	1.899	1.919	1.919	1.919
0.015	0.024	-0.005	0.020	0.005	0.005	0.024	2.681	1.904	1.909	1.899	1.919	1.919	1.919
0.000	0.039	-0.010	0.029	0.010	0.010	0.029	2.661	1.899	1.909	1.904	1.924	1.919	1.919
-0.010	0.024	-0.005	0.029	0.005	0.015	0.024	2.695	1.895	1.899	1.904	1.924	1.919	1.924
-0.015	0.005	0.000	0.010	0.005	-0.005	0.029	2.715	1.899	1.895	1.899	1.919	1.914	1.914
-0.005	0.015	0.000	0.000	0.000	0.010	0.029	2.705	1.899	1.899	1.899	1.914	1.914	1.919
-0.005	0.024	0.005	-0.015	0.000	0.015	0.029	2.642	1.895	1.899	1.899	1.909	1.914	1.919
0.010	0.000	0.005	-0.020	0.005	0.015	0.029	2.612	1.895	1.890	1.895	1.909	1.914	1.919
0.049	-0.015	0.010	-0.015	0.010	0.010	0.029	2.739	1.914	1.895	1.895	1.914	1.909	1.914
0.039	-0.010	0.005	-0.005	0.005	-0.005	0.029	2.676	1.914	1.899	1.895	1.914	1.909	1.909
0.024	0.000	0.000	0.010	0.015	0.005	0.029	2.651	1.914	1.904	1.895	1.919	1.914	1.914
0.005	0.005	0.000	0.010	0.020	-0.020	0.029	2.754	1.914	1.904	1.899	1.919	1.914	1.904
-0.010	0.015	-0.005	0.024	0.015	0.010	0.029	2.661	1.899	1.909	1.899	1.919	1.914	1.919
-0.044	0.015	-0.015	0.015	0.020	-0.005	0.029	2.671	1.890	1.899	1.895	1.914	1.914	1.914
-0.054	0.005	-0.015	0.020	0.020	0.010	0.029	2.695	1.890	1.895	1.895	1.919	1.914	1.919
-0.029	0.000	-0.015	0.020	0.024	0.000	0.029	2.671	1.904	1.895	1.899	1.914	1.914	1.919
-0.015	0.029	-0.015	0.015	0.020	0.010	0.029	2.676	1.904	1.904	1.895	1.914	1.914	1.914
-0.020	0.000	-0.020	0.020	0.020	0.005	0.029	2.666	1.899	1.895	1.895	1.914	1.914	1.914
-0.015	0.005	-0.020	0.015	0.020	0.005	0.029	2.705	1.899	1.899	1.895	1.914	1.909	1.914
-0.005	0.005	-0.010	0.010	0.020	0.015	0.029	2.705	1.904	1.904	1.899	1.914	1.909	1.914
-0.005	0.010	-0.010	-0.010	0.024	0.010	0.029	2.690	1.904	1.899	1.899	1.909	1.909	1.914
0.005	-0.005	-0.015	-0.015	0.024	-0.020	0.029	2.695	1.914	1.899	1.895	1.909	1.909	1.904
0.034	-0.005	-0.005	-0.020	0.020	-0.020	0.029	2.700	1.919	1.904	1.899	1.909	1.909	1.909
0.034	-0.015	0.000	-0.015	0.020	0.005	0.029	2.690	1.904	1.904	1.899	1.914	1.909	1.909
0.034	-0.029	0.000	-0.010	0.015	0.005	0.024	2.705	1.909	1.899	1.899	1.919	1.909	1.909
0.044	-0.020	0.000	-0.010	0.015	0.000	0.029	2.695	1.909	1.904	1.899	1.919	1.909	1.909
0.024	-0.005	0.000	-0.010	0.015	-0.005	0.029	2.671	1.899	1.904	1.899	1.919	1.909	1.909
0.005	-0.010	-0.005	-0.015	0.010	0.000	0.029	2.666	1.895	1.899	1.899	1.914	1.909	1.909
-0.005	-0.010	0.010	-0.029	0.010	0.000	0.029	2.676	1.895	1.895	1.899	1.914	1.909	1.909
-0.024	-0.010	0.000	-0.029	0.005	0.005	0.029	2.690	1.895	1.895	1.895	1.914	1.909	1.909
-0.024	-0.010	-0.005	-0.044	0.010	-0.005	0.029	2.690	1.895	1.890	1.890	1.909	1.909	1.909
-0.024	-0.010	-0.010	-0.044	0.010	-0.005	0.029	2.695	1.899	1.895	1.895	1.909	1.904	1.909
-0.024	0.000	0.000	-0.020	0.015	-0.015	0.029	2.700	1.899	1.899	1.895	1.919	1.909	1.904
-0.020	0.005	0.005	0.010	0.029	0.020	0.029	2.671	1.904	1.904	1.904	1.929	1.919	1.919
-0.024	0.010	0.000	0.034	0.034	0.015	0.029	2.686	1.904	1.904	1.899	1.934	1.924	1.919
-0.005	0.024	0.000	0.068	0.024	0.015	0.029	2.681	1.914	1.909	1.899	1.938	1.924	1.919
0.010	0.029	-0.005	0.083	0.029	0.005	0.029	2.632	1.904	1.909	1.904	1.938	1.929	1.919
0.015	0.020	-0.005	0.083	0.029	0.000	0.029	2.681	1.904	1.904	1.904	1.934	1.929	1.924
-0.010	0.015	0.000	0.068	0.024	-0.005	0.029	2.783	1.909	1.904	1.904	1.924	1.924	1.924
0.005	0.010	0.000	0.049	0.020	0.000	0.029	2.642	1.904	1.899	1.904	1.919	1.919	1.924
-0.005	0.010	0.010	0.024	0.015	0.005	0.029	2.622	1.895	1.899	1.904	1.914	1.919	1.919
-0.005	-0.024	0.010	0.010	0.015	0.000	0.029	2.676	1.895	1.890	1.899	1.909	1.909	1.919
0.005	-0.034	0.005	-0.010	0.010	-0.024	0.029	2.729	1.909	1.890	1.895	1.904	1.904	1.909
0.029	-0.015	0.005	-0.024	0.015	0.005	0.029	2.695	1.909	1.899	1.895	1.904	1.904	1.914
0.024	-0.020	0.005	-0.029	0.010	0.005	0.029	2.710	1.895	1.895	1.895	1.899	1.904	1.909
0.024	-0.005	0.000	-0.029	0.015	-0.005	0.024	2.666	1.895	1.899	1.895	1.904	1.904	1.904
0.015	0.000	0.000	-0.029	0.010	0.000	0.024	2.646	1.890	1.899	1.895	1.909	1.904	1.909
0.005	0.010	0.000	-0.024	0.020	-0.015	0.029	2.637	1.880	1.895	1.895	1.909	1.904	1.904
0.000	0.010	0.000	-0.010	0.020	-0.015	0.029	2.715	1.890	1.895	1.895	1.914	1.909	1.904
-0.010	0.015	0.000	0.000	0.015	0.000	0.029	2.754	1.899	1.895	1.895	1.919	1.909	1.909
-0.005	0.020	-0.005	0.005	0.010	0.005	0.024	2.651	1.899	1.899	1.895	1.914	1.909	1.909
-0.010	0.010	0.015	0.015	0.015	0.005	0.024	2.744	1.904	1.899	1.899	1.919	1.909	1.909
-0.010	0.010	0.015	0.000	0.015	0.015	0.029	2.671	1.904	1.899	1.899	1.919	1.914	1.914
-0.015	0.000	0.005	-0.010	0.010	0.005	0.029	2.671	1.899	1.895	1.895	1.909	1.909	1.909
-0.005	0.000	-0.005	-0.020	0.020	-0.010	0.024	2.695	1.904	1.895	1.890	1.904	1.909	1.904
-0.005	-0.005	0.000	-0.020	0.015	0.000	0.029	2.676	1.904	1.899	1.895	1.909	1.909	1.909
-0.005	0.000	0.000	-0.020	0.005	0.005	0.029	2.676	1.904	1.895	1.890	1.909	1.904	1.909
-0.005	-0.010	-0.005	-0.015	0.010	0.005	0.029	2.671	1.899	1.895	1.890	1.909	1.904	1.909
0.000	-0.015	-0.005	-0.010	0.005	-0.005	0.029	2.671	1.899	1.895	1.895	1.914	1.904	1.904
0.015	-0.020	0.000	-0.005	0.010	0.010	0.029	2.705	1.904	1.899	1.890	1.914	1.909	1.909
0.024	-0.010	0.000	0.005	0.005	0.010	0.029	2.671	1.904	1.899	1.895	1.919	1.909	1.909
0.029	-0.010	0.010	0.015	0.005	0.010	0.029	2.705	1.914	1.904	1.899	1.919	1.909	1.909
0.044	0.000	0.015	0.024	0.010	0.005	0.029	2.671	1.909	1.909	1.899	1.924	1.914	1.909
0.029	0.005	0.010	0.024	0.010	-0.005	0.029	2.676	1.899	1.904	1.899	1.919	1.914	1.909
0.005	0.010	0.000	0.015	0.010	-0.010	0.029	2.705	1.895	1.899	1.899	1.919	1.914	1.909
-0.010	0.015	0.015	0.010	0.005	0.000	0.029	2.681	1.895	1.904	1.899	1.914	1.914	1.909
-0.020	0.005	0.005	0.020	0.000	0.000	0.029	2.661	1.895	1.899	1.895	1.919	1.914	1.914
-0.015	0.010	0.000	0.010	0.010	-0.005	0.024	2.700	1.899	1.895	1.895	1.919	1.909	1.909
-0.020	0.010	0.000	0.005	0.005	-0.020	0.029	2.681	1.899	1.895	1.895	1.914	1.909	1.909
-0.015	0.005	-0.010	0.000	0.005	0.005	0.029	2.671	1.899	1.899	1.890	1.909	1.909	1.914
0.000	0.000	-0.010	-0.005	0.010	0.005	0.024	2.695	1.904	1.899	1.895	1.909	1.909	1.914
-0.015	0.000	-0.005	-0.015	0.005	0.010	0.029	2.676	1.899	1.895	1.890	1.909	1.909	1.914
-0.024	-0.005	0.000	-0.010	0.000	0.010	0.029	2.690	1.899	1.895	1.895	1.909	1.904	1.914
-0.015	0.005	0.010	-0.010	0.010	0.005	0.029	2.695	1.904	1.899	1.899	1.914	1.909	1.914
-0.020	-0.010	0.010	-0.010	0.000	0.010	0.029	2.686	1.904	1.895	1.895	1.914	1.904	1.909
0.015	-0.010	0.010	-0.010	0.000	0.010	0.029	2.676	1.909	1.899	1.899	1.914	1.909	1.909
0.015	0.010	0.010	0.015	0.000	0.010	0.024	2.642	1.899	1.904	1.904	1.924	1.909	1.909
0.015	0.005	0.010	0.024	0.005	0.005	0.024	2.690	1.899	1.904	1.904	1.924	1.914	1.909
0.024	0.000	0.005	0.020	0.005	0.005	0.029	2.773	1.890	1.895	1.899	1.919	1.914	1.909
0.015	-0.005	0.000	0.020	0.000	0.010	0.029	2.651	1.885	1.890	1.890	1.919	1.914	1.914
-0.005	0.010	-0.005	0.015	0.005	-0.015	0.029	2.744	1.895	1.895	1.890	1.914	1.914	1.904
0.000	0.049	0.000	0.005	0.010	0.000	0.029	2.676	1.899	1.909	1.899	1.909	1.909	1.909
0.010	0.034	0.005	-0.010	0.000	0.010	0.024	2.637	1.895	1.899	1.895	1.909	1.909	1.914
0.010	-0.020	-0.005	-0.020	0.000	0.010	0.029	2.690	1.895	1.880	1.890	1.904	1.904	1.909
-0.010	-0.039	-0.010	-0.034	0.005	-0.005	0.029	2.734	1.899	1.880	1.880	1.899	1.904	1.904
-0.010	-0.039	0.000	-0.029	0.005	0.010	0.029	2.832	1.919	1.890	1.885	1.904	1.904	1.909
-0.005	-0.020	0.005	-0.020	0.005	-0.015	0.024	2.725	1.919	1.904	1.895	1.909	1.904	1.899
0.000	-0.010	0.000	0.000	0.005	0.020	0.029	2.622	1.909	1.909	1.899	1.919	1.904	1.909
-0.005	0.010	-0.005	0.010	0.005	0.010	0.029	2.627	1.899	1.914	1.899	1.919	1.909	1.909
0.000	-0.024	-0.005	0.005	0.005	-0.005	0.029	2.734	1.904	1.899	1.895	1.914	1.909	1.904
0.010	-0.020	0.000	-0.005	0.005	-0.015	0.029	2.642	1.904	1.904	1.899	1.914	1.909	1.904
0.015	0.103	0.005	0.015	0.010	0.010	0.029	2.734	1.914	1.943	1.914	1.929	1.914	1.914
0.010	0.103	0.010	0.024	0.005	0.005	0.029	2.642	1.899	1.924	1.914	1.929	1.919	1.909
0.010	0.034	0.005	0.015	0.000	0.010	0.029	2.690	1.899	1.899	1.909	1.924	1.919	1.914
0.005	-0.010	0.005	0.005	0.005	0.000	0.029	2.705	1.895	1.885	1.899	1.919	1.914	1.909
0.010	-0.015	0.005	0.010	0.000	-0.005	0.029	2.686	1.895	1.885	1.895	1.924	1.914	1.909
0.000	-0.005	0.005	0.005	0.005	0.010	0.024	2.700	1.895	1.890	1.895	1.914	1.919	1.919
0.000	-0.020	0.010	0.005	0.005	0.005	0.029	2.666	1.899	1.890	1.895	1.914	1.914	1.914
-0.005	-0.005	0.005	0.010	0.010	0.005	0.029	2.671	1.890	1.895	1.890	1.914	1.914	1.914
-0.005	-0.020	0.010	0.005	0.000	0.005	0.029	2.671	1.895	1.890	1.890	1.914	1.909	1.914
-0.010	-0.020	-0.005	0.010	0.005	-0.005	0.024	2.710	1.899	1.890	1.890	1.914	1.909	1.909
-0.015	-0.015	0.000	0.010	0.000	0.010	0.029	2.705	1.899	1.895	1.890	1.909	1.909	1.914
-0.010	-0.015	-0.005	0.024	0.000	0.005	0.029	2.710	1.904	1.899	1.890	1.914	1.909	1.909
0.000	0.005	0.000	0.005	0.005	0.005	0.029	2.710	1.914	1.909	1.895	1.909	1.909	1.909
0.000	0.024	0.000	-0.020	0.005	0.005	0.029	2.710	1.914	1.914	1.899	1.904	1.904	1.909
-0.005	0.054	0.000	-0.024	0.010	0.005	0.029	2.705	1.909	1.919	1.909	1.909	1.909	1.909
-0.005	0.049	0.005	-0.024	0.005	0.000	0.024	2.681	1.909	1.914	1.909	1.914	1.904	1.909
0.000	0.054	0.010	-0.024	0.010	-0.010	0.029	2.700	1.909	1.909	1.909	1.919	1.909	1.904
-0.010	-0.020	0.005	-0.010	0.000	0.000	0.029	2.700	1.899	1.890	1.904	1.924	1.909	1.909
0.015	-0.029	0.000	-0.015	0.005	0.000	0.029	2.671	1.904	1.885	1.895	1.919	1.909	1.909
0.054	-0.034	0.015	-0.015	0.005	0.005	0.029	2.700	1.914	1.895	1.899	1.919	1.909	1.909
0.034	-0.024	0.005	0.005	0.005	0.005	0.024	2.700	1.909	1.899	1.895	1.924	1.914	1.914
0.010	-0.020	0.005	0.034	0.005	0.005	0.029	2.705	1.899	1.899	1.899	1.929	1.914	1.914
-0.024	0.000	0.010	0.034	0.005	-0.010	0.029	2.676	1.890	1.899	1.899	1.924	1.914	1.909
-0.039	-0.005	0.005	0.039	0.010	0.000	0.029	2.690	1.885	1.895	1.895	1.924	1.919	1.919
-0.039	0.000	-0.005	0.029	0.005	-0.005	0.029	2.686	1.890	1.895	1.895	1.914	1.914	1.914
-0.044	0.000	-0.005	0.010	0.005	0.005	0.024	2.646	1.890	1.890	1.890	1.909	1.914	1.914
-0.024	-0.005	0.000	0.005	0.005	-0.010	0.029	2.676	1.899	1.895	1.895	1.909	1.909	1.909
-0.010	0.000	0.000	0.005	0.000	-0.005	0.024	2.783	1.909	1.899	1.895	1.909	1.909	1.914
-0.010	0.005	-0.005	0.010	-0.005	0.000	0.029	2.651	1.904	1.904	1.895	1.909	1.909	1.914
-0.015	0.000	-0.005	0.000	0.000	0.005	0.029	2.646	1.904	1.899	1.895	1.909	1.909	1.914
0.005	0.010	-0.005	0.005	0.005	-0.005	0.029	2.681	1.909	1.904	1.899	1.909	1.909	1.909
0.020	0.000	-0.005	-0.010	0.010	0.005	0.029	2.720	1.904	1.899	1.899	1.909	1.909	1.914
-0.005	0.000	0.000	-0.010	0.000	0.015	0.029	2.656	1.895	1.899	1.899	1.909	1.904	1.914
-0.034	0.000	0.005	-0.005	0.000	-0.005	0.029	2.646	1.895	1.899	1.899	1.914	1.904	1.909
-0.005	-0.015	0.000	-0.020	0.000	0.000	0.029	2.803	1.914	1.895	1.895	1.909	1.904	1.909
0.024	-0.024	0.010	-0.034	0.005	-0.005	0.029	2.646	1.914	1.899	1.899	1.904	1.904	1.904
0.059	-0.015	0.015	-0.039	0.000	-0.005	0.029	2.720	1.924	1.909	1.904	1.909	1.904	1.909
0.059	-0.015	0.010	-0.029	0.000	-0.005	0.029	2.725	1.909	1.909	1.899	1.914	1.904	1.904
0.063	-0.010	0.005	-0.029	-0.005	0.010	0.024	2.632	1.899	1.909	1.904	1.914	1.904	1.909
0.039	0.000	0.000	-0.005	0.005	0.010	0.029	2.656	1.890	1.904	1.904	1.924	1.909	1.909
0.010	0.000	-0.005	0.034	-0.005	0.010	0.029	2.749	1.895	1.899	1.904	1.934	1.914	1.909
0.005	0.005	0.000	0.073	0.000	0.010	0.029	2.666	1.890	1.904	1.904	1.943	1.924	1.914
-0.005	0.024	0.000	0.083	0.000	-0.015	0.029	2.681	1.890	1.899	1.904	1.938	1.929	1.914
0.005	0.024	0.005	0.059	0.005	-0.005	0.024	2.705	1.899	1.899	1.904	1.929	1.929	1.919
-0.005	0.020	0.005	0.034	0.000	0.015	0.029	2.671	1.899	1.895	1.899	1.919	1.924	1.924
-0.015	0.029	0.000	0.000	0.000	0.015	0.024	2.690	1.899	1.899	1.899	1.909	1.919	1.924
-0.010	0.020	-0.005	-0.010	0.000	-0.010	0.029	2.681	1.899	1.895	1.895	1.909	1.914	1.914
-0.005	0.010	-0.005	-0.010	-0.005	-0.005	0.024	2.700	1.904	1.895	1.895	1.909	1.909	1.914
0.000	0.015	-0.005	-0.010	0.005	0.010	0.029	2.705	1.909	1.899	1.895	1.909	1.909	1.919
-0.010	0.010	0.005	-0.005	0.000	0.015	0.024	2.695	1.909	1.899	1.895	1.914	1.909	1.914
0.000	-0.005	0.005	0.000	0.000	-0.010	0.029	2.705	1.909	1.895	1.899	1.914	1.909	1.909
0.000	-0.015	0.010	-0.010	0.000	-0.010	0.029	2.695	1.904	1.895	1.899	1.909	1.904	1.909
0.000	-0.020	0.010	0.000	0.005	0.010	0.029	2.710	1.904	1.895	1.895	1.914	1.909	1.914
0.000	-0.010	0.010	0.015	0.000	0.010	0.024	2.700	1.904	1.899	1.899	1.919	1.909	1.914
-0.005	-0.015	0.005	0.005	0.005	0.015	0.024	2.666	1.899	1.899	1.895	1.914	1.909	1.909
0.000	-0.005	-0.005	0.005	0.005	-0.005	0.029	2.700	1.904	1.899	1.895	1.914	1.909	1.909
-0.010	-0.005	-0.010	0.010	0.000	0.000	0.029	2.676	1.904	1.899	1.895	1.914	1.904	1.909
-0.015	0.005	-0.005	0.000	0.000	0.005	0.029	2.681	1.899	1.904	1.895	1.914	1.904	1.909
-0.005	0.015	-0.005	-0.010	0.000	-0.005	0.029	2.700	1.904	1.904	1.899	1.909	1.909	1.904
-0.020	0.005	0.000	-0.020	-0.005	0.000	0.029	2.700	1.904	1.904	1.899	1.909	1.904	1.909
-0.010	0.000	-0.005	-0.034	0.005	0.005	0.029	2.676	1.904	1.904	1.899	1.909	1.904	1.909
-0.010	0.000	-0.005	-0.039	0.000	-0.005	0.029	2.695	1.904	1.899	1.899	1.909	1.904	1.904
0.000	-0.015	-0.005	-0.024	0.000	0.010	0.029	2.695	1.904	1.895	1.899	1.914	1.909	1.909
-0.005	-0.029	0.000	-0.020	0.000	0.005	0.029	2.686	1.899	1.895	1.899	1.914	1.909	1.909
0.015	-0.020	0.005	-0.010	0.005	-0.005	0.029	2.681	1.904	1.899	1.899	1.919	1.909	1.909
0.000	-0.010	0.000	0.000	0.000	-0.005	0.029	2.632	1.899	1.904	1.899	1.924	1.914	1.904
0.010	-0.005	0.000	0.000	0.005	0.000	0.029	2.681	1.899	1.899	1.899	1.924	1.914	1.909
-0.005	0.000	-0.005	-0.005	0.000	0.000	0.029	2.783	1.909	1.904	1.899	1.919	1.914	1.914
0.000	0.020	0.000	-0.005	0.005	-0.005	0.029	2.646	1.904	1.909	1.904	1.919	1.914	1.909
0.010	0.024	0.010	-0.005	-0.005	0.000	0.029	2.729	1.909	1.914	1.904	1.919	1.914	1.914
0.005	-0.010	0.020	-0.010	0.005	-0.005	0.029	2.681	1.899	1.899	1.904	1.919	1.919	1.914
0.010	0.005	0.010	-0.010	0.005	0.000	0.029	2.705	1.904	1.904	1.904	1.919	1.914	1.914
0.000	-0.010	0.000	0.005	-0.005	0.010	0.024	2.671	1.899	1.899	1.895	1.924	1.914	1.914
0.005	-0.015	-0.005	0.005	0.005	0.000	0.029	2.739	1.909	1.904	1.895	1.919	1.919	1.914
0.000	0.103	0.000	0.010	0.000	0.005	0.029	2.788	1.909	1.934	1.909	1.924	1.919	1.919
0.000	0.029	0.000	0.020	0.000	-0.010	0.029	2.651	1.899	1.899	1.909	1.929	1.919	1.914
-0.005	-0.039	0.000	0.029	0.000	0.000	0.029	2.607	1.885	1.880	1.895	1.929	1.919	1.919
0.000	-0.010	0.000	0.024	-0.005	0.005	0.029	2.729	1.899	1.895	1.895	1.924	1.919	1.919
0.000	0.083	0.000	0.015	0.000	0.000	0.024	2.749	1.909	1.924	1.904	1.919	1.919	1.919
-0.005	-0.010	0.000	0.005	0.005	0.000	0.024	2.715	1.909	1.890	1.899	1.914	1.919	1.914
-0.015	-0.015	0.010	0.005	0.000	0.005	0.029	2.749	1.914	1.895	1.899	1.919	1.919	1.919
0.005	-0.020	0.005	0.010	0.005	-0.015	0.029	2.666	1.914	1.899	1.899	1.919	1.914	1.914
0.005	-0.015	0.005	0.010	0.005	0.000	0.029	2.676	1.909	1.899	1.899	1.919	1.914	1.919
0.000	-0.020	0.010	0.010	0.000	0.000	0.024	2.676	1.909	1.899	1.899	1.919	1.914	1.914
0.015	0.010	0.010	0.010	0.000	0.005	0.024	2.671	1.909	1.914	1.904	1.919	1.914	1.919
0.005	0.024	0.010	0.000	0.000	-0.015	0.029	2.690	1.904	1.909	1.904	1.919	1.909	1.909
0.005	-0.005	0.010	-0.005	0.000	-0.010	0.029	2.671	1.899	1.899	1.899	1.914	1.909	1.914
0.005	-0.010	0.000	-0.015	0.005	0.010	0.029	2.671	1.899	1.899	1.899	1.914	1.909	1.919
0.015	-0.005	0.000	-0.005	0.000	-0.020	0.029	2.710	1.904	1.899	1.899	1.914	1.909	1.909
0.015	0.010	0.000	-0.010	0.000	0.005	0.029	2.671	1.899	1.904	1.899	1.914	1.909	1.914
-0.005	0.000	-0.005	-0.010	0.005	-0.010	0.029	2.700	1.899	1.899	1.899	1.914	1.914	1.909
-0.005	0.000	0.005	-0.010	-0.005	0.000	0.029	2.671	1.899	1.899	1.899	1.914	1.909	1.914
-0.005	0.000	0.005	-0.005	0.000	0.000	0.024	2.700	1.904	1.899	1.899	1.919	1.914	1.914
-0.005	0.010	0.000	-0.010	0.000	0.015	0.029	2.700	1.904	1.904	1.899	1.919	1.914	1.919
-0.005	0.005	0.000	-0.010	-0.005	0.010	0.029	2.700	1.904	1.899	1.899	1.919	1.914	1.914
-0.010	0.000	-0.005	0.015	0.000	0.010	0.029	2.695	1.904	1.904	1.899	1.924	1.914	1.914
-0.034	0.000	0.000	0.020	0.000	-0.015	0.029	2.700	1.899	1.899	1.899	1.924	1.914	1.904
-0.024	-0.005	0.000	0.010	0.000	0.010	0.029	2.666	1.895	1.899	1.899	1.919	1.919	1.919
-0.010	-0.010	0.000	0.005	0.000	0.000	0.024	2.671	1.904	1.895	1.899	1.919	1.914	1.914
0.010	-0.024	0.005	-0.005	0.005	0.010	0.024	2.671	1.904	1.895	1.895	1.914	1.914	1.914
0.039	0.005	-0.005	0.010	0.005	0.010	0.029	2.690	1.914	1.909	1.899	1.914	1.914	1.919
0.039	0.010	-0.010	0.015	-0.005	0.000	0.029	2.686	1.909	1.909	1.899	1.919	1.909	1.914
0.039	-0.010	-0.005	0.029	-0.005	0.015	0.029	2.671	1.909	1.904	1.904	1.924	1.914	1.919
0.029	0.005	-0.005	0.034	0.005	-0.005	0.029	2.676	1.904	1.904	1.904	1.924	1.919	1.909
0.020	0.000	0.010	0.044	0.005	0.010	0.029	2.686	1.899	1.904	1.904	1.929	1.919	1.919
0.015	-0.010	0.005	0.039	0.010	0.000	0.029	2.646	1.895	1.895	1.899	1.924	1.919	1.914
0.005	-0.024	0.005	0.029	0.005	-0.005	0.029	2.666	1.890	1.890	1.895	1.919	1.919	1.919
-0.020	-0.010	0.000	0.005	0.000	0.000	0.029	2.798	1.904	1.895	1.895	1.909	1.914	1.914
-0.020	-0.020	-0.005	-0.010	-0.005	-0.005	0.029	2.661	1.899	1.895	1.890	1.904	1.909	1.909
-0.015	0.005	0.000	-0.020	0.000	0.005	0.024	2.734	1.895	1.899	1.895	1.904	1.904	1.914
-0.034	0.015	0.000	-0.020	0.000	-0.005	0.029	2.681	1.895	1.904	1.899	1.909	1.904	1.909
-0.034	0.029	-0.005	-0.020	0.005	0.000	0.029	2.695	1.904	1.904	1.899	1.909	1.904	1.909
-0.029	0.059	-0.005	-0.029	0.005	-0.010	0.029	2.700	1.909	1.914	1.899	1.909	1.904	1.904
-0.034	0.068	0.000	-0.029	-0.005	-0.010	0.029	2.686	1.909	1.914	1.904	1.914	1.909	1.909
-0.020	0.010	0.000	-0.020	0.005	0.010	0.029	2.793	1.919	1.899	1.904	1.919	1.909	1.914
-0.010	0.000	0.010	-0.005	0.000	0.015	0.024	2.651	1.914	1.904	1.904	1.924	1.914	1.914
0.000	-0.005	0.005	0.010	0.000	0.005	0.029	2.710	1.914	1.899	1.904	1.929	1.914	1.914
0.005	0.024	0.010	0.015	0.000	0.000	0.029	2.646	1.909	1.914	1.909	1.929	1.919	1.914
0.020	0.024	0.005	0.005	0.000	-0.005	0.029	2.627	1.904	1.904	1.904	1.929	1.914	1.914
-0.005	-0.029	0.005	0.010	0.000	0.000	0.029	2.739	1.899	1.890	1.899	1.924	1.914	1.914
0.010	-0.059	0.005	0.005	0.000	0.005	0.029	2.744	1.909	1.885	1.895	1.919	1.919	1.914
0.015	-0.059	0.000	0.010	0.000	0.005	0.029	2.651	1.904	1.895	1.890	1.919	1.919	1.914
0.029	-0.015	0.000	0.005	0.005	-0.015	0.029	2.676	1.909	1.909	1.895	1.914	1.914	1.909
0.020	0.020	0.000	0.000	0.000	0.000	0.029	2.690	1.904	1.919	1.899	1.914	1.914	1.919
0.005	0.010	0.005	-0.015	0.000	0.005	0.029	2.676	1.899	1.909	1.904	1.914	1.909	1.914
0.005	0.000	0.005	-0.024	0.000	0.005	0.024	2.705	1.904	1.904	1.899	1.914	1.914	1.914
-0.005	-0.010	-0.005	-0.020	0.000	0.005	0.029	2.666	1.899	1.899	1.899	1.914	1.909	1.919
-0.005	-0.034	-0.005	-0.020	0.000	0.005	0.029	2.671	1.899	1.895	1.895	1.919	1.914	1.914
0.005	-0.039	-0.005	-0.020	0.000	-0.020	0.029	2.700	1.904	1.890	1.895	1.914	1.909	1.909
0.005	-0.068	0.005	0.000	0.005	0.005	0.024	2.661	1.899	1.890	1.895	1.919	1.914	1.914
-0.005	-0.049	0.000	0.010	0.000	0.010	0.029	2.695	1.899	1.895	1.895	1.924	1.914	1.914
0.005	-0.020	-0.005	0.015	0.000	-0.005	0.029	2.671	1.899	1.904	1.899	1.919	1.914	1.914
0.005	0.005	-0.005	0.010	0.000	0.000	0.029	2.700	1.899	1.909	1.899	1.919	1.909	1.914
-0.005	0.044	0.000	0.010	0.005	0.010	0.029	2.700	1.904	1.919	1.909	1.924	1.914	1.914
0.005	0.103	0.000	0.005	0.000	0.005	0.029	2.690	1.909	1.929	1.914	1.919	1.914	1.914
-0.005	0.068	0.005	-0.005	0.005	0.005	0.029	2.671	1.899	1.914	1.914	1.924	1.914	1.914
0.010	0.103	0.010	0.000	0.000	-0.005	0.029	2.671	1.904	1.919	1.914	1.929	1.914	1.909
0.010	-0.015	0.005	0.015	0.000	-0.020	0.029	2.676	1.895	1.875	1.904	1.929	1.914	1.909
0.015	-0.005	0.010	0.015	0.000	-0.010	0.029	2.671	1.895	1.885	1.899	1.924	1.919	1.919
-0.005	-0.024	0.000	0.005	0.000	-0.005	0.029	2.666	1.890	1.880	1.890	1.914	1.919	1.914
0.005	-0.078	-0.005	-0.005	0.005	0.000	0.029	2.676	1.890	1.870	1.885	1.909	1.914	1.919
0.005	-0.078	0.000	0.005	0.000	0.005	0.029	2.681	1.895	1.875	1.880	1.909	1.909	1.919
-0.005	-0.029	0.000	0.005	0.005	-0.015	0.029	2.705	1.899	1.895	1.885	1.909	1.909	1.909
-0.015	-0.054	0.005	0.005	0.000	0.000	0.024	2.681	1.899	1.890	1.885	1.909	1.909	1.909
-0.020	0.024	0.000	0.005	0.000	-0.015	0.029	2.690	1.904	1.914	1.890	1.909	1.909	1.909
0.000	0.029	-0.005	0.010	0.000	0.015	0.029	2.637	1.904	1.914	1.899	1.909	1.909	1.919
0.005	0.156	-0.010	0.005	0.000	0.020	0.024	2.686	1.914	1.953	1.914	1.919	1.909	1.914
0.005	0.234	0.010	0.005	0.000	0.005	0.029	2.788	1.929	1.963	1.934	1.929	1.914	1.909
0.005	0.054	0.010	0.000	0.005	0.010	0.029	2.661	1.904	1.895	1.919	1.929	1.914	1.914
0.000	-0.049	-0.005	-0.005	0.005	-0.005	0.029	2.637	1.895	1.870	1.899	1.924	1.919	1.909
0.015	0.000	-0.005	-0.010	0.000	0.005	0.029	2.686	1.904	1.895	1.895	1.919	1.914	1.914
0.015	-0.005	0.005	-0.010	-0.005	0.005	0.029	2.705	1.904	1.890	1.895	1.919	1.914	1.914
0.010	-0.054	0.005	-0.005	0.000	0.005	0.029	2.681	1.895	1.875	1.890	1.914	1.914	1.914
0.010	-0.049	0.015	-0.010	0.000	-0.010	0.029	2.705	1.899	1.890	1.890	1.914	1.909	1.909
-0.005	-0.049	0.024	-0.020	0.000	0.000	0.029	2.710	1.895	1.890	1.890	1.909	1.909	1.909
0.015	-0.049	0.005	-0.015	-0.005	0.010	0.029	2.612	1.895	1.890	1.885	1.909	1.909	1.909
-0.005	-0.029	0.005	0.005	0.000	0.005	0.029	2.622	1.885	1.890	1.885	1.914	1.909	1.909
-0.005	-0.034	0.000	0.010	0.000	-0.005	0.024	2.710	1.890	1.890	1.890	1.909	1.909	1.909
0.000	0.078	-0.005	0.020	0.000	-0.005	0.029	2.754	1.909	1.934	1.899	1.914	1.909	1.909
-0.010	0.171	-0.005	0.029	0.005	0.000	0.029	2.622	1.899	1.938	1.909	1.924	1.914	1.909
-0.015	-0.098	-0.015	0.024	0.000	0.005	0.029	2.744	1.895	1.855	1.890	1.914	1.914	1.914
0.005	-0.151	-0.005	0.010	-0.005	-0.005	0.029	2.646	1.899	1.855	1.880	1.909	1.909	1.909
0.005	-0.117	-0.005	0.005	0.000	0.010	0.029	2.671	1.904	1.875	1.880	1.904	1.909	1.914
0.010	-0.044	0.000	0.005	0.000	0.010	0.029	2.671	1.904	1.909	1.890	1.904	1.904	1.909
