-0.015	-0.005	0.000	-0.005	0.000	-0.005	0.024	1.792	2.163	1.318	1.147	0.874	0.952	0.859
-0.005	0.005	-0.005	-0.005	0.005	0.000	0.024	1.748	1.870	1.479	1.235	0.977	0.957	0.889
-0.005	0.000	0.000	-0.005	0.000	-0.024	0.024	1.787	1.660	1.533	1.318	1.074	0.981	0.908
-0.005	0.000	0.000	0.000	0.010	0.005	0.024	1.743	1.504	1.528	1.382	1.162	1.035	0.942
-0.005	0.000	-0.005	0.000	0.005	0.000	0.024	1.753	1.392	1.494	1.411	1.235	1.084	0.981
-0.005	0.005	0.000	-0.005	0.015	0.005	0.024	1.802	1.313	1.445	1.426	1.294	1.143	1.025
-0.005	0.015	0.000	0.005	0.010	-0.005	0.024	1.748	1.255	1.396	1.421	1.333	1.191	1.069
-0.020	0.015	0.000	0.000	0.010	-0.010	0.024	1.787	1.211	1.348	1.401	1.357	1.235	1.108
-0.005	0.000	0.000	0.005	0.015	0.005	0.024	1.772	1.191	1.299	1.377	1.372	1.274	1.157
0.000	0.000	-0.005	0.005	0.005	-0.024	0.029	1.758	1.172	1.265	1.343	1.367	1.299	1.191
0.000	-0.005	-0.005	0.000	0.005	0.005	0.024	1.787	1.162	1.235	1.313	1.357	1.313	1.230
-0.010	0.015	-0.005	0.000	0.000	0.000	0.024	1.792	1.157	1.221	1.289	1.343	1.318	1.255
-0.010	0.005	0.000	0.000	0.010	0.005	0.024	1.797	1.162	1.201	1.265	1.328	1.323	1.274
-0.010	0.010	-0.005	-0.005	0.010	0.000	0.029	1.768	1.162	1.191	1.245	1.309	1.318	1.284
0.005	-0.005	0.000	0.000	0.010	-0.005	0.029	1.802	1.172	1.182	1.230	1.294	1.309	1.289
0.010	0.010	0.000	0.000	0.015	0.000	0.024	1.782	1.172	1.187	1.216	1.274	1.299	1.294
0.015	0.024	-0.005	0.000	0.005	-0.010	0.024	1.782	1.177	1.187	1.206	1.260	1.284	1.289
0.005	-0.005	-0.005	0.005	0.005	-0.010	0.024	1.802	1.177	1.172	1.196	1.250	1.274	1.284
0.015	-0.015	0.005	0.000	-0.005	-0.005	0.029	1.792	1.182	1.177	1.191	1.240	1.265	1.279
0.015	-0.005	0.000	0.000	0.000	0.000	0.029	1.797	1.182	1.177	1.187	1.230	1.255	1.279
0.015	-0.005	-0.005	0.005	-0.010	-0.005	0.029	1.797	1.182	1.182	1.187	1.226	1.240	1.260
0.010	0.005	-0.005	0.000	-0.005	-0.005	0.029	1.792	1.182	1.182	1.182	1.216	1.235	1.255
0.000	-0.005	-0.005	0.000	-0.010	0.000	0.024	1.797	1.177	1.177	1.182	1.211	1.230	1.245
-0.005	0.000	-0.005	0.000	-0.010	-0.015	0.029	1.738	1.172	1.177	1.182	1.211	1.221	1.240
-0.015	0.000	0.000	0.000	-0.010	-0.005	0.024	1.768	1.162	1.177	1.182	1.206	1.216	1.235
-0.010	-0.010	-0.005	0.005	-0.015	0.010	0.024	1.753	1.167	1.167	1.177	1.201	1.211	1.230
-0.005	-0.005	0.000	0.005	-0.010	0.005	0.024	1.792	1.167	1.172	1.177	1.201	1.211	1.226
0.000	0.000	-0.005	0.005	0.000	0.005	0.029	1.777	1.167	1.172	1.177	1.196	1.206	1.216
-0.010	-0.005	0.000	0.000	-0.010	0.010	0.024	1.743	1.162	1.167	1.172	1.191	1.201	1.211
-0.005	-0.005	0.000	-0.005	-0.005	0.010	0.024	1.792	1.167	1.167	1.167	1.191	1.191	1.206
-0.010	-0.010	-0.005	-0.005	-0.010	-0.015	0.024	1.792	1.172	1.167	1.167	1.187	1.191	1.196
-0.005	0.015	-0.005	0.000	-0.010	0.005	0.024	1.743	1.162	1.172	1.167	1.187	1.191	1.201
-0.005	-0.010	0.000	-0.005	-0.010	0.015	0.029	1.758	1.157	1.162	1.167	1.187	1.187	1.196
-0.010	-0.005	0.000	-0.005	-0.010	0.015	0.024	1.763	1.157	1.162	1.167	1.187	1.187	1.191
0.000	-0.005	0.000	-0.005	-0.010	0.005	0.024	1.787	1.167	1.162	1.162	1.182	1.182	1.191
0.000	-0.005	0.000	-0.005	-0.010	0.000	0.024	1.782	1.167	1.162	1.162	1.182	1.182	1.182
0.005	0.005	0.000	-0.005	-0.005	0.000	0.029	1.797	1.172	1.167	1.162	1.187	1.182	1.182
0.005	-0.005	-0.005	0.000	-0.015	-0.010	0.029	1.738	1.162	1.162	1.162	1.182	1.182	1.182
0.005	0.000	0.000	-0.005	-0.010	-0.005	0.029	1.777	1.162	1.167	1.162	1.182	1.182	1.182
0.000	0.000	-0.005	-0.005	-0.015	0.000	0.029	1.733	1.157	1.162	1.162	1.182	1.177	1.182
0.000	-0.010	0.000	-0.005	-0.010	-0.005	0.024	1.787	1.152	1.157	1.162	1.182	1.182	1.182
-0.005	-0.005	0.000	-0.005	-0.005	-0.005	0.024	1.807	1.162	1.157	1.162	1.182	1.177	1.177
0.000	0.005	-0.005	-0.005	-0.010	-0.005	0.024	1.802	1.162	1.162	1.162	1.182	1.177	1.177
0.000	-0.010	0.000	-0.005	-0.005	-0.034	0.024	1.758	1.157	1.157	1.157	1.177	1.177	1.172
-0.005	-0.005	0.000	-0.005	-0.005	-0.015	0.024	1.733	1.152	1.157	1.157	1.182	1.177	1.177
-0.010	0.000	0.005	0.000	-0.005	0.000	0.024	1.777	1.152	1.157	1.157	1.177	1.177	1.182
-0.015	0.000	-0.005	0.005	-0.015	0.010	0.024	1.758	1.147	1.152	1.157	1.177	1.177	1.182
0.000	0.000	0.005	0.000	-0.005	-0.010	0.029	1.782	1.152	1.152	1.152	1.177	1.172	1.172
0.000	0.000	0.000	-0.005	0.005	0.010	0.024	1.768	1.147	1.152	1.157	1.172	1.177	1.177
0.000	-0.010	-0.005	0.000	0.000	0.010	0.029	1.758	1.152	1.152	1.147	1.172	1.172	1.177
-0.005	-0.010	0.000	0.000	0.005	0.000	0.029	1.797	1.157	1.152	1.152	1.172	1.172	1.172
0.010	0.005	0.000	-0.005	0.005	0.000	0.029	1.782	1.157	1.152	1.152	1.172	1.172	1.172
0.000	0.015	0.000	-0.005	0.005	-0.005	0.024	1.792	1.152	1.152	1.152	1.172	1.172	1.172
-0.005	0.005	-0.005	0.000	0.000	0.005	0.029	1.704	1.147	1.152	1.147	1.172	1.172	1.172
-0.005	0.005	-0.005	0.000	0.005	0.000	0.024	1.802	1.152	1.147	1.152	1.172	1.172	1.172
0.000	0.000	-0.005	0.000	0.000	0.000	0.029	1.768	1.147	1.152	1.152	1.172	1.167	1.172
0.000	0.005	0.000	0.005	0.000	0.000	0.029	1.753	1.143	1.152	1.152	1.172	1.167	1.167
0.000	0.000	0.000	0.000	0.000	-0.010	0.024	1.787	1.147	1.147	1.152	1.172	1.167	1.167
0.000	0.000	-0.005	0.000	0.005	0.000	0.024	1.792	1.143	1.147	1.147	1.172	1.167	1.167
0.010	-0.005	0.000	0.000	0.005	-0.005	0.024	1.772	1.143	1.143	1.147	1.167	1.162	1.167
0.005	-0.010	0.000	0.000	0.010	0.000	0.024	1.733	1.138	1.138	1.147	1.167	1.167	1.167
-0.010	-0.005	0.005	-0.005	0.005	-0.005	0.024	1.748	1.133	1.138	1.143	1.162	1.162	1.162
-0.015	-0.005	0.000	-0.005	0.000	-0.010	0.024	1.738	1.128	1.138	1.143	1.162	1.157	1.157
-0.005	0.000	0.000	-0.005	0.000	-0.015	0.029	1.797	1.133	1.138	1.138	1.162	1.157	1.157
0.000	-0.005	0.000	0.000	0.000	-0.005	0.024	1.748	1.138	1.133	1.138	1.162	1.157	1.157
0.000	0.000	0.000	0.005	0.000	0.005	0.029	1.792	1.138	1.133	1.138	1.157	1.157	1.162
-0.005	0.000	-0.005	0.000	0.000	0.000	0.029	1.743	1.133	1.133	1.133	1.157	1.157	1.162
0.005	0.000	0.005	0.000	-0.005	0.000	0.029	1.709	1.128	1.133	1.133	1.152	1.152	1.157
0.005	-0.005	-0.005	0.000	0.000	-0.005	0.029	1.802	1.133	1.133	1.133	1.152	1.152	1.157
-0.005	0.000	0.000	0.005	0.005	0.005	0.029	1.763	1.133	1.128	1.133	1.157	1.152	1.157
-0.005	-0.005	-0.005	0.005	0.000	-0.005	0.024	1.792	1.133	1.133	1.133	1.152	1.152	1.152
-0.005	-0.010	0.000	-0.005	0.005	-0.010	0.024	1.787	1.138	1.133	1.133	1.152	1.152	1.152
0.000	-0.010	0.000	0.000	0.000	-0.005	0.029	1.758	1.133	1.133	1.133	1.152	1.147	1.152
-0.005	-0.005	0.000	-0.005	0.005	0.005	0.024	1.807	1.143	1.138	1.133	1.152	1.152	1.152
0.000	-0.005	-0.005	0.000	0.005	0.000	0.024	1.753	1.138	1.133	1.133	1.152	1.147	1.152
-0.010	-0.005	0.000	-0.005	0.000	0.010	0.029	1.802	1.138	1.138	1.133	1.152	1.143	1.152
0.000	0.000	-0.005	0.000	0.000	-0.010	0.029	1.738	1.133	1.138	1.133	1.152	1.147	1.147
-0.015	0.005	0.000	0.000	0.010	-0.005	0.024	1.787	1.133	1.138	1.133	1.152	1.152	1.147
-0.005	0.005	0.005	0.000	0.000	0.010	0.024	1.797	1.133	1.133	1.133	1.152	1.147	1.147
0.005	0.000	0.005	0.000	0.000	-0.005	0.029	1.802	1.138	1.133	1.133	1.152	1.147	1.143
0.000	0.010	0.000	0.000	-0.005	0.005	0.029	1.777	1.138	1.138	1.133	1.152	1.143	1.147
-0.005	0.005	0.000	0.005	-0.024	-0.015	0.024	1.782	1.133	1.133	1.133	1.152	1.138	1.138
0.000	0.000	0.000	-0.005	-0.020	-0.020	0.024	1.787	1.133	1.133	1.133	1.152	1.143	1.138
0.000	0.005	-0.005	0.000	-0.010	0.010	0.024	1.768	1.128	1.133	1.128	1.152	1.147	1.147
0.005	0.005	-0.005	-0.005	-0.015	0.005	0.024	1.777	1.128	1.128	1.128	1.152	1.143	1.143
-0.005	0.005	0.000	-0.005	-0.005	-0.005	0.024	1.753	1.118	1.128	1.128	1.152	1.147	1.143
-0.005	0.010	-0.005	-0.005	0.005	-0.005	0.024	1.777	1.133	1.128	1.128	1.147	1.147	1.147
-0.005	0.010	0.000	-0.005	0.015	0.000	0.024	1.797	1.128	1.128	1.128	1.147	1.152	1.147
-0.005	0.010	0.000	-0.005	0.010	-0.010	0.029	1.768	1.128	1.128	1.128	1.147	1.147	1.147
-0.005	-0.005	0.000	0.000	0.005	-0.010	0.029	1.753	1.128	1.128	1.128	1.147	1.147	1.143
0.000	0.005	0.000	0.000	-0.005	-0.024	0.024	1.777	1.133	1.128	1.128	1.147	1.143	1.143
-0.005	0.000	-0.005	0.005	0.010	0.000	0.029	1.753	1.123	1.128	1.128	1.147	1.147	1.147
0.000	-0.005	0.000	0.000	0.000	-0.005	0.029	1.724	1.128	1.128	1.123	1.147	1.143	1.143
-0.010	-0.015	-0.005	-0.005	-0.005	-0.010	0.024	1.787	1.123	1.118	1.123	1.143	1.143	1.143
-0.005	-0.015	-0.005	0.000	0.000	0.000	0.029	1.782	1.123	1.118	1.123	1.143	1.143	1.143
-0.005	-0.010	-0.005	-0.005	0.000	0.005	0.024	1.768	1.128	1.123	1.123	1.143	1.138	1.143
-0.005	-0.005	-0.005	0.000	0.005	0.000	0.029	1.743	1.128	1.123	1.123	1.143	1.138	1.143
-0.010	-0.010	-0.005	0.000	0.000	0.005	0.029	1.782	1.128	1.123	1.123	1.143	1.138	1.143
0.000	0.010	0.005	0.000	-0.005	-0.015	0.024	1.782	1.128	1.128	1.128	1.143	1.138	1.138
0.000	0.000	0.000	0.000	-0.005	0.005	0.029	1.792	1.128	1.123	1.123	1.143	1.138	1.143
-0.005	0.000	-0.005	0.000	-0.005	0.000	0.024	1.782	1.128	1.123	1.123	1.143	1.138	1.138
-0.005	0.000	0.000	0.000	-0.005	0.005	0.024	1.753	1.123	1.123	1.123	1.143	1.138	1.138
0.000	-0.010	0.000	-0.005	0.000	-0.010	0.024	1.772	1.123	1.123	1.123	1.143	1.138	1.133
-0.010	-0.005	0.000	0.000	0.000	0.000	0.029	1.797	1.123	1.123	1.123	1.143	1.138	1.138
-0.015	0.000	-0.005	0.000	0.000	-0.020	0.029	1.768	1.118	1.123	1.123	1.143	1.138	1.133
-0.039	0.010	-0.005	-0.005	-0.005	-0.005	0.024	1.792	1.113	1.123	1.123	1.138	1.138	1.138
-0.020	0.015	0.005	0.000	0.000	-0.020	0.024	1.772	1.123	1.123	1.123	1.143	1.138	1.133
-0.005	0.015	0.000	0.000	0.000	-0.020	0.024	1.787	1.128	1.123	1.123	1.143	1.138	1.133
0.010	0.015	-0.005	0.000	0.000	-0.010	0.029	1.792	1.123	1.123	1.123	1.143	1.138	1.143
0.020	0.000	-0.005	0.005	0.000	0.015	0.029	1.782	1.123	1.118	1.118	1.143	1.138	1.143
0.029	0.000	0.000	-0.005	0.005	-0.010	0.024	1.841	1.128	1.118	1.123	1.143	1.138	1.138
0.034	-0.005	-0.005	-0.005	0.000	0.000	0.024	1.802	1.133	1.118	1.118	1.138	1.138	1.138
0.024	0.000	-0.005	-0.005	0.005	0.010	0.024	1.777	1.128	1.123	1.118	1.138	1.138	1.138
0.020	-0.010	0.000	-0.005	-0.005	-0.010	0.024	1.802	1.128	1.118	1.118	1.138	1.133	1.133
0.020	0.000	0.005	-0.005	0.000	0.000	0.029	1.797	1.123	1.123	1.118	1.138	1.133	1.138
0.005	-0.005	-0.005	-0.005	0.000	0.005	0.029	1.797	1.118	1.118	1.118	1.138	1.133	1.138
0.005	-0.005	0.000	0.000	-0.005	-0.005	0.029	1.797	1.123	1.123	1.118	1.138	1.133	1.133
-0.005	-0.005	0.000	0.000	0.000	0.005	0.024	1.782	1.123	1.118	1.123	1.143	1.133	1.138
-0.005	0.005	-0.005	0.000	0.000	0.010	0.024	1.743	1.113	1.123	1.118	1.138	1.133	1.138
-0.005	-0.005	0.000	-0.005	-0.005	0.005	0.024	1.797	1.123	1.118	1.118	1.138	1.128	1.133
-0.010	-0.005	-0.005	-0.005	-0.005	0.005	0.024	1.802	1.123	1.118	1.118	1.138	1.133	1.133
-0.015	0.000	0.000	-0.010	0.000	-0.005	0.029	1.758	1.118	1.118	1.118	1.138	1.133	1.133
-0.015	0.000	-0.005	-0.005	0.000	0.000	0.029	1.777	1.118	1.118	1.118	1.138	1.133	1.133
-0.020	0.000	0.000	-0.005	-0.005	0.000	0.024	1.748	1.113	1.118	1.118	1.138	1.133	1.128
-0.015	0.000	0.000	0.000	0.000	0.000	0.024	1.777	1.118	1.118	1.118	1.138	1.138	1.133
-0.015	-0.005	0.000	0.000	0.000	-0.015	0.029	1.777	1.118	1.113	1.118	1.138	1.133	1.128
-0.005	-0.005	0.000	0.000	0.000	0.005	0.029	1.787	1.118	1.113	1.118	1.138	1.133	1.133
-0.010	0.015	0.000	0.000	0.000	-0.005	0.029	1.787	1.118	1.118	1.118	1.138	1.133	1.128
-0.010	-0.010	0.000	0.005	0.000	0.000	0.024	1.787	1.113	1.113	1.113	1.138	1.133	1.133
-0.005	0.000	-0.005	0.005	-0.005	0.005	0.029	1.792	1.118	1.118	1.113	1.133	1.133	1.128
-0.005	-0.005	0.005	-0.005	0.000	0.010	0.024	1.816	1.123	1.113	1.113	1.133	1.128	1.133
-0.005	-0.010	0.005	0.000	-0.005	0.005	0.024	1.821	1.123	1.113	1.113	1.133	1.128	1.133
0.000	-0.005	0.000	0.000	0.000	0.000	0.024	1.802	1.123	1.123	1.113	1.133	1.128	1.128
0.010	0.000	0.000	0.005	0.000	-0.010	0.024	1.777	1.123	1.123	1.118	1.138	1.128	1.128
0.005	0.000	-0.005	0.000	0.000	-0.029	0.024	1.787	1.118	1.123	1.118	1.133	1.128	1.123
0.005	0.000	0.000	-0.005	0.000	-0.020	0.029	1.772	1.118	1.118	1.118	1.133	1.128	1.123
0.005	-0.005	-0.005	-0.010	0.000	0.005	0.029	1.743	1.118	1.118	1.118	1.133	1.133	1.133
0.005	0.000	-0.005	0.000	-0.005	0.005	0.024	1.807	1.118	1.118	1.118	1.138	1.133	1.133
0.005	-0.005	-0.005	0.000	-0.005	-0.010	0.029	1.772	1.118	1.118	1.118	1.138	1.133	1.128
0.000	-0.005	0.000	0.000	0.000	0.005	0.024	1.792	1.118	1.118	1.118	1.138	1.133	1.133
0.000	-0.005	-0.005	0.010	-0.005	0.000	0.029	1.748	1.118	1.118	1.118	1.138	1.133	1.133
-0.005	-0.005	-0.010	0.010	0.000	0.000	0.029	1.787	1.113	1.113	1.113	1.138	1.133	1.133
-0.020	-0.005	-0.005	0.005	-0.005	0.005	0.029	1.787	1.108	1.113	1.113	1.138	1.133	1.133
-0.020	0.000	-0.005	0.000	0.000	0.005	0.024	1.777	1.113	1.108	1.113	1.133	1.133	1.133
-0.010	-0.005	-0.005	-0.005	-0.005	-0.020	0.029	1.777	1.118	1.113	1.113	1.133	1.128	1.123
-0.015	0.000	-0.005	-0.005	0.010	0.010	0.024	1.772	1.113	1.113	1.113	1.133	1.133	1.133
0.015	-0.005	-0.005	0.000	0.005	0.000	0.024	1.719	1.113	1.113	1.113	1.133	1.128	1.133
0.010	0.005	-0.005	0.000	0.000	-0.015	0.029	1.777	1.113	1.113	1.113	1.133	1.128	1.123
0.005	0.000	0.000	-0.005	0.000	0.005	0.029	1.763	1.113	1.108	1.113	1.133	1.128	1.133
0.005	-0.005	0.000	0.000	0.000	0.000	0.024	1.792	1.113	1.108	1.113	1.133	1.128	1.128
-0.005	0.000	-0.005	0.000	-0.005	0.000	0.029	1.743	1.104	1.108	1.108	1.128	1.128	1.123
0.000	0.000	0.000	-0.005	-0.005	-0.015	0.024	1.772	1.108	1.108	1.108	1.128	1.123	1.123
-0.010	0.000	0.000	0.000	0.000	0.005	0.024	1.782	1.108	1.113	1.113	1.133	1.123	1.128
-0.005	0.005	0.000	0.000	-0.005	0.005	0.024	1.753	1.113	1.113	1.113	1.133	1.128	1.123
-0.010	-0.005	0.000	-0.005	-0.005	0.000	0.024	1.812	1.118	1.108	1.108	1.133	1.123	1.123
-0.005	0.010	0.000	-0.005	-0.005	0.000	0.024	1.768	1.118	1.118	1.113	1.133	1.123	1.123
-0.005	0.000	-0.005	-0.005	0.000	-0.010	0.024	1.777	1.118	1.113	1.113	1.133	1.128	1.123
0.000	-0.005	0.000	-0.005	-0.005	0.000	0.029	1.816	1.118	1.108	1.113	1.133	1.128	1.123
-0.005	-0.005	-0.005	-0.010	0.000	0.005	0.029	1.787	1.118	1.113	1.108	1.128	1.128	1.128
-0.010	0.005	0.005	-0.005	-0.005	0.000	0.024	1.768	1.118	1.118	1.113	1.133	1.128	1.128
-0.005	-0.005	0.000	-0.005	0.000	0.000	0.024	1.777	1.118	1.113	1.113	1.133	1.128	1.128
-0.005	-0.005	0.000	-0.005	0.005	-0.010	0.024	1.797	1.118	1.113	1.113	1.133	1.123	1.118
-0.005	-0.010	-0.005	0.000	0.000	-0.010	0.029	1.777	1.113	1.113	1.108	1.128	1.123	1.123
-0.005	0.005	-0.005	-0.005	-0.005	-0.005	0.029	1.782	1.113	1.118	1.113	1.128	1.123	1.123
0.000	-0.010	0.005	-0.005	-0.005	0.005	0.029	1.758	1.113	1.108	1.113	1.128	1.128	1.128
0.000	0.000	0.000	0.000	0.000	-0.015	0.029	1.777	1.113	1.113	1.108	1.133	1.123	1.118
-0.005	0.000	-0.005	0.000	0.000	0.005	0.029	1.772	1.108	1.113	1.113	1.133	1.128	1.128
-0.005	0.005	-0.005	0.000	0.005	0.000	0.024	1.772	1.118	1.113	1.108	1.128	1.128	1.128
0.000	0.000	-0.005	0.000	0.000	0.000	0.024	1.753	1.079	1.108	1.108	1.128	1.128	1.128
0.000	0.000	-0.005	0.000	-0.005	-0.010	0.024	1.787	1.123	1.108	1.108	1.128	1.123	1.123
-0.005	0.000	-0.005	0.000	-0.005	0.000	0.024	1.763	1.118	1.108	1.108	1.128	1.123	1.128
-0.005	0.015	-0.005	0.000	-0.005	-0.005	0.024	1.768	1.118	1.118	1.113	1.128	1.123	1.123
-0.005	0.000	-0.005	0.000	0.000	-0.005	0.029	1.763	1.113	1.113	1.113	1.128	1.128	1.123
0.010	0.010	-0.005	0.000	-0.005	0.005	0.024	1.743	1.113	1.113	1.113	1.128	1.128	1.128
0.000	0.005	0.000	0.000	0.005	-0.010	0.029	1.782	1.113	1.113	1.113	1.128	1.128	1.123
0.005	0.005	0.000	0.000	-0.005	0.010	0.029	1.777	1.118	1.113	1.113	1.133	1.128	1.128
0.000	-0.005	0.000	-0.005	0.010	-0.010	0.024	1.807	1.118	1.108	1.108	1.128	1.128	1.123
0.000	-0.015	0.000	0.000	0.000	0.000	0.029	1.729	1.108	1.108	1.108	1.128	1.123	1.123
0.005	-0.010	0.000	0.000	-0.005	-0.010	0.024	1.812	1.113	1.108	1.108	1.128	1.123	1.118
-0.010	-0.005	0.000	-0.005	-0.005	0.010	0.029	1.797	1.113	1.108	1.108	1.128	1.123	1.123
0.005	-0.010	0.000	0.000	0.000	0.015	0.029	1.724	1.108	1.108	1.108	1.128	1.123	1.128
-0.005	-0.005	0.000	0.000	0.000	0.010	0.024	1.802	1.104	1.108	1.108	1.128	1.123	1.123
-0.010	0.010	-0.005	-0.005	0.005	-0.005	0.029	1.763	1.104	1.108	1.108	1.123	1.123	1.118
-0.005	0.000	-0.005	0.000	0.005	-0.015	0.029	1.787	1.108	1.108	1.108	1.123	1.123	1.118
-0.010	-0.005	-0.005	0.000	0.005	-0.005	0.024	1.787	1.099	1.104	1.104	1.128	1.123	1.118
0.005	-0.005	-0.005	-0.005	0.000	-0.024	0.024	1.763	1.104	1.104	1.104	1.123	1.118	1.113
0.000	0.005	0.000	0.000	0.000	-0.024	0.029	1.743	1.094	1.104	1.104	1.123	1.123	1.118
0.005	0.005	0.005	0.000	-0.005	-0.010	0.024	1.777	1.104	1.104	1.104	1.123	1.118	1.123
0.010	0.005	-0.005	-0.005	-0.005	0.000	0.024	1.792	1.108	1.104	1.104	1.123	1.123	1.123
0.010	0.005	-0.005	-0.005	0.000	0.000	0.024	1.797	1.113	1.104	1.104	1.123	1.123	1.123
0.010	0.000	-0.005	0.000	0.000	-0.010	0.024	1.787	1.113	1.104	1.104	1.123	1.118	1.118
0.005	-0.005	0.005	0.000	-0.005	-0.015	0.029	1.777	1.113	1.108	1.104	1.123	1.118	1.118
0.005	0.000	0.000	-0.005	-0.024	0.000	0.029	1.782	1.113	1.108	1.104	1.123	1.113	1.118
0.000	-0.010	0.000	-0.005	-0.029	0.000	0.024	1.733	1.108	1.104	1.104	1.123	1.113	1.118
0.000	-0.005	-0.010	0.005	-0.020	0.005	0.029	1.797	1.108	1.104	1.104	1.128	1.118	1.118
-0.005	-0.005	-0.005	0.000	0.000	0.005	0.029	1.709	1.104	1.104	1.104	1.123	1.123	1.118
-0.010	-0.010	-0.005	-0.005	-0.005	0.010	0.029	1.802	1.108	1.099	1.104	1.118	1.118	1.123
-0.010	-0.005	-0.005	-0.005	0.000	-0.020	0.024	1.782	1.108	1.104	1.104	1.118	1.118	1.113
-0.015	-0.005	0.000	-0.005	0.010	0.005	0.029	1.763	1.104	1.104	1.104	1.123	1.123	1.118
-0.015	0.000	-0.005	-0.005	0.015	0.000	0.024	1.768	1.108	1.104	1.104	1.123	1.123	1.118
-0.005	0.005	0.000	-0.005	0.015	0.005	0.024	1.777	1.108	1.108	1.108	1.123	1.118	1.123
-0.034	-0.005	0.000	0.000	0.010	-0.005	0.024	1.797	1.099	1.104	1.104	1.123	1.118	1.118
-0.020	0.000	0.000	-0.005	0.005	0.005	0.024	1.807	1.113	1.104	1.108	1.123	1.118	1.118
-0.010	0.010	0.000	0.000	0.000	-0.005	0.024	1.768	1.099	1.108	1.104	1.123	1.118	1.118
-0.005	-0.010	0.000	0.000	0.000	-0.015	0.024	1.782	1.104	1.099	1.104	1.123	1.118	1.113
0.000	-0.010	0.000	0.000	0.000	0.000	0.024	1.782	1.108	1.104	1.104	1.123	1.118	1.118
0.000	0.000	0.000	0.000	-0.005	0.010	0.024	1.777	1.113	1.108	1.104	1.123	1.118	1.118
0.010	0.000	0.000	0.005	-0.005	-0.005	0.024	1.772	1.113	1.108	1.104	1.123	1.118	1.118
0.020	0.000	0.000	0.010	-0.005	-0.024	0.024	1.748	1.104	1.108	1.104	1.123	1.118	1.108
0.005	0.005	0.000	0.005	0.000	0.010	0.029	1.787	1.099	1.108	1.108	1.128	1.118	1.123
0.005	0.015	0.000	0.005	0.000	-0.010	0.029	1.772	1.099	1.104	1.108	1.123	1.118	1.118
-0.005	0.015	0.000	0.005	0.000	-0.015	0.029	1.797	1.104	1.104	1.104	1.123	1.118	1.118
0.000	0.000	0.005	0.000	0.000	-0.015	0.029	1.782	1.104	1.099	1.104	1.123	1.118	1.113
-0.005	-0.005	0.005	-0.005	0.005	0.010	0.029	1.802	1.108	1.099	1.099	1.118	1.118	1.123
0.005	-0.005	-0.005	0.000	0.000	0.010	0.024	1.768	1.108	1.104	1.099	1.118	1.118	1.118
-0.005	0.000	-0.005	0.000	0.000	0.000	0.024	1.748	1.104	1.104	1.099	1.118	1.113	1.113
-0.005	-0.010	0.005	-0.005	0.000	-0.015	0.029	1.802	1.104	1.099	1.099	1.118	1.113	1.108
-0.005	0.000	0.000	0.000	0.000	0.005	0.024	1.812	1.113	1.104	1.099	1.123	1.113	1.118
0.015	0.000	-0.005	0.000	0.000	-0.015	0.024	1.787	1.118	1.108	1.104	1.118	1.113	1.113
0.015	0.005	0.000	-0.005	0.000	0.005	0.029	1.802	1.118	1.113	1.108	1.118	1.113	1.118
0.010	-0.005	0.000	-0.010	-0.005	0.005	0.029	1.768	1.108	1.108	1.108	1.118	1.113	1.113
0.005	0.000	0.000	-0.020	-0.005	0.000	0.024	1.797	1.108	1.108	1.108	1.118	1.113	1.113
-0.020	-0.005	0.000	-0.015	-0.005	-0.005	0.024	1.797	1.104	1.104	1.108	1.123	1.113	1.113
-0.015	0.000	0.000	-0.005	0.000	-0.024	0.024	1.787	1.104	1.104	1.108	1.128	1.118	1.108
-0.015	0.000	-0.005	0.000	0.000	0.010	0.029	1.802	1.108	1.108	1.104	1.128	1.118	1.118
-0.010	0.005	0.000	0.010	0.005	-0.010	0.024	1.797	1.108	1.108	1.104	1.128	1.123	1.113
-0.010	-0.005	0.000	0.010	0.000	-0.005	0.029	1.753	1.108	1.104	1.104	1.128	1.123	1.118
-0.015	-0.005	0.005	0.005	0.000	0.000	0.029	1.748	1.099	1.104	1.104	1.123	1.123	1.118
-0.034	-0.005	-0.005	0.005	0.005	0.005	0.029	1.758	1.089	1.099	1.104	1.123	1.123	1.123
-0.034	-0.010	-0.005	0.005	0.005	-0.005	0.024	1.787	1.099	1.094	1.099	1.118	1.118	1.118
-0.024	-0.005	0.000	0.005	0.000	-0.029	0.029	1.753	1.104	1.099	1.099	1.123	1.118	1.108
-0.029	0.000	0.000	0.005	0.000	0.010	0.029	1.802	1.108	1.099	1.099	1.118	1.113	1.123
-0.010	-0.010	-0.005	0.000	-0.005	0.000	0.024	1.763	1.108	1.104	1.099	1.118	1.113	1.113
0.000	-0.005	-0.005	0.000	-0.005	0.005	0.029	1.758	1.113	1.104	1.099	1.118	1.113	1.118
0.015	-0.005	0.000	-0.005	0.000	0.000	0.029	1.772	1.118	1.108	1.104	1.118	1.113	1.113
0.034	-0.015	0.000	-0.005	0.000	0.000	0.029	1.772	1.118	1.108	1.104	1.118	1.113	1.113
0.039	-0.005	0.005	-0.010	0.000	-0.005	0.029	1.787	1.118	1.113	1.108	1.118	1.113	1.113
0.044	0.000	-0.005	-0.005	-0.005	0.000	0.029	1.792	1.118	1.118	1.108	1.123	1.113	1.113
0.034	0.000	0.000	-0.010	-0.010	0.000	0.024	1.772	1.118	1.113	1.113	1.123	1.113	1.113
0.034	0.005	0.000	-0.005	-0.005	0.000	0.024	1.797	1.113	1.118	1.108	1.128	1.118	1.113
0.029	-0.010	0.005	-0.005	0.000	0.000	0.024	1.797	1.104	1.108	1.113	1.128	1.118	1.118
0.029	-0.010	0.000	-0.005	0.000	-0.005	0.024	1.792	1.108	1.108	1.108	1.128	1.123	1.118
0.015	0.005	-0.005	0.000	0.000	0.005	0.029	1.792	1.108	1.108	1.108	1.128	1.123	1.118
0.010	0.000	-0.005	0.000	0.000	-0.020	0.024	1.748	1.099	1.108	1.108	1.128	1.123	1.118
-0.005	0.005	0.000	0.000	0.000	-0.005	0.024	1.792	1.099	1.104	1.108	1.128	1.123	1.118
-0.020	-0.005	-0.005	0.000	0.005	0.005	0.024	1.782	1.099	1.099	1.104	1.123	1.123	1.123
-0.029	-0.005	-0.005	-0.005	0.000	0.000	0.029	1.772	1.099	1.099	1.099	1.123	1.123	1.118
-0.029	0.015	0.000	0.000	0.000	0.000	0.029	1.753	1.099	1.104	1.099	1.123	1.118	1.118
-0.024	0.010	0.000	0.000	0.005	-0.005	0.024	1.753	1.099	1.099	1.099	1.123	1.118	1.113
-0.020	0.005	0.000	-0.005	0.000	0.000	0.029	1.782	1.108	1.099	1.099	1.118	1.113	1.118
-0.005	0.005	0.000	-0.005	-0.005	-0.005	0.029	1.758	1.104	1.099	1.099	1.118	1.113	1.118
-0.015	0.005	0.000	-0.005	0.000	-0.015	0.024	1.812	1.108	1.104	1.099	1.118	1.118	1.113
-0.010	0.000	-0.005	-0.005	-0.005	0.000	0.024	1.743	1.104	1.104	1.099	1.118	1.118	1.118
-0.005	0.000	0.005	0.005	-0.005	-0.005	0.029	1.807	1.113	1.104	1.104	1.123	1.113	1.113
-0.015	-0.005	0.000	0.000	0.000	0.010	0.024	1.787	1.113	1.104	1.104	1.118	1.113	1.118
-0.015	-0.005	-0.005	0.000	0.000	0.000	0.029	1.753	1.108	1.104	1.099	1.118	1.118	1.113
-0.010	-0.010	-0.005	-0.005	-0.005	0.015	0.024	1.772	1.108	1.104	1.104	1.123	1.113	1.118
-0.020	-0.020	0.000	0.000	0.000	0.005	0.024	1.792	1.108	1.104	1.104	1.123	1.118	1.118
-0.015	0.000	0.000	0.000	0.000	0.000	0.024	1.797	1.113	1.113	1.104	1.123	1.118	1.113
-0.010	0.005	0.000	0.005	-0.005	0.000	0.024	1.719	1.104	1.108	1.108	1.123	1.118	1.118
-0.015	0.000	0.000	0.000	0.005	-0.015	0.024	1.812	1.113	1.108	1.104	1.123	1.118	1.108
-0.020	-0.005	-0.005	0.000	0.000	0.005	0.024	1.792	1.108	1.104	1.104	1.123	1.118	1.118
-0.010	-0.010	0.000	-0.005	-0.005	0.000	0.029	1.758	1.108	1.104	1.104	1.123	1.118	1.113
-0.010	0.000	0.000	-0.005	0.000	-0.010	0.024	1.787	1.104	1.104	1.104	1.118	1.118	1.113
0.005	0.000	-0.005	-0.005	0.000	-0.010	0.029	1.792	1.108	1.108	1.104	1.123	1.118	1.113
-0.005	-0.010	0.000	0.000	0.005	0.000	0.024	1.768	1.104	1.104	1.104	1.123	1.118	1.118
0.000	0.000	-0.005	-0.005	0.000	0.005	0.024	1.792	1.108	1.104	1.104	1.123	1.113	1.118
0.005	-0.005	0.000	-0.005	0.000	-0.010	0.024	1.782	1.118	1.108	1.104	1.123	1.118	1.108
0.005	0.010	0.000	-0.005	-0.005	0.005	0.024	1.797	1.113	1.118	1.108	1.123	1.118	1.118
0.000	0.005	-0.005	0.000	0.000	0.015	0.024	1.797	1.113	1.113	1.108	1.128	1.123	1.123
-0.010	0.000	0.000	0.005	0.000	-0.005	0.024	1.758	1.104	1.108	1.108	1.128	1.118	1.113
0.000	0.000	0.000	0.010	0.000	-0.010	0.024	1.772	1.104	1.108	1.108	1.128	1.123	1.118
-0.010	0.005	0.000	0.010	-0.005	0.005	0.029	1.787	1.108	1.108	1.108	1.128	1.123	1.123
0.000	0.000	0.000	0.005	0.000	-0.015	0.024	1.714	1.104	1.108	1.108	1.128	1.123	1.118
-0.005	0.000	0.000	-0.005	0.000	0.005	0.024	1.802	1.108	1.104	1.108	1.123	1.123	1.123
0.010	0.000	0.000	-0.015	0.000	0.005	0.024	1.782	1.104	1.104	1.104	1.118	1.123	1.123
0.010	0.000	-0.005	-0.015	0.000	0.005	0.024	1.797	1.113	1.104	1.104	1.123	1.118	1.123
0.010	0.005	-0.005	-0.015	0.000	0.005	0.024	1.787	1.113	1.108	1.108	1.123	1.118	1.118
0.010	0.010	-0.005	-0.010	0.005	-0.005	0.024	1.797	1.113	1.108	1.108	1.123	1.118	1.118
0.015	0.005	0.000	-0.010	0.005	-0.005	0.024	1.797	1.108	1.108	1.108	1.123	1.118	1.118
0.005	-0.015	0.000	-0.005	-0.010	-0.020	0.029	1.758	1.104	1.104	1.104	1.123	1.113	1.108
0.010	0.005	0.000	-0.005	-0.010	-0.005	0.024	1.724	1.099	1.108	1.104	1.123	1.118	1.118
-0.005	0.020	0.000	-0.005	-0.020	0.015	0.024	1.748	1.094	1.104	1.108	1.123	1.118	1.118
0.000	0.015	-0.005	0.000	-0.015	0.000	0.029	1.772	1.094	1.099	1.104	1.123	1.118	1.118
-0.010	0.005	-0.005	0.005	-0.015	-0.005	0.029	1.763	1.094	1.099	1.104	1.123	1.118	1.113
-0.005	0.005	-0.005	0.005	-0.005	-0.010	0.024	1.777	1.099	1.094	1.099	1.123	1.123	1.118
0.000	-0.015	0.000	0.015	0.005	0.015	0.029	1.777	1.099	1.094	1.099	1.123	1.123	1.123
-0.010	-0.015	-0.005	0.010	0.015	0.010	0.029	1.792	1.104	1.094	1.094	1.123	1.123	1.123
-0.005	-0.010	0.005	0.010	0.010	0.005	0.029	1.733	1.104	1.099	1.099	1.118	1.123	1.118
-0.020	-0.010	0.000	0.000	0.015	-0.024	0.029	1.807	1.108	1.099	1.094	1.113	1.118	1.113
-0.005	-0.005	-0.010	0.005	-0.005	-0.020	0.029	1.738	1.104	1.099	1.094	1.113	1.108	1.113
0.000	-0.010	0.000	0.005	-0.015	0.005	0.024	1.797	1.113	1.104	1.099	1.118	1.108	1.118
-0.005	-0.005	-0.005	0.010	-0.020	-0.005	0.024	1.748	1.108	1.104	1.099	1.118	1.108	1.108
-0.010	-0.005	0.000	0.005	-0.015	-0.010	0.029	1.802	1.108	1.104	1.099	1.113	1.108	1.108
0.005	0.005	0.000	0.000	0.005	0.000	0.024	1.753	1.108	1.108	1.104	1.118	1.118	1.113
-0.005	0.000	0.000	-0.010	0.024	0.005	0.029	1.782	1.108	1.104	1.104	1.118	1.118	1.118
-0.010	-0.010	-0.005	-0.005	0.024	0.000	0.024	1.733	1.099	1.099	1.099	1.113	1.118	1.113
0.005	-0.015	0.000	-0.005	0.015	0.015	0.024	1.753	1.104	1.099	1.104	1.118	1.113	1.118
-0.005	-0.005	0.000	-0.010	0.005	0.010	0.024	1.758	1.099	1.099	1.099	1.118	1.108	1.113
-0.005	0.000	-0.005	-0.010	0.010	0.005	0.024	1.777	1.099	1.099	1.099	1.118	1.108	1.108
0.000	0.015	-0.005	-0.005	0.005	-0.015	0.024	1.792	1.108	1.104	1.104	1.118	1.108	1.108
0.005	0.015	-0.005	-0.005	0.005	0.005	0.029	1.768	1.104	1.104	1.104	1.118	1.113	1.113
0.000	0.010	0.000	-0.005	0.005	0.000	0.029	1.777	1.104	1.104	1.104	1.123	1.113	1.113
0.005	-0.015	0.000	-0.005	0.000	0.000	0.024	1.802	1.108	1.094	1.104	1.118	1.113	1.113
0.000	-0.015	0.005	-0.005	0.005	0.000	0.024	1.763	1.108	1.099	1.104	1.118	1.113	1.113
-0.005	0.000	0.000	-0.010	0.005	-0.005	0.024	1.763	1.104	1.104	1.099	1.118	1.113	1.108
0.000	-0.005	-0.005	0.000	-0.010	0.000	0.029	1.733	1.099	1.099	1.099	1.118	1.113	1.113
-0.005	-0.005	0.000	-0.005	-0.010	0.005	0.029	1.787	1.104	1.104	1.099	1.123	1.113	1.113
-0.010	0.010	-0.005	-0.005	-0.010	-0.034	0.024	1.772	1.108	1.108	1.104	1.118	1.113	1.104
0.000	0.000	0.000	-0.005	-0.010	0.000	0.029	1.792	1.104	1.104	1.099	1.118	1.113	1.113
-0.005	-0.005	0.000	-0.005	0.000	0.000	0.029	1.792	1.104	1.104	1.099	1.118	1.118	1.113
0.000	-0.005	-0.005	-0.005	0.000	-0.010	0.029	1.792	1.108	1.099	1.099	1.118	1.113	1.113
-0.015	-0.010	0.000	0.000	-0.010	0.000	0.024	1.782	1.104	1.099	1.099	1.118	1.113	1.113
0.005	-0.005	-0.010	0.000	-0.024	0.000	0.024	1.743	1.104	1.104	1.099	1.118	1.108	1.113
0.000	-0.005	-0.005	0.005	-0.015	-0.005	0.029	1.772	1.099	1.099	1.099	1.118	1.113	1.113
0.000	0.010	-0.005	0.000	-0.010	0.000	0.029	1.787	1.104	1.104	1.099	1.118	1.113	1.113
-0.005	-0.005	0.000	0.000	-0.020	-0.024	0.024	1.812	1.104	1.099	1.099	1.118	1.113	1.104
0.000	0.005	0.000	0.010	-0.005	0.005	0.024	1.792	1.104	1.104	1.104	1.118	1.118	1.118
0.000	-0.005	0.000	0.010	-0.010	-0.005	0.024	1.816	1.108	1.104	1.104	1.118	1.113	1.113
-0.005	-0.005	0.000	0.005	0.000	0.010	0.024	1.802	1.113	1.104	1.104	1.118	1.118	1.118
0.000	0.000	-0.005	0.005	-0.005	0.000	0.024	1.704	1.104	1.104	1.104	1.118	1.118	1.113
0.000	0.000	-0.005	0.000	0.010	0.005	0.024	1.797	1.108	1.104	1.104	1.118	1.118	1.118
0.000	0.010	0.000	-0.005	0.010	0.010	0.024	1.768	1.113	1.108	1.104	1.118	1.118	1.118
0.005	-0.005	0.005	-0.005	0.000	0.005	0.024	1.772	1.113	1.108	1.104	1.118	1.113	1.113
0.000	-0.005	0.000	-0.010	0.015	0.010	0.024	1.807	1.113	1.108	1.108	1.123	1.118	1.118
-0.005	0.005	0.000	-0.010	0.020	0.000	0.024	1.802	1.113	1.108	1.108	1.123	1.118	1.118
0.000	-0.005	0.000	-0.010	0.005	0.000	0.029	1.792	1.108	1.104	1.104	1.123	1.113	1.113
-0.029	-0.005	0.005	-0.010	-0.005	-0.010	0.024	1.782	1.108	1.104	1.104	1.123	1.113	1.108
-0.005	-0.015	0.000	-0.010	0.000	-0.024	0.024	1.748	1.108	1.104	1.104	1.123	1.113	1.108
0.000	-0.015	0.000	-0.005	-0.005	-0.005	0.029	1.753	1.104	1.104	1.104	1.123	1.113	1.113
0.005	-0.010	0.000	-0.005	-0.005	0.000	0.024	1.777	1.099	1.099	1.099	1.123	1.113	1.113
0.015	-0.005	-0.005	0.000	0.000	-0.010	0.029	1.748	1.108	1.108	1.104	1.123	1.118	1.113
0.015	-0.005	0.000	0.000	0.000	-0.010	0.024	1.792	1.113	1.108	1.104	1.123	1.118	1.113
0.020	-0.005	0.000	0.005	0.005	-0.015	0.029	1.719	1.104	1.108	1.104	1.123	1.118	1.113
0.015	0.000	-0.005	0.010	0.005	-0.020	0.029	1.738	1.104	1.108	1.104	1.123	1.118	1.113
0.000	0.000	0.000	0.010	0.000	0.005	0.024	1.768	1.099	1.104	1.104	1.123	1.118	1.123
-0.005	0.005	0.000	0.005	-0.005	0.010	0.024	1.748	1.104	1.104	1.104	1.123	1.118	1.123
0.005	0.000	0.000	0.000	0.000	0.010	0.024	1.777	1.104	1.104	1.104	1.123	1.118	1.118
-0.005	0.000	-0.005	0.010	0.000	-0.005	0.029	1.772	1.104	1.104	1.104	1.123	1.118	1.118
-0.010	-0.005	0.000	0.000	-0.010	-0.015	0.024	1.792	1.104	1.104	1.104	1.118	1.113	1.113
-0.005	0.000	0.000	0.005	-0.024	0.010	0.024	1.763	1.108	1.108	1.104	1.123	1.113	1.118
-0.005	0.015	0.000	-0.010	-0.010	0.005	0.024	1.792	1.108	1.108	1.104	1.118	1.118	1.118
-0.010	0.010	0.000	-0.005	0.010	0.010	0.024	1.763	1.104	1.108	1.108	1.123	1.123	1.118
-0.015	0.000	0.000	-0.010	0.010	-0.034	0.029	1.777	1.108	1.104	1.104	1.123	1.118	1.108
-0.005	-0.005	0.005	-0.010	0.005	0.005	0.029	1.782	1.108	1.104	1.104	1.118	1.118	1.118
-0.010	-0.005	0.000	-0.010	0.000	0.000	0.029	1.782	1.104	1.104	1.104	1.118	1.113	1.118
-0.005	-0.005	-0.005	-0.005	-0.005	-0.010	0.029	1.738	1.099	1.099	1.099	1.118	1.113	1.113
-0.010	0.000	0.000	-0.005	-0.015	0.005	0.029	1.807	1.104	1.104	1.099	1.123	1.113	1.118
0.010	-0.010	-0.005	0.005	-0.020	0.005	0.024	1.802	1.113	1.099	1.099	1.123	1.113	1.113
-0.005	-0.005	0.000	0.015	-0.020	-0.005	0.029	1.763	1.108	1.104	1.104	1.123	1.118	1.113
-0.005	0.005	-0.005	0.010	-0.005	-0.005	0.029	1.816	1.113	1.104	1.104	1.123	1.118	1.113
0.010	0.000	0.005	0.005	0.015	0.000	0.024	1.782	1.113	1.108	1.104	1.123	1.123	1.113
0.000	-0.005	0.000	-0.005	0.039	-0.005	0.024	1.787	1.108	1.108	1.104	1.123	1.128	1.118
-0.010	0.005	-0.005	-0.015	0.024	-0.005	0.024	1.777	1.104	1.108	1.104	1.118	1.118	1.118
-0.010	0.000	0.000	-0.015	0.015	0.000	0.024	1.797	1.113	1.108	1.108	1.118	1.113	1.118
-0.010	-0.005	0.000	-0.010	0.000	-0.010	0.024	1.758	1.108	1.104	1.104	1.123	1.113	1.113
0.000	0.000	-0.005	-0.005	-0.005	-0.005	0.024	1.787	1.108	1.108	1.108	1.123	1.113	1.113
0.005	0.000	-0.005	0.005	-0.005	0.000	0.029	1.768	1.108	1.108	1.108	1.128	1.118	1.113
0.005	0.000	-0.005	0.020	-0.005	-0.005	0.024	1.753	1.104	1.108	1.104	1.128	1.123	1.118
0.000	-0.005	0.000	0.010	-0.005	-0.015	0.029	1.782	1.108	1.108	1.108	1.128	1.123	1.113
0.015	-0.005	-0.005	0.010	-0.005	0.000	0.024	1.802	1.113	1.104	1.104	1.128	1.123	1.118
0.010	-0.015	0.000	0.010	-0.010	-0.010	0.029	1.738	1.104	1.104	1.104	1.123	1.118	1.118
0.000	-0.005	0.005	0.005	-0.010	0.010	0.029	1.772	1.104	1.104	1.104	1.123	1.118	1.123
-0.010	0.015	0.000	0.010	-0.010	0.000	0.024	1.797	1.104	1.104	1.104	1.123	1.118	1.118
0.005	-0.005	0.000	0.010	-0.005	0.005	0.029	1.753	1.099	1.099	1.104	1.123	1.118	1.118
-0.005	0.005	0.000	0.005	-0.005	0.010	0.029	1.763	1.099	1.099	1.099	1.118	1.118	1.118
-0.005	0.010	-0.005	-0.005	-0.005	0.000	0.024	1.792	1.104	1.099	1.099	1.113	1.118	1.113
-0.005	0.000	0.000	-0.010	-0.005	0.000	0.024	1.772	1.104	1.099	1.099	1.113	1.113	1.113
-0.005	0.005	0.000	-0.015	-0.015	0.010	0.024	1.807	1.108	1.099	1.099	1.118	1.108	1.113
-0.005	0.000	0.000	-0.010	-0.024	0.000	0.029	1.738	1.104	1.099	1.099	1.118	1.108	1.108
-0.005	0.000	-0.005	-0.005	-0.024	-0.005	0.024	1.787	1.104	1.104	1.099	1.118	1.108	1.113
-0.005	0.000	-0.005	-0.005	-0.010	0.010	0.024	1.753	1.104	1.104	1.099	1.118	1.118	1.113
0.000	0.000	-0.005	-0.010	0.015	0.010	0.029	1.792	1.104	1.099	1.099	1.118	1.123	1.118
0.000	-0.005	0.000	-0.005	0.044	0.005	0.024	1.802	1.108	1.099	1.099	1.123	1.128	1.118
0.000	0.000	0.005	-0.005	0.039	-0.015	0.024	1.743	1.104	1.104	1.104	1.123	1.123	1.113
-0.010	0.000	0.000	0.000	0.010	-0.010	0.024	1.802	1.108	1.104	1.104	1.123	1.113	1.113
-0.005	-0.010	0.000	0.000	0.000	-0.015	0.024	1.787	1.104	1.099	1.099	1.123	1.113	1.113
-0.005	-0.005	0.000	0.000	0.010	-0.005	0.024	1.772	1.104	1.104	1.099	1.118	1.118	1.118
-0.005	-0.005	-0.005	0.000	0.024	-0.005	0.029	1.763	1.104	1.099	1.099	1.118	1.118	1.113
-0.010	0.000	-0.005	0.005	0.020	0.005	0.024	1.797	1.104	1.104	1.099	1.123	1.113	1.118
0.000	-0.005	-0.005	0.005	0.000	0.005	0.024	1.777	1.108	1.104	1.099	1.118	1.108	1.113
0.000	-0.005	0.000	-0.005	-0.015	-0.005	0.029	1.753	1.104	1.104	1.099	1.113	1.108	1.108
-0.005	-0.005	-0.005	0.000	-0.020	0.000	0.029	1.807	1.108	1.104	1.099	1.118	1.108	1.108
0.000	0.000	0.000	-0.005	-0.015	0.005	0.029	1.797	1.108	1.104	1.104	1.118	1.108	1.108
-0.005	0.005	0.005	-0.005	-0.010	0.000	0.024	1.787	1.108	1.104	1.104	1.118	1.113	1.108
0.000	0.005	0.005	-0.005	-0.005	-0.005	0.029	1.748	1.099	1.104	1.108	1.118	1.113	1.113
0.000	-0.005	0.000	-0.005	0.000	0.000	0.024	1.797	1.108	1.104	1.104	1.123	1.118	1.113
0.000	-0.005	-0.005	0.000	0.005	-0.005	0.024	1.777	1.108	1.104	1.104	1.118	1.118	1.113
0.000	0.005	-0.005	-0.005	0.000	0.000	0.024	1.743	1.104	1.108	1.104	1.118	1.118	1.113
0.000	-0.005	-0.005	-0.010	-0.010	0.000	0.024	1.787	1.108	1.104	1.104	1.118	1.113	1.113
-0.005	-0.005	0.000	-0.010	-0.015	-0.005	0.024	1.768	1.113	1.104	1.104	1.123	1.113	1.108
0.000	-0.005	-0.005	-0.005	-0.024	-0.020	0.024	1.787	1.113	1.104	1.104	1.123	1.108	1.104
0.000	-0.005	0.000	-0.005	-0.029	0.005	0.024	1.748	1.104	1.108	1.104	1.123	1.113	1.113
0.005	0.000	-0.005	0.005	-0.039	-0.015	0.024	1.753	1.104	1.108	1.108	1.128	1.113	1.108
0.000	-0.005	0.000	-0.005	-0.049	-0.005	0.024	1.768	1.104	1.104	1.104	1.123	1.108	1.108
-0.005	-0.005	0.005	-0.005	-0.049	0.005	0.024	1.753	1.104	1.104	1.108	1.123	1.113	1.113
-0.005	-0.005	0.000	0.000	-0.049	0.000	0.024	1.758	1.099	1.099	1.104	1.123	1.113	1.113
0.000	-0.005	0.000	0.000	-0.039	0.005	0.029	1.748	1.099	1.104	1.104	1.123	1.118	1.118
0.010	-0.005	-0.005	0.005	-0.029	0.005	0.024	1.777	1.104	1.099	1.099	1.123	1.123	1.113
0.005	-0.010	0.000	0.015	-0.005	0.000	0.029	1.753	1.099	1.099	1.099	1.123	1.128	1.118
0.005	-0.005	-0.005	0.010	0.024	-0.034	0.024	1.738	1.099	1.099	1.099	1.123	1.133	1.113
-0.005	0.010	0.000	0.000	0.059	0.000	0.029	1.753	1.099	1.104	1.099	1.123	1.138	1.128
0.000	0.000	-0.005	-0.005	0.117	0.005	0.024	1.772	1.099	1.094	1.099	1.118	1.147	1.138
-0.005	-0.010	0.000	-0.005	0.112	-0.005	0.024	1.733	1.099	1.094	1.099	1.118	1.138	1.133
-0.005	-0.010	0.000	-0.010	0.103	0.010	0.024	1.733	1.099	1.099	1.099	1.118	1.128	1.138
-0.010	-0.015	-0.005	-0.005	0.068	0.015	0.024	1.787	1.104	1.099	1.099	1.118	1.113	1.133
-0.005	0.000	0.000	-0.005	0.015	-0.005	0.024	1.777	1.108	1.104	1.099	1.118	1.099	1.118
-0.005	0.000	0.000	-0.005	-0.044	0.000	0.024	1.753	1.104	1.104	1.099	1.113	1.089	1.108
0.005	0.005	0.000	0.000	-0.083	0.005	0.024	1.729	1.104	1.104	1.104	1.118	1.084	1.099
-0.005	0.000	0.005	0.000	-0.078	0.010	0.024	1.777	1.094	1.099	1.104	1.118	1.094	1.099
-0.020	0.015	0.000	0.010	-0.068	-0.010	0.024	1.733	1.094	1.104	1.099	1.123	1.099	1.094
0.000	0.010	0.000	0.010	-0.044	-0.010	0.029	1.768	1.099	1.099	1.099	1.123	1.113	1.099
-0.005	0.005	0.000	0.005	0.024	-0.010	0.029	1.792	1.094	1.094	1.099	1.118	1.133	1.113
-0.005	0.005	0.005	0.000	0.083	0.000	0.024	1.743	1.094	1.094	1.099	1.118	1.143	1.123
-0.005	0.005	0.005	-0.010	0.073	0.010	0.024	1.797	1.099	1.094	1.094	1.113	1.128	1.123
0.000	0.000	-0.005	-0.020	0.044	0.000	0.029	1.738	1.094	1.094	1.094	1.108	1.113	1.118
0.005	0.000	0.000	-0.020	0.039	0.000	0.024	1.768	1.099	1.094	1.094	1.108	1.108	1.118
-0.005	0.000	-0.010	-0.010	0.020	0.020	0.024	1.748	1.099	1.094	1.089	1.113	1.104	1.118
-0.010	0.000	-0.005	-0.005	-0.005	0.015	0.024	1.816	1.099	1.094	1.094	1.113	1.099	1.108
-0.005	-0.005	-0.005	-0.005	-0.005	-0.005	0.024	1.733	1.099	1.099	1.094	1.113	1.104	1.104
0.005	0.000	-0.005	0.000	-0.020	-0.005	0.024	1.782	1.099	1.099	1.099	1.113	1.099	1.104
0.000	0.005	-0.005	0.005	-0.034	0.000	0.024	1.777	1.104	1.099	1.099	1.113	1.099	1.099
0.000	0.005	-0.005	0.005	-0.059	-0.005	0.024	1.763	1.104	1.099	1.099	1.113	1.094	1.099
0.005	0.005	0.000	0.005	-0.063	-0.015	0.024	1.782	1.104	1.099	1.099	1.113	1.094	1.094
0.000	0.000	-0.005	0.005	-0.063	-0.005	0.024	1.812	1.104	1.099	1.099	1.118	1.104	1.099
-0.005	-0.005	-0.005	0.000	-0.054	-0.005	0.029	1.797	1.104	1.099	1.099	1.118	1.108	1.104
0.000	-0.015	-0.005	0.005	-0.039	-0.010	0.024	1.792	1.108	1.094	1.099	1.118	1.113	1.104
-0.005	-0.005	0.005	0.000	-0.015	0.005	0.029	1.792	1.108	1.099	1.104	1.118	1.123	1.113
0.005	-0.010	0.000	-0.005	0.034	0.010	0.024	1.802	1.113	1.104	1.099	1.118	1.133	1.118
-0.010	-0.005	0.000	-0.005	0.088	-0.020	0.029	1.787	1.108	1.104	1.099	1.118	1.138	1.118
-0.005	-0.005	0.000	-0.010	0.078	0.000	0.024	1.782	1.108	1.108	1.099	1.118	1.133	1.123
-0.005	-0.005	-0.005	0.000	0.044	-0.020	0.029	1.733	1.099	1.104	1.099	1.118	1.118	1.118
-0.010	0.000	-0.005	0.005	0.039	0.000	0.024	1.772	1.104	1.104	1.099	1.118	1.113	1.123
-0.005	0.000	-0.005	0.005	0.059	0.010	0.024	1.733	1.104	1.104	1.104	1.118	1.118	1.123
-0.010	-0.005	-0.005	0.005	0.044	0.000	0.024	1.763	1.099	1.099	1.099	1.118	1.113	1.118
0.005	0.005	0.000	0.000	0.005	0.000	0.024	1.777	1.104	1.104	1.104	1.118	1.104	1.113
0.000	0.005	-0.005	0.000	-0.005	0.015	0.024	1.787	1.108	1.104	1.104	1.118	1.104	1.113
0.000	-0.005	0.000	0.000	-0.024	0.010	0.024	1.758	1.108	1.104	1.104	1.118	1.104	1.108
0.000	0.005	0.000	-0.005	-0.029	0.010	0.029	1.787	1.108	1.108	1.104	1.118	1.104	1.104
0.000	-0.010	-0.005	0.000	-0.049	0.000	0.024	1.768	1.108	1.108	1.104	1.118	1.104	1.104
0.000	0.005	-0.005	0.000	-0.049	0.000	0.024	1.787	1.108	1.108	1.104	1.123	1.108	1.104
0.005	0.000	0.000	0.000	-0.059	0.005	0.024	1.797	1.108	1.108	1.104	1.118	1.104	1.104
-0.005	0.000	-0.005	0.000	-0.059	0.000	0.024	1.763	1.099	1.104	1.104	1.123	1.108	1.104
-0.005	0.005	0.000	0.000	-0.059	-0.005	0.024	1.807	1.104	1.104	1.104	1.123	1.113	1.108
-0.005	-0.010	0.000	0.000	-0.039	-0.005	0.024	1.802	1.104	1.104	1.104	1.123	1.118	1.108
0.000	-0.005	0.000	0.000	-0.020	-0.005	0.029	1.733	1.104	1.104	1.104	1.118	1.123	1.108
0.005	-0.010	0.000	0.000	-0.005	0.000	0.024	1.748	1.099	1.099	1.099	1.123	1.128	1.118
0.005	-0.010	-0.005	-0.005	0.010	-0.005	0.024	1.763	1.099	1.099	1.099	1.118	1.128	1.118
0.000	0.005	0.005	-0.005	0.029	0.005	0.029	1.797	1.104	1.104	1.104	1.123	1.128	1.123
-0.010	0.005	-0.005	0.000	0.024	-0.005	0.029	1.709	1.094	1.104	1.099	1.118	1.123	1.123
-0.015	0.000	0.000	0.000	0.020	0.000	0.024	1.743	1.094	1.099	1.099	1.118	1.118	1.118
-0.005	0.005	0.000	-0.005	0.000	0.005	0.029	1.768	1.099	1.094	1.099	1.113	1.113	1.118
0.000	0.005	-0.005	-0.005	-0.010	0.000	0.024	1.816	1.104	1.099	1.099	1.118	1.108	1.113
0.000	0.000	-0.005	0.000	-0.010	-0.005	0.024	1.787	1.108	1.099	1.099	1.118	1.113	1.113
0.005	-0.005	-0.010	0.000	-0.010	-0.010	0.024	1.768	1.104	1.099	1.099	1.118	1.113	1.113
0.010	0.000	0.000	-0.005	-0.005	0.000	0.024	1.782	1.113	1.104	1.104	1.118	1.113	1.113
0.005	0.005	0.005	0.000	0.000	0.000	0.029	1.802	1.108	1.108	1.104	1.118	1.113	1.113
-0.005	-0.010	0.005	0.000	0.000	0.000	0.024	1.763	1.104	1.104	1.104	1.123	1.118	1.113
0.000	-0.010	0.000	-0.005	0.010	0.000	0.024	1.787	1.108	1.099	1.104	1.118	1.118	1.113
0.000	-0.005	0.000	-0.005	0.005	0.000	0.029	1.802	1.113	1.104	1.104	1.123	1.118	1.113
0.005	0.010	0.000	-0.005	0.010	0.000	0.029	1.787	1.113	1.108	1.104	1.118	1.118	1.118
-0.005	0.000	0.000	0.000	0.005	0.000	0.024	1.807	1.108	1.104	1.104	1.123	1.118	1.113
-0.005	0.000	0.000	0.000	0.000	0.005	0.029	1.777	1.104	1.104	1.104	1.118	1.113	1.118
-0.005	0.000	-0.010	0.000	0.005	-0.015	0.029	1.758	1.099	1.104	1.099	1.118	1.113	1.108
0.000	0.005	-0.005	-0.005	0.005	0.000	0.029	1.777	1.108	1.104	1.099	1.123	1.118	1.113
-0.010	-0.010	-0.005	0.000	0.005	-0.005	0.029	1.792	1.104	1.099	1.099	1.123	1.113	1.113
-0.024	-0.005	0.000	-0.005	0.000	-0.005	0.024	1.714	1.094	1.099	1.099	1.118	1.113	1.113
-0.015	-0.005	0.000	-0.005	0.005	0.010	0.024	1.743	1.099	1.099	1.099	1.118	1.118	1.118
-0.005	0.005	0.000	-0.005	0.000	0.000	0.029	1.748	1.104	1.104	1.099	1.118	1.113	1.113
0.000	0.005	0.000	-0.005	-0.005	-0.010	0.024	1.807	1.108	1.104	1.104	1.118	1.113	1.108
0.005	0.015	-0.005	0.000	-0.010	0.005	0.029	1.719	1.104	1.108	1.099	1.118	1.113	1.108
0.005	0.005	0.005	-0.005	-0.005	0.005	0.024	1.763	1.104	1.104	1.104	1.118	1.113	1.113
0.020	-0.010	0.000	0.000	-0.010	0.000	0.024	1.777	1.108	1.099	1.099	1.123	1.113	1.113
0.020	-0.005	0.000	0.010	-0.005	0.000	0.024	1.738	1.108	1.104	1.104	1.123	1.118	1.113
0.015	0.005	0.000	0.005	0.010	-0.010	0.024	1.768	1.108	1.104	1.104	1.123	1.118	1.113
0.010	0.005	0.000	0.000	0.005	0.005	0.024	1.802	1.104	1.104	1.104	1.123	1.118	1.118
0.000	-0.010	0.000	0.005	0.000	0.005	0.024	1.748	1.099	1.104	1.104	1.123	1.118	1.118
-0.020	-0.010	0.000	0.000	0.005	0.005	0.024	1.797	1.099	1.099	1.104	1.118	1.118	1.118
-0.010	-0.005	-0.005	0.000	0.000	0.000	0.024	1.772	1.104	1.099	1.099	1.118	1.113	1.113
-0.015	-0.015	0.000	0.000	0.010	0.010	0.029	1.787	1.099	1.099	1.099	1.118	1.118	1.118
-0.005	-0.010	-0.005	-0.005	0.010	0.010	0.029	1.797	1.108	1.099	1.099	1.113	1.113	1.118
0.010	-0.010	-0.005	-0.010	0.005	0.015	0.024	1.777	1.113	1.104	1.099	1.113	1.113	1.113
0.010	-0.005	0.000	-0.005	0.005	0.010	0.029	1.777	1.108	1.104	1.099	1.118	1.113	1.113
0.000	-0.005	-0.005	0.000	0.005	0.005	0.024	1.743	1.104	1.104	1.104	1.118	1.113	1.113
0.005	-0.010	-0.005	0.000	0.000	0.005	0.024	1.802	1.108	1.104	1.099	1.118	1.113	1.113
-0.005	-0.010	0.000	-0.005	-0.010	-0.005	0.024	1.787	1.104	1.104	1.104	1.118	1.108	1.108
0.005	0.005	0.005	0.000	0.000	-0.005	0.024	1.787	1.104	1.108	1.104	1.118	1.113	1.108
-0.005	0.010	0.000	0.000	0.000	0.005	0.029	1.768	1.104	1.108	1.104	1.123	1.118	1.113
-0.005	0.005	0.005	0.010	0.000	-0.005	0.029	1.802	1.108	1.108	1.108	1.123	1.118	1.113
0.000	0.000	0.000	0.000	-0.005	0.000	0.024	1.782	1.108	1.104	1.104	1.123	1.118	1.113
-0.005	0.005	0.000	-0.005	0.005	0.005	0.024	1.753	1.099	1.104	1.104	1.123	1.118	1.118
0.000	0.010	0.000	0.000	0.000	0.000	0.029	1.748	1.108	1.108	1.104	1.123	1.118	1.118
0.000	0.005	0.000	0.000	0.000	-0.005	0.029	1.738	1.099	1.104	1.104	1.123	1.118	1.113
0.000	0.005	-0.005	0.000	-0.005	-0.010	0.029	1.772	1.104	1.099	1.104	1.118	1.113	1.113
0.005	0.005	0.000	0.000	0.000	-0.029	0.024	1.768	1.099	1.099	1.104	1.118	1.113	1.108
0.005	-0.015	0.000	-0.005	-0.015	0.005	0.029	1.787	1.104	1.094	1.099	1.118	1.108	1.118
-0.010	-0.005	-0.005	-0.005	-0.049	-0.015	0.024	1.763	1.099	1.099	1.094	1.113	1.099	1.104
-0.010	-0.005	-0.005	-0.005	-0.054	-0.005	0.029	1.782	1.099	1.099	1.094	1.113	1.104	1.108
-0.015	-0.005	-0.005	0.005	-0.063	-0.010	0.029	1.772	1.099	1.094	1.099	1.118	1.104	1.104
-0.005	-0.015	-0.005	-0.005	-0.083	-0.015	0.024	1.802	1.108	1.094	1.094	1.113	1.099	1.099
-0.005	-0.010	-0.005	0.000	-0.083	-0.024	0.024	1.753	1.099	1.099	1.099	1.113	1.099	1.099
-0.010	0.000	0.000	-0.005	-0.054	-0.020	0.024	1.777	1.099	1.099	1.099	1.113	1.113	1.104
0.000	-0.005	-0.005	-0.005	-0.039	-0.005	0.024	1.787	1.104	1.104	1.099	1.118	1.118	1.108
0.000	0.000	0.000	-0.005	-0.034	-0.005	0.029	1.787	1.104	1.104	1.099	1.118	1.118	1.113
0.000	0.000	0.000	-0.005	-0.010	-0.015	0.024	1.763	1.108	1.104	1.099	1.118	1.123	1.113
0.000	-0.005	0.005	-0.005	0.015	0.000	0.024	1.792	1.104	1.104	1.104	1.123	1.128	1.123
0.000	-0.005	0.005	0.000	0.078	0.024	0.029	1.748	1.099	1.104	1.104	1.123	1.143	1.133
0.005	0.000	0.000	0.000	0.112	0.029	0.024	1.807	1.108	1.104	1.104	1.123	1.147	1.143
-0.005	0.005	-0.005	0.000	0.137	0.000	0.029	1.733	1.104	1.108	1.099	1.123	1.147	1.133
-0.010	0.005	0.000	-0.005	0.195	0.034	0.029	1.777	1.104	1.104	1.104	1.123	1.157	1.152
-0.015	0.000	-0.005	0.000	0.273	0.024	0.029	1.748	1.104	1.104	1.104	1.123	1.167	1.152
-0.005	0.000	-0.005	0.000	0.225	0.024	0.029	1.758	1.104	1.104	1.104	1.123	1.138	1.147
-0.010	0.000	0.000	0.000	0.132	0.034	0.024	1.753	1.104	1.104	1.099	1.118	1.108	1.138
-0.005	-0.010	0.000	-0.005	0.088	0.015	0.029	1.792	1.108	1.104	1.099	1.118	1.099	1.118
-0.010	-0.010	0.000	0.000	0.039	0.020	0.024	1.802	1.108	1.104	1.099	1.118	1.089	1.108
-0.005	0.005	-0.005	0.000	-0.020	0.020	0.024	1.797	1.108	1.108	1.104	1.113	1.074	1.099
0.000	-0.005	-0.005	0.005	-0.088	0.000	0.024	1.777	1.108	1.108	1.104	1.113	1.069	1.084
0.000	0.015	0.000	-0.005	-0.112	-0.020	0.024	1.792	1.108	1.108	1.104	1.113	1.074	1.074
0.005	0.000	0.000	0.000	-0.122	0.000	0.024	1.777	1.108	1.108	1.104	1.118	1.084	1.079
0.010	-0.005	0.000	-0.005	-0.107	-0.020	0.024	1.729	1.104	1.104	1.108	1.118	1.094	1.079
0.005	-0.005	0.005	0.000	-0.093	-0.005	0.024	1.748	1.099	1.104	1.104	1.123	1.108	1.089
0.015	0.005	0.000	0.000	-0.078	-0.024	0.029	1.777	1.099	1.104	1.104	1.123	1.113	1.094
0.000	0.005	0.000	0.000	-0.073	-0.010	0.024	1.812	1.099	1.099	1.104	1.123	1.118	1.104
-0.005	-0.005	-0.005	0.000	-0.068	-0.015	0.029	1.733	1.094	1.094	1.099	1.123	1.118	1.108
0.005	-0.005	0.000	0.000	-0.054	-0.010	0.024	1.743	1.094	1.094	1.094	1.123	1.123	1.113
0.000	0.005	-0.005	0.000	-0.044	-0.010	0.024	1.782	1.094	1.094	1.099	1.118	1.123	1.113
0.000	0.000	-0.005	0.000	-0.044	-0.005	0.024	1.807	1.099	1.094	1.099	1.118	1.118	1.118
0.000	-0.010	-0.005	-0.005	-0.039	0.000	0.029	1.738	1.104	1.094	1.094	1.118	1.118	1.118
0.000	0.000	-0.005	0.000	-0.039	-0.005	0.024	1.743	1.094	1.099	1.094	1.113	1.118	1.113
0.010	0.005	0.000	0.000	-0.020	-0.005	0.024	1.768	1.099	1.099	1.099	1.113	1.118	1.118
0.020	-0.005	0.000	-0.005	-0.020	-0.020	0.024	1.748	1.099	1.099	1.094	1.113	1.113	1.113
0.010	0.000	0.000	0.000	-0.010	-0.010	0.029	1.772	1.099	1.099	1.094	1.113	1.118	1.113
-0.005	-0.024	0.000	0.000	-0.005	-0.020	0.024	1.748	1.094	1.089	1.094	1.113	1.113	1.113
-0.020	-0.015	0.000	-0.005	-0.005	-0.005	0.029	1.792	1.094	1.094	1.094	1.113	1.113	1.118
-0.024	-0.015	0.000	-0.005	0.000	-0.020	0.029	1.802	1.099	1.094	1.094	1.113	1.113	1.113
-0.029	-0.010	0.000	0.000	0.005	-0.005	0.024	1.782	1.104	1.099	1.094	1.113	1.118	1.113
-0.020	0.005	0.000	0.000	0.015	-0.005	0.024	1.758	1.104	1.108	1.099	1.113	1.118	1.113
-0.020	0.015	0.000	0.000	0.020	-0.029	0.024	1.763	1.104	1.108	1.099	1.118	1.113	1.108
-0.020	0.020	0.000	-0.005	0.020	0.000	0.024	1.821	1.094	1.104	1.104	1.118	1.118	1.118
0.005	0.000	0.000	0.000	0.015	0.015	0.024	1.758	1.104	1.099	1.104	1.118	1.113	1.123
0.010	-0.010	0.000	0.000	0.015	-0.005	0.029	1.777	1.104	1.099	1.099	1.118	1.113	1.113
0.024	0.010	-0.005	0.000	0.029	0.010	0.024	1.782	1.108	1.104	1.104	1.118	1.118	1.118
0.039	0.020	0.000	0.000	0.024	0.005	0.024	1.743	1.113	1.108	1.104	1.118	1.118	1.113
0.029	0.015	0.000	-0.005	0.020	0.015	0.024	1.763	1.108	1.104	1.104	1.118	1.113	1.118
0.020	0.005	0.000	0.000	0.010	-0.005	0.024	1.753	1.104	1.104	1.104	1.118	1.113	1.108
0.015	0.000	0.005	-0.005	0.010	0.010	0.024	1.807	1.104	1.099	1.104	1.118	1.113	1.113
0.005	0.000	-0.005	-0.005	0.005	0.000	0.024	1.724	1.099	1.099	1.099	1.118	1.113	1.108
0.000	-0.005	-0.005	-0.005	-0.010	0.015	0.024	1.777	1.104	1.099	1.099	1.118	1.108	1.113
0.000	-0.005	-0.005	0.000	-0.020	0.005	0.029	1.748	1.099	1.099	1.099	1.118	1.108	1.108
-0.010	0.005	-0.005	-0.005	-0.015	-0.005	0.024	1.821	1.104	1.099	1.099	1.118	1.108	1.104
-0.049	-0.005	-0.005	-0.005	-0.020	0.005	0.024	1.777	1.089	1.089	1.099	1.113	1.108	1.108
-0.093	0.010	0.000	-0.005	-0.010	0.005	0.024	1.797	1.084	1.089	1.094	1.113	1.113	1.113
-0.073	0.005	0.000	0.000	-0.015	-0.005	0.029	1.733	1.089	1.094	1.094	1.113	1.113	1.108
-0.024	-0.005	0.005	0.000	-0.005	0.010	0.029	1.787	1.108	1.094	1.094	1.118	1.113	1.113
0.015	-0.010	0.000	0.000	0.015	-0.005	0.029	1.777	1.118	1.099	1.094	1.113	1.118	1.113
0.034	-0.005	0.005	0.000	0.020	0.005	0.024	1.777	1.123	1.108	1.099	1.113	1.118	1.113
0.054	-0.005	0.000	0.005	0.024	0.005	0.024	1.787	1.123	1.113	1.104	1.118	1.118	1.118
0.059	-0.005	0.005	0.000	0.010	0.000	0.024	1.724	1.118	1.113	1.104	1.118	1.113	1.113
0.049	0.000	0.005	-0.005	0.005	-0.010	0.024	1.792	1.113	1.113	1.108	1.118	1.108	1.113
0.049	0.000	0.005	0.000	-0.010	0.000	0.029	1.802	1.113	1.113	1.108	1.123	1.108	1.108
0.029	-0.010	0.000	0.000	-0.015	0.000	0.024	1.753	1.099	1.104	1.104	1.118	1.108	1.113
0.005	0.000	0.000	0.000	-0.005	0.000	0.029	1.807	1.099	1.104	1.104	1.123	1.113	1.108
-0.010	0.000	-0.005	0.005	0.000	0.000	0.029	1.753	1.089	1.099	1.104	1.123	1.118	1.113
-0.024	-0.010	-0.005	0.005	-0.015	-0.005	0.029	1.763	1.094	1.094	1.099	1.118	1.113	1.108
-0.024	-0.010	-0.005	0.000	-0.005	-0.015	0.029	1.733	1.089	1.094	1.094	1.118	1.113	1.108
-0.020	-0.015	-0.005	0.000	-0.005	0.000	0.029	1.807	1.099	1.089	1.094	1.118	1.113	1.113
-0.020	0.000	-0.010	0.000	-0.010	0.005	0.029	1.763	1.099	1.094	1.094	1.113	1.113	1.113
-0.024	-0.005	0.000	0.005	-0.024	-0.010	0.029	1.772	1.099	1.094	1.094	1.113	1.108	1.108
-0.020	-0.005	0.000	0.000	-0.034	-0.020	0.024	1.782	1.099	1.099	1.094	1.113	1.104	1.104
-0.005	0.010	-0.005	0.000	-0.054	-0.020	0.029	1.787	1.104	1.104	1.099	1.113	1.099	1.104
-0.005	0.005	-0.005	0.005	-0.044	-0.020	0.024	1.802	1.118	1.104	1.099	1.118	1.108	1.104
-0.010	-0.010	-0.005	0.000	-0.029	-0.020	0.029	1.797	1.113	1.104	1.099	1.113	1.113	1.108
-0.005	0.005	0.000	0.000	-0.005	0.005	0.024	1.797	1.113	1.113	1.104	1.118	1.118	1.118
-0.005	-0.005	0.000	-0.005	0.010	0.000	0.024	1.792	1.108	1.104	1.104	1.118	1.123	1.118
-0.010	0.020	0.000	0.000	0.010	0.000	0.024	1.768	1.104	1.113	1.108	1.123	1.123	1.118
-0.005	0.010	0.005	-0.005	0.020	0.000	0.024	1.743	1.113	1.108	1.108	1.123	1.123	1.118
-0.015	-0.005	0.005	0.000	0.039	0.000	0.029	1.772	1.104	1.104	1.108	1.123	1.128	1.123
-0.010	0.000	0.005	0.005	0.034	-0.015	0.029	1.738	1.104	1.108	1.104	1.123	1.123	1.118
-0.010	-0.005	0.000	-0.005	0.010	0.000	0.029	1.772	1.104	1.104	1.104	1.123	1.113	1.118
-0.005	-0.020	-0.005	0.000	0.010	-0.005	0.029	1.748	1.094	1.099	1.104	1.118	1.118	1.118
-0.005	-0.020	0.000	-0.005	0.010	0.010	0.024	1.782	1.094	1.094	1.099	1.123	1.118	1.123
-0.010	-0.010	-0.005	-0.005	0.044	0.010	0.029	1.772	1.099	1.099	1.099	1.118	1.128	1.123
-0.005	-0.005	0.000	-0.005	0.093	0.015	0.024	1.738	1.099	1.099	1.099	1.118	1.133	1.128
0.000	-0.005	0.000	-0.005	0.103	0.020	0.024	1.753	1.104	1.104	1.099	1.118	1.133	1.128
-0.015	-0.010	-0.005	0.000	0.088	0.000	0.024	1.792	1.099	1.099	1.099	1.118	1.123	1.123
0.000	0.000	0.005	0.000	0.078	-0.005	0.024	1.777	1.108	1.104	1.099	1.118	1.118	1.123
-0.010	0.010	0.000	-0.005	0.073	0.000	0.024	1.802	1.108	1.108	1.099	1.118	1.118	1.118
0.005	0.005	0.000	0.000	0.068	0.010	0.024	1.797	1.113	1.108	1.104	1.118	1.113	1.123
0.024	0.005	0.005	0.000	0.059	0.010	0.024	1.826	1.128	1.113	1.104	1.123	1.118	1.118
0.015	-0.005	0.000	0.000	0.068	-0.005	0.024	1.777	1.113	1.113	1.108	1.123	1.118	1.113
0.010	-0.005	-0.005	0.000	0.039	0.015	0.024	1.792	1.113	1.108	1.104	1.123	1.108	1.113
0.000	0.000	-0.010	0.000	-0.039	0.010	0.029	1.777	1.108	1.108	1.104	1.123	1.089	1.104
0.020	0.000	-0.005	0.005	-0.127	0.000	0.029	1.714	1.104	1.113	1.108	1.123	1.074	1.094
0.010	0.005	-0.005	-0.005	-0.161	0.005	0.029	1.787	1.104	1.108	1.108	1.118	1.074	1.089
0.005	-0.005	-0.005	-0.005	-0.151	-0.005	0.024	1.792	1.104	1.104	1.104	1.123	1.089	1.084
-0.005	-0.020	-0.005	0.000	-0.103	-0.024	0.024	1.787	1.099	1.094	1.104	1.123	1.108	1.089
-0.005	-0.015	0.000	0.000	-0.068	-0.010	0.029	1.777	1.094	1.094	1.099	1.123	1.123	1.099
-0.005	0.005	-0.005	0.000	-0.039	0.005	0.024	1.802	1.094	1.104	1.104	1.123	1.128	1.113
-0.005	0.010	0.005	0.000	-0.044	-0.005	0.029	1.777	1.104	1.099	1.104	1.118	1.123	1.113
-0.005	0.010	0.000	0.000	-0.015	-0.010	0.029	1.753	1.099	1.099	1.099	1.123	1.133	1.118
0.005	0.005	-0.005	0.000	0.005	-0.024	0.029	1.777	1.099	1.099	1.099	1.118	1.128	1.118
-0.005	-0.010	0.000	0.000	0.005	-0.005	0.024	1.787	1.104	1.094	1.094	1.118	1.128	1.123
-0.010	0.000	0.000	-0.005	0.005	0.000	0.024	1.782	1.104	1.104	1.099	1.118	1.123	1.128
-0.005	0.000	0.000	-0.005	0.000	0.000	0.024	1.768	1.108	1.104	1.099	1.118	1.118	1.123
-0.010	0.005	0.000	0.000	0.000	-0.005	0.024	1.763	1.104	1.104	1.104	1.118	1.118	1.123
0.005	0.010	0.000	-0.005	0.000	-0.010	0.024	1.807	1.113	1.104	1.104	1.118	1.118	1.118
-0.005	0.010	-0.005	0.000	0.020	-0.005	0.029	1.738	1.104	1.108	1.104	1.118	1.123	1.123
0.000	0.020	0.000	-0.005	0.039	0.005	0.024	1.787	1.108	1.108	1.104	1.123	1.128	1.123
-0.010	0.005	0.000	0.005	0.029	0.010	0.024	1.733	1.099	1.104	1.104	1.123	1.123	1.123
0.005	0.010	0.005	0.000	0.020	-0.005	0.024	1.743	1.104	1.104	1.104	1.123	1.118	1.123
-0.015	0.000	0.000	-0.005	0.015	0.010	0.024	1.763	1.094	1.099	1.104	1.123	1.113	1.118
0.015	0.000	0.000	-0.005	0.024	-0.005	0.029	1.772	1.104	1.099	1.099	1.118	1.118	1.118
0.000	-0.005	0.000	0.000	0.054	0.005	0.024	1.787	1.104	1.094	1.099	1.123	1.123	1.118
-0.005	0.000	-0.005	0.000	0.073	-0.020	0.029	1.758	1.099	1.099	1.099	1.123	1.128	1.113
-0.005	0.010	0.000	0.000	0.059	-0.005	0.029	1.772	1.104	1.099	1.094	1.118	1.123	1.118
-0.010	0.000	0.000	-0.005	0.039	0.015	0.024	1.797	1.104	1.099	1.099	1.118	1.108	1.123
-0.010	-0.005	0.000	0.000	-0.034	0.005	0.029	1.768	1.099	1.099	1.094	1.113	1.089	1.108
-0.015	-0.010	0.000	0.000	-0.068	-0.005	0.029	1.787	1.108	1.099	1.094	1.113	1.089	1.099
0.000	0.000	-0.005	0.000	-0.068	0.000	0.024	1.787	1.099	1.099	1.099	1.113	1.094	1.099
0.005	0.000	-0.005	0.000	-0.063	0.000	0.024	1.782	1.108	1.099	1.099	1.113	1.099	1.099
0.000	-0.005	-0.005	0.000	-0.059	-0.015	0.029	1.787	1.104	1.104	1.099	1.113	1.104	1.099
0.015	0.000	-0.005	0.000	-0.039	0.000	0.024	1.787	1.104	1.104	1.104	1.118	1.113	1.108
0.010	0.000	-0.005	0.000	-0.029	0.005	0.024	1.763	1.099	1.099	1.104	1.118	1.113	1.108
0.005	0.000	0.000	0.000	-0.010	0.010	0.024	1.733	1.099	1.099	1.099	1.118	1.123	1.113
0.015	0.000	0.000	0.005	-0.005	-0.010	0.024	1.787	1.099	1.099	1.104	1.118	1.123	1.113
0.024	0.000	-0.005	0.000	-0.005	0.005	0.029	1.748	1.099	1.104	1.099	1.118	1.118	1.118
0.015	-0.005	0.000	-0.005	-0.010	0.000	0.024	1.792	1.099	1.094	1.099	1.118	1.113	1.113
0.020	-0.005	0.005	0.000	-0.020	-0.020	0.024	1.738	1.094	1.099	1.099	1.118	1.113	1.108
0.005	-0.005	0.000	-0.005	-0.005	0.000	0.024	1.802	1.094	1.094	1.094	1.118	1.113	1.113
0.005	-0.005	-0.005	-0.005	0.000	-0.005	0.029	1.792	1.099	1.094	1.099	1.113	1.113	1.113
-0.005	-0.010	0.000	-0.005	0.000	-0.005	0.024	1.816	1.104	1.094	1.094	1.113	1.118	1.113
-0.010	-0.005	0.000	0.000	0.015	-0.010	0.024	1.733	1.099	1.094	1.094	1.113	1.113	1.113
-0.005	-0.005	0.000	-0.005	0.005	-0.005	0.029	1.768	1.099	1.099	1.094	1.113	1.113	1.108
-0.010	0.000	0.000	0.000	0.005	-0.005	0.024	1.777	1.099	1.099	1.094	1.113	1.113	1.113
-0.010	-0.005	-0.005	0.000	0.000	0.000	0.024	1.753	1.094	1.099	1.094	1.113	1.108	1.113
-0.005	0.000	0.000	0.000	-0.005	0.005	0.029	1.738	1.094	1.094	1.094	1.113	1.108	1.113
-0.005	0.000	-0.005	0.000	0.005	-0.020	0.024	1.797	1.099	1.099	1.094	1.118	1.113	1.104
-0.010	0.005	0.000	0.000	0.005	0.015	0.029	1.753	1.099	1.099	1.094	1.113	1.113	1.118
-0.010	0.010	-0.005	-0.005	0.005	-0.010	0.029	1.787	1.104	1.099	1.094	1.118	1.113	1.108
0.005	0.000	0.000	0.000	0.015	0.020	0.029	1.729	1.099	1.099	1.099	1.113	1.118	1.118
-0.015	0.015	0.000	0.000	0.015	0.005	0.029	1.792	1.104	1.099	1.099	1.118	1.113	1.113
-0.010	-0.005	0.000	0.000	0.024	0.000	0.029	1.792	1.099	1.099	1.099	1.113	1.118	1.113
-0.010	0.000	0.000	0.000	0.024	0.020	0.024	1.802	1.104	1.099	1.099	1.113	1.113	1.118
-0.005	-0.010	0.000	0.000	0.015	0.010	0.024	1.753	1.104	1.099	1.094	1.113	1.108	1.113
0.000	-0.010	-0.005	0.005	0.010	0.010	0.024	1.709	1.099	1.094	1.094	1.113	1.108	1.108
0.005	-0.005	0.000	0.000	-0.005	0.005	0.029	1.729	1.084	1.094	1.094	1.113	1.108	1.108
0.000	0.000	-0.010	0.000	-0.005	0.000	0.029	1.758	1.084	1.089	1.094	1.108	1.104	1.104
-0.010	0.010	-0.005	0.000	-0.010	-0.005	0.024	1.787	1.104	1.094	1.094	1.108	1.104	1.104
0.000	0.005	-0.005	0.000	-0.015	-0.005	0.024	1.812	1.113	1.099	1.094	1.113	1.104	1.104
0.005	0.000	0.000	0.000	-0.005	0.000	0.024	1.787	1.113	1.104	1.099	1.113	1.104	1.104
0.005	0.000	0.000	0.000	-0.005	0.000	0.024	1.758	1.113	1.099	1.099	1.113	1.108	1.104
0.005	0.005	0.000	-0.005	-0.010	-0.010	0.024	1.777	1.113	1.104	1.099	1.113	1.104	1.104
0.000	0.000	0.005	0.000	0.000	0.000	0.029	1.777	1.104	1.104	1.099	1.118	1.113	1.108
0.000	0.005	0.005	0.000	0.020	0.000	0.029	1.777	1.113	1.108	1.104	1.118	1.118	1.108
0.005	0.005	0.005	0.000	0.020	0.000	0.029	1.753	1.099	1.108	1.104	1.123	1.118	1.108
0.000	0.000	0.000	0.000	0.000	-0.010	0.024	1.777	1.094	1.104	1.104	1.118	1.113	1.108
0.000	0.000	-0.010	0.000	0.000	-0.020	0.029	1.782	1.099	1.099	1.104	1.118	1.108	1.108
-0.005	0.000	-0.005	0.000	-0.010	0.005	0.029	1.763	1.099	1.099	1.099	1.118	1.113	1.113
-0.015	-0.005	0.000	-0.005	-0.010	-0.010	0.024	1.826	1.099	1.099	1.099	1.118	1.108	1.108
0.005	0.000	-0.005	0.000	-0.010	0.010	0.029	1.758	1.094	1.099	1.099	1.118	1.108	1.113
0.005	-0.005	-0.005	0.000	-0.005	0.010	0.029	1.772	1.104	1.099	1.094	1.118	1.113	1.113
-0.010	0.000	-0.005	-0.005	0.000	-0.015	0.029	1.797	1.099	1.094	1.099	1.118	1.113	1.108
0.000	0.000	0.000	0.000	0.000	0.010	0.024	1.768	1.104	1.094	1.094	1.113	1.113	1.113
0.000	-0.005	-0.005	-0.005	0.005	0.010	0.024	1.787	1.094	1.094	1.094	1.113	1.113	1.113
0.000	0.000	0.000	0.005	0.000	0.005	0.024	1.763	1.094	1.099	1.099	1.113	1.113	1.113
0.000	0.000	0.000	0.000	-0.010	0.005	0.024	1.753	1.099	1.094	1.094	1.113	1.108	1.108
-0.010	-0.005	-0.005	0.000	-0.005	0.005	0.024	1.748	1.094	1.094	1.094	1.113	1.108	1.108
0.005	0.000	-0.005	0.000	0.010	0.005	0.024	1.782	1.099	1.094	1.094	1.113	1.113	1.108
0.000	-0.005	0.000	0.000	0.015	-0.005	0.024	1.719	1.099	1.099	1.094	1.113	1.113	1.108
0.005	0.010	-0.010	0.000	0.020	0.015	0.024	1.772	1.108	1.099	1.094	1.113	1.108	1.113
-0.005	-0.010	0.000	0.000	0.005	0.005	0.024	1.699	1.099	1.099	1.094	1.113	1.113	1.108
0.000	0.000	0.000	-0.005	-0.010	0.010	0.024	1.777	1.099	1.099	1.094	1.113	1.104	1.108
0.010	0.000	-0.005	-0.005	-0.005	0.000	0.029	1.787	1.104	1.099	1.099	1.113	1.108	1.108
-0.005	-0.005	0.000	0.000	-0.010	-0.005	0.029	1.743	1.099	1.099	1.099	1.113	1.108	1.108
0.005	-0.005	-0.005	0.000	-0.010	0.005	0.029	1.787	1.099	1.099	1.094	1.118	1.108	1.108
0.005	-0.005	-0.005	0.000	-0.029	0.000	0.029	1.763	1.099	1.099	1.094	1.113	1.104	1.108
-0.010	-0.005	-0.005	0.000	-0.029	0.005	0.024	1.772	1.099	1.099	1.094	1.113	1.104	1.104
-0.005	-0.020	-0.005	-0.005	-0.020	-0.020	0.029	1.787	1.099	1.094	1.094	1.113	1.108	1.104
-0.005	-0.015	0.000	0.000	-0.010	0.005	0.024	1.709	1.089	1.094	1.094	1.113	1.113	1.108
-0.005	-0.010	-0.005	0.000	0.000	-0.010	0.029	1.768	1.094	1.094	1.094	1.113	1.113	1.104
0.000	-0.010	0.000	0.005	-0.005	0.000	0.029	1.738	1.094	1.094	1.094	1.113	1.113	1.108
0.000	0.000	0.005	-0.005	0.005	-0.015	0.024	1.777	1.094	1.094	1.094	1.113	1.113	1.104
0.010	0.000	0.005	0.000	0.010	0.000	0.024	1.753	1.094	1.094	1.094	1.113	1.113	1.108
0.010	0.000	0.000	0.000	0.010	-0.005	0.024	1.792	1.094	1.094	1.094	1.113	1.108	1.108
0.005	0.005	0.000	0.000	0.010	0.000	0.024	1.792	1.099	1.094	1.094	1.113	1.108	1.108
-0.010	0.020	0.000	0.000	0.010	0.000	0.024	1.792	1.099	1.099	1.094	1.113	1.108	1.108
-0.005	0.010	0.000	-0.005	0.015	-0.010	0.024	1.792	1.104	1.094	1.099	1.113	1.108	1.104
0.010	0.024	0.005	-0.005	0.029	0.000	0.024	1.797	1.108	1.104	1.099	1.118	1.113	1.113
-0.005	0.024	0.000	0.005	0.010	-0.010	0.024	1.792	1.104	1.104	1.099	1.118	1.108	1.108
-0.005	0.010	0.005	0.000	-0.010	0.000	0.024	1.777	1.099	1.094	1.099	1.118	1.104	1.108
-0.005	0.005	0.000	0.000	-0.010	0.005	0.024	1.777	1.099	1.099	1.099	1.118	1.108	1.108
-0.005	0.005	0.000	0.000	0.000	0.000	0.029	1.787	1.104	1.099	1.099	1.118	1.108	1.108
-0.010	-0.005	-0.005	-0.005	0.005	0.000	0.024	1.738	1.094	1.099	1.094	1.113	1.113	1.108
-0.005	-0.010	0.000	0.000	0.010	0.005	0.029	1.792	1.099	1.094	1.094	1.113	1.113	1.113
-0.005	-0.010	-0.010	0.000	-0.005	0.005	0.024	1.772	1.094	1.094	1.094	1.113	1.108	1.108
-0.010	-0.010	-0.010	-0.005	0.000	0.000	0.024	1.787	1.099	1.094	1.094	1.113	1.108	1.104
-0.005	-0.010	-0.010	-0.005	0.010	0.000	0.029	1.807	1.104	1.099	1.094	1.108	1.108	1.108
0.000	0.005	-0.005	-0.005	0.015	-0.015	0.024	1.777	1.099	1.104	1.099	1.108	1.108	1.108
0.000	0.005	0.005	-0.005	0.005	0.000	0.029	1.797	1.104	1.099	1.099	1.113	1.104	1.108
0.005	0.005	0.005	-0.005	-0.005	-0.005	0.029	1.763	1.104	1.104	1.099	1.113	1.104	1.104
0.000	0.005	0.005	0.000	-0.005	-0.005	0.029	1.792	1.099	1.099	1.099	1.113	1.104	1.104
0.000	-0.024	0.005	0.000	-0.005	-0.010	0.029	1.768	1.099	1.094	1.094	1.113	1.108	1.104
-0.005	-0.020	0.000	0.000	0.000	-0.010	0.024	1.758	1.099	1.094	1.094	1.113	1.108	1.108
0.000	-0.024	-0.005	0.000	-0.005	-0.029	0.024	1.743	1.094	1.094	1.094	1.113	1.108	1.104
-0.005	-0.020	0.005	-0.005	-0.005	-0.010	0.024	1.797	1.104	1.099	1.094	1.113	1.108	1.108
0.000	-0.010	0.000	0.000	0.005	-0.010	0.024	1.797	1.099	1.104	1.099	1.113	1.108	1.108
0.000	-0.015	-0.005	0.000	0.000	0.000	0.024	1.802	1.099	1.099	1.094	1.113	1.113	1.108
0.005	-0.005	0.000	-0.005	0.000	0.015	0.029	1.777	1.104	1.104	1.099	1.113	1.108	1.113
-0.005	-0.005	-0.005	0.000	-0.010	-0.005	0.029	1.719	1.094	1.104	1.099	1.113	1.108	1.108
0.000	0.000	0.005	0.000	0.000	0.005	0.024	1.792	1.099	1.099	1.099	1.118	1.113	1.113
-0.005	0.000	0.000	0.005	-0.005	-0.010	0.024	1.763	1.094	1.099	1.099	1.113	1.108	1.108
0.000	0.000	0.005	0.000	0.000	0.000	0.024	1.792	1.099	1.099	1.099	1.118	1.108	1.108
-0.010	0.000	0.000	0.005	0.005	-0.015	0.029	1.763	1.099	1.099	1.099	1.118	1.113	1.108
-0.010	0.010	0.005	0.000	0.015	-0.005	0.024	1.797	1.099	1.099	1.099	1.118	1.113	1.113
-0.005	0.010	0.015	0.000	0.005	0.010	0.029	1.748	1.099	1.104	1.099	1.118	1.113	1.113
0.000	0.024	0.000	-0.005	0.010	-0.005	0.024	1.797	1.104	1.104	1.094	1.113	1.113	1.108
0.000	-0.005	0.000	0.005	0.000	0.005	0.024	1.763	1.099	1.099	1.094	1.113	1.108	1.113
0.005	0.005	-0.005	0.005	0.010	0.000	0.029	1.787	1.104	1.094	1.094	1.113	1.113	1.113
0.010	-0.005	-0.005	0.005	0.010	0.000	0.024	1.758	1.104	1.094	1.094	1.118	1.113	1.108
0.000	0.000	-0.005	0.000	0.005	-0.015	0.024	1.787	1.099	1.099	1.094	1.113	1.108	1.108
0.000	-0.010	0.000	0.000	-0.005	0.010	0.029	1.772	1.108	1.099	1.099	1.113	1.108	1.113
0.000	-0.010	0.000	0.000	-0.010	-0.005	0.029	1.787	1.104	1.099	1.099	1.113	1.104	1.108
-0.005	-0.005	-0.005	0.000	-0.010	0.000	0.024	1.729	1.099	1.104	1.094	1.113	1.108	1.108
-0.005	0.005	0.005	-0.005	-0.010	0.005	0.024	1.782	1.104	1.108	1.104	1.113	1.108	1.108
0.005	0.010	0.005	-0.005	-0.005	0.010	0.024	1.802	1.108	1.104	1.104	1.118	1.108	1.113
0.005	0.000	-0.005	-0.005	-0.010	-0.005	0.029	1.812	1.104	1.099	1.104	1.118	1.108	1.108
0.010	0.024	0.000	-0.005	-0.010	0.005	0.024	1.772	1.104	1.108	1.104	1.118	1.108	1.108
0.000	0.024	-0.005	0.000	-0.010	0.005	0.024	1.738	1.104	1.104	1.099	1.118	1.113	1.108
-0.010	-0.010	-0.005	0.005	-0.015	-0.010	0.024	1.768	1.123	1.099	1.099	1.123	1.113	1.104
-0.005	-0.034	0.000	0.005	-0.010	0.000	0.024	1.777	1.118	1.099	1.099	1.118	1.113	1.108
0.000	-0.005	0.000	0.005	-0.005	-0.005	0.029	1.748	1.113	1.108	1.099	1.118	1.113	1.108
-0.005	-0.005	0.000	0.010	-0.005	0.005	0.024	1.782	1.108	1.108	1.099	1.118	1.113	1.113
-0.010	-0.010	0.000	0.010	-0.005	0.000	0.024	1.763	1.104	1.108	1.104	1.123	1.113	1.113
-0.005	-0.005	-0.005	0.005	-0.005	0.010	0.029	1.733	1.104	1.104	1.104	1.123	1.113	1.113
0.000	0.005	0.000	0.000	-0.005	0.005	0.029	1.768	1.104	1.108	1.104	1.123	1.113	1.113
-0.005	-0.005	0.005	-0.005	-0.005	0.015	0.024	1.787	1.104	1.104	1.104	1.123	1.118	1.118
0.000	-0.020	-0.005	-0.005	0.000	0.005	0.029	1.821	1.108	1.099	1.104	1.118	1.113	1.113
0.005	-0.010	-0.005	-0.005	-0.059	-0.010	0.024	1.772	1.099	1.108	1.104	1.118	1.099	1.104
0.005	-0.005	0.000	-0.010	-0.103	-0.044	0.029	1.777	1.104	1.104	1.099	1.118	1.089	1.094
0.005	0.005	0.000	-0.010	-0.078	-0.024	0.024	1.733	1.099	1.108	1.104	1.118	1.104	1.099
0.000	0.020	0.000	0.000	-0.039	-0.024	0.029	1.768	1.094	1.104	1.104	1.123	1.118	1.108
-0.010	-0.015	-0.005	-0.010	0.015	-0.020	0.024	1.772	1.094	1.089	1.099	1.123	1.133	1.118
0.005	-0.015	0.000	-0.005	0.059	0.015	0.024	1.772	1.094	1.094	1.099	1.123	1.143	1.133
-0.010	-0.024	0.000	0.000	0.088	0.000	0.024	1.729	1.094	1.089	1.094	1.123	1.143	1.133
-0.010	0.029	0.000	-0.005	0.093	-0.005	0.024	1.787	1.104	1.108	1.099	1.118	1.138	1.128
0.000	0.049	-0.005	0.000	0.073	0.015	0.024	1.782	1.108	1.113	1.104	1.118	1.128	1.133
-0.010	0.005	0.000	0.000	0.024	0.005	0.024	1.787	1.104	1.099	1.099	1.118	1.108	1.128
0.000	-0.010	0.000	-0.005	-0.024	0.020	0.024	1.802	1.113	1.094	1.094	1.113	1.094	1.118
0.000	-0.005	-0.005	0.000	-0.063	0.034	0.024	1.787	1.108	1.099	1.094	1.118	1.094	1.113
0.005	-0.010	0.000	0.005	-0.063	0.000	0.029	1.777	1.108	1.104	1.099	1.113	1.099	1.099
0.000	-0.005	-0.005	0.000	-0.024	0.024	0.029	1.787	1.104	1.099	1.099	1.118	1.108	1.108
0.000	-0.005	0.000	0.005	-0.010	0.029	0.024	1.753	1.104	1.104	1.099	1.118	1.118	1.113
0.005	0.005	0.000	0.000	0.029	0.010	0.024	1.782	1.108	1.104	1.104	1.118	1.128	1.108
-0.005	-0.005	0.000	0.005	0.073	0.015	0.024	1.738	1.094	1.099	1.104	1.118	1.138	1.123
0.005	0.000	0.000	-0.005	0.112	0.010	0.024	1.792	1.108	1.104	1.104	1.118	1.143	1.128
-0.005	-0.005	0.000	0.000	0.137	-0.005	0.024	1.777	1.104	1.099	1.104	1.123	1.138	1.128
0.005	-0.005	0.005	-0.005	0.127	0.005	0.029	1.792	1.108	1.108	1.104	1.123	1.133	1.128
-0.005	0.005	0.000	-0.010	0.093	-0.024	0.029	1.772	1.108	1.108	1.104	1.118	1.118	1.118
-0.005	0.000	0.000	-0.020	0.049	-0.005	0.029	1.816	1.118	1.108	1.104	1.118	1.104	1.113
-0.005	-0.010	0.000	-0.010	0.000	-0.029	0.029	1.792	1.113	1.104	1.104	1.118	1.094	1.104
0.000	-0.005	-0.010	-0.005	-0.063	-0.005	0.029	1.792	1.113	1.108	1.104	1.118	1.084	1.099
0.005	0.000	-0.010	-0.005	-0.088	-0.005	0.029	1.792	1.108	1.104	1.104	1.118	1.084	1.094
-0.010	0.005	-0.005	-0.005	-0.098	-0.010	0.029	1.787	1.099	1.108	1.108	1.118	1.089	1.094
-0.005	0.005	0.000	0.005	-0.098	-0.024	0.024	1.758	1.099	1.108	1.104	1.123	1.099	1.089
-0.005	0.005	0.000	0.005	-0.088	-0.010	0.024	1.777	1.094	1.099	1.104	1.123	1.104	1.094
0.005	-0.005	0.000	0.000	-0.059	-0.005	0.024	1.738	1.104	1.099	1.104	1.123	1.118	1.104
0.000	-0.005	0.015	-0.005	-0.049	-0.005	0.024	1.763	1.104	1.099	1.104	1.118	1.118	1.108
-0.005	0.000	0.010	-0.005	-0.034	-0.029	0.024	1.787	1.069	1.094	1.104	1.123	1.123	1.108
0.005	0.000	0.005	0.000	-0.024	0.000	0.024	1.777	1.079	1.089	1.094	1.118	1.128	1.118
0.000	0.005	0.000	0.010	-0.015	0.000	0.024	1.812	1.089	1.089	1.094	1.123	1.128	1.118
0.000	0.005	-0.010	0.015	-0.005	0.000	0.029	1.763	1.094	1.094	1.094	1.118	1.128	1.123
-0.010	0.000	-0.005	0.010	-0.005	-0.029	0.024	1.797	1.099	1.089	1.094	1.118	1.123	1.118
-0.010	0.000	0.000	0.010	0.005	0.000	0.029	1.772	1.104	1.094	1.094	1.118	1.123	1.123
-0.005	-0.010	-0.005	0.010	0.000	0.005	0.029	1.758	1.104	1.094	1.089	1.113	1.118	1.123
0.000	-0.005	-0.005	0.015	0.000	0.005	0.024	1.753	1.104	1.099	1.094	1.113	1.113	1.123
0.000	0.005	-0.005	0.005	0.005	-0.005	0.024	1.709	1.099	1.099	1.094	1.113	1.113	1.118
0.005	-0.015	-0.005	0.005	0.005	0.000	0.029	1.787	1.104	1.094	1.094	1.113	1.108	1.113
0.005	-0.015	-0.005	-0.005	0.005	0.000	0.024	1.768	1.099	1.094	1.094	1.108	1.108	1.113
0.005	-0.024	0.005	0.000	0.010	0.000	0.024	1.797	1.108	1.094	1.094	1.113	1.108	1.113
-0.005	-0.020	0.000	-0.005	0.010	0.000	0.024	1.768	1.099	1.099	1.094	1.108	1.108	1.108
-0.005	-0.015	0.000	0.000	0.010	0.000	0.024	1.709	1.089	1.099	1.094	1.108	1.108	1.108
-0.005	0.024	0.000	-0.010	0.005	0.000	0.024	1.802	1.099	1.108	1.094	1.108	1.104	1.108
-0.005	0.024	-0.005	-0.005	0.015	0.000	0.024	1.772	1.104	1.104	1.094	1.113	1.104	1.108
-0.010	0.005	-0.005	-0.005	0.010	0.005	0.029	1.753	1.099	1.099	1.099	1.113	1.104	1.108
-0.005	-0.005	0.000	0.000	0.010	0.000	0.024	1.768	1.099	1.094	1.099	1.113	1.108	1.104
0.005	0.000	0.005	-0.005	0.010	-0.005	0.029	1.768	1.099	1.099	1.099	1.113	1.108	1.104
-0.005	-0.005	0.000	-0.005	0.000	-0.015	0.029	1.792	1.104	1.094	1.094	1.113	1.108	1.104
0.000	-0.005	0.000	0.000	0.000	-0.010	0.029	1.772	1.104	1.099	1.094	1.113	1.108	1.104
0.005	0.015	-0.005	-0.005	0.000	-0.005	0.029	1.777	1.104	1.104	1.094	1.113	1.108	1.108
-0.005	0.005	-0.005	-0.005	0.005	-0.020	0.029	1.772	1.104	1.104	1.099	1.118	1.113	1.104
-0.005	0.005	-0.005	-0.005	0.000	-0.005	0.024	1.772	1.104	1.099	1.099	1.118	1.108	1.108
-0.010	0.010	0.000	0.000	0.000	0.000	0.029	1.782	1.099	1.099	1.099	1.118	1.108	1.113
-0.005	0.000	0.000	0.010	0.000	0.010	0.029	1.743	1.094	1.099	1.099	1.118	1.113	1.113
-0.005	-0.005	0.000	0.000	-0.020	0.000	0.024	1.807	1.099	1.094	1.094	1.113	1.108	1.104
0.005	-0.015	0.000	-0.005	-0.010	0.005	0.024	1.772	1.099	1.094	1.099	1.113	1.108	1.113
0.005	-0.015	0.000	-0.005	-0.010	0.015	0.029	1.694	1.094	1.094	1.094	1.113	1.108	1.113
0.000	-0.010	-0.005	-0.005	-0.010	-0.010	0.024	1.797	1.094	1.094	1.094	1.113	1.108	1.104
-0.005	-0.010	-0.005	-0.005	-0.005	0.000	0.024	1.782	1.099	1.094	1.094	1.108	1.108	1.108
0.005	-0.015	0.000	-0.005	0.000	0.005	0.024	1.748	1.099	1.094	1.089	1.113	1.108	1.108
-0.005	-0.010	0.000	-0.010	-0.005	0.000	0.029	1.777	1.094	1.094	1.094	1.108	1.108	1.108
0.000	0.039	0.005	-0.010	-0.005	-0.005	0.029	1.733	1.099	1.108	1.099	1.108	1.108	1.108
0.000	0.024	-0.005	-0.015	0.005	-0.005	0.024	1.748	1.089	1.099	1.094	1.113	1.108	1.104
0.000	0.010	-0.005	-0.010	0.010	0.000	0.024	1.787	1.089	1.094	1.094	1.113	1.108	1.113
-0.010	0.029	0.000	-0.005	0.010	0.000	0.029	1.768	1.094	1.094	1.094	1.118	1.108	1.108
0.000	0.010	-0.010	-0.005	0.010	-0.005	0.024	1.797	1.104	1.089	1.094	1.113	1.108	1.108
0.000	-0.010	-0.010	0.010	0.000	-0.015	0.024	1.812	1.094	1.089	1.094	1.118	1.108	1.108
0.000	-0.010	0.000	0.024	0.005	0.000	0.029	1.802	1.099	1.089	1.094	1.118	1.113	1.113
0.000	-0.005	0.010	0.020	0.000	0.000	0.029	1.772	1.104	1.094	1.094	1.118	1.113	1.113
0.005	0.000	0.010	0.020	0.005	0.005	0.029	1.787	1.118	1.104	1.094	1.118	1.113	1.113
0.000	0.005	0.000	0.020	0.000	0.000	0.024	1.807	1.108	1.108	1.094	1.118	1.113	1.113
-0.005	-0.010	0.000	0.029	0.000	0.005	0.024	1.768	1.108	1.104	1.099	1.113	1.113	1.113
-0.005	-0.010	0.000	0.010	0.005	0.010	0.024	1.792	1.104	1.099	1.099	1.113	1.113	1.113
0.000	-0.020	-0.005	0.000	0.005	-0.015	0.029	1.768	1.104	1.099	1.094	1.108	1.108	1.104
0.000	-0.010	-0.010	-0.010	0.010	0.000	0.024	1.792	1.104	1.099	1.094	1.104	1.108	1.108
0.000	-0.005	-0.010	-0.020	0.005	0.005	0.024	1.797	1.108	1.104	1.094	1.104	1.104	1.108
0.000	0.000	-0.005	-0.024	0.005	-0.005	0.024	1.763	1.104	1.104	1.099	1.108	1.104	1.104
0.005	0.000	-0.010	-0.024	0.000	-0.010	0.024	1.797	1.099	1.104	1.099	1.108	1.104	1.104
0.000	0.005	0.000	-0.034	0.000	0.000	0.029	1.772	1.099	1.108	1.104	1.108	1.104	1.104
-0.015	0.000	0.005	-0.029	0.000	0.005	0.024	1.821	1.099	1.104	1.099	1.113	1.104	1.104
0.000	0.005	0.000	-0.020	0.000	-0.005	0.024	1.748	1.094	1.104	1.104	1.118	1.108	1.104
-0.010	-0.010	-0.005	-0.010	-0.005	-0.005	0.029	1.743	1.089	1.094	1.099	1.123	1.113	1.104
0.000	0.000	-0.005	0.000	-0.005	-0.010	0.024	1.787	1.099	1.094	1.099	1.128	1.113	1.104
0.005	-0.005	-0.005	0.020	-0.005	-0.005	0.029	1.782	1.099	1.094	1.099	1.128	1.113	1.113
0.005	-0.005	-0.005	0.024	0.005	0.000	0.029	1.792	1.104	1.094	1.099	1.123	1.123	1.113
0.005	0.000	-0.005	0.029	-0.005	-0.005	0.029	1.733	1.099	1.099	1.099	1.123	1.118	1.113
-0.005	-0.005	0.005	0.034	0.000	0.005	0.029	1.763	1.104	1.099	1.099	1.123	1.118	1.118
0.000	-0.005	0.000	0.024	0.005	0.000	0.024	1.787	1.104	1.094	1.094	1.118	1.118	1.113
0.000	0.020	-0.005	0.029	-0.005	-0.020	0.024	1.768	1.104	1.108	1.094	1.118	1.113	1.113
-0.005	0.044	-0.010	0.015	-0.005	-0.005	0.024	1.782	1.099	1.108	1.099	1.113	1.113	1.113
-0.005	-0.010	-0.005	0.000	0.000	0.000	0.029	1.797	1.104	1.089	1.094	1.108	1.113	1.113
-0.010	-0.024	0.005	-0.010	0.000	-0.005	0.029	1.772	1.099	1.089	1.094	1.108	1.108	1.113
0.000	-0.015	0.000	-0.024	0.000	0.005	0.024	1.729	1.099	1.094	1.094	1.104	1.108	1.113
-0.010	-0.010	0.000	-0.029	0.005	0.005	0.029	1.812	1.099	1.094	1.094	1.108	1.104	1.108
-0.005	-0.015	0.000	-0.024	0.005	0.000	0.024	1.753	1.099	1.099	1.094	1.108	1.104	1.104
-0.010	-0.005	-0.005	-0.024	0.005	-0.005	0.024	1.782	1.094	1.099	1.094	1.108	1.104	1.108
0.005	-0.005	0.000	-0.015	-0.005	0.010	0.024	1.768	1.099	1.104	1.099	1.113	1.104	1.108
0.010	-0.015	0.005	-0.010	-0.005	0.005	0.024	1.758	1.099	1.099	1.099	1.118	1.104	1.108
0.000	-0.024	0.005	0.015	-0.005	0.000	0.029	1.724	1.094	1.094	1.099	1.128	1.113	1.108
0.000	-0.015	0.005	0.020	-0.010	-0.005	0.024	1.763	1.099	1.094	1.099	1.123	1.108	1.108
0.000	0.015	-0.005	0.020	-0.005	0.000	0.024	1.772	1.099	1.108	1.099	1.123	1.113	1.108
0.005	0.015	-0.010	0.024	0.000	0.005	0.024	1.699	1.094	1.099	1.094	1.118	1.118	1.113
0.005	0.015	-0.015	0.000	0.000	0.000	0.029	1.772	1.094	1.099	1.094	1.113	1.113	1.108
-0.005	0.010	-0.005	-0.010	0.000	0.005	0.029	1.787	1.094	1.094	1.099	1.108	1.108	1.113
0.000	0.000	-0.005	-0.015	0.000	0.005	0.029	1.797	1.094	1.089	1.094	1.108	1.108	1.108
-0.005	-0.020	-0.005	-0.015	-0.005	-0.010	0.029	1.782	1.094	1.084	1.094	1.108	1.108	1.108
0.005	-0.020	0.000	-0.005	0.010	0.000	0.029	1.797	1.099	1.089	1.094	1.113	1.108	1.108
0.000	-0.015	0.015	0.000	0.010	0.005	0.024	1.797	1.099	1.094	1.099	1.113	1.113	1.108
0.000	-0.005	0.020	0.005	0.005	0.000	0.024	1.729	1.099	1.094	1.099	1.113	1.108	1.108
-0.005	0.015	0.010	0.005	0.010	-0.010	0.029	1.772	1.099	1.099	1.094	1.118	1.108	1.104
-0.005	0.010	0.000	0.010	-0.005	-0.005	0.024	1.763	1.099	1.099	1.094	1.113	1.108	1.108
-0.010	0.010	-0.005	0.005	-0.010	-0.015	0.024	1.787	1.099	1.094	1.094	1.113	1.104	1.104
0.000	0.010	-0.010	0.015	-0.024	-0.010	0.024	1.733	1.108	1.099	1.094	1.113	1.104	1.104
-0.010	0.005	-0.010	0.010	-0.034	0.005	0.024	1.768	1.089	1.099	1.094	1.113	1.104	1.108
0.015	0.005	-0.010	0.000	-0.024	0.005	0.029	1.792	1.099	1.099	1.094	1.108	1.108	1.108
0.005	-0.005	-0.005	-0.010	-0.015	0.010	0.024	1.777	1.099	1.094	1.094	1.108	1.108	1.108
0.005	0.000	-0.005	-0.015	-0.015	0.000	0.029	1.782	1.099	1.094	1.094	1.108	1.108	1.108
-0.005	0.000	0.000	-0.020	0.000	0.005	0.024	1.787	1.099	1.099	1.094	1.108	1.113	1.108
-0.005	0.005	0.000	-0.024	0.000	-0.010	0.029	1.758	1.113	1.099	1.099	1.108	1.108	1.108
-0.010	-0.005	0.000	-0.029	0.005	0.000	0.024	1.738	1.108	1.104	1.094	1.108	1.113	1.108
-0.010	0.000	-0.005	-0.024	0.005	-0.015	0.024	1.782	1.104	1.099	1.099	1.113	1.108	1.104
-0.010	-0.015	-0.005	-0.015	0.015	0.000	0.024	1.792	1.104	1.094	1.099	1.118	1.113	1.108
0.005	-0.005	0.000	-0.005	0.010	0.005	0.029	1.753	1.104	1.099	1.099	1.118	1.113	1.113
0.005	-0.010	-0.005	0.010	0.010	0.010	0.029	1.807	1.108	1.104	1.099	1.123	1.113	1.108
0.015	-0.005	-0.005	0.024	0.010	0.005	0.024	1.753	1.104	1.104	1.099	1.128	1.113	1.113
-0.010	-0.005	-0.005	0.034	0.005	-0.010	0.029	1.768	1.094	1.099	1.099	1.123	1.118	1.108
-0.029	0.005	0.000	0.034	0.024	0.005	0.024	1.787	1.094	1.099	1.099	1.128	1.118	1.113
-0.029	0.000	0.000	0.034	0.015	0.000	0.024	1.787	1.094	1.099	1.099	1.118	1.118	1.113
-0.010	0.000	0.005	0.024	0.005	-0.005	0.029	1.777	1.104	1.099	1.099	1.118	1.113	1.113
0.000	-0.005	0.005	0.015	0.000	0.000	0.024	1.758	1.104	1.099	1.099	1.113	1.113	1.113
0.010	0.005	0.005	-0.005	0.000	-0.005	0.024	1.758	1.108	1.104	1.099	1.108	1.108	1.113
0.034	0.000	0.005	-0.005	-0.005	-0.010	0.024	1.812	1.113	1.108	1.104	1.113	1.108	1.108
0.034	0.000	0.010	-0.015	0.000	-0.010	0.024	1.777	1.113	1.104	1.104	1.113	1.108	1.108
0.029	0.000	0.000	-0.015	-0.005	0.015	0.024	1.714	1.104	1.108	1.104	1.113	1.113	1.113
0.015	0.000	-0.005	-0.010	-0.010	-0.005	0.029	1.748	1.099	1.104	1.099	1.118	1.108	1.108
0.010	0.000	-0.005	-0.015	-0.015	0.010	0.029	1.797	1.099	1.099	1.099	1.118	1.108	1.108
0.005	0.015	-0.010	-0.005	-0.010	0.010	0.024	1.753	1.094	1.104	1.099	1.118	1.113	1.113
-0.010	0.010	-0.010	-0.010	-0.005	-0.005	0.024	1.792	1.099	1.099	1.099	1.118	1.113	1.104
-0.005	0.000	-0.005	-0.010	-0.005	0.010	0.024	1.768	1.094	1.094	1.099	1.118	1.113	1.113
-0.005	-0.010	0.010	0.000	-0.005	0.000	0.024	1.802	1.099	1.094	1.099	1.118	1.113	1.108
0.000	-0.005	0.020	0.005	-0.005	-0.015	0.024	1.733	1.094	1.094	1.099	1.118	1.113	1.108
-0.010	-0.010	0.010	0.005	0.000	0.000	0.024	1.782	1.099	1.094	1.094	1.118	1.113	1.113
-0.005	-0.010	0.005	-0.010	-0.005	-0.005	0.029	1.797	1.099	1.094	1.094	1.108	1.113	1.108
-0.015	0.000	0.000	0.000	-0.005	-0.005	0.029	1.797	1.099	1.094	1.094	1.113	1.108	1.113
-0.010	-0.010	0.000	0.015	-0.010	-0.015	0.029	1.792	1.104	1.099	1.089	1.113	1.108	1.108
-0.005	-0.005	-0.005	-0.010	-0.005	0.000	0.024	1.753	1.104	1.099	1.089	1.108	1.108	1.113
-0.010	-0.005	-0.015	-0.024	0.005	0.005	0.029	1.777	1.104	1.099	1.089	1.104	1.108	1.113
-0.015	-0.015	-0.010	-0.029	0.010	0.000	0.029	1.758	1.104	1.094	1.094	1.104	1.108	1.108
-0.020	-0.010	-0.005	-0.024	0.015	-0.010	0.029	1.738	1.099	1.099	1.094	1.108	1.108	1.108
-0.034	0.010	-0.010	-0.010	0.015	-0.010	0.029	1.758	1.094	1.104	1.099	1.113	1.108	1.108
-0.024	0.005	0.000	-0.005	0.015	0.005	0.029	1.709	1.104	1.099	1.099	1.118	1.113	1.113
-0.005	0.010	0.010	0.010	0.010	0.010	0.029	1.787	1.108	1.104	1.104	1.123	1.113	1.113
0.005	0.000	0.000	0.024	0.005	0.010	0.029	1.729	1.108	1.104	1.104	1.128	1.118	1.113
0.010	-0.010	-0.010	0.029	-0.005	-0.015	0.029	1.733	1.099	1.104	1.099	1.123	1.113	1.108
0.044	-0.005	-0.005	0.029	-0.005	-0.010	0.024	1.792	1.113	1.104	1.104	1.123	1.108	1.108
0.068	-0.005	-0.005	0.020	-0.010	0.010	0.024	1.777	1.113	1.104	1.099	1.118	1.113	1.113
0.020	-0.010	-0.010	0.020	-0.015	-0.020	0.024	1.753	1.094	1.099	1.099	1.118	1.108	1.108
-0.029	-0.005	-0.010	0.024	-0.010	0.010	0.024	1.768	1.074	1.094	1.099	1.118	1.113	1.118
-0.103	0.000	0.000	0.020	-0.005	0.005	0.024	1.787	1.069	1.084	1.094	1.113	1.108	1.113
-0.088	-0.005	0.015	0.010	-0.015	0.000	0.024	1.729	1.079	1.084	1.094	1.113	1.108	1.108
-0.029	0.005	0.015	-0.005	-0.010	-0.005	0.024	1.777	1.118	1.094	1.094	1.108	1.108	1.108
0.020	-0.010	0.010	-0.015	-0.010	0.000	0.024	1.782	1.133	1.099	1.094	1.104	1.108	1.108
0.049	-0.010	0.000	-0.010	-0.005	-0.005	0.024	1.714	1.128	1.108	1.094	1.108	1.108	1.108
0.049	0.000	-0.005	-0.015	0.000	0.005	0.029	1.807	1.123	1.113	1.099	1.108	1.108	1.104
0.078	-0.005	-0.005	-0.015	-0.010	-0.005	0.024	1.772	1.123	1.113	1.104	1.113	1.104	1.104
0.073	-0.010	-0.005	-0.015	-0.005	0.005	0.024	1.782	1.118	1.113	1.104	1.113	1.108	1.108
0.034	-0.005	-0.005	-0.010	-0.005	0.000	0.024	1.797	1.104	1.113	1.108	1.118	1.108	1.108
-0.005	0.000	-0.005	-0.020	-0.010	-0.005	0.024	1.782	1.089	1.104	1.108	1.118	1.108	1.104
-0.024	0.005	-0.005	-0.020	-0.005	-0.005	0.024	1.763	1.089	1.099	1.104	1.118	1.113	1.108
-0.029	-0.005	-0.005	-0.020	0.005	0.000	0.024	1.782	1.094	1.094	1.099	1.118	1.113	1.108
-0.029	-0.005	-0.010	-0.029	-0.005	0.005	0.024	1.787	1.094	1.094	1.099	1.113	1.113	1.113
-0.024	0.000	-0.005	-0.029	0.000	0.005	0.029	1.772	1.099	1.099	1.099	1.118	1.113	1.113
0.005	-0.005	-0.005	-0.015	0.010	0.000	0.029	1.743	1.104	1.099	1.099	1.118	1.118	1.113
0.005	0.000	0.000	0.000	0.000	0.000	0.029	1.792	1.108	1.104	1.099	1.123	1.118	1.108
0.005	0.015	-0.005	0.010	0.000	0.000	0.029	1.753	1.099	1.104	1.104	1.123	1.118	1.113
0.015	0.010	0.005	0.010	0.005	0.000	0.024	1.797	1.104	1.104	1.104	1.123	1.118	1.113
0.029	0.020	0.000	0.024	0.005	-0.010	0.024	1.782	1.104	1.104	1.104	1.123	1.118	1.113
0.029	0.010	0.005	0.020	0.005	-0.024	0.029	1.772	1.108	1.104	1.104	1.123	1.118	1.108
0.015	0.010	-0.005	0.015	0.005	0.010	0.024	1.782	1.099	1.099	1.104	1.123	1.118	1.123
-0.005	0.010	0.000	0.015	0.000	0.010	0.029	1.792	1.099	1.099	1.104	1.118	1.118	1.118
-0.010	0.000	-0.005	0.015	-0.005	-0.005	0.024	1.787	1.099	1.094	1.099	1.118	1.118	1.113
-0.024	-0.005	-0.005	0.020	-0.005	0.000	0.024	1.748	1.099	1.094	1.099	1.118	1.118	1.118
-0.020	0.005	0.000	0.010	-0.005	0.010	0.024	1.797	1.104	1.099	1.099	1.118	1.113	1.118
-0.020	-0.010	-0.005	0.015	-0.005	0.005	0.024	1.724	1.094	1.094	1.094	1.113	1.113	1.118
-0.010	-0.015	-0.010	0.005	0.000	0.005	0.024	1.797	1.104	1.094	1.094	1.113	1.113	1.113
-0.005	-0.020	0.000	0.005	0.000	0.005	0.024	1.733	1.104	1.099	1.094	1.113	1.113	1.113
-0.005	0.000	0.000	-0.005	0.000	0.000	0.024	1.743	1.099	1.099	1.099	1.108	1.108	1.113
-0.005	-0.010	0.000	0.000	-0.005	-0.015	0.024	1.763	1.094	1.094	1.099	1.113	1.108	1.108
-0.020	0.005	0.000	0.000	0.000	-0.010	0.024	1.787	1.094	1.099	1.099	1.113	1.108	1.108
-0.020	0.010	0.010	0.000	-0.005	0.000	0.024	1.724	1.094	1.099	1.099	1.113	1.108	1.108
-0.024	0.005	0.015	-0.005	0.000	-0.005	0.029	1.787	1.099	1.094	1.099	1.113	1.108	1.113
-0.015	-0.005	0.005	-0.015	-0.005	-0.020	0.024	1.782	1.104	1.094	1.094	1.113	1.108	1.104
-0.020	0.010	0.005	-0.010	0.000	0.005	0.024	1.748	1.104	1.099	1.094	1.113	1.108	1.113
-0.005	-0.005	0.000	-0.010	0.005	0.015	0.029	1.719	1.104	1.099	1.094	1.113	1.108	1.113
0.010	-0.010	-0.005	0.000	0.005	0.005	0.024	1.758	1.113	1.099	1.094	1.113	1.108	1.108
0.005	-0.015	-0.005	-0.005	0.010	0.000	0.024	1.782	1.104	1.094	1.094	1.113	1.108	1.108
-0.015	0.000	-0.010	-0.010	0.010	0.000	0.024	1.782	1.099	1.104	1.094	1.108	1.108	1.108
-0.024	-0.005	-0.005	-0.015	0.010	0.000	0.024	1.782	1.104	1.099	1.094	1.108	1.108	1.108
-0.020	-0.010	-0.005	-0.020	0.000	-0.005	0.029	1.777	1.104	1.099	1.099	1.113	1.108	1.104
-0.010	-0.005	-0.005	-0.020	0.005	-0.005	0.024	1.797	1.104	1.099	1.099	1.113	1.104	1.108
-0.005	0.000	0.000	-0.020	-0.005	-0.005	0.029	1.797	1.108	1.108	1.099	1.113	1.104	1.104
-0.010	0.005	-0.005	-0.005	-0.010	-0.024	0.029	1.719	1.099	1.104	1.104	1.118	1.108	1.099
-0.015	0.005	0.000	-0.005	0.000	0.005	0.024	1.812	1.104	1.104	1.104	1.123	1.113	1.113
0.015	-0.005	0.005	0.005	-0.005	0.010	0.024	1.763	1.104	1.104	1.104	1.123	1.113	1.113
-0.044	-0.010	-0.005	0.005	0.000	-0.005	0.024	1.772	1.084	1.094	1.099	1.123	1.113	1.104
-0.093	-0.015	0.005	0.010	-0.005	0.000	0.029	1.748	1.074	1.089	1.099	1.118	1.118	1.108
-0.049	-0.010	0.005	0.000	-0.005	0.000	0.024	1.792	1.094	1.089	1.094	1.113	1.113	1.113
0.000	-0.015	-0.005	0.005	-0.010	0.010	0.024	1.729	1.104	1.094	1.094	1.113	1.113	1.113
0.029	-0.010	-0.010	0.005	-0.005	-0.005	0.024	1.777	1.113	1.099	1.094	1.113	1.108	1.108
0.073	-0.010	-0.005	0.005	-0.005	0.000	0.024	1.763	1.123	1.108	1.094	1.113	1.108	1.108
0.103	-0.005	0.000	0.005	0.000	-0.005	0.029	1.787	1.128	1.113	1.104	1.118	1.113	1.108
0.112	0.000	0.000	0.005	-0.005	-0.005	0.029	1.748	1.118	1.113	1.108	1.118	1.113	1.108
0.088	0.000	0.000	-0.005	0.000	-0.010	0.024	1.792	1.113	1.113	1.108	1.118	1.113	1.108
0.073	-0.005	0.000	0.010	-0.005	-0.005	0.029	1.709	1.094	1.113	1.108	1.123	1.113	1.108
0.044	-0.005	0.005	0.010	0.000	-0.010	0.029	1.792	1.089	1.099	1.108	1.128	1.113	1.113
0.020	-0.005	-0.005	0.015	0.005	-0.005	0.029	1.738	1.084	1.099	1.104	1.123	1.118	1.113
0.000	0.000	-0.005	0.010	0.005	-0.005	0.024	1.768	1.084	1.089	1.099	1.123	1.118	1.113
-0.015	0.005	0.000	0.000	0.005	0.005	0.029	1.743	1.079	1.089	1.094	1.118	1.118	1.118
-0.034	0.000	-0.005	-0.005	0.000	-0.015	0.024	1.787	1.084	1.084	1.094	1.118	1.113	1.113
-0.039	0.005	-0.005	0.005	0.005	0.005	0.029	1.768	1.089	1.089	1.094	1.118	1.113	1.113
-0.029	-0.005	-0.005	0.005	0.000	0.005	0.029	1.787	1.099	1.084	1.089	1.113	1.113	1.118
-0.034	-0.005	-0.005	0.005	0.000	0.000	0.029	1.772	1.099	1.089	1.089	1.108	1.113	1.113
-0.029	-0.005	-0.005	-0.005	0.000	0.015	0.024	1.777	1.099	1.089	1.084	1.104	1.108	1.118
-0.020	-0.010	0.000	-0.005	0.000	0.010	0.024	1.758	1.099	1.094	1.089	1.104	1.104	1.108
-0.029	-0.005	0.000	-0.010	0.005	0.005	0.024	1.772	1.099	1.094	1.089	1.104	1.104	1.104
-0.015	-0.010	0.000	0.000	0.010	0.005	0.024	1.704	1.094	1.094	1.094	1.108	1.108	1.104
-0.010	-0.005	0.005	0.000	0.020	-0.005	0.024	1.797	1.113	1.099	1.094	1.108	1.108	1.104
-0.010	-0.005	0.000	0.000	0.005	0.000	0.024	1.733	1.104	1.104	1.094	1.108	1.104	1.108
-0.010	0.010	-0.005	0.000	0.005	0.005	0.024	1.792	1.094	1.104	1.099	1.108	1.104	1.108
-0.010	-0.005	0.000	0.000	0.005	0.005	0.024	1.802	1.104	1.099	1.099	1.108	1.104	1.108
-0.005	0.010	0.000	-0.020	0.000	-0.010	0.024	1.797	1.108	1.099	1.099	1.108	1.104	1.099
-0.005	0.010	-0.005	-0.034	0.000	-0.010	0.024	1.729	1.104	1.104	1.099	1.104	1.099	1.099
0.000	0.005	0.000	-0.034	-0.010	0.005	0.024	1.787	1.104	1.104	1.099	1.108	1.104	1.104
0.000	0.000	-0.010	-0.029	-0.010	0.005	0.024	1.792	1.108	1.099	1.099	1.113	1.104	1.104
-0.005	0.000	0.000	-0.024	-0.024	-0.005	0.024	1.772	1.104	1.104	1.099	1.113	1.104	1.099
-0.010	0.000	0.000	-0.010	-0.024	0.000	0.029	1.733	1.094	1.099	1.104	1.118	1.108	1.099
-0.029	-0.020	-0.005	0.005	-0.029	0.000	0.024	1.777	1.094	1.089	1.094	1.123	1.108	1.104
-0.034	-0.010	-0.005	0.010	-0.029	-0.005	0.024	1.782	1.094	1.094	1.094	1.123	1.108	1.104
-0.020	-0.005	0.005	0.015	-0.029	-0.005	0.029	1.758	1.099	1.099	1.099	1.118	1.113	1.108
-0.020	-0.005	0.000	0.015	-0.034	0.000	0.024	1.797	1.104	1.099	1.094	1.118	1.113	1.104
0.024	0.000	0.000	0.020	-0.015	-0.010	0.024	1.777	1.104	1.104	1.099	1.118	1.118	1.108
0.000	-0.005	0.000	0.020	-0.015	0.000	0.024	1.748	1.094	1.104	1.099	1.118	1.118	1.108
-0.029	0.010	0.000	0.010	-0.005	0.005	0.024	1.768	1.089	1.099	1.099	1.113	1.118	1.113
-0.073	0.010	0.000	0.010	0.005	0.010	0.029	1.748	1.074	1.089	1.094	1.113	1.123	1.113
-0.078	0.015	0.000	0.000	0.015	-0.010	0.024	1.792	1.089	1.089	1.094	1.108	1.118	1.113
0.010	-0.005	0.000	0.005	0.020	0.005	0.024	1.733	1.118	1.094	1.094	1.108	1.118	1.113
0.112	0.010	0.005	-0.005	0.029	0.010	0.024	1.787	1.143	1.113	1.099	1.113	1.118	1.118
0.117	0.010	0.000	-0.005	0.029	0.000	0.024	1.777	1.133	1.118	1.104	1.113	1.113	1.118
0.083	0.010	0.005	0.000	0.029	0.005	0.024	1.763	1.118	1.118	1.108	1.118	1.118	1.118
0.059	0.005	0.005	0.005	0.034	-0.005	0.029	1.797	1.108	1.113	1.108	1.118	1.118	1.113
-0.005	-0.005	0.005	0.005	0.029	0.005	0.024	1.748	1.089	1.104	1.108	1.123	1.118	1.118
-0.029	-0.005	-0.005	-0.005	0.029	-0.005	0.024	1.792	1.089	1.094	1.099	1.123	1.113	1.113
-0.063	-0.020	-0.010	0.000	0.015	-0.010	0.024	1.772	1.079	1.089	1.094	1.118	1.113	1.108
-0.063	-0.005	-0.005	-0.010	0.010	0.010	0.024	1.787	1.084	1.089	1.094	1.113	1.108	1.113
-0.020	-0.005	-0.005	-0.010	-0.005	-0.005	0.029	1.772	1.104	1.094	1.094	1.113	1.104	1.108
0.024	-0.010	0.000	-0.015	-0.010	0.005	0.024	1.807	1.123	1.099	1.094	1.113	1.104	1.108
0.063	-0.005	-0.010	-0.005	-0.015	0.000	0.029	1.792	1.128	1.108	1.099	1.113	1.104	1.104
0.088	0.000	0.005	-0.005	-0.024	-0.015	0.029	1.772	1.128	1.118	1.104	1.118	1.104	1.099
0.088	0.000	0.005	0.000	-0.020	0.005	0.024	1.787	1.118	1.113	1.108	1.118	1.108	1.108
0.029	0.005	0.000	-0.005	-0.015	0.005	0.024	1.748	1.094	1.108	1.104	1.118	1.113	1.108
-0.020	0.005	-0.005	-0.005	-0.010	0.005	0.024	1.763	1.079	1.099	1.104	1.118	1.113	1.108
-0.039	0.015	-0.005	0.000	-0.010	-0.005	0.024	1.714	1.074	1.094	1.099	1.118	1.113	1.108
-0.073	0.005	0.000	0.000	-0.005	-0.005	0.024	1.802	1.074	1.084	1.099	1.118	1.113	1.108
-0.098	0.005	0.000	0.010	-0.010	0.000	0.024	1.782	1.079	1.079	1.094	1.123	1.113	1.108
-0.078	0.010	0.000	0.010	-0.005	-0.010	0.024	1.787	1.094	1.089	1.094	1.118	1.113	1.108
-0.039	0.005	-0.005	0.000	0.000	-0.015	0.024	1.768	1.104	1.089	1.089	1.113	1.118	1.108
-0.010	0.005	0.000	0.010	-0.005	0.000	0.024	1.821	1.118	1.099	1.094	1.113	1.113	1.113
0.015	0.005	0.000	0.020	-0.024	-0.005	0.024	1.816	1.128	1.108	1.099	1.113	1.108	1.108
0.015	0.000	0.000	0.015	-0.020	0.000	0.024	1.787	1.123	1.108	1.099	1.113	1.108	1.113
0.015	-0.010	0.005	0.010	-0.010	0.010	0.024	1.772	1.123	1.108	1.099	1.113	1.113	1.113
0.005	-0.010	0.000	0.005	0.015	-0.015	0.029	1.792	1.113	1.108	1.104	1.113	1.118	1.108
0.020	-0.005	0.005	0.005	0.024	0.000	0.029	1.792	1.123	1.113	1.108	1.123	1.118	1.113
0.024	-0.005	0.005	0.000	0.020	0.000	0.029	1.777	1.118	1.118	1.104	1.118	1.118	1.113
0.024	-0.005	-0.005	0.000	0.020	-0.005	0.024	1.724	1.113	1.113	1.104	1.118	1.118	1.113
0.015	-0.020	-0.010	-0.015	0.010	-0.020	0.029	1.758	1.113	1.108	1.104	1.118	1.108	1.108
0.010	-0.010	-0.015	-0.015	0.005	-0.010	0.024	1.782	1.108	1.113	1.108	1.113	1.108	1.113
0.005	-0.005	-0.015	-0.015	-0.005	-0.010	0.024	1.782	1.108	1.108	1.104	1.118	1.108	1.108
0.000	-0.010	-0.010	-0.015	-0.020	0.000	0.024	1.777	1.099	1.108	1.108	1.118	1.104	1.108
-0.020	0.005	0.000	-0.015	-0.015	-0.020	0.024	1.772	1.094	1.108	1.113	1.123	1.108	1.104
-0.088	0.015	0.005	-0.015	-0.020	-0.024	0.024	1.787	1.079	1.099	1.108	1.128	1.113	1.108
-0.093	0.000	0.005	-0.015	-0.010	-0.005	0.024	1.743	1.079	1.094	1.104	1.123	1.118	1.118
-0.049	0.000	0.010	-0.020	-0.005	-0.005	0.024	1.743	1.099	1.094	1.104	1.123	1.118	1.113
0.010	0.005	0.010	-0.010	-0.010	-0.005	0.024	1.777	1.118	1.104	1.099	1.123	1.118	1.118
0.034	-0.005	0.005	-0.005	-0.010	0.005	0.029	1.753	1.113	1.104	1.099	1.123	1.118	1.118
0.083	-0.005	-0.005	-0.020	-0.005	0.000	0.024	1.797	1.133	1.108	1.099	1.118	1.118	1.118
0.088	-0.010	-0.010	-0.020	-0.005	0.020	0.024	1.797	1.123	1.113	1.104	1.118	1.118	1.123
0.029	-0.010	-0.005	-0.034	-0.005	0.005	0.029	1.777	1.104	1.108	1.104	1.118	1.118	1.118
0.005	0.000	-0.005	-0.020	0.000	0.024	0.029	1.792	1.099	1.104	1.108	1.123	1.118	1.123
-0.029	0.005	-0.005	-0.010	0.005	0.015	0.029	1.768	1.089	1.104	1.108	1.123	1.118	1.118
-0.059	0.005	0.000	0.005	0.010	0.000	0.024	1.797	1.089	1.094	1.104	1.128	1.123	1.118
-0.063	-0.005	0.000	0.029	0.015	0.015	0.029	1.758	1.084	1.089	1.099	1.133	1.128	1.123
-0.049	-0.005	0.005	0.044	0.015	0.005	0.024	1.763	1.094	1.094	1.099	1.133	1.128	1.118
-0.024	0.010	0.000	0.059	0.020	-0.005	0.024	1.797	1.108	1.099	1.099	1.128	1.128	1.113
0.010	0.010	-0.005	0.049	0.015	-0.010	0.024	1.787	1.118	1.104	1.099	1.123	1.123	1.118
0.049	0.005	0.000	0.029	0.024	-0.020	0.029	1.792	1.128	1.108	1.099	1.118	1.123	1.118
0.068	0.000	0.000	0.015	0.015	-0.015	0.029	1.777	1.128	1.113	1.104	1.118	1.118	1.118
0.073	0.005	-0.005	0.005	0.024	0.000	0.029	1.772	1.118	1.113	1.104	1.118	1.118	1.123
0.039	0.000	0.000	-0.005	0.020	-0.010	0.024	1.782	1.104	1.108	1.104	1.113	1.113	1.118
-0.005	-0.005	0.000	-0.010	0.005	-0.020	0.024	1.743	1.094	1.104	1.108	1.113	1.108	1.108
-0.034	0.005	0.005	-0.005	0.000	-0.020	0.029	1.802	1.094	1.099	1.108	1.118	1.108	1.113
-0.044	0.000	0.005	-0.010	-0.010	-0.005	0.024	1.797	1.089	1.094	1.104	1.123	1.108	1.113
-0.063	0.005	0.005	-0.020	-0.010	-0.020	0.024	1.797	1.089	1.094	1.099	1.118	1.108	1.108
-0.044	0.000	0.000	-0.020	-0.015	0.005	0.024	1.768	1.099	1.094	1.099	1.118	1.108	1.113
-0.020	-0.005	-0.005	-0.024	-0.024	0.015	0.024	1.777	1.108	1.099	1.094	1.113	1.108	1.113
0.005	0.000	0.000	-0.029	-0.024	0.005	0.029	1.792	1.118	1.104	1.099	1.113	1.108	1.108
0.044	-0.005	0.000	-0.029	-0.020	0.000	0.024	1.758	1.118	1.104	1.099	1.113	1.108	1.108
0.044	-0.010	0.000	-0.015	-0.020	-0.010	0.024	1.763	1.113	1.104	1.099	1.118	1.108	1.104
0.029	-0.005	-0.005	0.010	-0.015	0.010	0.024	1.743	1.099	1.104	1.099	1.123	1.118	1.113
0.015	-0.010	0.000	0.034	-0.010	0.010	0.029	1.743	1.094	1.104	1.104	1.133	1.123	1.113
0.010	-0.005	0.000	0.039	0.000	0.000	0.024	1.758	1.089	1.099	1.099	1.128	1.123	1.118
0.000	-0.005	0.000	0.015	-0.005	0.005	0.029	1.753	1.094	1.099	1.099	1.118	1.123	1.118
0.005	0.000	0.000	0.015	0.000	-0.005	0.029	1.782	1.099	1.099	1.099	1.118	1.118	1.113
-0.010	0.005	0.000	0.005	0.000	0.005	0.024	1.772	1.094	1.099	1.099	1.113	1.118	1.118
-0.015	0.010	0.000	-0.029	0.000	0.000	0.029	1.792	1.099	1.099	1.094	1.108	1.113	1.113
-0.020	-0.005	-0.005	-0.029	0.000	-0.010	0.029	1.763	1.094	1.094	1.094	1.108	1.108	1.108
-0.039	-0.005	-0.005	-0.010	0.000	0.005	0.024	1.802	1.094	1.094	1.094	1.113	1.108	1.113
-0.034	-0.005	-0.005	0.000	0.000	0.000	0.029	1.758	1.094	1.094	1.094	1.118	1.113	1.113
-0.029	-0.005	-0.005	0.015	0.000	0.000	0.029	1.787	1.099	1.094	1.094	1.118	1.113	1.113
-0.005	0.010	-0.005	0.015	0.005	-0.005	0.024	1.738	1.108	1.104	1.099	1.118	1.113	1.113
0.020	0.005	0.000	0.029	0.000	0.005	0.029	1.753	1.118	1.104	1.099	1.123	1.113	1.113
0.034	0.000	-0.005	0.015	0.000	0.005	0.029	1.777	1.113	1.108	1.099	1.118	1.113	1.113
0.034	0.005	-0.005	0.005	0.010	0.005	0.024	1.768	1.108	1.108	1.104	1.113	1.113	1.113
0.024	0.000	-0.005	-0.015	0.005	-0.005	0.024	1.782	1.104	1.108	1.099	1.108	1.108	1.113
0.020	0.005	0.000	-0.020	-0.005	0.000	0.024	1.753	1.104	1.104	1.104	1.108	1.108	1.108
-0.010	0.005	-0.005	-0.015	0.000	-0.015	0.029	1.812	1.094	1.099	1.099	1.113	1.108	1.108
-0.015	-0.010	-0.005	-0.020	0.000	0.005	0.024	1.797	1.094	1.094	1.099	1.113	1.108	1.108
0.005	0.000	0.005	-0.015	-0.005	0.010	0.029	1.797	1.108	1.099	1.099	1.118	1.108	1.108
0.020	-0.010	-0.005	0.000	0.000	0.005	0.024	1.777	1.108	1.104	1.099	1.118	1.108	1.108
0.015	0.005	-0.005	0.000	0.005	-0.010	0.024	1.797	1.108	1.104	1.104	1.118	1.113	1.108
-0.010	0.000	0.005	-0.010	0.000	0.000	0.024	1.782	1.104	1.104	1.104	1.118	1.113	1.113
-0.020	0.000	0.005	-0.015	-0.005	-0.010	0.024	1.787	1.104	1.104	1.104	1.118	1.113	1.104
-0.020	-0.005	0.005	-0.005	0.000	0.005	0.024	1.787	1.104	1.099	1.104	1.123	1.113	1.113
-0.024	0.000	0.010	-0.015	0.000	0.005	0.024	1.797	1.104	1.099	1.104	1.118	1.113	1.118
-0.024	-0.010	0.005	-0.024	0.000	0.000	0.024	1.802	1.108	1.099	1.099	1.118	1.113	1.108
-0.015	-0.005	-0.005	-0.029	0.005	0.005	0.024	1.797	1.113	1.104	1.099	1.113	1.113	1.113
0.005	-0.005	-0.005	-0.020	0.000	0.000	0.029	1.733	1.113	1.108	1.104	1.118	1.113	1.113
0.005	0.000	0.000	-0.010	0.005	0.000	0.024	1.787	1.108	1.113	1.104	1.123	1.118	1.108
0.010	0.005	0.000	0.015	0.005	0.000	0.029	1.797	1.108	1.108	1.108	1.133	1.113	1.113
0.015	0.000	0.000	0.034	-0.005	0.000	0.024	1.792	1.108	1.108	1.104	1.133	1.118	1.113
0.010	0.000	0.000	0.049	0.000	-0.005	0.029	1.763	1.099	1.104	1.104	1.133	1.123	1.113
-0.010	-0.005	0.000	0.054	-0.005	0.005	0.029	1.758	1.094	1.099	1.104	1.133	1.123	1.118
-0.010	0.000	-0.005	0.044	-0.005	0.005	0.029	1.777	1.104	1.104	1.099	1.128	1.123	1.118
0.010	0.005	-0.005	0.024	0.000	0.000	0.029	1.787	1.108	1.104	1.104	1.118	1.123	1.118
0.010	0.000	0.000	0.010	0.000	0.000	0.024	1.763	1.099	1.099	1.099	1.113	1.118	1.118
0.005	0.005	0.000	-0.005	0.005	-0.015	0.024	1.797	1.104	1.099	1.099	1.113	1.113	1.113
-0.005	0.005	0.000	-0.010	0.000	0.005	0.024	1.797	1.099	1.099	1.099	1.113	1.108	1.118
-0.015	-0.005	-0.005	-0.005	0.000	-0.010	0.024	1.831	1.104	1.104	1.099	1.113	1.108	1.113
0.005	-0.015	0.000	-0.005	0.000	-0.015	0.024	1.753	1.104	1.099	1.099	1.113	1.108	1.108
0.000	-0.005	0.005	-0.010	0.000	0.005	0.024	1.763	1.108	1.104	1.104	1.118	1.113	1.113
0.000	0.005	0.000	-0.010	0.000	-0.015	0.024	1.772	1.113	1.108	1.104	1.118	1.113	1.108
-0.020	0.005	0.005	-0.020	-0.005	0.010	0.024	1.768	1.104	1.104	1.104	1.113	1.113	1.113
-0.010	0.000	0.005	-0.020	-0.005	0.005	0.024	1.729	1.104	1.104	1.104	1.113	1.113	1.113
0.034	-0.005	0.005	-0.020	0.000	0.010	0.024	1.738	1.123	1.104	1.104	1.118	1.113	1.113
0.039	0.000	-0.005	-0.015	0.005	0.000	0.024	1.797	1.138	1.113	1.104	1.118	1.113	1.113
0.010	-0.005	-0.005	-0.015	0.000	-0.015	0.024	1.772	1.118	1.113	1.108	1.123	1.113	1.108
-0.034	0.000	-0.005	-0.015	0.000	0.010	0.024	1.782	1.104	1.108	1.108	1.123	1.113	1.118
-0.049	-0.010	0.000	-0.015	-0.010	0.005	0.029	1.758	1.099	1.104	1.104	1.123	1.113	1.113
-0.044	0.000	-0.005	-0.010	-0.005	0.000	0.024	1.753	1.094	1.104	1.104	1.123	1.113	1.113
-0.054	-0.005	-0.005	-0.010	-0.005	0.005	0.024	1.792	1.084	1.094	1.099	1.123	1.113	1.113
-0.029	-0.005	-0.005	-0.010	0.000	-0.005	0.029	1.777	1.099	1.094	1.099	1.118	1.118	1.113
-0.010	-0.010	0.005	-0.005	0.000	-0.005	0.024	1.738	1.099	1.099	1.099	1.123	1.118	1.113
0.005	0.010	0.005	0.010	-0.005	0.000	0.024	1.777	1.108	1.104	1.104	1.128	1.118	1.113
0.010	0.015	0.005	0.024	-0.005	0.000	0.029	1.743	1.104	1.104	1.104	1.128	1.118	1.118
0.024	-0.005	0.000	0.029	0.000	0.005	0.029	1.807	1.108	1.104	1.104	1.128	1.123	1.118
0.024	-0.015	-0.010	0.024	0.000	0.000	0.024	1.768	1.104	1.099	1.099	1.123	1.123	1.118
0.020	-0.020	-0.010	0.020	-0.005	-0.005	0.029	1.812	1.108	1.099	1.094	1.118	1.118	1.113
0.015	-0.010	0.000	0.005	-0.005	-0.020	0.029	1.782	1.108	1.104	1.099	1.113	1.118	1.113
0.005	-0.010	0.005	-0.015	0.000	0.005	0.024	1.724	1.099	1.104	1.099	1.113	1.118	1.118
0.020	0.000	-0.005	-0.020	0.005	0.005	0.024	1.753	1.104	1.108	1.104	1.108	1.113	1.118
-0.005	-0.005	0.005	-0.020	0.010	-0.005	0.029	1.802	1.104	1.104	1.104	1.113	1.113	1.113
-0.005	-0.005	0.000	-0.010	0.005	0.000	0.024	1.748	1.099	1.099	1.104	1.118	1.113	1.118
-0.005	-0.005	-0.005	0.000	0.000	0.000	0.024	1.787	1.099	1.094	1.099	1.123	1.113	1.113
-0.010	0.010	0.000	0.020	-0.005	-0.005	0.029	1.787	1.104	1.104	1.099	1.123	1.113	1.113
-0.005	0.010	0.000	0.029	0.000	0.000	0.029	1.748	1.099	1.104	1.099	1.128	1.118	1.113
-0.005	0.005	-0.005	0.029	0.010	0.005	0.029	1.792	1.104	1.099	1.099	1.123	1.118	1.118
0.000	-0.005	0.000	0.024	0.000	0.000	0.029	1.768	1.099	1.099	1.099	1.118	1.118	1.113
-0.005	0.005	-0.010	0.020	0.000	-0.005	0.029	1.782	1.099	1.099	1.099	1.118	1.113	1.113
-0.010	0.005	0.000	0.005	-0.005	0.000	0.029	1.738	1.104	1.099	1.099	1.113	1.113	1.113
-0.005	0.005	-0.005	0.005	0.000	0.000	0.024	1.782	1.099	1.094	1.099	1.113	1.108	1.113
0.020	0.000	0.000	0.005	-0.005	0.010	0.024	1.743	1.104	1.104	1.099	1.113	1.113	1.113
0.020	0.010	0.005	-0.005	0.000	0.000	0.024	1.792	1.108	1.108	1.104	1.113	1.113	1.113
-0.010	0.005	0.005	-0.005	0.000	0.000	0.024	1.758	1.094	1.099	1.099	1.113	1.108	1.108
-0.073	-0.005	0.000	-0.020	0.000	0.005	0.024	1.768	1.084	1.089	1.094	1.108	1.108	1.108
-0.083	0.005	0.005	-0.029	-0.005	0.005	0.024	1.753	1.079	1.089	1.094	1.108	1.108	1.108
-0.039	-0.010	0.000	-0.039	0.000	-0.010	0.024	1.787	1.104	1.089	1.094	1.108	1.104	1.108
0.005	-0.010	0.000	-0.039	0.000	0.005	0.024	1.812	1.123	1.099	1.094	1.108	1.104	1.108
0.044	0.000	-0.005	-0.039	0.000	0.005	0.029	1.733	1.123	1.108	1.094	1.108	1.108	1.104
0.063	-0.005	-0.010	-0.024	-0.005	0.000	0.024	1.768	1.118	1.108	1.099	1.113	1.104	1.104
0.049	-0.010	-0.005	-0.010	-0.005	-0.005	0.024	1.738	1.104	1.104	1.099	1.118	1.108	1.104
0.024	-0.010	-0.005	0.010	-0.005	-0.005	0.029	1.748	1.099	1.104	1.099	1.123	1.108	1.104
0.029	-0.005	-0.010	0.005	-0.005	0.000	0.024	1.812	1.099	1.104	1.099	1.123	1.113	1.108
0.000	0.020	0.005	0.020	0.005	0.000	0.024	1.797	1.094	1.104	1.108	1.128	1.118	1.113
0.000	0.020	0.005	0.020	0.000	0.005	0.024	1.699	1.089	1.104	1.104	1.128	1.118	1.113
0.005	0.024	0.000	0.020	-0.005	-0.010	0.029	1.738	1.089	1.099	1.099	1.123	1.118	1.108
0.020	0.020	0.000	0.024	0.000	-0.020	0.024	1.792	1.099	1.094	1.099	1.123	1.118	1.113
0.029	0.015	0.000	0.024	0.000	0.015	0.029	1.797	1.104	1.094	1.099	1.123	1.118	1.118
0.024	0.000	-0.005	0.024	-0.010	-0.020	0.024	1.792	1.108	1.094	1.099	1.118	1.113	1.108
0.020	-0.015	-0.005	0.010	-0.005	0.015	0.024	1.733	1.104	1.094	1.094	1.113	1.118	1.123
0.039	-0.015	-0.005	0.000	0.000	0.000	0.024	1.782	1.104	1.094	1.094	1.108	1.113	1.113
0.015	-0.010	-0.005	-0.010	0.000	-0.015	0.024	1.787	1.094	1.094	1.094	1.108	1.108	1.113
-0.010	-0.005	0.005	-0.015	0.005	0.015	0.024	1.797	1.099	1.094	1.099	1.108	1.113	1.118
-0.029	0.000	0.005	-0.020	-0.005	-0.020	0.024	1.782	1.094	1.094	1.094	1.108	1.104	1.104
-0.039	-0.005	0.010	-0.015	-0.005	0.005	0.024	1.787	1.094	1.094	1.094	1.113	1.108	1.113
-0.034	-0.015	-0.005	0.005	0.000	-0.005	0.024	1.763	1.094	1.094	1.094	1.113	1.108	1.108
-0.039	-0.015	0.000	0.005	0.000	0.005	0.024	1.777	1.094	1.094	1.094	1.113	1.108	1.108
-0.078	-0.015	0.000	0.005	0.005	0.000	0.024	1.787	1.089	1.089	1.094	1.108	1.108	1.108
-0.059	-0.015	0.005	-0.015	0.000	0.000	0.024	1.738	1.094	1.089	1.089	1.104	1.104	1.108
-0.029	-0.015	0.000	-0.034	0.000	0.000	0.024	1.797	1.104	1.094	1.089	1.099	1.104	1.108
0.015	-0.015	-0.005	-0.039	-0.010	0.000	0.024	1.768	1.128	1.104	1.089	1.104	1.099	1.104
0.034	-0.010	-0.005	-0.034	-0.005	0.000	0.024	1.763	1.118	1.104	1.094	1.108	1.099	1.099
0.049	-0.015	0.005	-0.010	-0.005	0.010	0.024	1.797	1.123	1.113	1.099	1.118	1.104	1.104
0.034	-0.010	0.000	0.015	0.000	-0.005	0.024	1.787	1.113	1.108	1.104	1.128	1.108	1.104
0.010	-0.005	0.000	0.044	0.000	-0.020	0.029	1.738	1.099	1.108	1.104	1.133	1.113	1.099
0.000	0.015	-0.005	0.054	0.000	-0.010	0.024	1.797	1.099	1.113	1.108	1.138	1.118	1.108
-0.005	0.010	0.000	0.054	0.000	0.000	0.029	1.719	1.094	1.108	1.108	1.128	1.123	1.113
-0.005	0.020	-0.005	0.044	0.000	-0.015	0.029	1.772	1.094	1.104	1.108	1.128	1.118	1.113
-0.010	0.020	-0.005	0.034	-0.005	0.000	0.029	1.758	1.094	1.104	1.104	1.123	1.123	1.123
0.000	0.020	-0.005	0.020	0.000	0.010	0.029	1.792	1.104	1.099	1.104	1.118	1.123	1.118
0.010	0.020	0.000	0.010	0.005	0.000	0.029	1.743	1.099	1.099	1.104	1.113	1.118	1.118
0.000	-0.010	-0.005	-0.020	0.000	0.000	0.029	1.792	1.099	1.089	1.099	1.108	1.113	1.113
-0.010	-0.015	0.000	-0.024	0.000	0.000	0.029	0.615	0.962	1.064	1.089	1.104	1.104	1.108
-0.039	-0.010	0.000	-0.029	0.000	0.005	0.024	0.605	0.864	1.011	1.069	1.099	1.104	1.104
-0.107	-0.005	0.000	-0.024	0.000	-0.010	0.024	0.605	0.781	0.957	1.040	1.089	1.099	1.099
-0.063	0.005	0.010	-0.020	0.000	0.005	0.024	0.620	0.767	0.913	1.011	1.079	1.089	1.099
-0.015	-0.005	0.005	-0.015	0.005	0.010	0.024	0.620	0.757	0.869	0.972	1.055	1.079	1.094
0.020	0.000	0.000	0.000	0.005	0.000	0.024	0.610	0.742	0.840	0.933	1.030	1.069	1.084
0.049	-0.005	0.000	0.000	-0.005	-0.010	0.024	0.620	0.732	0.811	0.903	1.001	1.045	1.074
0.054	-0.010	0.000	-0.015	0.000	-0.005	0.024	1.772	0.854	0.815	0.879	0.967	1.025	1.064
0.044	0.000	0.000	-0.029	0.000	-0.010	0.024	1.792	0.937	0.845	0.869	0.942	1.001	1.050
0.044	-0.005	-0.005	-0.039	-0.005	0.005	0.029	1.768	0.981	0.884	0.869	0.923	0.977	1.030
0.010	-0.005	0.000	-0.049	-0.005	0.000	0.024	1.802	1.045	0.923	0.884	0.918	0.962	1.011
0.015	-0.010	0.005	-0.034	-0.010	-0.010	0.029	1.768	1.060	0.957	0.903	0.918	0.947	0.991
0.005	-0.010	0.000	-0.029	-0.015	-0.010	0.029	1.753	1.069	0.986	0.923	0.928	0.937	0.977
0.029	-0.015	-0.005	-0.010	-0.005	0.000	0.029	1.743	1.074	1.011	0.947	0.942	0.942	0.972
0.034	-0.005	-0.005	0.005	0.000	0.005	0.024	1.777	1.079	1.030	0.967	0.957	0.942	0.962
0.029	0.005	-0.005	0.015	0.000	0.000	0.024	1.787	1.074	1.040	0.986	0.972	0.947	0.957
0.015	-0.005	0.000	0.024	0.000	0.005	0.024	1.738	1.050	1.045	1.001	0.991	0.962	0.957
0.005	-0.010	-0.005	0.049	0.005	0.005	0.029	1.797	1.055	1.040	1.016	1.006	0.972	0.962
-0.005	0.000	-0.005	0.063	0.000	0.005	0.029	1.753	1.050	1.040	1.021	1.021	0.981	0.967
-0.015	0.010	-0.010	0.054	-0.005	0.005	0.024	1.787	1.035	1.040	1.025	1.025	0.991	0.972
0.029	-0.010	-0.010	0.049	0.005	-0.005	0.024	1.787	1.050	1.040	1.030	1.025	1.001	0.981
0.015	-0.005	-0.005	0.044	0.000	-0.005	0.024	1.743	1.040	1.040	1.030	1.030	1.006	0.986
-0.034	0.015	0.000	0.024	0.000	0.000	0.029	1.797	1.035	1.040	1.030	1.035	1.011	0.991
-0.063	0.010	-0.005	0.005	0.000	0.000	0.024	1.797	1.035	1.030	1.030	1.030	1.016	1.001
-0.083	0.015	0.000	-0.015	0.000	-0.005	0.024	1.763	1.035	1.035	1.030	1.030	1.021	1.001
-0.068	0.000	0.000	-0.020	-0.005	-0.005	0.024	1.753	1.040	1.030	1.030	1.035	1.021	1.006
-0.044	0.020	0.005	-0.024	0.000	-0.020	0.024	1.714	1.040	1.040	1.035	1.035	1.025	1.006
-0.015	0.015	0.000	-0.034	-0.005	0.005	0.029	1.792	1.055	1.040	1.035	1.045	1.025	1.021
-0.005	0.015	0.000	-0.020	0.000	0.005	0.029	1.782	1.060	1.050	1.040	1.050	1.035	1.025
0.005	0.020	0.000	-0.020	0.005	0.005	0.024	1.758	1.060	1.050	1.040	1.055	1.040	1.025
0.010	0.005	0.005	-0.005	0.000	0.000	0.024	1.787	1.060	1.050	1.045	1.060	1.040	1.030
-0.024	-0.005	0.005	-0.005	-0.005	-0.005	0.029	1.753	1.045	1.045	1.045	1.060	1.045	1.035
-0.054	-0.010	0.005	0.000	0.005	-0.005	0.029	1.777	1.040	1.040	1.040	1.064	1.050	1.040
-0.029	0.000	0.000	-0.005	0.000	-0.010	0.029	1.768	1.050	1.045	1.045	1.060	1.050	1.040
-0.005	-0.010	0.000	-0.015	-0.010	0.000	0.029	1.772	1.060	1.045	1.040	1.055	1.050	1.045
0.020	-0.005	-0.005	-0.024	0.000	-0.005	0.024	1.797	1.069	1.050	1.040	1.055	1.050	1.045
0.039	-0.005	0.000	-0.029	-0.005	0.000	0.029	1.748	1.064	1.055	1.045	1.055	1.050	1.050
0.044	-0.010	0.000	-0.020	-0.005	0.005	0.024	1.797	1.064	1.055	1.050	1.064	1.055	1.045
0.049	-0.010	-0.005	-0.005	0.000	-0.005	0.024	1.748	1.055	1.055	1.050	1.064	1.055	1.050
0.039	0.000	-0.005	0.010	-0.005	0.005	0.024	1.768	1.050	1.055	1.050	1.069	1.060	1.055
0.034	0.000	0.000	0.015	0.000	0.005	0.029	1.782	1.055	1.055	1.055	1.069	1.064	1.055
0.020	0.005	0.000	0.020	0.005	0.005	0.024	1.802	1.055	1.055	1.050	1.074	1.064	1.060
0.000	0.000	0.005	0.024	0.005	-0.005	0.024	1.797	1.050	1.050	1.055	1.074	1.064	1.060
-0.005	0.000	0.000	0.024	0.000	0.000	0.024	1.748	1.050	1.050	1.050	1.074	1.064	1.060
0.005	0.000	-0.005	0.005	0.000	-0.010	0.024	1.782	1.055	1.055	1.050	1.064	1.064	1.060
0.000	-0.005	0.000	-0.005	0.005	0.010	0.024	1.758	1.050	1.050	1.050	1.064	1.064	1.064
-0.010	0.000	0.000	-0.005	0.005	0.000	0.029	1.797	1.055	1.055	1.050	1.064	1.064	1.060
-0.029	0.000	0.000	-0.005	0.005	0.000	0.029	1.787	1.055	1.050	1.050	1.064	1.060	1.060
-0.024	-0.005	-0.005	0.000	-0.005	-0.010	0.029	1.768	1.055	1.050	1.050	1.064	1.060	1.060
-0.015	-0.005	-0.005	-0.005	-0.005	0.000	0.024	1.787	1.060	1.050	1.045	1.064	1.064	1.060
-0.010	0.000	-0.005	-0.010	-0.005	-0.005	0.029	1.733	1.060	1.055	1.050	1.064	1.060	1.060
-0.010	-0.005	0.000	0.005	0.000	-0.005	0.024	1.768	1.060	1.055	1.050	1.069	1.060	1.060
-0.015	0.000	0.005	-0.010	0.005	-0.005	0.024	1.797	1.060	1.055	1.055	1.064	1.064	1.060
-0.005	-0.015	0.005	-0.024	0.000	0.005	0.024	1.768	1.060	1.055	1.050	1.060	1.064	1.060
-0.010	0.005	-0.005	-0.024	0.005	0.010	0.024	1.777	1.064	1.060	1.055	1.064	1.060	1.064
-0.010	0.005	-0.005	-0.015	0.005	0.005	0.024	1.777	1.064	1.064	1.055	1.069	1.064	1.064
0.020	-0.005	-0.010	-0.010	0.000	-0.010	0.024	1.807	1.079	1.060	1.055	1.074	1.060	1.060
0.039	-0.005	0.000	-0.005	-0.010	-0.010	0.024	1.743	1.074	1.069	1.060	1.074	1.064	1.060
0.024	0.005	0.005	0.000	-0.005	-0.020	0.024	1.772	1.069	1.069	1.064	1.079	1.064	1.060
0.005	0.015	0.005	0.005	0.000	-0.010	0.024	1.787	1.064	1.069	1.064	1.084	1.064	1.060
0.000	0.000	0.010	0.005	-0.005	0.000	0.029	1.753	1.060	1.064	1.064	1.084	1.069	1.064
-0.015	0.005	0.000	0.024	0.000	-0.005	0.024	1.792	1.060	1.060	1.064	1.089	1.074	1.069
-0.049	0.000	-0.005	0.020	0.000	-0.010	0.024	1.738	1.045	1.055	1.060	1.084	1.079	1.069
-0.068	0.000	0.005	0.015	-0.005	0.010	0.029	1.787	1.055	1.055	1.064	1.079	1.079	1.074
-0.044	-0.005	0.010	-0.005	-0.005	0.005	0.029	1.797	1.074	1.060	1.060	1.074	1.074	1.074
0.000	-0.015	0.000	-0.020	0.010	0.015	0.029	1.782	1.089	1.064	1.060	1.074	1.074	1.074
0.063	0.000	-0.005	-0.024	0.000	0.015	0.029	1.763	1.104	1.074	1.064	1.074	1.074	1.079
0.063	-0.005	-0.005	-0.015	0.005	-0.005	0.029	1.787	1.094	1.079	1.064	1.079	1.074	1.069
0.024	0.000	-0.005	0.005	0.000	-0.005	0.024	1.743	1.069	1.074	1.069	1.084	1.074	1.069
-0.039	-0.005	-0.005	0.020	0.000	-0.005	0.029	1.797	1.055	1.064	1.064	1.094	1.074	1.069
-0.049	-0.005	-0.005	0.034	-0.005	0.005	0.029	1.787	1.060	1.064	1.064	1.094	1.079	1.074
-0.044	0.000	-0.015	0.044	-0.005	0.000	0.024	1.787	1.069	1.064	1.064	1.094	1.079	1.074
-0.020	-0.005	0.000	0.054	-0.005	-0.020	0.029	1.787	1.079	1.064	1.069	1.094	1.084	1.074
0.000	-0.005	0.005	0.044	-0.005	0.010	0.024	1.797	1.084	1.069	1.069	1.089	1.084	1.079
0.005	-0.005	0.000	0.039	0.005	0.000	0.024	1.772	1.079	1.074	1.069	1.084	1.084	1.079
0.020	0.000	0.000	0.005	0.000	-0.005	0.024	1.802	1.094	1.079	1.069	1.079	1.079	1.074
0.049	0.000	-0.010	-0.005	0.000	0.000	0.024	1.743	1.089	1.079	1.074	1.079	1.079	1.079
0.029	0.005	-0.005	-0.020	0.000	-0.005	0.024	1.807	1.084	1.079	1.074	1.079	1.074	1.074
0.010	0.000	0.000	-0.015	0.000	0.005	0.024	1.802	1.079	1.079	1.079	1.084	1.074	1.079
0.010	0.005	0.000	-0.010	0.000	0.005	0.024	1.787	1.084	1.084	1.079	1.089	1.079	1.079
0.010	0.000	0.005	-0.010	0.000	-0.005	0.024	1.802	1.084	1.079	1.079	1.089	1.084	1.079
0.020	-0.005	0.020	-0.005	-0.005	0.000	0.024	1.758	1.084	1.079	1.084	1.094	1.084	1.079
0.024	0.015	0.015	-0.010	0.005	0.000	0.024	1.802	1.089	1.089	1.084	1.094	1.089	1.084
0.015	0.010	0.010	-0.024	0.000	0.005	0.029	1.763	1.084	1.084	1.079	1.094	1.084	1.084
0.015	0.005	0.000	-0.034	-0.005	-0.005	0.029	1.733	1.074	1.079	1.079	1.089	1.084	1.084
-0.005	0.000	-0.015	-0.049	-0.005	0.005	0.024	1.787	1.074	1.069	1.069	1.084	1.079	1.084
0.005	-0.010	-0.024	-0.049	0.000	0.000	0.029	1.729	1.074	1.069	1.069	1.084	1.084	1.084
-0.005	-0.010	-0.024	-0.034	0.010	0.005	0.024	1.772	1.074	1.064	1.069	1.089	1.084	1.084
-0.039	-0.010	-0.005	-0.024	0.005	0.005	0.029	1.738	1.060	1.060	1.069	1.094	1.089	1.084
-0.098	0.005	0.005	-0.005	-0.005	-0.010	0.024	1.733	1.074	1.069	1.074	1.094	1.084	1.084
-0.073	-0.010	0.015	0.015	-0.005	-0.010	0.024	1.758	1.079	1.069	1.074	1.099	1.089	1.084
-0.044	-0.015	0.010	0.020	-0.005	0.005	0.024	1.753	1.089	1.074	1.074	1.099	1.089	1.089
0.000	-0.010	0.005	0.020	-0.005	0.000	0.029	1.777	1.099	1.084	1.074	1.094	1.094	1.089
0.029	0.005	0.000	0.010	0.005	0.010	0.024	1.787	1.104	1.089	1.079	1.094	1.089	1.089
0.044	-0.005	-0.005	0.000	0.000	-0.005	0.024	1.807	1.104	1.094	1.079	1.094	1.089	1.084
0.049	-0.005	-0.005	0.005	0.000	-0.005	0.024	1.768	1.099	1.094	1.084	1.094	1.089	1.084
0.034	-0.010	-0.005	0.005	0.000	0.005	0.024	1.782	1.094	1.089	1.089	1.099	1.094	1.089
0.020	-0.005	0.000	0.005	0.000	0.000	0.029	1.758	1.089	1.094	1.084	1.104	1.094	1.089
0.005	0.005	0.000	0.000	-0.005	0.005	0.029	1.787	1.084	1.089	1.089	1.104	1.094	1.094
-0.005	0.005	0.005	0.000	0.005	-0.005	0.029	1.787	1.079	1.089	1.089	1.099	1.094	1.094
-0.005	0.015	0.005	-0.005	0.005	0.010	0.029	1.787	1.084	1.089	1.089	1.104	1.094	1.094
0.000	0.010	-0.005	0.000	-0.005	0.000	0.029	1.777	1.084	1.089	1.084	1.104	1.094	1.094
-0.005	0.010	-0.015	-0.005	0.000	-0.005	0.024	1.787	1.084	1.084	1.084	1.099	1.094	1.089
-0.005	0.000	-0.005	-0.005	0.000	0.005	0.024	1.743	1.079	1.079	1.084	1.099	1.094	1.094
-0.024	-0.010	0.005	-0.005	0.005	0.010	0.029	1.748	1.074	1.074	1.079	1.099	1.099	1.094
-0.029	0.000	0.000	-0.005	-0.005	0.005	0.029	1.787	1.074	1.074	1.079	1.099	1.094	1.094
-0.024	-0.005	0.000	-0.005	-0.015	0.000	0.024	1.792	1.084	1.079	1.079	1.094	1.089	1.094
-0.010	-0.005	-0.010	0.000	0.000	-0.020	0.024	1.797	1.089	1.079	1.074	1.094	1.094	1.089
-0.010	-0.005	-0.005	0.000	0.005	-0.010	0.024	1.733	1.089	1.084	1.074	1.094	1.094	1.094
0.063	-0.005	-0.005	0.005	0.000	-0.005	0.024	1.787	1.118	1.089	1.084	1.099	1.094	1.094
0.083	-0.005	0.000	0.010	0.000	0.000	0.029	1.753	1.108	1.099	1.089	1.099	1.094	1.094
0.039	-0.010	-0.005	0.005	0.000	-0.005	0.029	1.709	1.084	1.094	1.089	1.099	1.099	1.094
-0.020	0.000	-0.005	0.005	0.000	0.000	0.024	1.782	1.069	1.084	1.089	1.104	1.094	1.094
-0.059	0.000	-0.005	0.015	-0.005	0.010	0.024	1.748	1.060	1.079	1.084	1.104	1.099	1.099
-0.117	-0.005	0.000	0.000	0.000	0.000	0.024	1.787	1.055	1.069	1.084	1.099	1.094	1.094
-0.098	0.005	0.005	-0.010	-0.005	-0.005	0.029	1.777	1.069	1.069	1.079	1.099	1.094	1.094
-0.059	-0.020	0.000	-0.015	-0.005	0.000	0.029	1.738	1.084	1.069	1.074	1.094	1.094	1.094
-0.015	-0.015	0.005	-0.015	0.000	0.005	0.024	1.797	1.099	1.074	1.074	1.094	1.094	1.094
0.024	-0.015	0.000	-0.005	0.000	-0.015	0.029	1.694	1.099	1.089	1.074	1.094	1.094	1.089
0.054	0.000	0.000	0.000	0.005	-0.005	0.024	1.797	1.108	1.094	1.084	1.099	1.094	1.094
0.059	0.000	-0.005	0.029	-0.005	0.005	0.029	1.782	1.099	1.094	1.089	1.108	1.099	1.094
0.059	0.000	-0.005	0.029	-0.010	-0.005	0.024	1.816	1.108	1.099	1.089	1.104	1.094	1.094
0.039	-0.010	0.000	0.015	-0.005	-0.010	0.029	1.797	1.099	1.094	1.089	1.099	1.094	1.089
0.029	0.010	0.005	-0.010	0.000	0.010	0.024	1.807	1.099	1.099	1.094	1.099	1.099	1.094
0.059	0.005	0.010	-0.015	-0.005	0.005	0.024	1.787	1.104	1.099	1.094	1.099	1.094	1.094
0.054	0.010	0.000	-0.015	0.000	0.000	0.024	1.787	1.104	1.099	1.094	1.104	1.094	1.094
0.015	0.005	0.005	0.005	-0.005	0.005	0.024	1.709	1.084	1.094	1.094	1.113	1.099	1.099
-0.005	0.010	0.000	0.015	-0.005	-0.015	0.024	1.724	1.074	1.089	1.094	1.113	1.104	1.089
-0.015	0.005	0.000	0.024	-0.005	-0.010	0.029	1.738	1.074	1.084	1.089	1.113	1.104	1.099
-0.020	0.005	0.000	0.020	-0.010	0.005	0.024	1.748	1.079	1.084	1.089	1.113	1.104	1.104
-0.024	0.010	-0.005	0.010	-0.005	0.005	0.024	1.782	1.084	1.079	1.089	1.108	1.104	1.104
-0.039	0.000	-0.005	0.005	0.005	-0.005	0.024	1.787	1.084	1.079	1.084	1.104	1.104	1.104
-0.020	-0.010	-0.005	0.000	0.005	0.000	0.029	1.748	1.089	1.079	1.084	1.104	1.104	1.104
-0.005	-0.005	0.000	-0.010	0.000	-0.010	0.029	1.772	1.094	1.089	1.084	1.094	1.099	1.099
0.000	-0.015	0.000	-0.015	0.005	-0.005	0.029	1.812	1.099	1.084	1.084	1.099	1.099	1.099
-0.010	-0.005	0.000	-0.005	0.000	-0.015	0.029	1.768	1.089	1.089	1.084	1.099	1.099	1.099
0.000	0.005	0.000	-0.010	0.000	0.000	0.029	1.777	1.094	1.094	1.084	1.104	1.094	1.099
-0.015	-0.005	0.000	0.000	0.005	-0.005	0.029	1.772	1.089	1.089	1.084	1.104	1.099	1.094
-0.024	-0.005	-0.005	-0.005	0.000	0.010	0.029	1.763	1.084	1.084	1.084	1.099	1.099	1.099
-0.020	0.000	-0.005	-0.010	0.005	0.010	0.024	1.768	1.084	1.084	1.084	1.099	1.099	1.099
-0.020	0.005	-0.010	-0.015	0.000	0.015	0.024	1.777	1.089	1.089	1.084	1.094	1.094	1.099
-0.005	0.005	-0.015	-0.015	-0.010	0.005	0.024	1.777	1.099	1.089	1.084	1.099	1.094	1.094
-0.005	-0.005	-0.010	-0.010	-0.005	0.000	0.024	1.797	1.094	1.089	1.084	1.104	1.094	1.094
0.000	0.010	-0.005	0.000	-0.005	-0.020	0.024	1.758	1.094	1.094	1.089	1.104	1.099	1.094
-0.020	0.020	0.005	-0.005	-0.010	0.005	0.024	1.743	1.089	1.094	1.094	1.108	1.099	1.094
-0.049	0.010	0.005	-0.005	0.000	0.000	0.024	1.782	1.079	1.084	1.089	1.108	1.099	1.099
-0.039	0.010	-0.015	-0.010	0.005	0.000	0.029	1.748	1.089	1.084	1.084	1.104	1.104	1.099
-0.015	0.005	-0.015	-0.010	0.010	-0.029	0.029	1.787	1.099	1.089	1.084	1.104	1.104	1.094
0.015	0.010	-0.015	0.000	0.015	0.010	0.024	1.787	1.108	1.094	1.089	1.108	1.104	1.104
0.029	0.005	0.005	0.015	0.015	0.000	0.029	1.797	1.108	1.099	1.094	1.113	1.108	1.099
0.034	0.000	0.034	0.010	0.015	0.000	0.024	1.792	1.113	1.099	1.099	1.118	1.108	1.104
0.039	-0.005	0.015	0.020	0.010	0.000	0.029	1.787	1.113	1.099	1.099	1.118	1.108	1.104
0.034	-0.005	0.000	0.029	0.000	-0.020	0.024	1.763	1.108	1.104	1.094	1.118	1.104	1.094
-0.005	-0.010	-0.005	0.015	-0.015	0.005	0.024	1.787	1.094	1.094	1.094	1.113	1.099	1.104
-0.015	0.000	0.005	0.010	-0.020	0.005	0.029	1.782	1.089	1.094	1.094	1.108	1.104	1.104
-0.029	-0.010	0.005	-0.005	-0.010	0.010	0.024	1.772	1.089	1.089	1.094	1.108	1.104	1.104
0.010	-0.005	0.000	0.005	-0.010	0.005	0.029	1.748	1.099	1.094	1.094	1.108	1.104	1.104
0.015	-0.015	0.020	-0.005	-0.015	-0.005	0.029	1.792	1.104	1.094	1.094	1.108	1.104	1.099
0.029	-0.020	0.015	-0.005	-0.010	0.005	0.029	1.758	1.099	1.094	1.094	1.108	1.104	1.104
0.039	-0.005	0.000	-0.010	-0.020	0.010	0.024	1.748	1.099	1.099	1.094	1.108	1.104	1.104
-0.020	0.005	-0.010	-0.005	-0.010	0.005	0.024	1.797	1.084	1.094	1.094	1.108	1.104	1.104
-0.063	-0.010	0.005	0.000	0.000	0.000	0.029	1.792	1.074	1.084	1.094	1.113	1.108	1.104
-0.044	-0.005	-0.005	-0.005	0.005	-0.010	0.029	1.787	1.089	1.084	1.089	1.108	1.108	1.104
-0.010	0.000	0.000	-0.010	0.005	0.000	0.024	1.782	1.099	1.089	1.089	1.108	1.108	1.104
0.034	-0.005	0.000	-0.005	0.010	-0.005	0.029	1.768	1.113	1.099	1.094	1.108	1.108	1.108
0.059	-0.005	0.005	-0.010	0.005	0.000	0.029	1.797	1.113	1.104	1.094	1.108	1.104	1.108
0.049	-0.005	0.005	-0.010	0.000	0.000	0.024	1.748	1.104	1.104	1.094	1.113	1.104	1.099
0.044	-0.005	0.000	-0.005	-0.020	0.000	0.024	1.787	1.099	1.099	1.094	1.113	1.099	1.104
0.049	0.000	-0.010	-0.010	-0.020	0.005	0.024	1.772	1.104	1.104	1.094	1.108	1.104	1.104
0.044	0.000	-0.010	-0.015	0.010	-0.010	0.029	1.772	1.094	1.099	1.094	1.108	1.108	1.104
0.005	0.000	-0.020	-0.029	0.024	0.000	0.024	1.782	1.084	1.094	1.094	1.108	1.108	1.108
-0.005	-0.015	-0.020	-0.029	0.020	-0.005	0.024	1.777	1.089	1.084	1.089	1.108	1.108	1.108
0.034	-0.010	0.000	-0.024	-0.005	-0.005	0.029	1.792	1.104	1.094	1.094	1.108	1.099	1.104
0.024	-0.005	0.015	-0.005	-0.020	-0.024	0.029	1.797	1.099	1.094	1.099	1.118	1.099	1.094
-0.044	-0.010	0.024	0.010	-0.020	0.015	0.029	1.802	1.079	1.084	1.099	1.123	1.104	1.108
-0.093	-0.005	0.010	0.024	-0.020	0.000	0.029	1.792	1.074	1.084	1.089	1.118	1.108	1.108
-0.127	0.005	-0.005	0.024	-0.015	0.005	0.029	1.748	1.069	1.079	1.084	1.118	1.108	1.108
-0.112	0.000	-0.015	0.000	-0.005	0.005	0.029	1.792	1.084	1.074	1.079	1.104	1.108	1.108
-0.078	-0.005	-0.010	0.000	0.000	-0.015	0.024	1.782	1.099	1.084	1.079	1.104	1.108	1.099
-0.054	0.005	-0.005	0.000	-0.005	0.000	0.029	1.738	1.104	1.094	1.084	1.104	1.108	1.108
-0.015	0.000	-0.005	0.010	-0.010	-0.015	0.029	1.680	1.104	1.099	1.089	1.104	1.104	1.104
0.024	0.005	0.010	0.020	-0.005	-0.005	0.024	1.782	1.118	1.104	1.099	1.113	1.104	1.104
0.068	0.005	0.015	0.024	-0.005	0.005	0.029	1.738	1.123	1.108	1.099	1.113	1.108	1.108
0.127	-0.005	0.015	0.034	0.005	0.010	0.024	1.777	1.133	1.113	1.104	1.123	1.118	1.113
0.103	-0.024	0.015	0.029	0.024	0.010	0.024	1.772	1.113	1.108	1.104	1.118	1.123	1.113
0.029	-0.010	-0.015	0.024	0.034	0.000	0.029	1.738	1.084	1.104	1.094	1.113	1.118	1.108
-0.015	-0.010	-0.034	0.020	0.049	-0.015	0.024	1.753	1.074	1.089	1.089	1.113	1.118	1.108
-0.049	-0.010	-0.044	0.000	0.039	0.005	0.024	1.743	1.069	1.084	1.084	1.104	1.113	1.113
-0.015	-0.005	-0.034	-0.015	0.029	0.000	0.029	1.768	1.089	1.084	1.089	1.099	1.104	1.108
-0.005	0.000	0.000	-0.015	0.015	-0.020	0.029	1.743	1.094	1.094	1.094	1.104	1.099	1.104
0.005	0.005	0.024	-0.020	0.000	-0.005	0.024	1.802	1.094	1.094	1.099	1.108	1.094	1.104
-0.059	0.005	0.020	-0.010	-0.010	-0.010	0.034	1.719	1.074	1.084	1.094	1.108	1.094	1.099
-0.063	0.005	0.020	-0.015	-0.024	0.005	0.034	1.797	1.084	1.084	1.089	1.108	1.094	1.099
-0.029	0.010	0.020	-0.020	-0.029	0.005	0.034	1.782	1.104	1.089	1.094	1.104	1.094	1.104
0.005	0.000	0.010	-0.029	-0.029	0.010	0.034	1.729	1.113	1.094	1.089	1.104	1.094	1.099
0.024	0.015	0.005	-0.034	-0.024	0.000	0.034	1.797	1.113	1.104	1.089	1.104	1.099	1.099
0.034	0.015	0.005	-0.029	-0.020	-0.005	0.034	1.772	1.118	1.108	1.094	1.108	1.099	1.094
0.054	0.000	-0.010	-0.020	-0.020	0.005	0.029	1.787	1.118	1.108	1.094	1.108	1.104	1.099
0.034	0.005	0.000	-0.010	-0.015	-0.010	0.029	1.792	1.104	1.108	1.099	1.118	1.104	1.094
0.024	0.005	-0.020	0.010	-0.010	-0.015	0.034	1.787	1.104	1.104	1.099	1.123	1.108	1.104
0.005	-0.005	-0.020	0.015	-0.010	-0.005	0.034	1.753	1.094	1.099	1.094	1.123	1.113	1.104
-0.010	0.000	-0.010	0.010	0.000	0.005	0.034	1.787	1.094	1.094	1.099	1.118	1.118	1.113
-0.024	0.010	-0.005	0.020	0.010	0.000	0.034	1.772	1.084	1.094	1.099	1.123	1.118	1.113
-0.024	0.005	0.010	0.024	0.000	0.005	0.034	1.787	1.089	1.089	1.099	1.123	1.118	1.108
-0.049	0.010	0.015	0.020	-0.005	0.000	0.034	1.792	1.084	1.089	1.099	1.118	1.113	1.108
-0.093	-0.005	0.000	0.010	-0.005	-0.010	0.029	1.753	1.074	1.079	1.084	1.108	1.113	1.108
-0.049	0.000	-0.005	0.005	0.005	-0.005	0.034	1.768	1.094	1.084	1.084	1.108	1.113	1.108
-0.005	-0.005	-0.005	-0.005	0.015	-0.010	0.029	1.772	1.108	1.089	1.084	1.104	1.108	1.108
0.083	0.005	0.005	-0.005	0.039	-0.015	0.034	1.797	1.138	1.104	1.094	1.108	1.113	1.104
0.112	0.000	0.020	0.000	0.044	0.005	0.029	1.748	1.133	1.113	1.099	1.113	1.113	1.118
