0.000	-0.005	0.000	0.000	-0.005	-0.005	0.029	3.975	3.623	3.237	3.140	3.013	3.018	2.979
0.000	0.000	0.005	0.000	-0.005	-0.005	0.024	3.989	3.472	3.306	3.184	3.066	3.027	2.988
0.000	0.005	0.005	0.000	-0.005	0.000	0.029	3.970	3.354	3.325	3.223	3.110	3.047	3.008
0.010	0.005	0.000	0.000	-0.010	-0.005	0.029	3.984	3.276	3.311	3.247	3.154	3.076	3.027
0.000	0.000	0.000	0.000	0.000	0.010	0.024	3.975	3.213	3.286	3.257	3.184	3.110	3.052
0.005	0.005	0.000	-0.005	0.005	0.010	0.029	3.984	3.179	3.257	3.257	3.213	3.135	3.076
-0.005	-0.005	0.000	0.005	0.005	0.015	0.029	3.979	3.145	3.228	3.252	3.228	3.159	3.101
0.005	0.000	0.000	0.000	0.010	0.005	0.029	3.975	3.125	3.198	3.237	3.237	3.179	3.120
-0.005	0.005	0.005	0.000	0.005	0.015	0.029	3.984	3.115	3.174	3.223	3.237	3.193	3.145
0.000	-0.005	0.000	0.000	0.000	0.010	0.029	3.965	3.110	3.159	3.203	3.232	3.203	3.159
-0.005	0.000	-0.005	0.000	0.005	0.005	0.024	3.970	3.105	3.140	3.184	3.223	3.208	3.174
-0.005	0.000	0.005	0.000	0.000	0.010	0.029	3.979	3.101	3.130	3.169	3.213	3.208	3.184
-0.005	-0.005	0.005	0.005	0.005	0.000	0.029	3.965	3.096	3.120	3.154	3.203	3.208	3.188
0.000	0.010	0.005	0.005	0.010	-0.010	0.029	3.979	3.101	3.115	3.140	3.193	3.203	3.188
0.000	-0.010	0.005	0.000	0.005	0.010	0.024	3.965	3.101	3.110	3.130	3.179	3.198	3.198
0.000	-0.015	0.000	0.000	0.005	0.000	0.024	3.975	3.101	3.105	3.120	3.169	3.188	3.193
0.005	-0.015	0.000	0.000	0.005	0.005	0.029	3.984	3.105	3.105	3.115	3.159	3.179	3.193
0.010	0.000	0.000	0.000	-0.005	0.000	0.029	3.975	3.105	3.110	3.115	3.149	3.164	3.184
-0.005	0.000	0.000	0.000	-0.020	0.000	0.029	3.989	3.110	3.105	3.110	3.145	3.154	3.179
0.000	0.024	0.000	0.000	-0.010	-0.010	0.029	3.975	3.110	3.120	3.110	3.140	3.154	3.169
0.005	0.010	-0.005	0.000	0.005	0.000	0.029	3.970	3.105	3.110	3.115	3.135	3.154	3.169
-0.005	0.010	0.000	0.000	0.005	-0.005	0.029	3.979	3.105	3.110	3.110	3.135	3.145	3.159
0.000	0.005	0.005	0.000	0.000	0.005	0.029	3.979	3.105	3.105	3.110	3.135	3.140	3.159
0.005	0.010	0.000	0.000	0.000	-0.010	0.029	3.984	3.105	3.110	3.105	3.130	3.135	3.149
0.010	0.000	0.000	0.005	-0.005	-0.005	0.029	3.984	3.105	3.105	3.105	3.130	3.130	3.145
0.000	0.000	0.005	0.000	0.005	0.010	0.024	3.979	3.105	3.105	3.105	3.125	3.130	3.149
0.000	0.000	0.000	0.005	-0.005	0.005	0.029	3.979	3.105	3.105	3.105	3.125	3.125	3.140
0.000	-0.015	0.005	0.000	0.005	0.010	0.024	3.979	3.101	3.096	3.101	3.125	3.125	3.140
-0.005	0.005	0.005	0.000	0.000	0.010	0.029	3.984	3.101	3.101	3.101	3.120	3.120	3.130
0.000	-0.010	0.000	0.000	0.000	0.015	0.029	3.975	3.096	3.096	3.096	3.120	3.120	3.130
-0.005	0.000	0.005	0.000	0.000	0.000	0.024	3.975	3.096	3.101	3.096	3.120	3.120	3.120
-0.005	0.005	0.000	0.005	0.000	0.005	0.024	3.965	3.091	3.101	3.096	3.115	3.120	3.125
0.000	0.005	0.000	0.000	0.015	-0.005	0.024	3.975	3.096	3.101	3.096	3.115	3.120	3.120
-0.005	0.005	-0.005	0.005	0.010	0.000	0.024	3.979	3.096	3.096	3.096	3.115	3.115	3.120
0.005	0.000	0.005	0.000	0.005	-0.015	0.024	3.975	3.096	3.096	3.096	3.115	3.110	3.115
0.010	-0.005	0.005	0.000	0.005	0.000	0.029	3.984	3.096	3.096	3.091	3.115	3.115	3.120
0.005	0.015	-0.005	0.000	0.010	-0.010	0.024	3.975	3.091	3.096	3.091	3.110	3.110	3.120
0.005	0.000	0.000	0.000	0.000	0.000	0.024	3.984	3.096	3.096	3.091	3.115	3.110	3.115
0.000	0.005	0.000	0.000	0.000	-0.005	0.029	3.975	3.091	3.096	3.091	3.110	3.110	3.115
-0.005	0.005	0.005	0.000	-0.010	0.000	0.029	3.979	3.091	3.091	3.091	3.110	3.105	3.115
-0.005	0.005	0.000	0.000	-0.005	0.005	0.029	3.970	3.091	3.091	3.091	3.110	3.105	3.115
0.000	0.005	0.005	0.005	0.000	0.000	0.029	3.979	3.091	3.091	3.091	3.110	3.110	3.110
0.000	-0.005	0.005	0.005	0.005	-0.005	0.029	3.979	3.086	3.086	3.091	3.110	3.110	3.110
-0.010	-0.005	0.000	0.005	0.005	-0.015	0.029	3.970	3.081	3.081	3.086	3.110	3.110	3.110
-0.010	0.000	0.000	0.000	0.005	-0.005	0.024	3.984	3.086	3.086	3.086	3.105	3.105	3.105
-0.005	0.000	0.005	0.000	0.005	0.010	0.029	3.965	3.086	3.086	3.086	3.105	3.105	3.110
0.005	0.000	0.000	0.000	0.005	0.010	0.029	3.975	3.086	3.086	3.081	3.105	3.101	3.110
-0.005	-0.005	0.000	-0.005	0.005	0.010	0.029	3.979	3.081	3.081	3.081	3.101	3.101	3.110
0.005	0.005	0.000	-0.005	-0.005	-0.010	0.029	3.979	3.086	3.086	3.081	3.101	3.096	3.101
0.000	0.000	0.000	0.000	-0.010	0.010	0.029	3.984	3.081	3.086	3.081	3.101	3.096	3.105
0.005	0.010	-0.005	0.000	0.015	0.000	0.029	3.975	3.081	3.081	3.081	3.101	3.101	3.101
-0.005	0.005	0.000	-0.005	0.020	0.005	0.024	3.989	3.081	3.081	3.081	3.101	3.101	3.105
0.005	0.000	0.005	0.000	0.005	0.000	0.029	3.975	3.086	3.081	3.081	3.101	3.096	3.101
-0.005	0.000	0.000	0.005	0.000	-0.015	0.029	3.975	3.076	3.081	3.081	3.101	3.096	3.096
0.010	-0.020	0.005	0.000	-0.005	0.000	0.029	3.979	3.081	3.076	3.076	3.101	3.096	3.101
-0.005	-0.010	0.000	0.005	0.000	0.010	0.029	3.984	3.076	3.076	3.076	3.096	3.096	3.105
0.000	-0.010	0.005	0.000	0.005	0.005	0.029	3.989	3.081	3.076	3.076	3.096	3.096	3.101
0.000	0.000	0.000	0.000	0.000	0.015	0.029	3.975	3.081	3.081	3.076	3.096	3.096	3.105
0.005	0.005	0.000	0.005	-0.010	0.005	0.029	3.975	3.076	3.081	3.076	3.096	3.091	3.101
-0.005	0.000	0.000	0.000	-0.005	0.010	0.029	3.984	3.071	3.076	3.076	3.096	3.091	3.096
-0.005	0.005	-0.005	0.005	-0.005	0.005	0.029	3.970	3.071	3.076	3.076	3.096	3.091	3.096
-0.005	0.010	0.005	0.005	0.010	-0.010	0.029	3.979	3.076	3.076	3.076	3.096	3.096	3.091
-0.005	0.005	0.000	0.000	0.000	0.005	0.029	3.979	3.071	3.076	3.071	3.091	3.091	3.096
0.000	0.010	0.005	0.005	0.015	0.000	0.029	3.979	3.071	3.076	3.071	3.091	3.091	3.096
0.000	0.005	0.005	0.005	0.010	-0.005	0.029	3.979	3.071	3.071	3.071	3.091	3.091	3.091
0.000	0.005	0.000	0.005	0.010	0.005	0.029	3.975	3.071	3.071	3.071	3.091	3.086	3.096
-0.005	0.015	0.005	0.000	0.005	0.010	0.024	3.979	3.071	3.071	3.066	3.091	3.086	3.091
0.000	0.000	0.000	0.000	0.000	0.005	0.029	3.984	3.071	3.071	3.066	3.086	3.081	3.086
0.000	0.005	-0.005	0.000	-0.005	0.010	0.029	3.970	3.071	3.071	3.066	3.086	3.086	3.091
0.000	-0.005	0.000	0.000	0.000	0.005	0.024	3.975	3.066	3.066	3.066	3.086	3.086	3.091
0.005	0.000	0.000	0.005	0.000	-0.005	0.029	3.979	3.071	3.071	3.066	3.086	3.086	3.086
0.000	0.005	0.000	0.000	0.005	0.005	0.024	3.984	3.071	3.066	3.071	3.086	3.086	3.086
0.000	-0.005	0.000	0.000	-0.005	0.010	0.029	3.970	3.066	3.066	3.066	3.086	3.081	3.091
0.005	-0.005	0.000	0.000	0.005	-0.005	0.024	3.975	3.066	3.066	3.066	3.086	3.081	3.086
0.000	-0.010	0.005	0.000	0.000	-0.005	0.024	3.979	3.066	3.062	3.062	3.086	3.081	3.081
0.005	-0.005	0.010	0.005	0.000	-0.020	0.024	3.970	3.062	3.066	3.066	3.086	3.081	3.081
-0.005	0.000	0.000	0.000	0.000	0.010	0.024	3.975	3.062	3.062	3.062	3.086	3.081	3.091
-0.010	-0.010	0.000	0.000	-0.005	-0.005	0.029	3.979	3.062	3.062	3.057	3.081	3.076	3.081
0.005	0.000	0.005	0.000	0.005	0.005	0.029	3.975	3.057	3.062	3.062	3.081	3.081	3.081
0.000	0.005	0.005	0.000	0.005	0.010	0.029	3.979	3.062	3.062	3.062	3.081	3.081	3.086
0.000	-0.005	0.005	0.000	0.000	-0.005	0.029	3.979	3.062	3.057	3.057	3.081	3.076	3.076
0.005	0.000	0.000	0.005	0.000	0.010	0.029	3.975	3.062	3.057	3.057	3.076	3.076	3.081
0.005	0.005	0.005	0.000	0.005	0.005	0.024	3.975	3.062	3.062	3.057	3.076	3.076	3.081
0.000	-0.005	0.005	0.000	0.005	0.005	0.024	3.984	3.057	3.057	3.057	3.076	3.076	3.081
0.000	0.010	0.005	0.000	0.005	0.005	0.029	3.984	3.062	3.062	3.057	3.076	3.076	3.076
-0.005	0.010	0.000	0.000	0.005	-0.020	0.029	3.975	3.057	3.062	3.057	3.076	3.071	3.071
0.000	0.005	0.000	0.000	0.000	0.005	0.029	3.979	3.057	3.062	3.057	3.076	3.076	3.081
0.010	0.005	0.005	0.000	0.000	0.005	0.024	3.979	3.062	3.062	3.062	3.076	3.071	3.081
-0.005	-0.005	0.000	0.000	0.000	0.010	0.029	3.975	3.062	3.057	3.057	3.076	3.071	3.076
0.000	-0.005	0.000	0.005	0.000	-0.005	0.029	3.975	3.057	3.057	3.057	3.076	3.071	3.076
0.005	0.005	0.000	0.000	0.000	0.005	0.024	3.984	3.062	3.062	3.057	3.076	3.071	3.076
0.000	0.000	0.000	0.005	0.010	-0.005	0.024	3.975	3.057	3.057	3.057	3.076	3.071	3.071
-0.005	0.000	0.005	0.005	0.010	-0.005	0.029	3.984	3.057	3.057	3.052	3.076	3.071	3.076
0.000	-0.005	0.005	0.005	0.005	0.000	0.029	3.965	3.057	3.057	3.052	3.071	3.071	3.071
-0.005	-0.005	0.000	0.000	0.005	-0.010	0.029	3.984	3.057	3.052	3.052	3.071	3.066	3.071
0.005	-0.005	0.000	0.000	0.005	0.005	0.029	3.984	3.062	3.057	3.052	3.071	3.066	3.071
0.000	0.005	0.000	0.005	0.005	0.000	0.029	3.970	3.057	3.057	3.057	3.071	3.066	3.071
-0.005	0.005	0.000	0.000	0.005	0.010	0.029	3.979	3.057	3.057	3.052	3.071	3.066	3.076
-0.005	0.015	0.000	0.005	0.005	0.005	0.029	3.979	3.062	3.057	3.057	3.071	3.066	3.071
0.010	0.005	0.000	0.000	0.005	-0.005	0.029	3.979	3.062	3.057	3.052	3.071	3.066	3.071
0.000	-0.005	0.005	0.000	-0.015	0.005	0.029	3.975	3.057	3.057	3.057	3.071	3.062	3.066
0.010	0.000	0.000	0.000	-0.034	0.005	0.029	3.970	3.057	3.057	3.052	3.071	3.062	3.066
0.005	0.000	0.000	0.005	-0.020	0.000	0.029	3.975	3.052	3.057	3.052	3.071	3.066	3.071
0.000	0.005	-0.005	0.005	-0.005	0.000	0.029	3.979	3.062	3.057	3.052	3.071	3.071	3.071
-0.005	0.000	0.000	0.000	0.010	-0.005	0.029	3.984	3.057	3.057	3.057	3.076	3.071	3.071
0.005	0.010	0.000	0.000	0.020	-0.010	0.029	3.979	3.057	3.057	3.052	3.071	3.076	3.071
-0.005	0.005	0.000	0.005	0.010	0.015	0.029	3.984	3.052	3.057	3.052	3.071	3.071	3.076
-0.005	0.005	0.000	0.000	0.000	0.005	0.029	3.970	3.052	3.057	3.052	3.071	3.066	3.071
0.000	0.000	0.000	0.005	-0.005	0.005	0.029	3.979	3.052	3.052	3.052	3.071	3.066	3.071
0.005	-0.005	0.005	0.000	-0.010	0.000	0.029	3.970	3.047	3.052	3.052	3.066	3.066	3.066
-0.005	-0.005	0.000	0.000	-0.005	-0.005	0.029	3.979	3.047	3.047	3.047	3.071	3.066	3.066
0.000	0.005	0.000	0.000	0.000	-0.005	0.029	3.979	3.047	3.052	3.047	3.066	3.066	3.066
0.000	-0.005	0.000	0.005	0.010	-0.010	0.024	3.975	3.052	3.047	3.047	3.066	3.066	3.066
-0.005	0.000	0.005	0.000	0.015	0.000	0.029	3.984	3.047	3.052	3.047	3.066	3.066	3.071
0.000	-0.005	0.005	0.000	0.024	-0.010	0.029	3.979	3.047	3.047	3.047	3.066	3.066	3.071
-0.005	0.005	0.005	0.005	0.029	0.010	0.029	3.979	3.052	3.047	3.047	3.066	3.066	3.071
-0.005	0.000	0.005	0.005	0.015	0.000	0.029	3.984	3.052	3.047	3.047	3.066	3.062	3.066
0.005	0.005	0.000	0.005	0.010	-0.005	0.024	3.979	3.052	3.047	3.047	3.066	3.057	3.066
0.005	-0.005	0.000	0.000	0.000	0.010	0.029	3.979	3.047	3.047	3.047	3.062	3.057	3.066
0.005	0.000	-0.005	0.000	-0.005	0.005	0.024	3.975	3.047	3.047	3.047	3.062	3.057	3.066
0.005	0.000	0.000	-0.005	-0.005	-0.005	0.024	3.975	3.052	3.047	3.047	3.062	3.057	3.062
0.005	-0.010	0.005	0.000	-0.005	0.005	0.029	3.979	3.052	3.047	3.047	3.066	3.062	3.062
0.010	0.005	0.005	0.005	-0.005	0.005	0.024	3.984	3.052	3.052	3.047	3.066	3.062	3.066
-0.005	-0.005	0.005	-0.005	0.005	0.000	0.024	3.975	3.052	3.047	3.047	3.062	3.062	3.062
-0.005	-0.005	0.000	0.005	0.005	-0.005	0.029	3.965	3.042	3.047	3.047	3.062	3.062	3.062
0.000	0.005	-0.005	0.000	0.000	0.010	0.029	3.979	3.047	3.047	3.047	3.066	3.057	3.066
0.000	0.000	0.005	-0.005	0.000	0.005	0.029	3.984	3.047	3.047	3.042	3.066	3.057	3.062
-0.010	0.005	0.005	0.005	0.000	0.000	0.029	3.965	3.042	3.047	3.047	3.062	3.057	3.062
0.000	-0.005	0.005	0.005	0.000	0.005	0.029	3.970	3.047	3.042	3.042	3.062	3.057	3.057
0.005	0.010	0.000	0.005	0.000	0.000	0.029	3.984	3.047	3.047	3.042	3.062	3.057	3.062
0.005	0.015	0.010	0.000	-0.005	0.005	0.024	3.979	3.047	3.047	3.047	3.062	3.057	3.062
0.000	0.005	0.005	0.000	0.000	-0.015	0.029	3.979	3.047	3.047	3.042	3.062	3.057	3.057
0.000	0.029	0.005	0.000	0.000	0.010	0.029	3.979	3.042	3.047	3.047	3.062	3.057	3.066
0.000	0.015	0.000	0.000	0.010	0.000	0.029	3.970	3.042	3.047	3.042	3.062	3.062	3.057
0.005	0.015	0.000	0.000	0.000	0.000	0.029	3.975	3.047	3.047	3.037	3.057	3.057	3.062
0.005	0.015	-0.005	0.005	0.000	0.005	0.029	3.979	3.047	3.047	3.042	3.062	3.057	3.062
0.005	0.000	0.000	0.000	0.000	0.000	0.029	3.970	3.047	3.042	3.042	3.062	3.057	3.062
-0.005	0.000	-0.005	0.005	-0.005	-0.020	0.029	3.984	3.042	3.037	3.037	3.062	3.052	3.052
-0.005	0.000	0.000	0.000	-0.005	-0.015	0.029	3.979	3.047	3.047	3.042	3.057	3.057	3.057
0.000	-0.005	-0.005	0.000	-0.005	-0.034	0.029	3.979	3.047	3.042	3.037	3.057	3.057	3.052
0.005	0.000	0.005	0.000	0.010	-0.005	0.024	3.979	3.047	3.047	3.042	3.057	3.062	3.062
0.005	-0.005	0.000	0.000	0.024	0.015	0.029	3.975	3.047	3.042	3.042	3.062	3.062	3.071
-0.005	-0.005	0.005	0.000	0.020	0.020	0.029	3.979	3.047	3.042	3.037	3.062	3.057	3.066
-0.010	-0.010	0.005	0.000	0.010	0.029	0.029	3.970	3.042	3.042	3.042	3.057	3.057	3.066
0.000	-0.005	0.000	0.000	0.010	0.015	0.029	3.975	3.047	3.042	3.042	3.057	3.052	3.062
0.000	-0.005	0.000	0.005	0.005	0.000	0.029	3.979	3.047	3.047	3.042	3.057	3.052	3.057
0.000	-0.005	0.000	0.000	-0.010	0.005	0.024	3.975	3.042	3.042	3.037	3.057	3.047	3.052
0.000	-0.005	-0.005	0.000	-0.024	0.005	0.024	3.979	3.047	3.042	3.037	3.057	3.047	3.052
0.000	0.000	0.005	0.000	-0.020	-0.005	0.029	3.979	3.047	3.047	3.042	3.052	3.047	3.047
0.010	0.005	0.005	0.000	-0.005	0.000	0.029	3.979	3.042	3.047	3.042	3.057	3.052	3.052
0.005	0.000	0.005	0.000	-0.010	0.000	0.029	3.975	3.042	3.042	3.042	3.057	3.052	3.052
0.005	-0.005	0.000	0.000	0.000	-0.005	0.024	3.989	3.047	3.042	3.042	3.057	3.057	3.052
0.010	-0.005	0.000	-0.005	0.005	-0.005	0.029	3.979	3.042	3.042	3.037	3.057	3.057	3.052
0.005	-0.005	-0.005	0.000	0.000	0.010	0.029	3.979	3.042	3.042	3.037	3.057	3.052	3.062
0.005	0.005	0.000	0.000	0.015	0.005	0.029	3.970	3.047	3.047	3.037	3.057	3.057	3.057
0.000	0.000	-0.005	0.000	0.020	0.010	0.029	3.979	3.047	3.042	3.042	3.057	3.057	3.062
0.000	0.000	0.000	-0.005	0.015	-0.015	0.029	3.979	3.047	3.042	3.042	3.057	3.052	3.052
0.010	0.005	0.005	0.005	0.000	0.000	0.029	3.975	3.037	3.047	3.042	3.057	3.052	3.057
0.000	-0.005	-0.005	0.005	0.000	-0.024	0.029	3.979	3.037	3.037	3.037	3.057	3.047	3.052
-0.005	-0.005	0.005	0.000	0.000	0.010	0.024	3.970	3.037	3.037	3.037	3.057	3.052	3.062
0.010	-0.005	0.000	0.000	0.000	-0.010	0.024	3.979	3.042	3.037	3.037	3.057	3.052	3.052
-0.005	-0.005	0.005	0.005	-0.005	0.010	0.029	3.979	3.037	3.037	3.037	3.057	3.052	3.057
-0.005	0.005	0.000	0.000	0.000	0.000	0.029	3.975	3.037	3.037	3.037	3.057	3.047	3.057
-0.005	0.000	0.005	0.000	0.005	0.010	0.029	3.984	3.037	3.037	3.037	3.057	3.052	3.057
0.000	-0.010	0.010	0.000	0.000	-0.010	0.029	3.975	3.037	3.032	3.037	3.057	3.047	3.052
0.000	0.005	0.000	0.000	0.000	0.015	0.029	3.984	3.042	3.042	3.032	3.052	3.052	3.057
-0.005	0.005	0.000	0.005	0.005	-0.010	0.029	3.975	3.042	3.042	3.032	3.052	3.047	3.052
0.010	0.010	0.005	0.000	0.005	-0.005	0.029	3.979	3.042	3.042	3.037	3.052	3.052	3.052
-0.005	0.005	0.005	0.000	0.000	-0.005	0.029	3.979	3.037	3.037	3.037	3.052	3.047	3.057
0.000	0.010	0.000	0.000	0.005	-0.005	0.029	3.979	3.037	3.042	3.037	3.052	3.052	3.052
0.005	0.010	0.005	0.005	0.005	0.005	0.024	3.975	3.042	3.042	3.037	3.052	3.052	3.052
0.000	0.005	-0.005	0.005	0.000	0.005	0.024	3.979	3.042	3.037	3.037	3.052	3.047	3.052
0.010	0.000	0.000	0.000	0.000	-0.005	0.029	3.975	3.047	3.037	3.032	3.052	3.047	3.047
0.000	-0.005	-0.005	0.005	0.005	0.000	0.029	3.984	3.042	3.037	3.032	3.057	3.052	3.057
-0.005	0.000	-0.005	0.005	0.005	0.010	0.029	3.975	3.042	3.037	3.032	3.052	3.052	3.052
0.000	0.010	0.000	0.005	0.000	0.010	0.029	3.979	3.042	3.047	3.037	3.052	3.047	3.052
0.000	-0.015	0.005	0.000	-0.005	0.015	0.029	3.979	3.037	3.032	3.037	3.052	3.047	3.052
-0.005	-0.010	0.000	0.005	-0.005	0.010	0.029	3.975	3.042	3.037	3.032	3.052	3.047	3.052
-0.005	-0.010	-0.005	0.005	0.000	0.000	0.024	3.979	3.047	3.037	3.032	3.052	3.047	3.047
0.005	-0.010	0.000	-0.005	-0.010	-0.020	0.029	3.979	3.042	3.037	3.032	3.052	3.047	3.042
0.010	0.000	0.005	0.000	-0.020	-0.010	0.024	3.970	3.042	3.042	3.032	3.052	3.042	3.047
0.005	-0.005	0.000	0.005	-0.005	-0.005	0.024	3.975	3.037	3.042	3.037	3.052	3.047	3.047
-0.005	-0.005	0.000	-0.005	0.010	0.005	0.029	3.979	3.037	3.037	3.037	3.052	3.057	3.052
0.005	0.015	0.000	0.000	0.015	0.015	0.029	3.975	3.037	3.042	3.037	3.057	3.052	3.057
0.005	0.020	0.000	0.000	0.015	0.005	0.029	3.979	3.037	3.042	3.037	3.057	3.052	3.052
0.005	0.010	0.000	0.000	0.010	0.000	0.029	3.965	3.037	3.042	3.037	3.057	3.052	3.057
0.005	0.010	0.000	0.000	0.010	0.005	0.029	3.979	3.042	3.042	3.037	3.057	3.052	3.052
0.000	0.005	0.000	0.005	0.000	0.015	0.024	3.975	3.032	3.037	3.037	3.052	3.052	3.057
0.000	0.005	0.000	0.005	0.005	0.000	0.029	3.975	3.032	3.037	3.037	3.057	3.047	3.052
0.005	0.000	0.000	0.005	0.005	-0.029	0.029	3.975	3.037	3.032	3.037	3.052	3.047	3.042
0.000	-0.005	0.000	0.000	0.000	0.010	0.024	3.979	3.037	3.032	3.032	3.052	3.052	3.057
0.005	0.005	0.015	0.005	0.005	0.005	0.024	3.984	3.037	3.037	3.037	3.052	3.052	3.052
0.000	-0.005	0.000	0.005	-0.005	0.000	0.029	3.984	3.037	3.032	3.027	3.052	3.047	3.052
-0.005	0.015	0.000	0.005	-0.010	-0.005	0.029	3.975	3.037	3.037	3.032	3.052	3.042	3.052
-0.010	0.005	0.005	0.000	-0.015	-0.010	0.029	3.970	3.032	3.037	3.027	3.052	3.042	3.042
-0.005	0.015	-0.005	0.000	-0.005	0.000	0.029	3.975	3.037	3.032	3.032	3.052	3.047	3.052
0.000	0.005	0.000	0.000	0.000	-0.005	0.029	3.975	3.032	3.032	3.032	3.047	3.047	3.047
0.005	0.000	0.000	0.000	0.010	0.005	0.029	3.970	3.032	3.027	3.032	3.047	3.047	3.052
-0.010	0.000	0.000	0.005	0.010	0.010	0.029	3.979	3.032	3.032	3.027	3.047	3.052	3.052
0.010	0.005	0.000	0.000	0.005	0.010	0.024	3.979	3.037	3.032	3.032	3.047	3.047	3.052
0.005	0.000	0.000	0.000	0.010	-0.015	0.024	3.975	3.037	3.032	3.027	3.047	3.047	3.047
0.000	-0.005	0.000	0.005	0.000	0.010	0.024	3.984	3.037	3.032	3.032	3.047	3.042	3.052
0.000	0.000	0.000	0.000	-0.005	-0.010	0.024	3.979	3.042	3.037	3.032	3.047	3.042	3.047
0.010	0.000	-0.005	0.005	0.005	0.005	0.029	3.979	3.042	3.037	3.032	3.052	3.047	3.052
0.005	0.010	0.000	-0.005	0.000	0.005	0.029	3.979	3.037	3.042	3.032	3.052	3.047	3.047
0.010	-0.005	-0.005	0.000	0.005	-0.024	0.029	3.984	3.042	3.037	3.032	3.052	3.047	3.042
-0.005	0.000	0.000	0.000	0.000	0.005	0.024	3.975	3.032	3.037	3.037	3.052	3.047	3.052
0.005	0.000	0.000	0.005	0.000	0.005	0.029	3.970	3.037	3.037	3.032	3.052	3.047	3.047
0.005	-0.005	0.005	0.000	0.005	0.010	0.024	3.975	3.037	3.032	3.037	3.052	3.047	3.052
-0.010	0.000	0.010	0.000	0.000	-0.005	0.024	3.979	3.032	3.037	3.032	3.052	3.047	3.047
0.000	-0.015	0.005	0.000	0.000	-0.005	0.024	3.970	3.032	3.032	3.027	3.047	3.047	3.047
0.010	-0.029	0.000	0.000	0.005	0.010	0.029	3.975	3.032	3.022	3.027	3.047	3.047	3.052
-0.005	-0.010	0.005	0.000	-0.005	0.000	0.029	3.970	3.032	3.032	3.027	3.047	3.042	3.047
0.000	0.000	0.000	0.005	0.000	0.005	0.029	3.979	3.032	3.032	3.027	3.047	3.047	3.047
0.005	-0.005	0.010	0.005	-0.005	0.000	0.029	3.975	3.037	3.037	3.027	3.047	3.042	3.047
0.000	-0.005	0.000	0.005	0.000	0.005	0.029	3.975	3.032	3.027	3.027	3.047	3.042	3.047
0.000	0.010	0.005	-0.005	0.005	0.000	0.029	3.979	3.037	3.037	3.032	3.047	3.047	3.047
0.010	0.005	0.005	0.000	0.005	0.005	0.029	3.965	3.037	3.037	3.032	3.047	3.047	3.047
0.005	0.010	0.000	0.000	0.010	-0.005	0.029	3.979	3.037	3.037	3.032	3.047	3.047	3.047
0.005	0.010	0.000	0.000	0.000	0.010	0.029	3.970	3.032	3.037	3.027	3.047	3.047	3.047
-0.005	0.010	0.000	0.000	0.000	0.005	0.029	3.984	3.032	3.032	3.027	3.052	3.042	3.047
0.005	-0.010	0.000	0.005	0.000	0.000	0.029	3.979	3.032	3.032	3.032	3.047	3.047	3.047
0.005	-0.005	0.005	0.005	0.010	-0.005	0.024	3.965	3.032	3.032	3.032	3.047	3.047	3.047
0.005	0.015	0.000	0.005	0.005	0.000	0.029	3.979	3.032	3.037	3.032	3.047	3.047	3.047
0.005	0.015	0.000	0.005	0.005	0.000	0.029	3.984	3.032	3.037	3.032	3.047	3.047	3.047
-0.010	0.010	0.000	0.000	-0.005	0.005	0.024	3.984	3.037	3.032	3.032	3.047	3.042	3.047
0.000	0.010	-0.005	0.000	0.000	0.010	0.024	3.975	3.032	3.032	3.027	3.047	3.042	3.047
-0.005	0.000	0.005	0.000	0.000	0.010	0.029	3.984	3.032	3.027	3.027	3.047	3.042	3.047
-0.005	0.000	0.000	0.005	0.000	0.015	0.029	3.979	3.032	3.027	3.027	3.047	3.042	3.052
0.000	0.000	-0.005	0.005	0.000	-0.015	0.024	3.975	3.032	3.027	3.027	3.047	3.042	3.042
0.000	0.005	0.005	0.000	-0.005	0.005	0.029	3.970	3.032	3.032	3.027	3.042	3.042	3.047
0.000	0.005	0.000	0.005	0.005	-0.005	0.029	3.975	3.032	3.032	3.027	3.047	3.042	3.047
0.005	0.000	-0.005	0.000	-0.010	-0.024	0.029	3.979	3.037	3.027	3.027	3.047	3.032	3.037
0.005	-0.005	0.000	0.000	-0.010	-0.024	0.029	3.975	3.032	3.032	3.027	3.042	3.037	3.037
0.000	0.000	0.005	0.000	-0.005	0.000	0.029	3.975	3.032	3.032	3.027	3.047	3.042	3.047
0.015	-0.005	0.000	0.000	-0.005	-0.020	0.024	3.970	3.032	3.032	3.027	3.047	3.042	3.042
0.010	-0.005	0.005	0.000	-0.015	-0.010	0.029	3.979	3.037	3.032	3.027	3.047	3.042	3.047
0.005	-0.005	0.000	0.000	-0.024	0.015	0.024	3.965	3.032	3.032	3.027	3.042	3.037	3.047
0.005	0.005	0.000	0.000	-0.015	0.015	0.029	3.975	3.032	3.032	3.027	3.047	3.042	3.047
0.000	0.005	0.005	-0.005	0.015	0.005	0.029	3.975	3.032	3.032	3.027	3.047	3.047	3.047
-0.005	0.005	0.000	0.000	0.029	0.010	0.029	3.979	3.027	3.032	3.032	3.047	3.052	3.052
0.005	0.000	-0.005	0.000	0.015	0.010	0.029	3.984	3.037	3.032	3.027	3.047	3.047	3.047
-0.005	-0.005	0.005	0.010	0.015	0.005	0.029	3.965	3.027	3.027	3.032	3.047	3.047	3.052
-0.005	-0.005	0.000	0.005	0.024	0.015	0.029	3.975	3.032	3.027	3.027	3.047	3.047	3.052
-0.005	-0.020	0.000	0.000	0.020	0.015	0.029	3.984	3.032	3.022	3.022	3.047	3.042	3.047
-0.005	-0.029	0.000	0.000	0.010	0.010	0.029	3.979	3.037	3.027	3.022	3.042	3.037	3.047
-0.005	-0.010	0.000	0.000	0.010	-0.015	0.024	3.975	3.032	3.027	3.022	3.047	3.037	3.042
0.000	-0.005	0.000	0.000	0.010	-0.005	0.024	3.984	3.032	3.032	3.027	3.042	3.037	3.042
0.000	0.010	0.005	0.000	0.000	0.000	0.029	3.979	3.032	3.037	3.027	3.042	3.032	3.042
-0.005	0.020	0.000	0.000	-0.015	-0.005	0.029	3.975	3.032	3.037	3.027	3.042	3.037	3.042
0.005	0.029	0.000	0.005	-0.010	-0.020	0.029	3.970	3.032	3.042	3.032	3.047	3.037	3.037
0.000	0.015	0.000	0.000	0.005	-0.005	0.029	3.979	3.032	3.032	3.032	3.047	3.042	3.047
0.000	0.020	-0.005	0.005	0.010	-0.020	0.024	3.975	3.032	3.032	3.032	3.047	3.042	3.042
0.000	0.015	-0.005	0.000	0.005	0.020	0.029	3.975	3.037	3.032	3.032	3.047	3.042	3.052
0.000	-0.005	0.005	0.000	0.005	0.020	0.029	3.979	3.032	3.027	3.027	3.047	3.047	3.052
0.000	0.010	0.005	0.000	-0.005	0.020	0.029	3.979	3.032	3.032	3.032	3.047	3.042	3.047
0.000	0.005	0.005	0.000	-0.010	0.015	0.029	3.984	3.037	3.032	3.032	3.047	3.042	3.042
0.010	0.010	-0.005	0.005	-0.020	0.015	0.024	3.984	3.037	3.037	3.027	3.047	3.042	3.042
0.005	0.005	0.005	0.000	-0.024	0.010	0.024	3.989	3.037	3.032	3.032	3.047	3.037	3.042
0.005	0.005	-0.005	0.000	-0.015	-0.015	0.029	3.975	3.032	3.027	3.027	3.047	3.042	3.037
0.000	-0.024	0.005	0.000	-0.005	-0.020	0.024	3.984	3.032	3.022	3.027	3.047	3.042	3.032
0.000	-0.020	0.005	0.000	0.000	0.005	0.029	3.975	3.032	3.022	3.027	3.047	3.047	3.047
-0.005	-0.010	0.005	0.005	0.015	0.010	0.024	3.975	3.027	3.027	3.022	3.047	3.047	3.047
0.000	-0.010	0.000	0.000	0.005	0.000	0.029	3.970	3.027	3.027	3.022	3.042	3.042	3.047
0.005	0.000	0.000	0.005	0.005	0.000	0.029	3.975	3.032	3.032	3.022	3.042	3.042	3.047
0.000	0.000	0.010	0.005	0.005	0.005	0.029	3.979	3.032	3.027	3.027	3.047	3.042	3.042
0.000	0.000	0.000	0.005	0.015	-0.005	0.024	3.979	3.032	3.032	3.027	3.042	3.042	3.042
0.010	-0.005	0.000	0.005	0.000	-0.020	0.029	3.970	3.032	3.032	3.027	3.047	3.037	3.032
0.005	0.005	-0.005	0.000	0.005	0.000	0.024	3.979	3.032	3.032	3.027	3.047	3.037	3.047
0.005	0.005	0.000	0.000	0.010	-0.010	0.029	3.984	3.032	3.032	3.027	3.047	3.042	3.042
0.005	0.005	0.000	0.000	0.005	0.010	0.029	3.975	3.032	3.032	3.032	3.047	3.042	3.047
0.005	0.010	0.000	0.000	0.005	0.010	0.029	3.984	3.037	3.032	3.027	3.047	3.042	3.047
-0.005	0.010	0.000	0.005	0.000	-0.005	0.029	3.979	3.032	3.032	3.027	3.047	3.037	3.042
0.005	0.010	-0.005	0.000	-0.005	0.015	0.029	3.979	3.032	3.032	3.032	3.047	3.042	3.047
0.005	0.005	0.000	0.005	0.000	-0.005	0.024	3.965	3.032	3.032	3.032	3.047	3.042	3.042
0.000	0.000	0.000	0.010	0.005	0.000	0.029	3.970	3.027	3.027	3.027	3.047	3.042	3.047
0.005	0.000	0.000	0.000	0.000	-0.005	0.029	3.975	3.032	3.027	3.027	3.047	3.042	3.042
0.005	0.024	0.005	0.000	0.010	0.005	0.029	3.975	3.032	3.037	3.027	3.047	3.047	3.047
0.000	0.015	0.000	0.000	0.010	0.000	0.029	3.970	3.027	3.027	3.027	3.047	3.042	3.047
0.000	0.000	0.005	0.000	0.000	0.010	0.029	3.975	3.032	3.027	3.027	3.047	3.042	3.047
0.000	0.000	0.000	0.000	0.000	0.010	0.024	3.984	3.032	3.027	3.022	3.047	3.042	3.047
0.000	0.005	0.005	-0.005	0.000	0.010	0.029	3.975	3.032	3.027	3.027	3.047	3.037	3.042
0.000	0.015	-0.005	0.000	-0.005	0.000	0.029	3.970	3.032	3.032	3.027	3.042	3.037	3.037
0.000	0.005	0.000	0.000	-0.010	-0.005	0.029	3.989	3.037	3.032	3.022	3.047	3.037	3.037
-0.005	0.000	0.005	0.000	0.010	0.005	0.029	3.979	3.032	3.027	3.027	3.042	3.042	3.047
0.000	0.000	-0.005	0.000	0.010	0.000	0.029	3.979	3.032	3.027	3.022	3.047	3.042	3.042
0.005	-0.005	0.000	0.005	-0.005	-0.005	0.029	3.984	3.037	3.032	3.027	3.042	3.037	3.042
0.005	0.000	0.000	0.010	-0.005	-0.020	0.024	3.975	3.037	3.032	3.027	3.047	3.037	3.037
0.005	-0.010	0.005	0.005	-0.010	0.005	0.029	3.975	3.037	3.032	3.027	3.047	3.037	3.047
0.000	0.000	0.005	0.000	0.000	0.005	0.029	3.984	3.032	3.032	3.027	3.047	3.042	3.047
0.005	-0.015	-0.005	0.000	0.000	-0.005	0.024	3.984	3.032	3.027	3.027	3.047	3.042	3.042
-0.005	-0.010	0.005	0.000	0.000	0.015	0.029	3.979	3.032	3.027	3.027	3.047	3.042	3.047
0.000	-0.010	0.000	0.000	0.020	0.005	0.029	3.979	3.032	3.032	3.027	3.047	3.047	3.047
-0.005	-0.005	0.000	0.005	0.010	0.000	0.029	3.979	3.027	3.027	3.027	3.047	3.042	3.042
-0.005	-0.005	0.000	0.000	0.005	0.005	0.029	3.975	3.027	3.032	3.027	3.042	3.042	3.047
-0.005	0.000	0.000	0.000	0.005	0.000	0.029	3.970	3.027	3.027	3.027	3.042	3.037	3.042
-0.005	0.000	0.000	0.005	-0.010	-0.010	0.029	3.975	3.027	3.027	3.027	3.042	3.037	3.037
0.000	0.000	0.000	0.000	0.000	-0.005	0.029	3.979	3.032	3.027	3.027	3.042	3.037	3.042
0.010	0.000	0.000	0.000	0.000	0.000	0.024	3.970	3.032	3.027	3.027	3.047	3.037	3.042
0.010	0.005	0.000	0.000	0.005	0.000	0.024	3.975	3.032	3.032	3.027	3.047	3.042	3.042
-0.005	0.005	0.000	0.000	0.000	0.005	0.029	3.975	3.027	3.027	3.027	3.047	3.042	3.047
0.010	0.005	0.000	0.005	0.010	-0.010	0.029	3.979	3.032	3.027	3.027	3.047	3.042	3.042
0.005	0.010	0.000	0.005	0.010	0.005	0.029	3.979	3.032	3.027	3.027	3.047	3.042	3.047
-0.005	0.005	0.005	0.005	0.005	0.005	0.029	3.984	3.032	3.027	3.027	3.047	3.042	3.047
-0.005	0.010	0.000	0.000	0.000	0.010	0.029	3.984	3.032	3.032	3.027	3.047	3.042	3.042
0.005	0.010	0.000	0.000	-0.015	0.005	0.029	3.979	3.032	3.032	3.027	3.047	3.037	3.047
0.000	0.000	0.005	0.005	-0.015	0.005	0.029	3.975	3.032	3.027	3.027	3.047	3.037	3.042
-0.010	0.024	0.005	-0.005	0.005	-0.005	0.029	3.984	3.037	3.032	3.027	3.047	3.047	3.037
0.000	-0.010	0.000	0.000	0.000	0.005	0.029	3.979	3.032	3.022	3.027	3.042	3.042	3.047
-0.010	-0.010	0.005	0.000	-0.005	0.000	0.029	3.984	3.032	3.022	3.027	3.047	3.042	3.042
0.000	-0.015	0.005	0.005	0.010	0.000	0.029	3.970	3.027	3.022	3.022	3.042	3.047	3.047
0.000	0.000	0.000	0.000	0.020	-0.015	0.024	3.975	3.032	3.027	3.022	3.042	3.047	3.042
0.000	-0.005	0.000	0.000	0.015	0.000	0.029	3.975	3.032	3.032	3.027	3.042	3.042	3.047
0.005	0.010	0.000	0.000	0.015	-0.015	0.024	3.979	3.032	3.027	3.027	3.042	3.037	3.037
-0.005	0.000	0.010	0.000	0.005	-0.015	0.024	3.984	3.032	3.027	3.027	3.042	3.037	3.042
0.005	0.000	0.005	0.000	0.000	0.010	0.024	3.975	3.032	3.027	3.027	3.042	3.037	3.047
0.000	0.024	0.005	0.005	-0.005	0.015	0.029	3.975	3.032	3.037	3.027	3.047	3.037	3.042
0.010	0.024	0.000	0.010	0.005	0.015	0.024	3.979	3.032	3.032	3.027	3.047	3.037	3.047
0.010	0.020	0.000	0.000	-0.005	0.005	0.029	3.975	3.032	3.032	3.027	3.047	3.037	3.037
-0.005	0.010	0.000	0.005	0.000	0.000	0.029	3.979	3.032	3.027	3.027	3.047	3.037	3.042
0.005	0.005	-0.005	0.000	-0.005	0.000	0.029	3.984	3.032	3.027	3.022	3.047	3.037	3.042
0.005	0.005	0.000	0.000	0.000	0.010	0.029	3.965	3.027	3.027	3.027	3.042	3.042	3.047
0.005	-0.005	-0.005	0.005	-0.005	0.005	0.029	3.984	3.032	3.027	3.027	3.047	3.042	3.042
0.005	-0.020	0.000	0.000	0.000	0.010	0.029	3.989	3.032	3.022	3.022	3.047	3.042	3.042
0.005	-0.020	0.000	0.000	0.000	0.000	0.024	3.979	3.027	3.022	3.027	3.047	3.037	3.042
0.000	-0.005	0.005	0.000	-0.005	0.015	0.029	3.975	3.032	3.027	3.027	3.047	3.042	3.047
0.005	-0.005	0.000	0.000	0.005	0.010	0.029	3.965	3.032	3.032	3.027	3.042	3.042	3.047
-0.005	0.000	-0.005	0.005	0.005	0.010	0.029	3.979	3.032	3.027	3.027	3.047	3.037	3.042
0.000	-0.005	0.000	0.005	0.000	-0.005	0.029	3.979	3.027	3.027	3.022	3.042	3.037	3.037
0.000	0.000	0.000	0.000	0.005	-0.020	0.024	3.965	3.027	3.027	3.022	3.042	3.037	3.037
-0.005	-0.005	0.000	0.000	-0.005	-0.015	0.029	3.975	3.027	3.027	3.022	3.042	3.037	3.037
0.000	0.005	0.005	0.005	-0.005	0.005	0.024	3.979	3.027	3.032	3.022	3.042	3.037	3.047
0.005	-0.005	0.005	0.000	-0.005	0.005	0.029	3.979	3.032	3.027	3.027	3.042	3.037	3.042
0.005	0.010	0.005	0.005	-0.005	-0.015	0.024	3.975	3.027	3.032	3.027	3.042	3.037	3.037
-0.005	0.005	0.005	0.000	-0.005	-0.005	0.029	3.989	3.027	3.032	3.027	3.042	3.037	3.037
0.000	0.010	0.010	0.010	-0.005	0.000	0.029	3.979	3.032	3.037	3.027	3.047	3.042	3.042
0.005	0.010	-0.005	-0.005	0.005	-0.005	0.029	3.984	3.032	3.027	3.027	3.047	3.042	3.042
0.005	0.005	0.005	0.000	0.005	-0.015	0.029	3.979	3.032	3.032	3.027	3.047	3.042	3.042
0.005	-0.005	0.000	0.000	0.000	-0.015	0.029	3.979	3.032	3.027	3.027	3.042	3.042	3.042
-0.005	-0.005	0.000	0.005	0.005	0.005	0.029	3.979	3.027	3.027	3.027	3.042	3.042	3.047
0.005	0.000	0.000	0.005	0.005	0.005	0.029	3.979	3.032	3.027	3.027	3.047	3.042	3.047
0.005	0.000	0.000	0.000	0.005	0.000	0.029	3.975	3.032	3.032	3.027	3.042	3.042	3.047
0.005	-0.024	-0.005	0.005	0.000	0.020	0.029	3.970	3.032	3.022	3.022	3.042	3.042	3.047
0.000	-0.024	0.005	0.005	-0.010	0.020	0.029	3.979	3.032	3.022	3.022	3.042	3.037	3.047
0.000	-0.010	0.000	0.000	-0.015	0.015	0.024	3.984	3.027	3.032	3.022	3.042	3.032	3.042
-0.005	-0.005	0.000	0.005	-0.005	0.015	0.029	3.965	3.027	3.027	3.027	3.042	3.042	3.042
0.000	-0.010	0.005	0.000	-0.005	0.010	0.029	3.975	3.032	3.027	3.022	3.042	3.042	3.042
0.000	-0.005	0.010	0.005	0.005	0.000	0.029	3.975	3.027	3.032	3.027	3.042	3.042	3.042
-0.010	0.005	0.000	0.000	0.005	0.005	0.029	3.975	3.027	3.027	3.027	3.042	3.042	3.042
0.010	0.000	0.005	0.005	0.010	-0.005	0.024	3.979	3.037	3.032	3.027	3.042	3.042	3.037
0.000	-0.005	0.005	0.005	0.000	-0.010	0.029	3.989	3.032	3.027	3.027	3.042	3.037	3.037
0.000	0.000	-0.005	0.000	-0.005	-0.005	0.024	3.975	3.032	3.027	3.027	3.042	3.037	3.042
0.005	0.005	0.000	0.000	-0.005	0.010	0.029	3.979	3.037	3.032	3.027	3.042	3.042	3.042
0.000	0.010	0.000	0.000	0.005	0.015	0.029	3.979	3.032	3.032	3.027	3.042	3.042	3.047
-0.005	-0.005	0.005	0.000	0.020	0.010	0.024	3.984	3.032	3.027	3.027	3.047	3.042	3.047
0.005	0.005	0.000	0.000	0.005	-0.015	0.029	3.979	3.037	3.037	3.027	3.042	3.042	3.037
0.005	0.000	-0.005	0.000	-0.005	-0.020	0.029	3.975	3.032	3.032	3.027	3.042	3.037	3.037
0.000	0.005	0.000	0.000	-0.015	0.005	0.029	3.984	3.032	3.032	3.032	3.047	3.037	3.042
0.005	0.005	0.000	0.005	0.000	-0.005	0.029	3.975	3.032	3.032	3.032	3.047	3.042	3.042
0.000	0.015	0.005	0.005	0.000	-0.020	0.029	3.984	3.032	3.037	3.032	3.047	3.042	3.037
0.005	0.010	0.000	0.000	0.000	-0.034	0.024	3.979	3.027	3.032	3.027	3.047	3.037	3.037
-0.005	0.015	0.000	0.000	0.000	-0.010	0.029	3.984	3.032	3.027	3.027	3.047	3.042	3.047
-0.010	0.010	0.000	0.000	0.005	0.000	0.029	3.975	3.027	3.027	3.027	3.047	3.042	3.047
-0.005	-0.015	0.000	0.000	0.015	0.005	0.029	3.975	3.027	3.022	3.022	3.042	3.042	3.047
-0.005	-0.020	0.005	0.005	0.015	-0.005	0.029	3.979	3.027	3.022	3.022	3.042	3.047	3.042
0.000	-0.005	0.000	0.000	0.024	0.024	0.029	3.989	3.032	3.027	3.022	3.042	3.047	3.052
0.000	-0.005	0.000	0.005	0.010	0.015	0.029	3.979	3.032	3.027	3.022	3.042	3.037	3.047
0.005	-0.005	0.005	0.000	-0.005	0.015	0.029	3.984	3.032	3.032	3.022	3.042	3.032	3.042
0.015	0.005	0.005	0.000	-0.005	0.015	0.029	3.979	3.037	3.032	3.027	3.042	3.037	3.042
-0.005	0.000	0.005	0.005	0.000	0.015	0.029	3.975	3.027	3.032	3.027	3.042	3.037	3.047
0.000	0.010	0.000	0.000	0.000	0.015	0.024	3.984	3.037	3.032	3.027	3.047	3.037	3.042
0.005	0.015	0.000	0.005	0.000	0.015	0.029	3.979	3.032	3.037	3.032	3.047	3.037	3.047
0.005	0.005	0.005	0.000	-0.015	0.015	0.029	3.984	3.032	3.032	3.027	3.047	3.037	3.037
0.000	-0.005	0.000	0.000	-0.024	-0.005	0.029	3.965	3.032	3.032	3.027	3.047	3.032	3.037
-0.005	0.024	0.000	0.005	-0.010	0.015	0.029	3.984	3.032	3.037	3.032	3.052	3.047	3.047
-0.005	0.010	0.000	-0.005	0.015	-0.020	0.029	3.979	3.027	3.027	3.027	3.052	3.047	3.037
0.000	0.015	0.000	0.000	0.015	-0.010	0.029	3.979	3.027	3.027	3.027	3.047	3.047	3.042
0.000	0.015	0.000	0.000	0.015	0.010	0.024	3.975	3.027	3.027	3.027	3.047	3.042	3.052
0.000	0.000	0.000	0.005	0.010	0.000	0.029	3.975	3.027	3.027	3.022	3.047	3.042	3.042
0.005	-0.010	0.000	0.000	0.000	0.000	0.029	3.975	3.032	3.022	3.022	3.042	3.037	3.042
0.000	0.000	0.000	0.000	-0.005	-0.029	0.024	3.979	3.027	3.027	3.022	3.042	3.037	3.032
0.005	-0.005	0.000	0.000	0.000	0.005	0.029	3.979	3.027	3.022	3.022	3.042	3.037	3.047
-0.005	-0.005	0.000	0.000	0.000	0.000	0.029	3.989	3.027	3.027	3.022	3.037	3.037	3.042
0.000	-0.010	0.000	0.000	0.000	0.010	0.029	3.975	3.027	3.022	3.022	3.042	3.037	3.047
0.005	-0.015	0.005	0.000	0.005	-0.005	0.029	3.984	3.032	3.022	3.022	3.042	3.042	3.037
0.005	-0.005	0.000	0.000	0.000	0.005	0.029	3.970	3.032	3.032	3.022	3.042	3.037	3.047
0.005	-0.005	0.005	0.005	0.000	0.000	0.029	3.989	3.037	3.032	3.022	3.042	3.037	3.042
0.005	0.000	0.000	0.000	0.000	-0.005	0.029	3.970	3.027	3.032	3.027	3.042	3.037	3.042
0.005	0.005	-0.005	0.000	-0.005	0.005	0.029	3.984	3.032	3.027	3.027	3.047	3.037	3.042
0.005	0.000	0.000	0.005	-0.005	0.000	0.024	3.975	3.027	3.032	3.027	3.042	3.037	3.042
0.005	0.000	0.000	0.000	0.000	-0.005	0.029	3.984	3.032	3.027	3.027	3.047	3.042	3.042
0.005	-0.005	0.005	0.000	0.000	-0.015	0.024	3.970	3.027	3.027	3.027	3.042	3.042	3.037
0.005	0.000	0.000	0.000	0.010	0.010	0.024	3.979	3.027	3.027	3.027	3.047	3.042	3.047
0.000	0.000	0.005	0.000	0.000	0.000	0.029	3.970	3.027	3.027	3.027	3.042	3.042	3.047
0.000	-0.005	0.000	0.000	0.005	0.000	0.029	3.975	3.027	3.022	3.027	3.042	3.037	3.042
-0.005	-0.005	0.000	0.005	0.000	0.000	0.029	3.989	3.027	3.027	3.022	3.047	3.037	3.042
0.005	0.000	0.010	0.005	0.000	0.005	0.029	3.965	3.027	3.032	3.027	3.042	3.037	3.042
0.005	0.024	0.000	0.005	-0.005	-0.005	0.029	3.975	3.032	3.032	3.027	3.042	3.037	3.037
0.005	0.024	0.000	0.005	-0.005	-0.005	0.029	3.965	3.032	3.032	3.027	3.042	3.042	3.042
0.000	0.010	0.000	0.005	0.000	0.000	0.024	3.979	3.027	3.022	3.027	3.047	3.042	3.042
0.000	0.000	0.000	0.005	0.000	0.010	0.024	3.970	3.032	3.027	3.022	3.042	3.042	3.042
0.000	0.000	0.000	0.000	0.000	0.010	0.029	3.989	3.037	3.027	3.027	3.042	3.037	3.042
0.010	0.010	0.000	0.005	0.000	0.005	0.029	3.984	3.042	3.037	3.027	3.042	3.042	3.042
0.010	0.015	0.000	0.005	0.005	-0.010	0.029	3.979	3.032	3.037	3.032	3.047	3.042	3.037
-0.005	0.005	0.000	0.000	0.000	0.000	0.029	3.984	3.032	3.032	3.027	3.047	3.042	3.042
0.005	0.010	0.005	0.000	0.000	-0.005	0.029	3.975	3.037	3.032	3.032	3.047	3.042	3.042
-0.005	0.010	0.010	0.000	0.005	0.005	0.029	3.979	3.037	3.032	3.032	3.047	3.042	3.042
0.000	0.005	0.000	0.005	0.005	0.005	0.029	3.975	3.032	3.032	3.032	3.047	3.042	3.047
0.000	-0.020	0.005	0.000	0.005	0.005	0.024	3.984	3.032	3.027	3.027	3.047	3.042	3.047
-0.005	-0.015	0.010	0.000	0.010	0.015	0.029	3.979	3.032	3.027	3.027	3.047	3.047	3.047
0.000	-0.015	0.005	-0.005	0.005	-0.010	0.029	3.979	3.027	3.027	3.022	3.042	3.042	3.037
0.005	-0.010	-0.005	0.000	0.000	-0.010	0.029	3.970	3.022	3.027	3.022	3.042	3.037	3.042
-0.005	-0.005	0.005	-0.005	0.000	-0.010	0.024	3.984	3.027	3.022	3.022	3.042	3.037	3.042
-0.005	0.000	-0.005	0.000	0.000	0.015	0.024	3.975	3.027	3.027	3.027	3.042	3.037	3.047
-0.005	-0.005	-0.005	0.000	0.010	-0.010	0.029	3.984	3.027	3.022	3.022	3.042	3.042	3.042
0.010	0.000	-0.005	0.000	0.020	0.000	0.029	3.965	3.032	3.027	3.022	3.042	3.042	3.047
0.005	-0.005	0.000	0.000	0.024	-0.010	0.029	3.979	3.032	3.027	3.022	3.042	3.042	3.042
0.000	0.000	0.000	-0.005	0.020	0.005	0.029	3.989	3.037	3.032	3.022	3.042	3.042	3.047
0.000	0.000	-0.005	0.000	0.015	0.005	0.029	3.975	3.032	3.027	3.027	3.042	3.037	3.047
0.005	0.015	0.000	0.000	0.010	-0.020	0.029	3.984	3.037	3.032	3.027	3.047	3.037	3.037
0.005	0.005	0.005	0.005	0.000	0.010	0.029	3.975	3.032	3.032	3.027	3.047	3.037	3.047
0.000	0.010	0.000	0.005	0.000	0.000	0.024	3.984	3.032	3.032	3.027	3.047	3.037	3.037
0.000	0.010	0.005	0.005	0.000	-0.010	0.024	3.965	3.032	3.032	3.032	3.047	3.042	3.042
0.005	-0.005	0.005	0.000	0.010	0.005	0.029	3.975	3.027	3.027	3.027	3.047	3.047	3.047
-0.005	0.000	0.000	0.000	0.015	-0.020	0.029	3.979	3.032	3.027	3.027	3.047	3.042	3.042
0.005	-0.005	0.000	0.005	0.005	-0.010	0.029	3.975	3.027	3.027	3.027	3.047	3.042	3.042
-0.005	0.005	0.005	0.000	0.010	0.010	0.024	3.979	3.027	3.027	3.027	3.047	3.042	3.042
-0.005	0.005	0.000	0.005	0.005	0.005	0.029	3.970	3.027	3.027	3.027	3.047	3.042	3.047
0.000	0.000	0.005	0.000	0.000	0.000	0.029	3.979	3.032	3.027	3.022	3.047	3.037	3.037
-0.010	-0.015	0.005	0.005	0.000	0.005	0.029	3.970	3.022	3.022	3.022	3.042	3.037	3.047
-0.010	0.000	0.005	0.005	0.000	0.005	0.029	3.979	3.027	3.022	3.022	3.042	3.037	3.042
0.005	0.000	0.000	0.005	0.000	0.010	0.029	3.984	3.032	3.027	3.022	3.042	3.042	3.042
0.005	0.024	0.000	0.005	0.000	0.005	0.029	3.979	3.032	3.037	3.027	3.042	3.037	3.042
-0.005	0.024	-0.005	0.000	0.000	0.005	0.024	3.979	3.032	3.032	3.027	3.042	3.037	3.042
0.000	0.015	0.000	0.010	-0.010	0.010	0.024	3.979	3.032	3.032	3.027	3.042	3.037	3.042
0.000	0.005	0.000	0.000	-0.005	-0.005	0.029	3.979	3.032	3.027	3.022	3.042	3.037	3.037
0.005	-0.005	0.000	0.005	0.000	-0.005	0.029	3.979	3.032	3.027	3.022	3.047	3.042	3.037
0.005	-0.005	0.000	0.005	0.000	0.000	0.029	3.979	3.037	3.027	3.027	3.042	3.042	3.037
0.005	0.005	0.000	0.005	-0.005	0.015	0.029	3.979	3.032	3.032	3.027	3.047	3.042	3.047
0.015	0.005	-0.005	0.005	-0.010	0.005	0.024	3.975	3.032	3.032	3.027	3.042	3.037	3.047
0.000	-0.005	0.000	-0.005	-0.015	0.010	0.029	3.979	3.032	3.027	3.027	3.042	3.037	3.042
-0.010	-0.010	0.000	0.000	-0.010	0.010	0.024	3.970	3.027	3.027	3.027	3.047	3.037	3.042
0.000	-0.010	0.005	0.000	-0.010	0.000	0.029	3.975	3.027	3.027	3.027	3.042	3.037	3.037
0.000	-0.010	0.005	-0.005	-0.015	-0.005	0.029	3.975	3.027	3.027	3.022	3.042	3.037	3.037
0.000	-0.015	0.000	0.000	-0.015	-0.005	0.029	3.975	3.027	3.027	3.022	3.042	3.037	3.037
-0.005	-0.005	0.000	-0.005	0.000	-0.005	0.024	3.975	3.027	3.027	3.022	3.042	3.042	3.042
0.000	-0.005	0.005	-0.005	0.010	0.020	0.029	3.970	3.027	3.027	3.027	3.042	3.042	3.047
-0.005	-0.005	0.000	-0.005	0.015	0.020	0.029	3.979	3.027	3.027	3.022	3.047	3.042	3.047
0.005	0.000	0.000	0.000	0.000	0.015	0.029	3.979	3.032	3.027	3.022	3.042	3.037	3.047
0.005	0.024	0.005	0.000	0.000	0.015	0.029	3.984	3.037	3.032	3.027	3.042	3.037	3.042
0.000	0.020	0.000	0.000	-0.010	0.005	0.024	3.965	3.027	3.037	3.027	3.042	3.032	3.037
0.000	0.015	-0.005	0.000	-0.020	-0.020	0.029	3.975	3.027	3.032	3.027	3.047	3.032	3.032
0.000	0.005	0.010	0.000	-0.020	-0.005	0.029	3.979	3.032	3.027	3.032	3.047	3.037	3.037
0.010	0.010	0.000	0.000	-0.015	0.010	0.029	3.979	3.032	3.027	3.027	3.042	3.037	3.047
0.005	0.000	-0.005	0.000	-0.005	0.005	0.024	3.979	3.032	3.027	3.027	3.047	3.042	3.042
0.005	-0.005	0.005	0.000	-0.005	-0.010	0.029	3.984	3.027	3.027	3.027	3.047	3.042	3.037
-0.005	-0.010	0.000	-0.005	-0.005	-0.010	0.029	3.984	3.027	3.022	3.022	3.047	3.042	3.037
0.005	-0.015	0.000	0.010	0.000	-0.005	0.029	3.984	3.032	3.027	3.022	3.047	3.047	3.047
0.000	-0.005	0.005	-0.005	0.000	-0.005	0.024	3.989	3.032	3.032	3.022	3.042	3.042	3.042
0.005	-0.010	0.000	0.005	0.000	0.000	0.029	3.970	3.027	3.032	3.022	3.042	3.042	3.047
-0.005	0.000	0.005	0.000	0.005	0.010	0.029	3.979	3.032	3.032	3.022	3.042	3.042	3.047
0.000	0.010	0.005	0.000	-0.005	-0.015	0.029	3.975	3.032	3.032	3.027	3.042	3.037	3.037
0.000	0.000	0.005	0.000	0.005	0.015	0.029	3.979	3.027	3.027	3.027	3.042	3.042	3.047
0.000	-0.005	0.005	0.000	0.000	0.010	0.029	3.960	3.027	3.027	3.022	3.042	3.037	3.042
-0.005	-0.005	0.000	0.000	0.000	0.005	0.029	3.975	3.027	3.022	3.022	3.042	3.037	3.042
0.005	-0.024	0.000	0.000	0.010	0.005	0.024	3.984	3.027	3.022	3.018	3.042	3.042	3.042
-0.005	-0.005	0.000	0.000	0.010	0.010	0.029	3.979	3.027	3.027	3.022	3.042	3.037	3.047
-0.005	0.005	0.000	0.005	0.010	0.000	0.029	3.975	3.027	3.032	3.022	3.042	3.037	3.042
0.000	0.000	0.005	0.005	0.005	-0.010	0.029	3.960	3.027	3.032	3.027	3.042	3.037	3.037
0.000	0.024	-0.005	0.000	0.010	0.000	0.024	3.979	3.027	3.037	3.027	3.042	3.042	3.042
0.010	0.024	0.000	0.005	0.005	0.000	0.029	3.970	3.027	3.037	3.027	3.042	3.037	3.042
-0.005	0.024	0.005	0.000	0.010	0.000	0.024	3.984	3.032	3.032	3.027	3.047	3.037	3.042
0.005	0.010	0.000	0.015	0.005	0.010	0.029	3.970	3.027	3.027	3.032	3.047	3.042	3.042
0.010	0.000	0.000	0.000	0.005	0.015	0.029	3.979	3.027	3.022	3.027	3.042	3.042	3.047
0.000	0.000	0.000	0.005	0.005	0.020	0.024	3.984	3.027	3.022	3.022	3.042	3.042	3.047
0.005	-0.005	0.005	0.005	0.010	0.010	0.024	3.970	3.032	3.022	3.022	3.047	3.042	3.042
-0.005	-0.020	0.000	0.005	0.005	-0.005	0.029	3.975	3.027	3.018	3.022	3.042	3.037	3.037
0.005	-0.015	0.000	0.005	-0.005	-0.010	0.029	3.970	3.027	3.022	3.018	3.042	3.037	3.037
-0.005	-0.010	0.005	0.005	0.000	-0.034	0.029	3.984	3.027	3.027	3.018	3.037	3.032	3.027
-0.005	-0.010	0.000	0.005	0.005	-0.015	0.029	3.975	3.022	3.027	3.018	3.037	3.037	3.037
0.000	0.000	0.000	0.005	0.015	-0.039	0.029	3.984	3.027	3.027	3.018	3.037	3.037	3.037
0.000	-0.005	0.005	0.005	0.015	0.000	0.029	3.989	3.027	3.027	3.018	3.042	3.037	3.042
0.005	0.000	0.000	0.000	-0.005	0.015	0.029	3.979	3.027	3.027	3.022	3.037	3.032	3.047
0.000	0.010	0.005	0.000	-0.005	0.000	0.024	3.979	3.027	3.032	3.022	3.042	3.032	3.032
0.005	0.010	0.005	0.000	0.000	0.015	0.029	3.984	3.032	3.032	3.022	3.042	3.037	3.037
0.005	0.005	-0.005	0.005	0.005	-0.010	0.024	3.970	3.027	3.027	3.022	3.042	3.037	3.032
0.005	0.005	0.000	0.005	0.005	0.010	0.029	3.975	3.027	3.027	3.022	3.042	3.037	3.042
0.010	0.005	-0.005	0.005	0.005	-0.020	0.029	3.979	3.032	3.027	3.027	3.042	3.037	3.032
0.005	0.010	0.000	0.005	0.005	-0.005	0.029	3.979	3.027	3.032	3.027	3.047	3.042	3.042
0.010	0.000	0.000	0.005	0.015	0.015	0.029	3.975	3.027	3.027	3.027	3.042	3.042	3.047
0.010	0.005	0.000	-0.005	0.005	0.015	0.029	3.979	3.027	3.027	3.022	3.042	3.037	3.047
-0.010	-0.005	0.000	0.005	0.000	0.015	0.029	3.975	3.027	3.022	3.027	3.042	3.037	3.042
0.000	-0.005	0.000	0.000	-0.010	0.015	0.029	3.970	3.027	3.027	3.022	3.042	3.037	3.042
0.005	-0.005	0.000	0.000	-0.015	0.010	0.024	3.984	3.032	3.027	3.022	3.042	3.037	3.037
-0.005	0.000	0.005	0.000	0.000	0.015	0.029	3.975	3.027	3.027	3.022	3.042	3.042	3.042
-0.005	-0.005	0.000	0.000	0.005	0.010	0.024	3.975	3.027	3.022	3.022	3.037	3.037	3.037
-0.010	0.000	0.005	0.000	-0.010	0.000	0.024	3.970	3.022	3.022	3.022	3.037	3.032	3.037
-0.005	-0.005	0.005	0.000	0.000	0.000	0.029	3.979	3.022	3.022	3.022	3.042	3.037	3.032
0.005	0.015	0.000	0.000	-0.005	-0.020	0.029	3.970	3.027	3.032	3.022	3.042	3.032	3.032
0.000	0.024	0.000	0.000	-0.010	0.005	0.029	3.984	3.027	3.027	3.022	3.042	3.037	3.042
0.005	0.015	0.000	0.000	0.015	-0.010	0.029	3.979	3.027	3.027	3.027	3.042	3.042	3.037
0.000	0.015	0.000	0.005	0.020	0.010	0.029	3.979	3.027	3.027	3.027	3.042	3.042	3.042
0.015	0.010	0.000	0.000	0.005	-0.015	0.029	3.979	3.032	3.027	3.022	3.042	3.037	3.037
-0.005	-0.015	0.005	0.000	0.005	-0.005	0.029	3.979	3.027	3.018	3.022	3.042	3.037	3.042
0.000	-0.015	0.000	0.005	0.010	-0.015	0.024	3.975	3.032	3.027	3.022	3.042	3.037	3.042
0.000	-0.015	0.000	0.000	0.000	0.000	0.029	3.984	3.032	3.027	3.022	3.042	3.037	3.042
0.005	0.000	0.000	0.000	-0.005	0.005	0.029	3.984	3.037	3.032	3.022	3.042	3.037	3.042
0.000	-0.005	-0.005	0.000	-0.015	0.010	0.029	3.979	3.032	3.027	3.022	3.042	3.032	3.042
0.000	0.000	0.005	0.000	-0.015	0.015	0.024	3.979	3.032	3.032	3.022	3.042	3.032	3.037
0.000	0.000	-0.005	0.005	0.000	-0.005	0.029	3.970	3.027	3.027	3.027	3.042	3.037	3.037
0.005	0.005	0.000	0.000	0.010	0.005	0.029	3.975	3.027	3.027	3.027	3.042	3.037	3.042
-0.005	0.005	0.000	0.000	0.005	0.010	0.029	3.979	3.027	3.027	3.027	3.042	3.042	3.042
-0.005	0.005	0.005	0.000	0.005	0.015	0.029	3.965	3.027	3.022	3.027	3.042	3.037	3.042
0.005	-0.005	0.000	0.005	0.005	0.015	0.029	3.989	3.032	3.022	3.022	3.047	3.037	3.042
0.000	0.010	0.005	0.005	0.005	-0.005	0.029	3.984	3.032	3.027	3.022	3.042	3.037	3.037
0.000	0.005	-0.005	0.005	0.005	-0.020	0.029	3.979	3.027	3.027	3.022	3.042	3.037	3.037
0.000	-0.005	0.000	0.000	0.000	0.000	0.029	3.989	3.032	3.027	3.018	3.042	3.037	3.037
0.000	-0.005	0.005	0.005	0.000	-0.005	0.029	3.970	3.027	3.027	3.022	3.042	3.037	3.037
0.005	0.010	0.000	0.000	0.000	-0.015	0.029	3.984	3.032	3.032	3.022	3.042	3.037	3.032
0.000	0.010	0.000	0.000	0.005	0.000	0.029	3.979	3.032	3.032	3.027	3.042	3.037	3.042
0.010	0.010	-0.005	0.000	0.005	-0.005	0.029	3.984	3.032	3.032	3.022	3.042	3.037	3.042
0.010	0.005	0.000	0.000	0.000	0.010	0.029	3.984	3.032	3.032	3.027	3.042	3.037	3.047
0.005	0.010	0.000	0.005	0.005	-0.015	0.029	3.970	3.032	3.032	3.027	3.047	3.037	3.037
0.000	0.000	0.005	0.000	0.000	-0.010	0.024	3.975	3.032	3.032	3.027	3.047	3.042	3.042
0.005	0.000	0.005	0.000	0.005	-0.005	0.024	3.984	3.032	3.027	3.027	3.047	3.042	3.037
-0.005	-0.010	0.000	0.005	0.005	0.005	0.029	3.975	3.027	3.027	3.022	3.042	3.042	3.047
0.000	0.000	0.000	0.000	-0.005	-0.005	0.029	3.979	3.027	3.027	3.027	3.042	3.037	3.037
-0.005	-0.005	0.000	0.000	-0.005	0.015	0.029	3.975	3.027	3.027	3.022	3.042	3.042	3.047
-0.005	-0.005	0.000	0.000	-0.005	0.005	0.029	3.970	3.018	3.027	3.022	3.042	3.037	3.047
0.005	0.000	0.000	0.000	0.000	0.005	0.029	3.979	3.027	3.027	3.022	3.042	3.037	3.042
0.005	-0.010	0.000	0.000	0.000	0.000	0.029	3.965	3.027	3.027	3.022	3.042	3.037	3.042
-0.005	0.000	-0.005	0.000	0.000	0.005	0.029	3.979	3.022	3.022	3.022	3.042	3.037	3.042
0.000	-0.005	0.005	0.000	0.000	0.000	0.029	3.970	3.022	3.027	3.022	3.042	3.037	3.037
0.000	-0.005	0.000	0.000	0.000	-0.010	0.024	3.984	3.022	3.022	3.022	3.042	3.037	3.032
-0.005	0.005	0.005	0.000	-0.005	-0.005	0.029	3.984	3.027	3.027	3.027	3.042	3.037	3.037
0.000	0.000	0.005	0.005	0.005	0.010	0.029	3.979	3.027	3.027	3.022	3.042	3.037	3.047
0.000	0.005	0.000	0.005	0.010	0.000	0.029	3.979	3.027	3.027	3.022	3.047	3.042	3.042
0.000	0.005	0.005	0.000	0.005	-0.005	0.029	3.970	3.027	3.027	3.022	3.042	3.042	3.037
0.005	0.010	0.000	0.000	0.010	0.005	0.029	3.979	3.027	3.027	3.022	3.042	3.037	3.047
0.000	-0.010	0.005	0.005	0.005	0.015	0.029	3.975	3.027	3.027	3.022	3.042	3.037	3.042
0.005	-0.005	0.000	0.000	0.010	-0.005	0.029	3.979	3.027	3.027	3.022	3.042	3.037	3.042
-0.005	0.010	0.000	0.000	0.000	0.010	0.029	3.979	3.027	3.027	3.022	3.042	3.037	3.042
0.005	0.000	0.000	0.000	0.000	0.000	0.029	3.975	3.032	3.027	3.022	3.042	3.037	3.037
0.000	-0.005	0.000	0.005	0.000	0.000	0.024	3.979	3.027	3.027	3.022	3.042	3.037	3.037
0.010	0.005	0.000	0.000	-0.005	0.000	0.029	3.970	3.032	3.032	3.022	3.042	3.032	3.037
0.000	-0.005	-0.005	0.005	-0.005	0.000	0.029	3.984	3.027	3.027	3.022	3.042	3.032	3.037
0.005	0.005	0.000	0.000	-0.020	-0.020	0.029	3.979	3.027	3.027	3.027	3.042	3.032	3.032
0.005	0.000	0.000	0.005	-0.024	0.010	0.029	3.979	3.027	3.027	3.022	3.042	3.032	3.037
0.000	0.000	0.000	0.000	-0.020	0.000	0.029	3.984	3.027	3.027	3.022	3.042	3.037	3.037
0.000	0.000	0.000	0.000	0.000	0.010	0.029	3.970	3.022	3.027	3.022	3.042	3.042	3.042
0.000	-0.005	0.000	0.000	0.024	0.000	0.029	3.975	3.027	3.022	3.022	3.042	3.047	3.037
0.010	-0.005	0.005	0.000	0.024	0.010	0.029	3.984	3.032	3.027	3.022	3.042	3.042	3.047
0.000	0.005	-0.005	0.000	0.034	0.010	0.029	3.975	3.027	3.027	3.022	3.042	3.047	3.047
0.015	0.000	0.000	0.000	0.034	0.005	0.029	3.979	3.037	3.032	3.027	3.042	3.042	3.047
0.000	0.005	0.005	0.000	0.020	0.010	0.024	3.975	3.032	3.032	3.027	3.042	3.037	3.047
0.005	0.005	0.000	0.000	0.015	0.000	0.029	3.975	3.037	3.032	3.027	3.042	3.037	3.042
-0.005	0.005	-0.005	0.000	-0.005	0.005	0.029	3.975	3.027	3.032	3.027	3.042	3.032	3.042
0.005	0.015	0.000	0.000	-0.005	-0.005	0.029	3.984	3.037	3.032	3.027	3.042	3.032	3.037
0.005	-0.010	-0.005	0.000	-0.015	-0.005	0.029	3.965	3.027	3.027	3.027	3.042	3.032	3.037
0.005	-0.005	0.000	0.000	-0.005	-0.005	0.029	3.979	3.027	3.027	3.022	3.042	3.037	3.037
-0.005	0.000	0.005	0.005	-0.015	-0.029	0.024	3.984	3.022	3.027	3.027	3.042	3.037	3.027
-0.010	0.000	0.005	0.000	-0.015	-0.010	0.024	3.979	3.022	3.022	3.027	3.042	3.037	3.037
-0.005	0.000	0.005	0.005	-0.010	-0.005	0.029	3.970	3.027	3.027	3.022	3.042	3.037	3.042
0.000	0.000	0.000	0.000	0.000	0.000	0.029	3.979	3.027	3.027	3.022	3.042	3.042	3.042
-0.005	0.005	0.005	0.000	0.010	0.010	0.029	3.984	3.022	3.022	3.022	3.042	3.042	3.047
0.000	0.000	0.000	0.005	0.010	0.005	0.024	3.979	3.027	3.022	3.022	3.042	3.042	3.042
-0.005	0.000	0.000	-0.005	0.010	0.010	0.029	3.984	3.032	3.022	3.022	3.042	3.037	3.042
-0.005	0.005	-0.005	0.000	0.005	0.005	0.029	3.975	3.027	3.027	3.022	3.037	3.037	3.042
0.000	0.010	0.000	0.005	0.005	-0.005	0.029	3.984	3.027	3.027	3.022	3.042	3.037	3.037
0.005	0.010	0.000	0.000	-0.010	-0.015	0.024	3.984	3.027	3.027	3.027	3.042	3.027	3.037
0.010	0.000	-0.005	0.000	-0.020	0.005	0.024	3.984	3.032	3.027	3.022	3.042	3.032	3.037
0.005	-0.005	0.000	0.005	-0.005	-0.010	0.029	3.975	3.027	3.022	3.022	3.042	3.037	3.042
0.000	-0.005	0.000	0.005	0.000	0.015	0.029	3.975	3.022	3.022	3.022	3.042	3.037	3.042
0.000	0.000	0.005	0.000	-0.010	0.000	0.029	3.984	3.032	3.027	3.027	3.042	3.037	3.037
0.000	-0.005	0.000	0.005	0.010	0.000	0.029	3.965	3.027	3.027	3.022	3.042	3.042	3.042
0.000	0.000	0.005	0.000	0.024	0.010	0.024	3.979	3.027	3.027	3.022	3.042	3.042	3.047
-0.005	0.020	0.000	0.005	0.015	0.000	0.029	3.979	3.027	3.027	3.027	3.042	3.042	3.047
0.005	-0.005	0.005	0.000	0.010	0.010	0.029	3.970	3.027	3.022	3.022	3.042	3.037	3.047
-0.010	0.000	0.000	0.000	0.010	0.005	0.029	3.979	3.027	3.027	3.022	3.042	3.037	3.042
-0.005	0.005	0.005	0.000	0.000	0.000	0.029	3.975	3.032	3.027	3.022	3.042	3.037	3.037
0.000	0.000	0.005	0.000	0.000	-0.005	0.024	3.979	3.027	3.022	3.022	3.042	3.032	3.037
0.000	0.000	0.005	0.005	-0.005	-0.015	0.029	3.970	3.027	3.022	3.022	3.042	3.037	3.037
0.000	0.000	-0.005	0.000	0.000	-0.005	0.029	3.979	3.027	3.022	3.022	3.037	3.037	3.037
0.005	0.010	0.005	0.000	0.010	-0.010	0.029	3.975	3.027	3.032	3.022	3.042	3.037	3.037
0.010	0.005	0.000	0.005	0.000	0.010	0.029	3.970	3.032	3.027	3.022	3.042	3.037	3.047
-0.005	0.005	0.000	0.000	0.005	0.015	0.029	3.984	3.027	3.027	3.022	3.042	3.037	3.042
0.000	0.010	0.000	0.000	0.000	0.005	0.029	3.979	3.027	3.032	3.022	3.042	3.037	3.037
0.000	0.010	0.000	0.000	0.005	0.010	0.029	3.979	3.032	3.027	3.027	3.042	3.037	3.042
0.005	0.005	0.005	0.000	0.000	-0.010	0.029	3.979	3.032	3.032	3.027	3.042	3.037	3.032
0.005	0.010	0.005	0.000	0.000	0.000	0.029	3.975	3.032	3.027	3.027	3.042	3.037	3.037
-0.005	-0.005	-0.005	0.000	-0.010	-0.005	0.029	3.979	3.032	3.027	3.027	3.042	3.037	3.037
0.000	-0.005	0.005	0.000	-0.005	-0.005	0.029	3.979	3.027	3.027	3.027	3.042	3.037	3.037
-0.005	-0.005	0.005	0.000	-0.010	0.000	0.024	3.979	3.027	3.022	3.022	3.042	3.037	3.037
-0.005	-0.010	0.005	0.005	0.000	0.000	0.029	3.970	3.027	3.027	3.022	3.042	3.042	3.042
0.005	-0.005	0.000	0.000	0.010	0.000	0.029	3.984	3.032	3.027	3.022	3.042	3.042	3.042
-0.005	-0.010	0.000	0.000	0.005	-0.005	0.024	3.965	3.027	3.027	3.022	3.042	3.037	3.037
-0.005	0.000	0.000	0.000	0.010	0.010	0.024	3.984	3.022	3.027	3.022	3.042	3.042	3.042
0.000	0.000	0.005	0.000	0.010	0.005	0.029	3.979	3.027	3.027	3.022	3.037	3.037	3.042
0.000	0.000	0.000	0.000	0.005	0.020	0.029	3.970	3.027	3.022	3.022	3.042	3.037	3.047
0.010	-0.005	0.005	0.000	0.005	-0.005	0.029	3.979	3.032	3.027	3.022	3.037	3.037	3.037
0.000	0.005	-0.005	0.005	0.010	0.015	0.029	3.979	3.027	3.027	3.022	3.042	3.037	3.042
0.000	0.005	0.000	-0.005	0.000	0.015	0.029	3.984	3.032	3.032	3.022	3.037	3.037	3.037
0.000	0.005	0.000	0.005	0.000	-0.024	0.029	3.975	3.027	3.032	3.022	3.042	3.032	3.027
0.010	0.005	0.000	0.005	-0.005	-0.020	0.029	3.994	3.037	3.032	3.022	3.042	3.032	3.027
0.010	0.010	0.000	-0.005	-0.015	-0.029	0.029	3.975	3.027	3.032	3.027	3.042	3.032	3.027
-0.005	0.005	0.000	0.000	-0.015	-0.010	0.029	3.979	3.027	3.032	3.027	3.047	3.037	3.032
0.010	0.005	-0.005	0.000	-0.005	0.005	0.029	3.970	3.027	3.032	3.027	3.042	3.042	3.047
0.000	0.000	-0.005	0.005	0.000	0.015	0.029	3.979	3.027	3.022	3.027	3.047	3.042	3.047
0.000	0.000	0.005	0.000	-0.005	-0.015	0.029	3.994	3.027	3.027	3.027	3.047	3.037	3.037
0.000	0.000	0.005	0.005	0.000	0.020	0.029	3.975	3.027	3.027	3.027	3.042	3.042	3.047
-0.005	0.000	0.005	0.000	-0.010	0.005	0.029	3.984	3.032	3.027	3.022	3.042	3.042	3.047
0.005	-0.005	0.005	0.005	-0.020	0.024	0.029	3.970	3.027	3.027	3.022	3.042	3.037	3.047
-0.005	-0.005	0.005	0.005	-0.005	0.024	0.029	3.979	3.027	3.022	3.022	3.042	3.037	3.042
-0.005	0.000	0.005	0.005	0.000	0.010	0.029	3.975	3.027	3.027	3.022	3.037	3.042	3.037
0.000	0.000	0.000	-0.005	0.015	-0.005	0.029	3.984	3.027	3.022	3.022	3.042	3.042	3.037
0.000	-0.005	0.000	0.000	0.029	-0.005	0.029	3.970	3.027	3.027	3.022	3.037	3.047	3.042
0.005	0.005	0.000	0.000	0.024	-0.005	0.029	3.975	3.027	3.027	3.022	3.042	3.042	3.042
-0.005	-0.005	0.005	-0.005	0.020	0.015	0.024	3.984	3.027	3.022	3.022	3.042	3.037	3.047
0.005	0.005	-0.005	0.000	0.005	-0.005	0.029	3.970	3.027	3.027	3.022	3.042	3.032	3.037
0.005	0.010	0.000	0.005	0.005	-0.005	0.024	3.979	3.027	3.032	3.022	3.042	3.037	3.037
0.000	0.010	0.000	0.000	-0.010	-0.020	0.029	3.994	3.032	3.032	3.022	3.042	3.032	3.032
0.005	0.000	-0.005	0.005	-0.005	0.000	0.029	3.979	3.032	3.027	3.027	3.042	3.032	3.042
0.005	0.000	0.000	0.000	-0.005	0.005	0.029	3.984	3.032	3.027	3.027	3.042	3.037	3.037
0.000	-0.005	0.005	0.005	0.005	-0.005	0.029	3.965	3.027	3.027	3.027	3.047	3.037	3.037
0.000	-0.005	-0.005	0.000	0.000	0.000	0.029	3.975	3.027	3.027	3.022	3.047	3.037	3.037
0.000	0.005	0.005	0.000	0.000	-0.005	0.029	3.979	3.032	3.027	3.022	3.047	3.042	3.042
0.000	0.000	0.005	0.005	0.000	-0.005	0.029	3.975	3.027	3.027	3.022	3.042	3.037	3.042
0.005	-0.005	0.000	0.000	0.005	-0.015	0.024	3.979	3.027	3.027	3.022	3.042	3.037	3.037
-0.010	-0.010	0.005	0.000	0.000	-0.010	0.029	3.975	3.027	3.027	3.022	3.042	3.037	3.037
0.000	0.000	0.000	0.005	-0.005	0.005	0.029	3.970	3.027	3.027	3.022	3.042	3.037	3.042
-0.005	0.005	0.005	-0.005	0.000	-0.015	0.029	3.984	3.027	3.027	3.018	3.042	3.037	3.037
0.000	-0.005	0.005	0.000	0.000	0.010	0.029	3.970	3.027	3.027	3.022	3.042	3.037	3.047
0.005	-0.005	0.005	0.000	0.005	-0.005	0.029	3.979	3.032	3.027	3.022	3.042	3.037	3.037
-0.005	0.005	0.000	0.000	0.000	0.005	0.029	3.984	3.032	3.032	3.022	3.042	3.037	3.037
0.005	0.005	0.000	0.000	0.000	0.010	0.029	3.979	3.027	3.032	3.027	3.037	3.037	3.042
0.005	0.010	0.000	0.005	0.005	0.005	0.029	3.984	3.027	3.032	3.027	3.042	3.037	3.042
0.005	0.000	0.005	0.000	0.005	0.010	0.029	3.984	3.032	3.032	3.027	3.042	3.042	3.042
0.005	0.000	0.000	0.000	0.010	0.005	0.024	3.979	3.032	3.027	3.027	3.042	3.037	3.042
0.000	0.005	0.000	-0.005	0.015	-0.015	0.024	3.989	3.032	3.032	3.027	3.047	3.042	3.037
0.010	0.005	0.000	0.005	0.010	-0.005	0.029	3.979	3.032	3.032	3.027	3.047	3.037	3.042
0.005	0.010	0.000	0.000	-0.005	-0.005	0.029	3.984	3.032	3.032	3.027	3.047	3.037	3.037
0.000	-0.010	0.000	0.000	-0.005	-0.015	0.029	3.975	3.027	3.027	3.027	3.042	3.037	3.037
0.000	0.000	0.000	0.000	-0.005	0.005	0.029	3.975	3.027	3.027	3.022	3.047	3.037	3.042
-0.005	0.015	0.000	0.005	-0.010	0.015	0.029	3.975	3.027	3.032	3.027	3.042	3.037	3.042
0.005	0.010	0.000	0.000	-0.010	0.024	0.029	3.979	3.032	3.027	3.027	3.042	3.037	3.047
-0.005	0.000	0.000	0.000	0.005	0.015	0.029	3.979	3.027	3.027	3.022	3.042	3.042	3.042
0.000	0.000	-0.005	0.000	0.020	0.005	0.029	3.970	3.027	3.027	3.022	3.042	3.047	3.042
0.000	0.000	0.000	0.000	0.020	0.010	0.029	3.975	3.027	3.027	3.022	3.042	3.042	3.042
-0.005	0.000	0.005	0.005	0.010	-0.010	0.024	3.984	3.027	3.027	3.027	3.042	3.037	3.037
0.000	-0.005	0.005	0.000	0.005	0.000	0.024	3.979	3.032	3.027	3.022	3.042	3.037	3.037
0.000	-0.005	0.000	0.000	-0.005	-0.005	0.029	3.975	3.027	3.027	3.022	3.037	3.032	3.037
0.000	0.005	0.000	0.000	-0.015	-0.010	0.029	3.975	3.027	3.027	3.022	3.042	3.032	3.032
0.005	0.010	-0.005	0.005	-0.010	-0.005	0.029	3.989	3.032	3.032	3.022	3.042	3.032	3.037
0.005	0.000	-0.005	0.005	-0.010	-0.005	0.029	3.979	3.027	3.027	3.022	3.042	3.037	3.037
0.000	0.000	0.000	0.000	-0.005	0.005	0.029	3.984	3.032	3.027	3.027	3.047	3.037	3.042
0.010	0.000	0.000	0.000	0.005	0.005	0.029	3.979	3.032	3.027	3.027	3.042	3.042	3.042
0.000	0.000	0.005	0.000	0.005	0.005	0.029	3.994	3.032	3.027	3.027	3.047	3.042	3.042
0.000	0.000	0.000	0.005	0.024	0.000	0.029	3.975	3.032	3.027	3.027	3.047	3.047	3.047
0.005	0.000	0.000	0.005	0.029	0.010	0.024	3.979	3.032	3.022	3.027	3.047	3.047	3.047
0.000	-0.010	0.005	0.005	0.010	0.010	0.029	3.979	3.027	3.027	3.022	3.047	3.042	3.042
-0.005	-0.010	0.000	0.005	0.000	0.005	0.029	3.975	3.027	3.022	3.022	3.042	3.037	3.042
-0.005	-0.015	0.005	0.000	-0.010	0.005	0.029	3.984	3.027	3.022	3.022	3.042	3.032	3.037
-0.010	-0.010	-0.005	0.005	-0.010	-0.020	0.029	3.965	3.022	3.027	3.022	3.042	3.032	3.032
0.005	0.005	0.000	0.000	-0.005	0.000	0.029	3.979	3.032	3.027	3.022	3.042	3.037	3.037
0.000	0.000	0.005	0.000	-0.005	-0.005	0.029	3.984	3.027	3.027	3.022	3.037	3.037	3.037
0.000	0.000	0.000	0.000	0.000	0.000	0.024	3.979	3.027	3.027	3.022	3.042	3.037	3.037
0.000	0.000	0.010	0.000	0.005	-0.005	0.029	3.989	3.027	3.027	3.022	3.042	3.037	3.037
0.005	0.000	0.005	0.000	0.005	-0.020	0.029	3.984	3.032	3.027	3.022	3.042	3.037	3.032
0.000	0.000	0.005	0.000	0.000	0.000	0.029	3.979	3.032	3.027	3.027	3.047	3.037	3.042
0.005	0.005	0.000	0.000	0.005	0.010	0.029	3.979	3.032	3.032	3.022	3.042	3.042	3.047
0.005	0.015	-0.005	0.005	0.005	0.010	0.029	3.979	3.032	3.032	3.027	3.047	3.037	3.047
0.005	0.010	0.000	0.000	0.000	0.015	0.029	3.984	3.032	3.037	3.027	3.047	3.037	3.047
0.000	-0.005	-0.005	0.005	0.000	0.010	0.029	3.979	3.027	3.027	3.027	3.047	3.037	3.042
-0.005	0.010	0.005	0.000	0.005	0.010	0.029	3.975	3.032	3.027	3.027	3.047	3.037	3.042
0.010	-0.005	0.005	0.005	0.005	0.005	0.029	3.965	3.027	3.027	3.027	3.047	3.042	3.042
-0.005	0.000	0.000	0.000	-0.005	0.010	0.029	3.984	3.027	3.027	3.027	3.047	3.037	3.042
-0.010	-0.005	0.000	0.000	-0.015	0.010	0.029	3.984	3.027	3.022	3.022	3.042	3.037	3.037
0.000	0.000	0.005	0.005	-0.005	0.010	0.029	3.975	3.022	3.022	3.022	3.047	3.037	3.042
0.005	0.005	0.005	0.000	-0.024	0.005	0.029	3.979	3.027	3.027	3.022	3.042	3.032	3.032
0.005	0.000	0.000	0.000	0.000	0.010	0.029	3.970	3.022	3.022	3.022	3.042	3.042	3.042
0.005	-0.005	0.000	0.000	0.005	0.015	0.029	3.979	3.027	3.022	3.018	3.042	3.042	3.042
0.000	0.000	0.005	0.000	0.010	0.020	0.029	3.970	3.027	3.027	3.022	3.042	3.042	3.042
0.005	0.000	0.000	0.000	0.010	-0.005	0.029	3.979	3.022	3.022	3.022	3.037	3.037	3.037
-0.005	0.000	0.000	0.005	0.015	0.005	0.024	3.984	3.022	3.022	3.018	3.042	3.042	3.037
-0.005	0.024	0.000	0.000	0.015	-0.020	0.024	3.979	3.027	3.032	3.022	3.037	3.037	3.037
0.000	0.020	-0.005	0.000	0.010	0.015	0.029	3.984	3.032	3.027	3.022	3.042	3.037	3.047
0.005	0.010	0.000	0.000	0.010	0.005	0.029	3.975	3.027	3.027	3.022	3.042	3.037	3.042
0.000	0.010	-0.005	0.005	0.015	0.000	0.024	3.975	3.027	3.027	3.022	3.042	3.037	3.042
0.010	0.005	0.000	0.000	0.005	-0.005	0.029	3.984	3.037	3.027	3.022	3.042	3.037	3.037
0.010	0.000	0.005	0.000	0.000	-0.024	0.029	3.975	3.032	3.027	3.027	3.042	3.032	3.032
0.000	0.010	0.000	0.000	-0.010	-0.010	0.029	3.979	3.027	3.027	3.027	3.037	3.032	3.037
0.005	0.000	0.005	0.000	-0.024	-0.024	0.029	3.984	3.032	3.027	3.022	3.042	3.032	3.032
-0.005	-0.010	0.005	0.000	-0.024	-0.010	0.024	3.984	3.027	3.022	3.022	3.042	3.032	3.032
-0.005	-0.005	0.005	0.000	-0.015	0.020	0.024	3.970	3.027	3.027	3.022	3.037	3.037	3.047
0.000	-0.010	0.005	0.000	-0.015	0.024	0.029	3.979	3.027	3.027	3.022	3.037	3.037	3.047
0.010	0.000	0.000	0.000	0.010	0.010	0.029	3.979	3.032	3.027	3.027	3.042	3.042	3.042
0.000	-0.010	0.005	0.000	0.015	0.010	0.029	3.979	3.027	3.022	3.022	3.042	3.042	3.042
0.000	-0.005	0.000	0.005	0.024	0.005	0.029	3.970	3.032	3.027	3.022	3.042	3.042	3.042
-0.005	-0.005	0.000	0.000	0.029	0.005	0.029	3.984	3.027	3.027	3.022	3.042	3.042	3.037
0.000	0.000	0.000	0.005	0.020	0.005	0.029	3.970	3.027	3.032	3.027	3.042	3.037	3.042
-0.005	0.005	0.000	0.000	0.005	0.010	0.024	3.984	3.032	3.027	3.027	3.042	3.032	3.042
0.010	0.010	0.000	0.000	0.000	-0.010	0.029	3.965	3.032	3.032	3.027	3.037	3.032	3.032
0.005	0.000	-0.005	0.005	-0.005	0.010	0.029	3.984	3.032	3.027	3.022	3.042	3.032	3.037
0.005	0.000	0.000	0.000	-0.010	0.000	0.029	3.975	3.027	3.032	3.022	3.037	3.032	3.037
-0.005	0.005	0.000	0.005	-0.005	0.015	0.029	3.984	3.032	3.027	3.027	3.042	3.037	3.042
0.010	-0.005	0.000	0.000	0.000	0.005	0.029	3.984	3.032	3.027	3.027	3.042	3.037	3.037
0.000	-0.005	0.000	0.000	0.010	0.005	0.029	3.979	3.027	3.022	3.027	3.042	3.042	3.042
0.000	-0.010	0.000	0.000	0.010	-0.020	0.029	3.979	3.032	3.022	3.022	3.042	3.042	3.032
-0.005	0.005	0.000	0.005	0.000	-0.005	0.029	3.984	3.027	3.032	3.027	3.042	3.037	3.037
0.010	-0.005	0.000	0.000	-0.005	0.015	0.029	3.979	3.032	3.022	3.027	3.042	3.037	3.047
0.005	-0.005	0.000	0.000	-0.005	0.005	0.029	3.984	3.027	3.027	3.022	3.042	3.037	3.037
-0.005	-0.010	0.005	0.000	-0.005	0.000	0.029	3.970	3.027	3.027	3.022	3.042	3.037	3.037
-0.010	0.000	0.005	0.000	-0.005	0.010	0.024	3.984	3.018	3.027	3.022	3.042	3.037	3.037
0.000	-0.005	0.000	0.000	0.005	0.005	0.029	3.970	3.022	3.022	3.022	3.042	3.037	3.042
0.000	0.010	0.005	0.005	0.010	0.005	0.029	3.984	3.022	3.027	3.022	3.042	3.037	3.037
-0.005	0.005	0.005	0.000	0.005	-0.005	0.029	3.984	3.027	3.022	3.018	3.037	3.037	3.037
0.000	0.010	-0.005	0.005	0.005	-0.010	0.029	3.979	3.027	3.027	3.022	3.037	3.037	3.032
0.005	0.010	0.000	0.005	0.000	0.000	0.029	3.975	3.027	3.027	3.022	3.042	3.037	3.037
0.005	0.005	0.005	0.000	0.000	0.010	0.029	3.984	3.027	3.027	3.022	3.042	3.037	3.042
0.005	0.010	0.000	0.005	-0.005	0.015	0.029	3.975	3.032	3.027	3.022	3.042	3.037	3.042
0.005	0.005	0.000	0.000	0.000	0.005	0.029	3.979	3.032	3.027	3.022	3.042	3.037	3.042
-0.005	0.010	0.005	0.000	0.005	0.000	0.029	3.975	3.027	3.032	3.027	3.042	3.037	3.037
0.005	0.000	0.005	0.005	0.000	-0.005	0.029	3.975	3.032	3.022	3.027	3.042	3.037	3.037
-0.005	-0.005	-0.005	0.000	0.000	0.005	0.024	3.975	3.027	3.022	3.022	3.042	3.037	3.037
0.005	-0.005	0.005	0.000	0.000	-0.005	0.029	3.975	3.032	3.027	3.022	3.042	3.037	3.037
0.000	0.000	0.000	0.000	0.000	0.000	0.024	3.975	3.027	3.027	3.022	3.042	3.037	3.042
0.000	-0.005	0.000	0.005	0.005	0.000	0.029	3.965	3.027	3.022	3.022	3.042	3.037	3.042
-0.005	-0.005	0.005	0.000	0.000	-0.015	0.029	3.979	3.037	3.022	3.022	3.042	3.032	3.037
-0.005	0.005	0.005	0.000	0.000	-0.020	0.029	3.989	3.032	3.032	3.022	3.037	3.037	3.037
0.005	-0.020	0.000	0.000	0.000	0.000	0.029	3.975	3.027	3.022	3.022	3.037	3.032	3.042
-0.005	-0.015	0.005	0.000	0.000	0.010	0.024	3.989	3.027	3.027	3.022	3.037	3.037	3.042
0.005	-0.010	0.005	0.000	0.000	-0.010	0.024	3.965	3.032	3.027	3.022	3.042	3.037	3.037
0.000	-0.005	0.000	0.000	0.005	0.005	0.024	3.979	3.027	3.022	3.022	3.042	3.037	3.042
0.005	-0.010	0.000	0.005	0.005	0.005	0.029	3.979	3.027	3.027	3.022	3.042	3.037	3.042
0.005	0.005	0.000	0.005	0.000	0.005	0.029	3.979	3.027	3.032	3.022	3.042	3.037	3.037
0.005	0.015	0.000	0.000	0.000	0.000	0.029	3.984	3.037	3.037	3.027	3.042	3.037	3.037
-0.005	0.010	0.000	0.000	0.000	0.005	0.029	3.979	3.027	3.032	3.027	3.042	3.037	3.042
0.005	0.005	0.000	0.000	-0.005	0.015	0.029	3.984	3.027	3.027	3.027	3.047	3.037	3.042
0.010	0.005	0.000	0.005	-0.005	-0.005	0.029	3.975	3.027	3.032	3.027	3.042	3.037	3.037
-0.005	0.015	0.000	0.000	0.000	0.005	0.029	3.975	3.027	3.032	3.022	3.042	3.037	3.037
-0.005	0.005	0.000	0.000	0.000	0.005	0.024	3.975	3.027	3.027	3.027	3.042	3.042	3.042
0.010	0.005	0.005	0.000	0.000	0.005	0.029	3.975	3.027	3.027	3.027	3.042	3.042	3.037
-0.005	-0.005	0.005	0.000	0.000	0.005	0.029	3.975	3.022	3.022	3.022	3.042	3.042	3.042
-0.005	0.000	0.000	0.000	0.005	0.000	0.024	3.979	3.027	3.022	3.022	3.042	3.037	3.042
0.000	0.005	0.000	0.000	0.000	-0.005	0.029	3.979	3.027	3.022	3.022	3.042	3.037	3.037
0.005	0.000	-0.005	0.000	0.005	0.000	0.029	3.979	3.027	3.022	3.022	3.042	3.037	3.037
0.005	0.000	0.005	0.000	0.000	0.005	0.029	3.965	3.022	3.027	3.022	3.042	3.037	3.042
0.000	-0.005	-0.005	0.000	0.000	0.005	0.029	3.975	3.022	3.022	3.022	3.037	3.032	3.042
-0.005	0.005	0.005	0.000	-0.005	0.010	0.029	3.970	3.022	3.027	3.022	3.042	3.037	3.037
0.000	0.005	0.005	0.000	0.000	0.005	0.024	3.975	3.027	3.027	3.018	3.037	3.037	3.037
0.005	0.000	0.000	-0.005	0.000	-0.024	0.024	3.984	3.027	3.027	3.022	3.037	3.032	3.027
-0.005	0.005	0.000	0.005	0.005	-0.005	0.029	3.979	3.022	3.027	3.022	3.042	3.037	3.042
0.005	0.000	0.000	0.000	0.005	0.000	0.029	3.979	3.027	3.022	3.022	3.037	3.037	3.042
0.005	0.005	0.000	0.005	0.005	0.005	0.029	3.979	3.027	3.027	3.022	3.037	3.037	3.042
-0.005	0.005	0.000	0.000	0.000	0.005	0.029	3.979	3.032	3.027	3.022	3.042	3.037	3.037
-0.005	0.000	0.000	0.000	0.005	0.000	0.029	3.984	3.032	3.027	3.022	3.042	3.037	3.042
0.000	0.024	0.000	0.000	0.005	0.010	0.029	3.979	3.027	3.032	3.027	3.042	3.037	3.042
0.000	0.010	0.005	0.000	0.000	-0.010	0.029	3.975	3.027	3.027	3.027	3.042	3.037	3.032
0.000	0.005	0.000	0.000	0.000	0.005	0.029	3.975	3.027	3.027	3.027	3.042	3.037	3.042
0.000	0.010	0.005	0.000	0.000	0.005	0.029	3.979	3.027	3.027	3.027	3.042	3.037	3.042
0.000	0.000	0.000	0.000	0.005	-0.005	0.029	3.979	3.027	3.022	3.022	3.042	3.037	3.037
-0.010	0.000	0.005	0.000	0.000	-0.010	0.024	3.970	3.022	3.022	3.022	3.042	3.037	3.037
0.000	-0.005	0.000	0.005	0.005	0.000	0.029	3.970	3.022	3.022	3.018	3.042	3.037	3.037
-0.005	-0.010	0.000	0.000	0.005	-0.005	0.029	3.979	3.027	3.018	3.018	3.042	3.037	3.037
-0.005	-0.005	0.000	0.005	0.000	0.010	0.029	3.965	3.022	3.022	3.022	3.037	3.032	3.042
0.000	0.005	0.000	0.005	0.000	0.010	0.029	3.979	3.027	3.022	3.018	3.037	3.037	3.042
0.000	0.000	0.000	0.010	0.000	0.010	0.029	3.970	3.027	3.022	3.018	3.037	3.037	3.042
0.000	0.005	0.000	0.000	0.000	0.005	0.029	3.984	3.037	3.027	3.022	3.042	3.032	3.037
0.015	-0.005	0.000	0.000	0.000	0.000	0.029	3.975	3.037	3.032	3.022	3.037	3.037	3.037
0.010	0.005	-0.005	0.000	-0.005	-0.005	0.029	3.984	3.032	3.032	3.027	3.042	3.032	3.037
0.010	0.000	0.000	0.000	0.000	0.005	0.024	3.984	3.032	3.032	3.027	3.042	3.037	3.037
0.005	0.000	0.000	0.000	0.005	0.005	0.024	3.975	3.032	3.032	3.027	3.042	3.037	3.037
0.015	0.000	0.000	0.005	0.000	0.000	0.024	3.975	3.032	3.032	3.027	3.042	3.037	3.042
0.010	-0.005	0.000	0.005	0.000	-0.015	0.029	3.975	3.032	3.027	3.027	3.047	3.037	3.032
0.000	0.000	0.000	0.000	0.000	0.010	0.029	3.984	3.032	3.027	3.022	3.042	3.037	3.042
-0.005	-0.005	0.000	0.000	0.005	0.000	0.029	3.979	3.027	3.027	3.027	3.042	3.037	3.042
-0.005	0.000	0.000	0.000	0.000	0.005	0.029	3.979	3.022	3.027	3.022	3.042	3.037	3.042
0.000	0.005	0.000	0.000	0.000	-0.005	0.029	3.979	3.022	3.027	3.027	3.042	3.037	3.037
-0.029	0.000	0.000	0.000	0.000	-0.005	0.024	3.984	3.018	3.022	3.022	3.042	3.037	3.037
-0.029	0.000	0.000	0.000	0.000	0.005	0.024	3.970	3.018	3.018	3.022	3.042	3.037	3.037
-0.029	-0.005	0.000	0.000	0.005	-0.015	0.024	3.984	3.022	3.018	3.018	3.042	3.037	3.032
-0.015	-0.005	0.005	0.000	-0.005	0.000	0.029	3.984	3.022	3.018	3.018	3.037	3.037	3.042
-0.005	0.005	0.005	0.005	-0.005	0.010	0.029	3.984	3.032	3.027	3.018	3.042	3.037	3.042
0.005	0.000	0.005	0.000	0.005	-0.005	0.029	3.984	3.032	3.027	3.022	3.037	3.037	3.037
0.020	-0.005	0.005	0.000	0.000	0.000	0.029	3.975	3.037	3.027	3.022	3.037	3.032	3.037
0.039	0.005	0.000	0.000	0.000	0.010	0.029	3.979	3.042	3.032	3.022	3.042	3.037	3.042
0.039	-0.005	0.000	0.000	0.000	0.000	0.029	3.970	3.037	3.037	3.027	3.042	3.037	3.037
0.034	0.000	0.000	0.000	0.005	-0.005	0.029	3.984	3.037	3.037	3.027	3.042	3.037	3.037
0.024	-0.005	0.005	0.000	0.005	0.000	0.024	3.984	3.032	3.032	3.027	3.042	3.037	3.037
0.015	-0.005	-0.005	0.000	0.005	-0.005	0.029	3.984	3.027	3.032	3.027	3.047	3.037	3.037
0.010	-0.005	-0.005	0.000	0.000	-0.010	0.024	3.975	3.022	3.027	3.027	3.042	3.037	3.042
0.005	0.005	-0.005	0.000	0.000	0.010	0.024	3.979	3.027	3.032	3.022	3.047	3.037	3.042
0.005	-0.005	0.000	0.000	0.000	0.010	0.029	3.975	3.022	3.027	3.027	3.042	3.042	3.042
-0.020	0.015	0.005	0.000	0.005	0.010	0.029	3.975	3.022	3.027	3.027	3.047	3.037	3.042
-0.034	0.020	0.000	0.000	0.000	0.005	0.029	3.979	3.022	3.027	3.022	3.047	3.037	3.037
-0.020	0.010	0.000	0.005	0.000	-0.005	0.029	3.979	3.022	3.022	3.022	3.042	3.037	3.042
-0.020	0.000	0.005	-0.005	0.005	0.005	0.029	3.979	3.027	3.018	3.018	3.042	3.037	3.042
0.000	-0.005	0.000	0.005	0.000	0.010	0.024	3.975	3.027	3.022	3.022	3.037	3.037	3.042
-0.005	-0.005	0.000	0.000	0.000	0.005	0.024	3.975	3.032	3.027	3.018	3.042	3.037	3.037
0.010	0.005	0.005	0.005	0.000	0.005	0.029	3.984	3.032	3.027	3.022	3.037	3.037	3.037
0.000	0.005	0.000	0.005	0.000	-0.005	0.029	3.984	3.027	3.027	3.022	3.042	3.037	3.037
-0.010	0.000	0.010	0.000	0.005	-0.005	0.029	3.970	3.027	3.027	3.022	3.037	3.037	3.037
0.000	0.000	0.000	0.000	0.000	0.000	0.029	3.979	3.032	3.027	3.022	3.042	3.037	3.042
0.010	-0.005	0.000	0.005	0.005	0.005	0.029	3.979	3.032	3.027	3.022	3.042	3.037	3.042
-0.005	-0.005	0.000	0.000	0.000	-0.005	0.029	3.979	3.032	3.027	3.022	3.042	3.037	3.042
0.000	-0.005	0.000	-0.005	0.000	0.010	0.029	3.979	3.032	3.027	3.022	3.042	3.037	3.042
0.000	0.000	0.000	-0.005	0.005	0.005	0.029	3.975	3.032	3.032	3.027	3.042	3.037	3.037
0.010	0.005	0.000	-0.005	0.000	-0.024	0.029	3.979	3.032	3.032	3.027	3.042	3.037	3.032
0.005	0.015	0.000	0.005	-0.005	0.000	0.029	3.975	3.027	3.032	3.027	3.042	3.037	3.037
0.005	0.010	-0.005	0.005	0.005	0.010	0.029	3.979	3.027	3.027	3.027	3.047	3.037	3.042
0.005	0.010	0.005	0.005	0.000	-0.005	0.029	3.979	3.027	3.027	3.027	3.047	3.037	3.037
-0.039	0.000	0.005	0.005	0.000	0.010	0.029	3.970	3.013	3.022	3.022	3.042	3.037	3.042
-0.044	0.005	0.000	0.005	0.005	-0.015	0.029	3.979	3.018	3.018	3.022	3.047	3.037	3.037
-0.020	0.005	0.005	0.010	0.000	0.005	0.029	3.960	3.027	3.022	3.018	3.042	3.037	3.042
0.020	-0.010	0.000	0.020	0.005	-0.010	0.029	3.979	3.037	3.022	3.018	3.047	3.037	3.037
0.039	0.005	0.000	0.015	-0.005	0.010	0.029	3.984	3.042	3.032	3.022	3.042	3.037	3.042
0.049	0.000	0.000	-0.005	0.000	0.000	0.029	3.975	3.042	3.032	3.027	3.037	3.037	3.042
0.049	0.005	0.000	-0.020	0.000	0.005	0.024	3.989	3.037	3.037	3.022	3.032	3.037	3.042
0.034	0.010	0.000	-0.015	-0.005	0.005	0.024	3.984	3.032	3.032	3.027	3.037	3.032	3.042
0.005	0.010	0.000	-0.015	-0.005	-0.010	0.029	3.984	3.022	3.027	3.022	3.042	3.032	3.032
-0.029	0.000	0.000	0.000	0.000	-0.005	0.029	3.970	3.008	3.022	3.027	3.047	3.037	3.037
-0.078	0.000	0.000	0.010	0.000	0.010	0.029	3.979	3.003	3.018	3.022	3.047	3.037	3.047
-0.078	0.000	0.005	0.015	0.005	0.010	0.029	3.989	3.013	3.013	3.022	3.047	3.042	3.042
-0.063	0.000	0.000	0.020	0.005	0.015	0.024	3.979	3.022	3.018	3.018	3.047	3.042	3.047
-0.044	-0.005	-0.005	0.015	0.005	0.005	0.029	3.984	3.032	3.018	3.018	3.042	3.042	3.042
-0.010	0.000	0.000	0.010	0.000	-0.005	0.024	3.975	3.037	3.027	3.018	3.037	3.037	3.037
0.029	0.005	0.000	0.005	0.000	-0.020	0.024	3.970	3.052	3.032	3.022	3.037	3.037	3.032
0.068	0.000	0.005	0.005	0.005	0.005	0.024	3.979	3.052	3.037	3.027	3.037	3.037	3.042
0.073	0.000	0.005	-0.005	0.000	0.005	0.024	3.975	3.052	3.037	3.027	3.037	3.037	3.037
0.073	0.000	0.000	-0.005	0.005	0.005	0.024	3.975	3.047	3.037	3.027	3.042	3.037	3.042
0.078	0.000	0.000	-0.005	0.000	0.000	0.029	3.975	3.042	3.042	3.032	3.042	3.037	3.042
0.078	0.010	0.000	-0.005	0.000	0.005	0.029	3.975	3.037	3.042	3.032	3.047	3.037	3.042
0.044	0.000	0.000	0.000	0.000	0.000	0.029	3.975	3.022	3.032	3.032	3.047	3.037	3.042
0.005	-0.005	0.005	0.000	0.000	0.000	0.029	3.994	3.018	3.027	3.027	3.047	3.037	3.037
-0.005	0.000	-0.005	-0.005	0.005	0.005	0.029	3.979	3.013	3.022	3.027	3.047	3.037	3.042
-0.005	0.005	0.005	0.000	0.005	0.005	0.029	3.989	3.022	3.027	3.027	3.047	3.042	3.042
-0.005	0.005	0.000	0.000	0.000	-0.005	0.024	3.975	3.022	3.022	3.022	3.047	3.042	3.037
-0.015	0.005	0.005	0.000	0.005	-0.010	0.029	3.984	3.027	3.022	3.022	3.047	3.042	3.042
-0.005	-0.005	0.000	0.005	0.000	-0.015	0.024	3.965	3.027	3.022	3.022	3.042	3.042	3.042
-0.005	0.000	0.000	0.000	0.010	0.010	0.024	3.979	3.027	3.022	3.022	3.042	3.042	3.047
-0.005	-0.005	-0.005	0.000	0.000	-0.010	0.029	3.970	3.027	3.022	3.022	3.037	3.037	3.042
-0.005	0.000	0.000	0.005	0.000	0.005	0.029	3.979	3.027	3.027	3.022	3.042	3.037	3.042
-0.005	-0.005	-0.005	0.005	0.000	0.000	0.029	3.970	3.027	3.027	3.022	3.037	3.037	3.042
-0.034	0.000	0.005	0.005	0.005	0.010	0.029	3.984	3.018	3.022	3.018	3.042	3.037	3.047
-0.049	-0.010	0.000	0.015	0.000	0.010	0.029	3.989	3.022	3.018	3.018	3.042	3.037	3.042
-0.039	-0.005	0.000	0.010	0.005	0.005	0.029	3.965	3.022	3.022	3.018	3.037	3.037	3.042
-0.024	0.010	-0.005	0.000	0.000	0.005	0.029	3.984	3.032	3.027	3.018	3.037	3.037	3.037
-0.015	-0.005	-0.005	-0.005	0.005	-0.005	0.029	3.960	3.027	3.027	3.022	3.032	3.037	3.042
0.005	0.000	0.000	-0.005	0.005	-0.005	0.029	4.087	3.047	3.032	3.027	3.037	3.032	3.037
0.005	-0.005	0.005	0.000	0.000	0.005	0.024	3.965	3.042	3.032	3.027	3.037	3.032	3.037
0.005	0.000	0.010	0.005	-0.005	-0.005	0.029	3.945	3.032	3.037	3.027	3.042	3.032	3.032
-0.015	0.010	0.005	0.000	0.000	0.000	0.029	3.960	3.022	3.027	3.027	3.042	3.037	3.037
-0.039	0.015	0.005	0.005	0.000	0.000	0.029	4.014	3.027	3.027	3.027	3.047	3.037	3.037
-0.029	0.005	0.005	0.010	0.005	0.000	0.029	3.989	3.032	3.027	3.027	3.047	3.042	3.042
-0.010	0.010	0.005	0.010	0.005	0.000	0.029	3.911	3.037	3.032	3.027	3.047	3.042	3.042
0.000	0.005	0.005	0.005	0.000	0.005	0.029	4.072	3.032	3.027	3.027	3.047	3.037	3.042
0.000	0.000	-0.005	-0.005	0.005	0.005	0.029	4.014	3.037	3.027	3.022	3.042	3.037	3.042
0.015	-0.005	0.000	-0.005	0.005	-0.010	0.029	4.004	3.042	3.032	3.027	3.047	3.042	3.042
0.029	-0.010	0.000	0.000	0.010	0.000	0.029	3.945	3.032	3.032	3.027	3.042	3.042	3.042
0.010	0.000	0.000	0.000	0.000	0.015	0.029	3.950	3.027	3.032	3.022	3.047	3.037	3.047
-0.005	0.005	0.005	-0.005	0.005	0.000	0.024	3.979	3.032	3.032	3.027	3.042	3.042	3.042
0.000	0.010	0.000	-0.005	0.000	-0.010	0.029	4.033	3.037	3.032	3.027	3.047	3.042	3.037
0.005	0.000	0.000	-0.005	0.000	0.005	0.029	3.945	3.027	3.027	3.027	3.047	3.037	3.047
0.010	0.005	0.005	-0.005	0.000	-0.005	0.029	4.038	3.037	3.032	3.027	3.047	3.037	3.037
0.000	-0.005	0.005	0.000	0.000	0.005	0.029	3.955	3.032	3.032	3.027	3.047	3.037	3.042
0.015	0.000	0.005	0.000	-0.005	0.010	0.024	3.970	3.027	3.027	3.027	3.047	3.037	3.047
0.029	-0.005	0.000	0.010	0.000	0.010	0.029	3.984	3.032	3.032	3.027	3.047	3.042	3.047
0.015	0.005	-0.005	0.010	0.005	0.005	0.029	3.989	3.027	3.032	3.022	3.047	3.042	3.042
-0.024	0.000	0.000	0.015	-0.005	0.000	0.029	3.999	3.022	3.027	3.027	3.047	3.042	3.047
-0.024	0.005	0.000	0.015	0.005	-0.020	0.029	3.994	3.027	3.027	3.027	3.047	3.042	3.042
0.000	0.005	0.000	0.000	0.005	0.015	0.029	3.989	3.037	3.032	3.027	3.042	3.047	3.052
0.015	0.005	-0.005	-0.010	0.005	-0.005	0.029	3.970	3.042	3.037	3.027	3.037	3.042	3.042
0.015	-0.010	0.000	-0.020	0.000	0.000	0.029	3.994	3.042	3.032	3.027	3.042	3.042	3.047
0.024	-0.005	0.000	-0.020	0.005	-0.005	0.029	3.970	3.042	3.037	3.032	3.042	3.037	3.042
0.024	0.000	0.000	-0.015	-0.005	-0.010	0.024	3.979	3.042	3.037	3.032	3.042	3.037	3.042
0.015	0.015	0.000	-0.005	0.005	0.005	0.029	3.965	3.032	3.037	3.032	3.047	3.042	3.042
-0.005	-0.005	0.005	-0.005	0.005	0.000	0.029	3.965	3.027	3.027	3.032	3.052	3.042	3.042
-0.005	0.005	0.005	0.000	-0.005	0.005	0.029	3.970	3.022	3.027	3.032	3.052	3.042	3.042
-0.010	-0.005	0.010	0.010	0.000	0.010	0.029	3.999	3.027	3.027	3.027	3.052	3.047	3.047
-0.020	-0.005	0.000	0.015	0.005	0.010	0.024	3.984	3.027	3.027	3.027	3.047	3.047	3.047
-0.015	0.000	0.000	0.010	0.000	0.005	0.029	3.970	3.027	3.027	3.022	3.047	3.047	3.047
-0.015	0.000	0.005	0.015	0.005	-0.005	0.029	3.989	3.027	3.027	3.022	3.047	3.042	3.042
-0.005	0.000	0.000	0.010	0.005	0.005	0.029	3.975	3.032	3.027	3.022	3.047	3.042	3.047
0.000	-0.005	0.000	0.010	0.000	-0.015	0.029	3.984	3.032	3.032	3.022	3.042	3.042	3.042
0.005	0.010	-0.005	0.005	0.005	0.005	0.029	3.970	3.037	3.032	3.027	3.042	3.042	3.047
0.005	0.010	0.000	0.005	0.000	0.015	0.029	3.994	3.042	3.032	3.027	3.042	3.042	3.047
0.005	0.000	0.000	0.005	0.000	0.000	0.029	3.975	3.032	3.032	3.027	3.042	3.037	3.047
0.005	0.010	0.005	0.005	0.000	0.010	0.029	3.955	3.032	3.037	3.032	3.047	3.042	3.042
0.000	0.005	0.005	0.000	0.000	-0.005	0.029	3.945	3.027	3.032	3.027	3.047	3.042	3.042
0.000	0.005	0.000	0.000	0.000	0.000	0.024	3.960	3.022	3.027	3.027	3.047	3.042	3.047
-0.005	0.000	-0.005	0.005	0.000	0.005	0.029	4.067	3.032	3.032	3.027	3.042	3.042	3.047
-0.005	-0.005	-0.005	0.000	0.000	0.000	0.024	3.940	3.027	3.027	3.027	3.042	3.042	3.042
-0.039	-0.005	0.005	-0.005	0.000	-0.010	0.024	4.023	3.027	3.022	3.027	3.047	3.042	3.042
-0.029	-0.005	0.010	-0.005	0.000	0.000	0.029	3.960	3.027	3.022	3.022	3.042	3.042	3.042
-0.024	0.000	0.010	-0.005	-0.005	0.005	0.029	4.038	3.037	3.027	3.027	3.042	3.037	3.042
-0.015	0.000	0.005	0.000	-0.005	-0.005	0.029	3.926	3.032	3.027	3.022	3.042	3.037	3.042
-0.024	0.000	-0.005	0.005	0.000	0.005	0.029	4.004	3.027	3.027	3.022	3.042	3.037	3.042
-0.024	-0.005	0.000	0.005	0.000	0.000	0.029	4.043	3.037	3.027	3.022	3.042	3.042	3.042
0.000	0.000	0.000	0.000	0.000	-0.005	0.029	4.028	3.047	3.037	3.027	3.037	3.037	3.042
0.020	0.005	0.000	-0.005	0.005	0.010	0.029	4.004	3.052	3.042	3.032	3.042	3.042	3.042
0.034	-0.010	0.000	-0.005	-0.005	0.000	0.029	4.048	3.062	3.042	3.032	3.047	3.037	3.037
0.049	0.000	0.000	-0.005	-0.005	0.005	0.029	3.989	3.047	3.047	3.037	3.047	3.042	3.037
0.068	0.005	0.005	0.000	0.005	-0.005	0.029	3.975	3.047	3.052	3.042	3.052	3.042	3.042
0.049	0.010	0.005	0.005	0.005	0.005	0.029	4.023	3.047	3.047	3.042	3.057	3.047	3.047
0.044	0.005	0.005	0.005	0.000	0.010	0.029	3.994	3.042	3.047	3.042	3.057	3.047	3.047
0.039	0.010	0.000	0.000	0.000	0.005	0.029	3.970	3.037	3.042	3.037	3.057	3.047	3.047
0.034	0.000	0.000	-0.005	0.005	0.000	0.029	3.965	3.027	3.037	3.037	3.057	3.052	3.047
0.015	0.010	0.000	0.005	0.005	0.000	0.029	3.984	3.027	3.037	3.037	3.057	3.052	3.052
0.000	0.000	0.000	0.005	0.000	-0.010	0.029	3.960	3.022	3.032	3.037	3.057	3.047	3.047
-0.010	0.000	0.000	0.005	0.000	-0.015	0.029	3.994	3.022	3.027	3.032	3.057	3.047	3.047
-0.015	-0.010	0.000	0.015	0.000	-0.029	0.024	3.975	3.022	3.022	3.027	3.057	3.052	3.042
-0.063	-0.005	0.000	0.020	0.005	0.005	0.029	3.970	3.008	3.018	3.022	3.052	3.052	3.052
-0.083	0.000	0.005	0.005	0.005	0.015	0.029	3.994	3.013	3.018	3.022	3.047	3.052	3.057
-0.054	-0.005	0.005	0.005	0.000	0.015	0.029	4.004	3.027	3.018	3.018	3.042	3.047	3.052
-0.034	0.005	0.000	0.005	0.000	0.005	0.024	4.004	3.042	3.027	3.018	3.042	3.042	3.047
-0.010	0.000	0.005	0.005	0.005	0.005	0.029	3.975	3.047	3.032	3.022	3.042	3.042	3.047
0.015	0.000	0.005	0.000	0.000	0.005	0.029	3.994	3.052	3.037	3.022	3.042	3.037	3.047
0.029	0.005	0.000	0.000	0.005	0.010	0.029	3.999	3.052	3.042	3.027	3.042	3.037	3.047
0.015	-0.020	0.000	-0.005	0.000	0.005	0.029	3.965	3.037	3.037	3.027	3.042	3.037	3.047
-0.024	-0.010	-0.005	-0.015	-0.005	0.010	0.029	3.984	3.027	3.032	3.027	3.037	3.037	3.042
-0.039	-0.010	-0.005	-0.010	0.000	-0.005	0.029	3.965	3.022	3.032	3.032	3.042	3.037	3.037
-0.020	0.000	0.000	-0.005	-0.005	-0.005	0.024	3.989	3.032	3.032	3.032	3.047	3.037	3.042
0.020	0.005	0.000	0.000	0.000	0.010	0.029	3.979	3.047	3.042	3.032	3.052	3.042	3.042
0.029	0.010	0.000	0.005	-0.005	0.010	0.029	3.994	3.047	3.042	3.032	3.052	3.042	3.047
0.024	0.000	0.005	0.015	0.000	0.000	0.029	3.975	3.037	3.042	3.037	3.057	3.047	3.042
0.049	0.005	0.010	0.010	0.005	-0.005	0.024	3.965	3.037	3.042	3.042	3.052	3.047	3.047
0.054	0.000	0.000	0.005	0.005	0.000	0.029	3.975	3.047	3.042	3.037	3.052	3.047	3.047
0.049	0.000	0.000	0.010	0.000	-0.010	0.029	3.975	3.037	3.037	3.032	3.052	3.047	3.042
0.044	0.000	0.005	0.010	0.000	0.020	0.029	3.979	3.027	3.037	3.037	3.052	3.047	3.057
0.024	0.024	0.005	0.010	0.000	0.020	0.029	3.984	3.027	3.037	3.032	3.052	3.047	3.052
-0.010	0.005	0.000	0.000	-0.005	0.000	0.029	3.975	3.018	3.022	3.027	3.047	3.047	3.047
-0.024	0.010	-0.005	-0.010	0.005	0.005	0.029	3.970	3.018	3.022	3.027	3.042	3.047	3.052
-0.020	0.005	0.000	-0.020	0.005	0.000	0.029	3.950	3.022	3.022	3.022	3.042	3.042	3.047
-0.015	0.010	0.000	-0.020	0.000	0.000	0.024	3.965	3.018	3.018	3.022	3.042	3.042	3.047
-0.034	0.000	0.005	-0.010	0.000	0.000	0.024	3.975	3.018	3.018	3.022	3.047	3.042	3.047
-0.029	0.000	0.000	0.005	0.000	-0.005	0.024	3.984	3.022	3.018	3.018	3.047	3.042	3.042
-0.034	0.005	0.005	0.015	-0.005	-0.005	0.029	3.975	3.027	3.022	3.018	3.047	3.042	3.042
-0.010	0.010	-0.005	0.015	0.005	-0.015	0.029	3.970	3.027	3.027	3.022	3.042	3.042	3.042
-0.005	0.015	0.000	0.015	0.000	-0.005	0.029	3.975	3.037	3.027	3.022	3.042	3.042	3.047
0.000	0.000	0.005	0.010	0.000	-0.005	0.029	3.975	3.042	3.032	3.027	3.042	3.042	3.047
0.020	0.010	0.000	0.000	0.000	0.010	0.029	3.970	3.037	3.032	3.027	3.037	3.037	3.047
0.015	0.000	0.005	-0.005	0.005	0.005	0.024	3.965	3.037	3.032	3.027	3.042	3.037	3.042
0.024	-0.010	0.000	-0.005	0.000	0.010	0.029	3.950	3.032	3.032	3.027	3.042	3.037	3.042
0.005	-0.010	0.005	0.005	0.000	0.005	0.024	3.970	3.027	3.027	3.027	3.042	3.037	3.042
0.000	-0.010	-0.005	0.000	0.005	-0.010	0.024	3.960	3.022	3.022	3.022	3.042	3.037	3.032
-0.005	0.010	0.000	-0.005	0.005	0.010	0.024	3.975	3.022	3.027	3.022	3.042	3.037	3.042
-0.005	0.000	0.000	0.000	0.005	0.005	0.029	3.975	3.027	3.022	3.022	3.042	3.037	3.037
-0.020	-0.005	0.000	0.000	0.005	-0.020	0.029	3.965	3.018	3.018	3.022	3.037	3.037	3.037
-0.010	0.000	-0.010	-0.005	0.005	-0.010	0.029	3.970	3.022	3.022	3.022	3.037	3.037	3.037
-0.015	0.005	0.000	-0.015	0.000	-0.010	0.029	3.970	3.022	3.022	3.022	3.037	3.032	3.037
-0.015	-0.010	0.000	-0.015	0.005	0.010	0.029	3.970	3.022	3.022	3.018	3.037	3.037	3.042
-0.015	0.010	0.000	-0.010	0.000	-0.005	0.029	3.979	3.027	3.027	3.018	3.037	3.032	3.037
-0.010	0.005	0.005	0.000	-0.005	0.005	0.029	3.965	3.022	3.027	3.022	3.042	3.032	3.042
-0.010	0.005	0.000	0.000	-0.005	0.010	0.024	3.965	3.027	3.027	3.022	3.042	3.032	3.037
-0.005	0.005	0.000	0.005	-0.005	0.005	0.024	3.970	3.032	3.027	3.022	3.042	3.037	3.037
-0.005	0.005	0.000	0.000	0.005	-0.005	0.024	3.970	3.032	3.027	3.027	3.042	3.037	3.032
0.000	0.000	0.005	0.005	-0.005	0.005	0.029	3.960	3.027	3.027	3.022	3.047	3.037	3.042
0.000	-0.005	-0.005	0.000	0.000	-0.005	0.029	3.970	3.027	3.027	3.022	3.042	3.037	3.042
0.000	0.000	-0.005	0.000	0.005	0.005	0.029	3.960	3.027	3.027	3.022	3.042	3.037	3.042
0.005	-0.005	0.010	0.010	-0.005	0.005	0.024	3.970	3.032	3.027	3.022	3.047	3.037	3.042
-0.010	0.000	0.005	0.024	0.000	-0.005	0.024	3.965	3.022	3.027	3.022	3.047	3.037	3.042
-0.024	0.000	0.000	0.020	0.000	-0.005	0.029	3.975	3.018	3.022	3.022	3.042	3.037	3.037
-0.029	0.000	0.000	0.005	0.005	0.000	0.029	3.960	3.022	3.022	3.018	3.037	3.037	3.042
-0.005	0.000	0.000	-0.005	0.000	-0.005	0.029	3.965	3.027	3.022	3.018	3.032	3.037	3.037
0.010	0.000	0.000	-0.015	0.000	0.005	0.029	3.970	3.032	3.027	3.022	3.032	3.032	3.037
0.015	0.000	0.005	-0.015	0.010	0.010	0.024	3.979	3.032	3.027	3.022	3.037	3.037	3.042
0.034	0.000	0.005	-0.015	0.000	-0.010	0.029	3.965	3.032	3.032	3.022	3.037	3.032	3.032
0.044	0.000	0.010	-0.005	0.000	0.000	0.029	3.975	3.042	3.032	3.027	3.042	3.032	3.032
0.034	0.000	0.000	0.005	-0.005	-0.005	0.029	3.960	3.032	3.032	3.027	3.047	3.037	3.037
0.029	0.005	0.000	0.010	-0.005	0.010	0.029	3.970	3.032	3.032	3.027	3.047	3.042	3.042
0.015	0.005	-0.005	0.010	0.000	0.000	0.029	3.970	3.027	3.027	3.027	3.047	3.042	3.042
0.005	0.005	0.000	0.000	0.005	0.010	0.029	3.975	3.027	3.027	3.027	3.042	3.042	3.047
0.000	-0.010	0.005	0.005	0.000	0.005	0.029	3.960	3.022	3.022	3.022	3.047	3.042	3.042
0.000	0.000	0.000	0.010	-0.005	0.000	0.029	3.965	3.022	3.022	3.022	3.047	3.037	3.042
-0.005	-0.010	0.000	0.015	0.000	-0.005	0.029	3.965	3.022	3.018	3.022	3.047	3.042	3.037
-0.005	-0.005	0.005	0.020	0.000	0.005	0.024	3.970	3.022	3.018	3.022	3.047	3.042	3.047
-0.010	-0.020	0.000	0.015	0.000	0.000	0.029	3.950	3.022	3.018	3.018	3.042	3.037	3.042
0.000	-0.010	0.005	0.010	0.000	0.005	0.029	3.970	3.027	3.022	3.018	3.037	3.037	3.042
-0.005	0.005	0.000	-0.005	-0.005	-0.020	0.029	3.979	3.027	3.027	3.018	3.037	3.032	3.032
-0.005	0.020	0.005	-0.015	0.005	0.000	0.029	3.970	3.027	3.027	3.022	3.032	3.037	3.042
-0.005	0.015	0.000	-0.020	0.000	0.010	0.029	3.979	3.027	3.027	3.018	3.032	3.032	3.037
0.005	0.005	0.000	-0.010	0.005	-0.005	0.029	3.955	3.027	3.027	3.022	3.037	3.032	3.032
0.005	0.000	-0.005	-0.005	0.000	0.005	0.029	3.955	3.027	3.027	3.022	3.037	3.032	3.037
0.010	0.005	-0.005	0.000	0.005	0.000	0.029	3.950	3.022	3.027	3.022	3.037	3.037	3.037
-0.005	0.010	0.005	0.000	0.000	-0.005	0.029	3.970	3.027	3.027	3.022	3.042	3.037	3.037
0.000	0.015	0.005	0.000	0.000	0.000	0.029	3.975	3.027	3.022	3.022	3.042	3.037	3.037
-0.005	0.005	-0.005	-0.015	0.000	0.000	0.029	3.970	3.032	3.022	3.022	3.037	3.037	3.037
0.005	0.000	-0.005	-0.005	0.005	-0.005	0.029	3.970	3.027	3.027	3.022	3.037	3.032	3.037
-0.005	0.000	0.005	0.010	0.000	0.000	0.029	3.989	3.027	3.022	3.022	3.047	3.037	3.037
0.000	0.005	0.000	0.020	0.005	-0.010	0.029	3.955	3.027	3.027	3.022	3.047	3.042	3.037
-0.005	0.000	0.005	0.020	0.000	0.005	0.029	3.965	3.027	3.027	3.022	3.047	3.037	3.042
0.000	-0.005	0.005	0.020	0.005	0.005	0.029	3.975	3.022	3.022	3.022	3.047	3.042	3.042
-0.005	0.000	0.010	0.010	0.005	-0.005	0.029	3.975	3.027	3.022	3.022	3.042	3.037	3.042
0.000	0.000	0.000	0.010	0.005	0.000	0.029	3.960	3.022	3.022	3.022	3.037	3.037	3.042
0.000	0.005	0.000	0.010	0.000	0.005	0.029	3.970	3.027	3.027	3.022	3.042	3.037	3.042
0.005	-0.005	0.000	0.010	0.005	0.005	0.029	3.965	3.022	3.022	3.022	3.037	3.037	3.042
-0.005	-0.005	0.005	0.005	0.005	0.010	0.029	3.975	3.018	3.018	3.018	3.037	3.037	3.042
0.000	0.000	0.000	0.000	0.000	0.005	0.024	3.960	3.022	3.022	3.018	3.037	3.032	3.037
-0.005	0.000	0.000	-0.005	0.005	0.000	0.024	3.955	3.018	3.022	3.018	3.032	3.032	3.037
0.000	0.000	0.005	-0.020	0.000	-0.015	0.029	3.975	3.022	3.022	3.018	3.027	3.027	3.027
0.005	0.005	0.000	-0.020	0.000	0.005	0.029	3.979	3.027	3.022	3.018	3.032	3.027	3.037
0.010	0.005	-0.005	-0.020	0.000	-0.010	0.029	3.975	3.027	3.022	3.018	3.032	3.027	3.032
0.000	0.005	-0.005	-0.020	0.000	0.005	0.029	3.975	3.027	3.027	3.018	3.037	3.027	3.032
0.000	0.010	0.005	-0.005	0.000	0.005	0.029	3.965	3.022	3.027	3.022	3.042	3.032	3.037
0.010	0.000	-0.005	0.005	0.005	0.000	0.029	3.965	3.022	3.022	3.022	3.042	3.037	3.032
0.005	0.000	0.000	0.005	0.005	0.005	0.024	3.970	3.027	3.022	3.022	3.047	3.037	3.037
0.010	0.000	0.000	0.005	0.005	0.015	0.029	3.970	3.027	3.022	3.022	3.042	3.037	3.042
0.000	0.000	0.000	0.015	0.005	0.000	0.029	3.975	3.022	3.022	3.022	3.042	3.037	3.037
0.010	0.000	0.000	0.010	0.000	0.005	0.024	3.965	3.027	3.027	3.018	3.042	3.037	3.037
-0.015	-0.005	0.005	0.005	0.005	0.005	0.029	3.975	3.018	3.022	3.022	3.037	3.037	3.037
-0.005	0.005	0.000	0.005	0.005	0.005	0.029	3.975	3.022	3.022	3.022	3.037	3.037	3.042
0.000	-0.005	0.005	0.005	0.005	0.000	0.029	3.975	3.027	3.022	3.018	3.037	3.032	3.037
0.000	-0.005	0.005	0.010	0.005	-0.015	0.024	3.955	3.022	3.022	3.018	3.037	3.032	3.032
-0.010	0.000	0.000	0.015	-0.005	0.000	0.029	3.965	3.022	3.022	3.018	3.037	3.032	3.037
-0.005	-0.005	0.005	0.005	0.000	0.015	0.029	3.970	3.022	3.018	3.018	3.037	3.032	3.037
0.005	0.005	-0.005	0.000	0.005	0.010	0.029	3.965	3.027	3.022	3.018	3.032	3.032	3.037
0.010	-0.005	0.005	-0.005	-0.005	0.005	0.024	3.970	3.027	3.022	3.018	3.032	3.027	3.032
0.000	0.005	0.000	-0.005	-0.005	0.005	0.024	3.984	3.027	3.022	3.018	3.037	3.032	3.032
0.005	0.005	0.000	-0.015	-0.010	-0.010	0.024	3.970	3.027	3.027	3.022	3.032	3.027	3.032
0.005	0.005	0.005	-0.015	-0.010	0.005	0.029	3.975	3.027	3.027	3.022	3.037	3.027	3.032
0.005	0.005	-0.005	-0.010	-0.010	-0.020	0.029	3.975	3.027	3.027	3.022	3.037	3.027	3.027
-0.015	0.005	-0.005	-0.005	-0.005	0.015	0.029	3.970	3.022	3.027	3.022	3.042	3.037	3.037
0.005	0.000	-0.005	0.000	-0.005	-0.005	0.029	3.970	3.027	3.022	3.022	3.042	3.037	3.037
0.000	0.005	0.000	0.000	0.015	0.010	0.029	3.955	3.027	3.027	3.027	3.042	3.042	3.042
0.005	-0.010	0.000	0.005	0.010	0.005	0.029	3.979	3.027	3.022	3.022	3.047	3.037	3.037
-0.005	-0.010	0.000	0.010	0.000	0.005	0.029	3.960	3.022	3.022	3.022	3.042	3.037	3.037
0.010	0.000	0.000	0.010	0.000	-0.020	0.029	3.970	3.027	3.022	3.022	3.037	3.037	3.032
0.000	0.000	0.005	0.010	0.000	0.010	0.029	3.960	3.022	3.022	3.022	3.037	3.037	3.042
0.000	-0.005	0.000	0.005	0.000	-0.005	0.029	3.970	3.022	3.018	3.022	3.037	3.032	3.037
0.000	0.005	0.000	0.005	0.005	-0.005	0.029	3.975	3.027	3.022	3.018	3.037	3.037	3.037
0.005	-0.005	0.000	0.010	0.005	0.005	0.029	3.955	3.022	3.022	3.018	3.037	3.037	3.042
0.000	-0.020	0.000	0.005	0.000	0.005	0.029	3.965	3.018	3.013	3.018	3.037	3.032	3.037
-0.005	-0.015	0.000	0.000	0.000	0.005	0.029	3.970	3.018	3.018	3.013	3.032	3.032	3.042
0.005	0.000	-0.005	-0.005	0.000	0.000	0.024	3.965	3.027	3.022	3.013	3.032	3.032	3.037
-0.005	0.005	0.000	-0.005	0.000	-0.015	0.029	3.975	3.022	3.027	3.018	3.032	3.032	3.027
0.005	0.005	0.000	0.000	-0.005	0.000	0.029	3.975	3.022	3.027	3.018	3.037	3.032	3.037
0.005	0.010	0.000	-0.005	0.000	0.000	0.024	3.979	3.027	3.027	3.018	3.037	3.032	3.032
0.000	0.005	0.005	-0.005	0.000	0.000	0.029	3.984	3.027	3.027	3.022	3.037	3.032	3.037
0.000	0.000	0.005	0.000	0.000	0.015	0.024	3.970	3.027	3.022	3.022	3.042	3.032	3.042
0.005	-0.005	0.000	-0.005	0.005	0.010	0.024	3.975	3.027	3.022	3.022	3.042	3.032	3.037
-0.005	0.010	-0.005	0.010	-0.005	0.005	0.029	3.970	3.027	3.027	3.022	3.042	3.032	3.037
0.000	0.000	0.000	-0.005	0.000	0.005	0.029	3.979	3.032	3.022	3.022	3.037	3.037	3.037
0.005	-0.005	0.000	0.005	0.000	0.000	0.029	3.975	3.027	3.022	3.022	3.037	3.037	3.032
-0.005	0.015	0.005	0.005	0.000	0.010	0.029	3.975	3.022	3.032	3.022	3.042	3.037	3.037
-0.005	0.020	0.000	0.010	0.010	0.010	0.029	3.965	3.018	3.027	3.022	3.042	3.037	3.037
-0.005	0.010	0.000	0.005	0.010	-0.005	0.029	3.975	3.022	3.022	3.022	3.042	3.037	3.037
-0.005	0.005	0.005	-0.005	0.005	0.005	0.029	3.975	3.022	3.022	3.018	3.037	3.037	3.037
-0.005	0.005	0.005	-0.010	0.005	-0.005	0.029	3.975	3.022	3.018	3.018	3.032	3.032	3.032
0.000	0.000	0.005	-0.015	0.010	-0.005	0.024	3.975	3.022	3.018	3.018	3.032	3.032	3.037
0.000	-0.010	0.005	-0.015	0.015	-0.005	0.024	3.975	3.022	3.018	3.018	3.032	3.032	3.037
0.000	0.000	0.000	0.000	0.015	-0.015	0.024	4.033	3.027	3.022	3.018	3.037	3.032	3.032
0.005	0.000	0.000	0.000	0.010	0.000	0.024	3.950	3.027	3.022	3.018	3.037	3.032	3.037
-0.005	0.010	0.000	0.005	0.005	0.000	0.029	3.931	3.022	3.027	3.022	3.037	3.032	3.037
0.010	0.005	0.000	0.010	0.000	0.005	0.029	3.955	3.022	3.022	3.022	3.042	3.032	3.037
0.005	0.000	0.005	0.005	0.000	-0.005	0.029	3.936	3.022	3.022	3.018	3.037	3.032	3.037
0.010	0.000	0.000	-0.005	0.000	-0.005	0.029	3.940	3.013	3.022	3.018	3.037	3.037	3.037
0.000	0.000	0.005	-0.005	0.010	0.005	0.029	3.940	3.018	3.018	3.018	3.037	3.032	3.037
-0.005	0.005	0.005	0.005	0.005	0.000	0.029	3.936	3.013	3.018	3.018	3.042	3.037	3.037
-0.005	0.010	0.000	0.005	0.005	0.000	0.024	4.102	3.032	3.022	3.018	3.037	3.032	3.037
-0.005	0.010	0.000	0.010	0.005	0.000	0.029	3.936	3.027	3.022	3.018	3.037	3.032	3.037
0.000	-0.020	0.000	0.020	0.005	-0.015	0.029	3.921	3.022	3.013	3.018	3.037	3.037	3.032
-0.010	-0.015	0.000	0.015	0.005	0.005	0.029	3.960	3.018	3.013	3.013	3.037	3.032	3.037
-0.015	-0.005	0.005	0.015	0.000	-0.005	0.029	3.970	3.022	3.018	3.013	3.037	3.032	3.032
-0.005	-0.005	0.005	0.020	0.005	-0.010	0.029	3.970	3.018	3.018	3.018	3.032	3.032	3.032
-0.005	-0.005	0.005	0.015	0.000	0.005	0.029	3.955	3.018	3.018	3.013	3.032	3.032	3.037
-0.005	-0.005	-0.005	0.005	0.000	0.005	0.029	3.970	3.022	3.018	3.013	3.032	3.032	3.037
-0.005	0.020	0.005	0.010	-0.010	0.000	0.024	3.965	3.022	3.027	3.018	3.032	3.027	3.032
0.000	0.010	0.005	0.005	-0.005	0.015	0.024	3.970	3.022	3.022	3.018	3.032	3.032	3.032
0.000	0.005	0.000	0.000	-0.005	0.005	0.024	3.960	3.018	3.022	3.018	3.032	3.027	3.032
0.000	0.005	0.000	0.005	0.000	-0.005	0.029	3.926	3.018	3.022	3.018	3.032	3.032	3.032
0.010	0.000	-0.005	-0.005	0.000	0.000	0.029	3.931	3.018	3.018	3.018	3.032	3.027	3.032
0.010	0.005	0.000	0.000	0.000	0.010	0.029	3.950	3.018	3.022	3.018	3.032	3.027	3.032
0.005	0.005	-0.005	0.000	-0.005	0.000	0.029	4.116	3.037	3.022	3.018	3.032	3.027	3.032
0.000	0.010	0.000	-0.005	-0.005	0.010	0.029	3.931	3.022	3.022	3.022	3.032	3.032	3.032
0.005	0.000	0.000	-0.005	0.000	-0.005	0.029	3.979	3.018	3.018	3.018	3.032	3.032	3.027
0.000	0.000	0.005	-0.015	-0.005	0.005	0.029	3.979	3.022	3.018	3.018	3.032	3.027	3.027
-0.005	-0.005	0.005	-0.015	-0.005	-0.020	0.029	3.960	3.018	3.018	3.013	3.032	3.027	3.027
0.000	-0.005	0.000	-0.020	-0.005	0.005	0.024	3.970	3.022	3.018	3.018	3.032	3.027	3.032
0.005	-0.005	0.000	-0.015	-0.005	-0.005	0.029	3.970	3.018	3.013	3.013	3.032	3.027	3.027
-0.010	-0.005	0.000	-0.005	-0.015	0.010	0.029	3.960	3.013	3.018	3.013	3.032	3.027	3.032
-0.005	-0.010	0.000	-0.005	-0.015	0.005	0.024	3.960	3.018	3.013	3.013	3.032	3.027	3.027
0.005	-0.015	0.000	0.000	-0.010	0.000	0.029	3.970	3.018	3.013	3.013	3.032	3.027	3.027
-0.005	-0.005	0.000	0.000	-0.005	0.000	0.029	3.950	3.018	3.013	3.013	3.032	3.027	3.032
0.000	0.000	0.005	0.010	0.000	0.005	0.029	3.936	3.018	3.018	3.013	3.037	3.032	3.032
0.000	-0.005	0.000	0.005	0.005	0.005	0.024	3.921	3.013	3.018	3.013	3.032	3.032	3.037
0.000	0.000	0.005	0.010	0.010	0.015	0.024	3.936	3.013	3.013	3.013	3.037	3.032	3.037
0.000	0.005	0.000	0.010	0.010	0.005	0.029	4.097	3.027	3.018	3.013	3.037	3.032	3.032
0.005	0.000	0.005	0.005	0.005	-0.005	0.024	3.921	3.022	3.022	3.013	3.032	3.027	3.032
-0.005	-0.005	0.000	-0.005	-0.005	0.015	0.029	3.921	3.018	3.013	3.013	3.027	3.027	3.037
0.000	-0.005	0.000	-0.005	-0.005	0.010	0.024	4.136	3.042	3.022	3.018	3.032	3.027	3.032
0.000	0.010	0.000	-0.005	0.000	0.000	0.029	3.965	3.032	3.027	3.018	3.032	3.027	3.027
0.000	0.000	0.000	-0.005	-0.005	-0.005	0.029	3.965	3.032	3.032	3.018	3.032	3.027	3.027
0.000	0.015	0.000	-0.005	-0.010	0.005	0.029	3.970	3.032	3.032	3.022	3.037	3.027	3.027
-0.005	0.005	0.000	0.000	-0.010	0.005	0.024	3.950	3.018	3.027	3.022	3.037	3.027	3.027
0.000	0.000	0.000	0.005	-0.005	-0.010	0.029	3.955	3.018	3.022	3.018	3.042	3.032	3.022
0.000	0.020	0.000	0.010	0.005	0.000	0.024	3.945	3.018	3.027	3.022	3.042	3.037	3.032
-0.005	0.000	0.005	0.005	0.015	0.000	0.024	3.955	3.018	3.018	3.018	3.042	3.037	3.032
-0.005	0.000	0.010	0.000	0.005	-0.005	0.029	3.955	3.018	3.018	3.018	3.037	3.037	3.032
0.000	0.005	0.000	-0.005	0.015	0.005	0.029	3.940	3.013	3.018	3.013	3.032	3.032	3.032
0.005	-0.010	0.000	0.005	0.000	0.005	0.029	3.936	3.018	3.013	3.013	3.037	3.032	3.032
0.000	-0.010	-0.005	0.000	0.000	0.000	0.029	4.067	3.027	3.013	3.013	3.032	3.027	3.032
-0.005	-0.005	-0.010	0.000	0.000	0.005	0.029	3.936	3.018	3.018	3.008	3.032	3.032	3.037
-0.010	0.015	-0.010	0.000	0.000	-0.005	0.024	3.936	3.018	3.022	3.018	3.032	3.027	3.032
0.005	0.010	0.005	0.005	0.000	-0.005	0.029	3.950	3.022	3.027	3.018	3.037	3.032	3.032
0.000	0.015	0.005	0.010	0.005	0.010	0.024	3.965	3.022	3.022	3.018	3.037	3.037	3.037
0.010	0.005	0.005	0.015	0.005	0.005	0.024	3.960	3.022	3.018	3.022	3.037	3.032	3.037
0.005	0.000	0.005	0.010	-0.005	-0.005	0.029	3.970	3.022	3.018	3.022	3.037	3.032	3.032
0.000	0.000	0.005	0.005	0.000	-0.010	0.029	3.955	3.022	3.018	3.018	3.037	3.032	3.032
-0.005	-0.010	0.000	-0.005	0.000	0.010	0.029	3.975	3.018	3.013	3.013	3.032	3.032	3.037
0.000	0.000	0.000	-0.015	0.000	0.000	0.029	3.940	3.018	3.018	3.013	3.027	3.027	3.032
-0.005	0.000	0.000	-0.024	0.000	0.005	0.029	3.945	3.018	3.018	3.013	3.027	3.027	3.032
0.005	0.005	0.000	-0.024	0.005	0.000	0.029	3.945	3.018	3.018	3.013	3.027	3.027	3.032
0.000	0.005	0.005	-0.020	-0.005	0.000	0.024	3.940	3.013	3.013	3.013	3.032	3.027	3.027
0.000	0.000	0.005	-0.005	0.000	0.000	0.024	3.945	3.013	3.013	3.013	3.037	3.027	3.027
-0.005	0.005	0.000	0.005	-0.005	-0.005	0.024	4.023	3.018	3.013	3.013	3.032	3.027	3.027
-0.005	0.010	0.000	0.005	0.005	0.005	0.024	3.931	3.018	3.013	3.018	3.037	3.027	3.032
0.000	0.000	0.000	0.015	0.005	0.005	0.029	4.072	3.013	3.013	3.013	3.037	3.032	3.032
0.005	-0.005	0.000	0.015	0.005	-0.020	0.029	4.058	3.018	3.013	3.008	3.032	3.027	3.027
0.000	0.000	-0.005	0.020	0.000	-0.020	0.029	3.975	3.018	3.013	3.013	3.037	3.027	3.027
-0.005	0.005	0.005	0.015	-0.005	0.015	0.029	3.955	3.018	3.018	3.013	3.032	3.027	3.037
-0.005	0.005	-0.005	0.015	-0.005	0.005	0.029	3.979	3.022	3.018	3.013	3.032	3.027	3.032
0.000	0.005	0.000	0.015	0.000	-0.010	0.024	3.970	3.022	3.018	3.013	3.032	3.027	3.027
0.000	0.000	0.000	0.010	-0.005	0.010	0.029	3.960	3.022	3.022	3.013	3.032	3.027	3.032
0.000	0.000	-0.005	0.000	-0.005	0.005	0.024	3.955	3.018	3.018	3.013	3.027	3.027	3.027
0.005	0.000	0.000	-0.005	-0.005	0.010	0.029	3.955	3.018	3.018	3.018	3.027	3.027	3.032
-0.005	0.005	0.000	-0.015	0.005	0.010	0.029	3.955	3.018	3.018	3.018	3.027	3.027	3.027
0.005	-0.005	0.000	-0.015	0.005	0.005	0.029	3.940	3.018	3.013	3.013	3.027	3.027	3.027
0.000	-0.005	0.000	-0.010	0.015	-0.020	0.029	3.940	3.018	3.013	3.013	3.027	3.027	3.027
0.000	-0.010	0.000	-0.005	0.020	0.005	0.029	3.994	3.018	3.013	3.013	3.032	3.027	3.032
0.000	-0.005	0.000	0.005	0.020	0.000	0.029	3.936	3.013	3.013	3.008	3.037	3.032	3.027
0.000	-0.005	0.000	0.010	0.015	0.005	0.029	3.911	3.008	3.013	3.008	3.032	3.027	3.032
-0.010	-0.010	0.000	-0.005	0.000	-0.005	0.029	4.121	3.032	3.013	3.008	3.027	3.022	3.027
0.010	-0.005	0.005	0.000	0.000	0.000	0.024	3.975	3.032	3.022	3.013	3.027	3.027	3.027
0.005	-0.010	0.005	-0.005	-0.005	0.005	0.029	3.979	3.027	3.022	3.013	3.027	3.022	3.027
-0.005	-0.015	0.005	-0.005	-0.005	0.010	0.029	3.970	3.022	3.022	3.013	3.027	3.022	3.027
0.005	0.000	-0.005	0.010	-0.005	0.000	0.029	3.960	3.027	3.022	3.018	3.032	3.027	3.027
0.005	0.000	0.000	0.015	0.000	0.000	0.029	3.970	3.022	3.022	3.018	3.037	3.027	3.027
0.015	-0.005	-0.010	0.010	0.000	0.005	0.029	3.950	3.022	3.022	3.018	3.032	3.027	3.027
0.000	0.000	-0.005	0.000	0.005	0.005	0.029	3.965	3.022	3.022	3.018	3.032	3.027	3.032
0.005	0.015	0.000	-0.010	-0.005	0.010	0.029	3.955	3.022	3.027	3.018	3.032	3.027	3.032
0.005	0.020	0.005	-0.024	0.000	0.010	0.029	3.940	3.018	3.022	3.018	3.032	3.027	3.032
0.000	0.010	0.000	-0.020	-0.005	0.010	0.024	3.936	3.008	3.018	3.018	3.032	3.027	3.032
-0.005	0.015	0.000	-0.005	-0.005	0.005	0.024	3.979	3.013	3.018	3.018	3.037	3.027	3.027
0.005	0.000	0.000	0.015	-0.010	0.005	0.029	3.945	3.013	3.013	3.018	3.042	3.032	3.027
0.005	0.010	0.000	0.015	-0.010	-0.005	0.024	3.901	3.008	3.013	3.018	3.037	3.032	3.027
0.000	0.005	0.000	0.020	-0.020	-0.005	0.029	4.111	3.022	3.013	3.013	3.037	3.027	3.032
-0.005	-0.005	0.000	0.015	-0.020	-0.020	0.029	3.955	3.022	3.013	3.013	3.032	3.027	3.027
-0.010	-0.010	0.000	0.020	-0.015	-0.005	0.029	3.960	3.018	3.013	3.013	3.032	3.032	3.032
-0.005	0.005	0.005	0.010	0.000	0.000	0.029	3.960	3.018	3.018	3.008	3.027	3.032	3.032
-0.005	0.000	0.000	0.005	0.015	0.005	0.029	3.936	3.032	3.018	3.013	3.027	3.037	3.037
-0.005	-0.005	0.005	0.010	0.024	-0.005	0.029	4.111	3.047	3.022	3.013	3.032	3.037	3.032
0.000	0.000	0.000	0.005	0.029	0.000	0.024	3.921	3.037	3.027	3.018	3.032	3.032	3.037
0.005	0.005	0.005	0.000	0.029	0.005	0.024	3.936	3.027	3.027	3.022	3.032	3.032	3.037
0.005	0.000	0.000	-0.005	0.020	-0.015	0.024	3.975	3.027	3.027	3.022	3.032	3.027	3.032
0.000	-0.005	0.000	-0.005	0.020	-0.010	0.024	3.960	3.022	3.027	3.022	3.032	3.027	3.032
0.000	0.005	0.000	-0.015	0.015	0.010	0.024	3.970	3.022	3.027	3.022	3.032	3.027	3.032
0.000	0.005	0.000	-0.010	-0.005	-0.005	0.029	4.048	3.032	3.027	3.022	3.037	3.022	3.027
0.005	-0.010	0.005	-0.015	-0.015	-0.005	0.029	3.984	3.027	3.022	3.022	3.037	3.022	3.027
0.000	-0.015	0.000	0.000	-0.020	0.000	0.029	4.097	3.042	3.022	3.022	3.042	3.027	3.032
0.005	-0.005	0.005	0.005	0.000	0.010	0.029	3.916	3.027	3.027	3.027	3.042	3.037	3.032
-0.005	0.005	0.005	0.005	0.005	0.015	0.029	4.106	3.042	3.037	3.022	3.042	3.042	3.037
0.000	-0.005	0.000	0.010	0.010	-0.010	0.029	3.955	3.032	3.032	3.027	3.042	3.037	3.032
-0.005	0.000	0.005	0.005	0.005	0.005	0.029	3.970	3.032	3.032	3.027	3.042	3.037	3.037
-0.005	0.005	0.000	0.005	0.005	0.010	0.029	3.965	3.027	3.027	3.027	3.042	3.037	3.037
-0.005	0.000	0.005	0.000	0.015	0.020	0.024	3.931	3.018	3.027	3.027	3.042	3.037	3.047
0.005	0.000	0.000	0.000	0.005	0.010	0.024	4.087	3.032	3.027	3.022	3.042	3.037	3.042
0.000	0.005	0.000	0.000	-0.034	0.005	0.029	3.936	3.022	3.027	3.022	3.042	3.027	3.032
-0.005	-0.005	0.010	0.005	-0.059	-0.005	0.024	3.916	3.032	3.022	3.022	3.042	3.022	3.027
0.000	-0.010	0.000	0.000	-0.059	-0.029	0.029	4.126	3.022	3.022	3.022	3.042	3.022	3.018
0.000	-0.005	0.000	0.000	-0.063	-0.029	0.029	3.960	3.022	3.022	3.022	3.037	3.027	3.022
0.000	0.005	0.000	-0.005	-0.044	-0.015	0.029	3.970	3.022	3.027	3.022	3.042	3.037	3.037
0.000	0.010	0.000	-0.010	-0.029	-0.005	0.029	3.975	3.022	3.027	3.022	3.037	3.037	3.037
0.005	0.010	-0.005	-0.005	-0.010	-0.005	0.029	3.965	3.022	3.027	3.022	3.042	3.047	3.042
0.000	-0.015	0.005	0.000	-0.005	-0.005	0.024	3.960	3.022	3.018	3.022	3.042	3.047	3.042
0.000	-0.005	0.000	0.005	0.000	0.000	0.024	3.965	3.022	3.018	3.022	3.042	3.047	3.047
-0.005	0.000	0.005	0.000	0.010	-0.005	0.029	3.965	3.022	3.022	3.022	3.042	3.047	3.047
0.000	0.010	0.005	-0.005	0.010	0.000	0.029	4.067	3.032	3.027	3.022	3.037	3.042	3.047
0.005	0.010	0.000	-0.005	0.029	0.005	0.029	3.965	3.032	3.027	3.018	3.037	3.047	3.052
-0.005	0.005	0.000	0.000	0.063	0.020	0.029	3.965	3.027	3.027	3.022	3.042	3.057	3.057
-0.005	0.000	-0.005	0.005	0.107	0.020	0.029	3.984	3.037	3.027	3.022	3.042	3.062	3.057
0.000	0.005	0.000	0.010	0.171	0.015	0.029	4.058	3.047	3.032	3.027	3.047	3.071	3.062
0.005	0.000	0.005	0.015	0.146	0.010	0.029	3.936	3.037	3.032	3.027	3.047	3.057	3.057
0.000	-0.005	0.005	0.010	0.083	0.010	0.024	4.106	3.047	3.037	3.027	3.042	3.037	3.052
0.010	0.000	0.005	0.005	0.063	0.010	0.024	3.960	3.047	3.037	3.027	3.042	3.027	3.047
0.000	0.000	0.000	0.005	0.039	0.020	0.024	3.979	3.037	3.037	3.027	3.042	3.027	3.042
0.000	0.015	-0.005	0.000	0.010	0.015	0.024	3.975	3.037	3.042	3.032	3.042	3.022	3.037
0.000	0.015	-0.005	-0.005	-0.020	0.000	0.029	3.970	3.032	3.042	3.032	3.047	3.018	3.027
0.005	0.015	0.000	-0.005	-0.049	0.005	0.029	3.965	3.032	3.037	3.032	3.047	3.013	3.027
0.005	0.034	-0.005	0.000	-0.073	0.000	0.029	3.970	3.027	3.037	3.037	3.047	3.018	3.022
0.005	0.024	0.000	0.000	-0.068	-0.015	0.029	3.940	3.022	3.032	3.032	3.047	3.027	3.022
0.000	0.015	0.000	0.000	-0.054	-0.005	0.029	3.940	3.018	3.022	3.032	3.052	3.037	3.027
0.000	0.000	-0.005	0.005	-0.049	0.000	0.029	3.965	3.018	3.018	3.027	3.047	3.042	3.032
0.000	-0.005	0.000	0.000	-0.044	-0.010	0.029	4.048	3.027	3.013	3.027	3.047	3.042	3.037
0.005	-0.005	0.005	0.000	-0.034	-0.010	0.024	3.936	3.022	3.018	3.022	3.042	3.042	3.037
0.000	-0.015	0.005	-0.005	-0.034	0.000	0.029	3.936	3.018	3.013	3.018	3.042	3.042	3.042
0.005	-0.010	0.005	0.000	-0.034	-0.010	0.029	3.926	3.013	3.013	3.018	3.037	3.042	3.042
0.005	-0.015	0.005	0.000	-0.024	0.005	0.024	3.989	3.018	3.013	3.013	3.037	3.042	3.042
0.000	-0.005	0.005	0.000	-0.020	0.015	0.024	3.979	3.022	3.018	3.018	3.037	3.037	3.047
-0.005	-0.010	0.005	0.010	-0.015	0.000	0.029	3.975	3.027	3.018	3.018	3.037	3.037	3.042
-0.005	-0.005	0.005	0.010	-0.015	0.005	0.029	3.975	3.027	3.018	3.013	3.037	3.037	3.042
0.005	-0.010	0.000	0.005	-0.010	0.015	0.029	3.975	3.032	3.022	3.013	3.032	3.037	3.042
0.000	-0.010	0.000	-0.010	-0.005	0.010	0.024	3.940	3.027	3.027	3.018	3.027	3.032	3.042
0.000	0.000	0.000	-0.010	-0.005	0.000	0.024	3.975	3.027	3.027	3.018	3.032	3.032	3.037
-0.005	0.000	0.000	-0.005	-0.005	-0.005	0.029	3.975	3.027	3.027	3.022	3.032	3.032	3.037
0.000	-0.005	-0.005	0.000	0.000	-0.005	0.029	3.950	3.027	3.027	3.018	3.037	3.037	3.037
0.000	0.000	0.005	0.000	0.000	-0.010	0.024	3.975	3.027	3.027	3.022	3.037	3.032	3.037
0.000	-0.005	0.000	0.015	0.000	-0.010	0.024	3.965	3.027	3.027	3.022	3.042	3.037	3.032
0.000	-0.005	0.005	0.010	0.005	-0.020	0.024	3.979	3.027	3.022	3.022	3.042	3.037	3.032
0.000	-0.005	0.000	0.005	0.005	-0.020	0.029	3.960	3.027	3.027	3.022	3.042	3.037	3.032
-0.005	0.005	0.000	0.000	0.005	0.015	0.029	3.965	3.022	3.027	3.027	3.037	3.037	3.047
0.000	0.010	0.005	-0.005	0.010	0.015	0.029	3.975	3.022	3.027	3.022	3.042	3.037	3.042
-0.005	0.000	0.000	0.005	0.005	0.010	0.029	3.965	3.022	3.022	3.022	3.042	3.037	3.042
0.000	-0.010	0.005	0.005	0.010	0.015	0.029	3.965	3.022	3.022	3.022	3.037	3.037	3.042
-0.010	0.000	0.000	0.000	0.000	0.015	0.029	3.965	3.022	3.022	3.018	3.037	3.037	3.042
0.000	0.000	-0.005	-0.005	0.005	0.000	0.024	3.970	3.027	3.022	3.018	3.037	3.032	3.037
0.000	0.010	-0.005	-0.005	0.005	0.005	0.024	3.975	3.027	3.022	3.018	3.037	3.032	3.037
0.010	-0.005	-0.005	-0.005	0.005	0.005	0.024	3.984	3.027	3.022	3.018	3.037	3.032	3.037
-0.005	0.000	-0.005	-0.005	0.005	-0.020	0.024	3.936	3.022	3.022	3.018	3.037	3.032	3.027
0.005	0.000	0.005	0.000	0.005	0.005	0.029	3.970	3.022	3.022	3.022	3.042	3.037	3.037
-0.010	0.005	0.005	0.000	0.005	0.005	0.029	3.975	3.018	3.018	3.022	3.042	3.032	3.037
-0.005	-0.015	0.010	0.000	0.005	0.000	0.029	3.975	3.022	3.018	3.018	3.042	3.037	3.037
-0.005	-0.005	0.005	0.000	0.005	-0.005	0.029	3.960	3.027	3.022	3.018	3.042	3.037	3.037
-0.005	-0.005	-0.005	0.005	0.000	-0.005	0.029	3.950	3.022	3.022	3.018	3.037	3.037	3.032
0.000	0.005	0.000	0.005	0.000	0.000	0.029	3.965	3.022	3.027	3.022	3.037	3.037	3.037
0.010	-0.005	0.000	0.010	0.005	0.005	0.024	3.965	3.027	3.027	3.022	3.037	3.037	3.037
0.000	-0.005	0.005	0.010	0.005	0.005	0.024	3.926	3.013	3.022	3.022	3.037	3.037	3.037
-0.005	0.005	0.005	0.000	0.005	0.005	0.029	3.975	3.018	3.022	3.022	3.037	3.037	3.037
0.015	0.000	0.000	0.000	0.000	0.000	0.029	3.955	3.022	3.018	3.018	3.032	3.032	3.037
0.010	0.005	0.000	0.000	0.010	-0.010	0.029	3.975	3.022	3.018	3.018	3.037	3.032	3.032
0.005	0.000	0.000	0.005	0.005	0.010	0.029	3.960	3.018	3.018	3.013	3.037	3.032	3.037
-0.005	0.000	-0.005	0.000	0.005	0.005	0.024	3.975	3.018	3.018	3.013	3.032	3.032	3.037
0.015	-0.005	0.000	0.005	0.005	0.005	0.029	3.960	3.022	3.018	3.013	3.032	3.032	3.032
0.015	-0.005	0.000	0.005	0.005	-0.010	0.029	3.965	3.027	3.022	3.018	3.032	3.027	3.032
-0.005	0.005	0.000	0.005	-0.005	-0.024	0.024	3.965	3.022	3.018	3.018	3.032	3.027	3.027
0.000	0.020	0.005	0.000	-0.005	0.005	0.029	3.955	3.022	3.027	3.018	3.032	3.027	3.037
0.015	0.015	0.010	0.005	0.000	0.000	0.024	3.965	3.022	3.022	3.022	3.037	3.032	3.037
0.015	0.005	0.005	0.005	0.000	0.005	0.029	3.970	3.027	3.022	3.018	3.037	3.032	3.037
0.010	-0.005	0.000	0.005	0.000	-0.020	0.029	3.965	3.022	3.022	3.018	3.037	3.032	3.027
0.015	-0.005	0.005	0.000	0.000	-0.015	0.029	3.960	3.027	3.022	3.018	3.037	3.032	3.032
0.000	-0.005	0.000	0.000	0.005	-0.010	0.029	3.950	3.018	3.022	3.018	3.037	3.037	3.032
0.000	-0.010	0.000	0.005	0.000	0.015	0.029	3.960	3.022	3.018	3.018	3.037	3.032	3.042
-0.010	-0.005	-0.005	0.010	0.000	0.015	0.029	3.936	3.018	3.022	3.018	3.037	3.032	3.037
-0.010	0.010	0.000	0.000	-0.005	0.015	0.029	3.975	3.018	3.022	3.018	3.032	3.032	3.037
-0.010	0.005	-0.005	0.005	0.000	0.005	0.024	3.960	3.018	3.018	3.018	3.037	3.032	3.032
-0.015	-0.005	0.000	0.000	-0.024	0.000	0.029	3.970	3.022	3.018	3.013	3.032	3.022	3.032
-0.015	0.000	-0.005	-0.010	-0.039	-0.005	0.029	3.965	3.022	3.018	3.013	3.027	3.018	3.027
0.005	0.005	0.000	-0.010	-0.044	-0.015	0.029	3.975	3.022	3.022	3.018	3.027	3.018	3.022
0.005	-0.010	0.005	-0.010	-0.024	-0.020	0.029	3.955	3.022	3.018	3.018	3.032	3.027	3.022
0.000	0.010	0.000	-0.005	-0.010	-0.010	0.029	3.970	3.022	3.022	3.018	3.037	3.032	3.032
0.010	0.010	0.005	0.000	-0.020	-0.005	0.029	3.945	3.022	3.022	3.018	3.037	3.027	3.027
0.010	0.020	0.000	0.010	-0.020	-0.005	0.029	3.965	3.022	3.022	3.022	3.037	3.032	3.032
0.005	0.029	0.005	0.005	-0.020	-0.020	0.029	3.960	3.022	3.022	3.018	3.037	3.032	3.027
0.005	0.005	0.005	0.005	-0.034	0.000	0.024	3.970	3.022	3.018	3.018	3.037	3.032	3.032
0.005	0.000	0.005	0.005	-0.024	0.005	0.029	3.975	3.022	3.018	3.018	3.037	3.032	3.032
0.010	0.020	0.000	0.015	-0.034	0.020	0.029	3.975	3.027	3.027	3.018	3.037	3.032	3.037
0.005	0.010	0.000	0.020	-0.029	0.000	0.029	3.970	3.022	3.022	3.018	3.042	3.032	3.037
-0.020	0.020	0.000	0.010	0.010	0.034	0.029	3.965	3.018	3.022	3.022	3.042	3.047	3.047
-0.107	0.015	0.000	0.000	0.112	0.029	0.029	3.955	2.988	3.008	3.018	3.037	3.076	3.052
-0.239	0.010	0.005	-0.020	0.220	0.024	0.029	3.979	2.964	2.988	3.008	3.032	3.086	3.066
-0.229	0.000	0.000	-0.034	0.239	0.029	0.029	3.960	2.993	2.988	2.998	3.022	3.071	3.066
-0.103	-0.015	0.000	-0.034	0.195	0.024	0.029	3.965	3.042	3.003	2.998	3.018	3.047	3.062
0.024	-0.005	0.005	-0.015	0.098	0.020	0.024	3.970	3.076	3.027	3.003	3.022	3.013	3.047
0.117	0.005	0.005	0.005	0.029	0.015	0.024	3.965	3.086	3.047	3.018	3.032	2.998	3.032
0.190	0.000	0.000	0.015	-0.024	-0.005	0.029	3.965	3.086	3.062	3.022	3.037	2.993	3.013
0.220	-0.005	0.000	0.015	-0.010	0.010	0.024	3.950	3.076	3.066	3.032	3.042	3.008	3.018
0.200	0.000	-0.005	0.024	0.000	0.010	0.029	3.970	3.057	3.062	3.037	3.047	3.018	3.018
0.156	-0.005	0.000	0.020	-0.029	-0.010	0.029	3.975	3.032	3.052	3.042	3.047	3.018	3.013
0.122	0.000	0.000	0.020	-0.063	0.000	0.029	3.975	3.018	3.042	3.042	3.052	3.018	3.013
0.078	-0.005	0.005	0.010	-0.107	-0.005	0.029	3.965	3.003	3.027	3.037	3.047	3.013	3.013
0.034	-0.005	0.005	-0.005	-0.142	-0.024	0.029	3.955	2.993	3.018	3.032	3.047	3.013	3.008
0.005	0.000	0.000	-0.015	-0.122	-0.015	0.029	3.960	2.988	3.008	3.022	3.042	3.027	3.018
-0.029	0.000	0.000	-0.015	-0.093	-0.010	0.024	3.970	2.988	3.003	3.022	3.042	3.037	3.022
-0.059	0.015	0.005	-0.005	-0.059	0.000	0.029	3.945	2.988	2.998	3.018	3.042	3.047	3.037
-0.054	-0.010	0.005	0.010	-0.044	-0.010	0.029	3.975	2.993	2.988	3.008	3.042	3.047	3.037
-0.073	-0.010	0.000	0.024	-0.005	-0.010	0.029	3.975	2.993	2.993	3.003	3.042	3.057	3.042
-0.093	-0.010	0.000	0.029	0.039	-0.005	0.029	3.970	2.998	2.993	2.998	3.037	3.062	3.052
-0.078	-0.015	-0.005	0.020	0.044	-0.024	0.029	3.975	3.013	2.998	2.993	3.027	3.052	3.052
-0.063	-0.005	-0.005	0.020	0.073	-0.015	0.029	3.970	3.018	3.003	2.993	3.022	3.052	3.052
-0.073	-0.005	0.000	0.010	0.112	0.020	0.029	3.955	3.018	3.008	2.998	3.018	3.057	3.062
-0.049	-0.020	0.005	0.005	0.112	0.010	0.029	3.960	3.027	3.013	3.003	3.018	3.042	3.057
-0.020	-0.010	0.000	0.005	0.059	0.010	0.024	3.931	3.032	3.022	3.003	3.018	3.018	3.047
0.005	0.000	0.005	0.000	0.029	0.000	0.024	3.970	3.042	3.027	3.008	3.018	3.008	3.032
0.000	-0.005	0.000	-0.005	0.010	0.015	0.029	3.965	3.027	3.027	3.013	3.018	3.008	3.027
-0.010	0.005	0.005	0.000	-0.010	0.010	0.029	3.984	3.027	3.027	3.018	3.022	3.003	3.022
0.000	-0.005	0.000	-0.010	-0.073	-0.010	0.024	3.965	3.032	3.027	3.018	3.027	2.988	3.008
-0.029	0.005	0.000	-0.015	-0.088	0.005	0.029	3.965	3.018	3.022	3.018	3.027	2.998	3.008
-0.029	0.000	0.000	-0.010	-0.088	0.010	0.029	3.970	3.022	3.022	3.018	3.032	3.003	3.008
0.029	-0.005	0.000	0.000	-0.068	0.010	0.029	3.975	3.037	3.027	3.022	3.037	3.018	3.013
0.044	-0.005	-0.005	-0.010	-0.054	0.005	0.029	3.926	3.027	3.027	3.018	3.032	3.027	3.013
0.049	-0.005	0.000	-0.015	-0.029	0.010	0.024	3.965	3.027	3.027	3.022	3.037	3.032	3.022
0.044	-0.005	0.000	-0.010	-0.015	-0.005	0.029	3.970	3.027	3.027	3.022	3.042	3.037	3.022
0.034	0.015	0.005	0.000	0.000	0.000	0.029	3.960	3.018	3.027	3.027	3.042	3.042	3.027
0.005	0.005	0.005	0.005	0.005	0.010	0.029	3.975	3.013	3.018	3.022	3.042	3.042	3.037
0.005	-0.005	0.000	0.010	0.010	0.010	0.029	3.955	3.003	3.018	3.018	3.042	3.047	3.042
0.000	0.005	0.000	0.015	0.034	0.000	0.029	3.970	3.008	3.013	3.018	3.042	3.047	3.042
-0.010	0.005	-0.005	0.010	0.034	-0.020	0.029	3.965	3.013	3.013	3.013	3.037	3.042	3.037
0.000	0.000	-0.005	0.005	0.034	-0.010	0.024	3.931	3.008	3.013	3.013	3.032	3.037	3.042
-0.039	-0.005	-0.005	0.000	0.039	0.010	0.029	3.970	2.998	3.003	3.008	3.027	3.037	3.047
-0.020	0.000	-0.005	-0.005	0.029	-0.005	0.029	3.960	3.013	3.008	3.008	3.027	3.032	3.037
0.000	0.005	0.005	0.000	0.005	0.000	0.029	3.970	3.022	3.013	3.008	3.027	3.022	3.032
0.000	0.005	0.000	0.000	-0.015	-0.015	0.024	3.960	3.022	3.018	3.013	3.027	3.018	3.027
-0.005	0.005	0.005	0.005	-0.029	0.005	0.029	3.975	3.022	3.018	3.013	3.027	3.018	3.027
0.015	0.024	0.000	0.010	-0.039	0.000	0.029	3.960	3.027	3.027	3.018	3.032	3.018	3.027
0.024	0.020	-0.005	0.010	-0.024	0.005	0.029	3.975	3.027	3.027	3.018	3.032	3.022	3.027
0.029	0.020	0.000	0.010	-0.029	-0.005	0.029	3.940	3.027	3.027	3.022	3.037	3.022	3.027
0.034	0.015	0.000	0.005	-0.015	-0.005	0.029	3.975	3.027	3.027	3.018	3.032	3.032	3.027
0.034	0.024	0.000	0.000	-0.005	0.010	0.029	3.975	3.027	3.027	3.018	3.032	3.032	3.032
0.029	0.024	0.000	-0.010	-0.005	-0.005	0.024	3.965	3.022	3.027	3.022	3.032	3.032	3.027
0.010	0.024	0.000	-0.020	0.000	-0.005	0.029	3.970	3.013	3.018	3.018	3.032	3.032	3.032
0.005	0.010	0.005	-0.005	0.005	0.010	0.024	3.975	3.013	3.013	3.018	3.037	3.032	3.032
-0.005	0.000	0.010	-0.005	0.000	0.000	0.029	3.950	3.008	3.008	3.018	3.037	3.032	3.032
-0.029	-0.005	0.010	0.005	0.005	0.005	0.029	3.965	3.003	3.003	3.013	3.037	3.032	3.037
-0.039	-0.029	0.010	0.005	0.000	0.010	0.029	3.970	3.003	2.993	3.008	3.037	3.032	3.037
-0.034	-0.015	0.000	0.010	0.005	0.000	0.029	3.965	3.013	3.003	3.003	3.032	3.027	3.032
-0.024	-0.024	-0.005	0.000	0.005	-0.005	0.029	3.965	3.018	3.003	2.998	3.027	3.027	3.027
-0.024	-0.029	-0.005	0.000	0.005	0.000	0.029	3.965	3.018	3.003	2.998	3.022	3.022	3.027
-0.015	-0.034	-0.005	0.010	0.010	-0.005	0.029	3.955	3.022	3.008	2.998	3.022	3.022	3.027
-0.010	-0.024	-0.005	0.010	0.005	0.000	0.029	3.979	3.022	3.013	3.003	3.022	3.022	3.032
-0.015	-0.010	-0.005	0.005	0.005	0.000	0.029	3.950	3.018	3.018	3.008	3.022	3.022	3.027
-0.015	0.000	0.000	0.005	-0.005	0.005	0.024	3.975	3.022	3.022	3.013	3.027	3.018	3.027
-0.005	0.000	0.000	0.000	0.000	0.005	0.029	3.965	3.022	3.022	3.018	3.027	3.022	3.027
-0.015	0.005	0.005	0.000	0.005	0.005	0.029	3.979	3.022	3.022	3.018	3.027	3.022	3.027
-0.010	-0.020	0.010	0.010	0.015	-0.005	0.029	3.960	3.018	3.018	3.018	3.032	3.027	3.022
-0.020	0.000	0.005	0.000	0.005	-0.010	0.029	3.975	3.022	3.022	3.018	3.032	3.027	3.027
-0.015	0.005	0.010	0.000	0.010	0.000	0.029	3.960	3.022	3.022	3.018	3.032	3.027	3.027
0.010	0.010	0.005	-0.005	0.015	0.000	0.029	3.975	3.027	3.027	3.018	3.032	3.032	3.027
0.005	0.020	0.005	-0.005	0.000	0.005	0.029	3.965	3.027	3.027	3.022	3.032	3.027	3.027
0.010	0.034	0.000	-0.005	0.000	0.010	0.024	3.965	3.022	3.032	3.022	3.032	3.027	3.032
0.005	0.005	0.000	0.000	-0.005	0.005	0.029	3.960	3.013	3.013	3.018	3.032	3.027	3.027
-0.059	0.029	0.005	-0.005	-0.015	0.000	0.024	3.960	2.993	3.018	3.018	3.032	3.022	3.027
-0.112	0.044	0.000	-0.005	-0.010	-0.015	0.029	3.965	2.988	3.008	3.013	3.032	3.027	3.022
-0.083	0.005	0.000	-0.005	-0.015	0.015	0.029	3.960	3.003	2.998	3.008	3.032	3.027	3.032
-0.049	0.000	0.000	-0.010	0.005	-0.005	0.029	3.960	3.018	2.998	3.003	3.027	3.032	3.027
0.005	-0.010	-0.005	0.015	0.024	0.000	0.029	3.970	3.037	3.008	3.003	3.037	3.032	3.032
0.054	-0.020	-0.005	0.029	0.005	0.000	0.024	3.965	3.042	3.018	3.008	3.032	3.027	3.032
0.054	-0.020	-0.005	0.020	-0.020	0.010	0.029	3.984	3.042	3.022	3.013	3.032	3.022	3.032
0.093	-0.024	-0.005	0.010	-0.054	-0.005	0.029	3.936	3.042	3.027	3.013	3.027	3.013	3.022
0.112	-0.010	0.000	-0.015	-0.049	0.020	0.024	3.960	3.042	3.037	3.018	3.022	3.018	3.027
0.112	-0.015	0.000	-0.029	-0.049	0.000	0.024	3.975	3.032	3.032	3.022	3.022	3.018	3.022
0.103	-0.015	0.000	-0.034	-0.049	0.005	0.024	3.975	3.032	3.032	3.022	3.027	3.018	3.022
0.093	0.000	0.000	-0.029	-0.054	-0.015	0.024	3.955	3.022	3.032	3.022	3.032	3.018	3.018
0.059	-0.020	0.000	-0.015	-0.073	-0.010	0.024	3.975	3.008	3.018	3.027	3.037	3.018	3.013
0.034	-0.015	-0.005	-0.005	-0.083	0.000	0.029	3.960	3.003	3.018	3.018	3.042	3.018	3.022
-0.020	-0.010	-0.005	-0.005	-0.083	-0.010	0.029	3.970	2.993	3.008	3.018	3.037	3.022	3.022
-0.034	0.000	0.000	-0.005	-0.054	-0.020	0.029	3.965	2.993	3.003	3.013	3.037	3.032	3.018
-0.034	-0.005	0.005	0.000	0.015	-0.020	0.029	3.965	2.998	3.003	3.013	3.042	3.057	3.032
-0.059	0.020	0.005	0.010	0.137	-0.015	0.029	3.965	2.993	3.008	3.008	3.042	3.081	3.052
-0.093	0.029	0.005	0.020	0.210	-0.020	0.029	3.970	2.993	3.008	3.008	3.042	3.086	3.062
-0.083	0.034	0.010	0.034	0.244	-0.005	0.029	3.965	3.003	3.003	3.008	3.042	3.086	3.071
-0.112	0.024	0.010	0.034	0.278	0.000	0.024	3.970	3.008	3.003	3.003	3.037	3.081	3.081
-0.054	0.039	0.010	0.034	0.288	0.029	0.024	3.955	3.037	3.018	3.008	3.037	3.071	3.086
0.020	0.054	0.005	0.034	0.269	0.049	0.029	3.975	3.062	3.032	3.013	3.032	3.052	3.076
0.063	0.059	0.005	0.029	0.161	0.059	0.024	3.970	3.066	3.047	3.022	3.032	3.018	3.066
0.078	0.054	0.000	0.020	0.059	0.054	0.024	3.955	3.057	3.047	3.022	3.027	2.993	3.042
0.078	0.044	0.000	0.015	-0.029	0.049	0.029	3.970	3.052	3.047	3.032	3.027	2.979	3.022
0.073	0.029	0.005	0.010	-0.078	0.029	0.029	3.970	3.042	3.037	3.027	3.032	2.979	3.003
0.063	-0.005	-0.005	0.000	-0.103	0.029	0.029	3.960	3.027	3.027	3.022	3.032	2.983	2.998
0.049	-0.010	0.005	-0.010	-0.127	0.015	0.029	3.965	3.018	3.018	3.027	3.032	2.988	2.993
0.005	-0.034	0.000	-0.010	-0.132	-0.010	0.029	3.965	3.003	3.008	3.018	3.032	2.998	2.983
-0.010	-0.044	-0.005	-0.015	-0.137	0.005	0.029	3.960	2.993	2.998	3.013	3.027	3.008	2.993
-0.010	-0.049	-0.010	-0.020	-0.122	-0.029	0.029	3.965	2.998	2.993	3.003	3.027	3.013	2.993
-0.020	-0.059	0.005	-0.015	-0.098	-0.005	0.024	3.960	2.998	2.993	3.003	3.027	3.022	3.008
-0.020	-0.039	0.000	-0.029	-0.068	0.000	0.029	3.975	3.008	2.998	3.003	3.022	3.027	3.018
-0.020	-0.039	-0.005	-0.029	-0.049	-0.020	0.029	3.965	3.008	3.003	2.998	3.022	3.032	3.018
-0.083	-0.020	0.000	-0.024	-0.029	-0.020	0.029	3.970	2.988	2.998	3.003	3.022	3.032	3.022
-0.088	0.005	-0.005	0.000	-0.010	-0.010	0.024	3.950	2.993	3.008	3.003	3.027	3.037	3.032
-0.073	0.015	0.000	0.015	-0.010	-0.029	0.029	3.965	3.008	3.013	3.008	3.027	3.032	3.022
-0.049	0.020	0.000	0.015	-0.020	-0.020	0.029	3.950	3.018	3.013	3.008	3.027	3.027	3.027
-0.024	0.015	0.000	0.020	-0.020	-0.020	0.024	3.979	3.022	3.018	3.008	3.027	3.027	3.032
-0.015	0.020	0.005	0.005	-0.024	-0.015	0.029	3.960	3.027	3.022	3.013	3.022	3.027	3.032
0.000	0.024	0.005	0.005	-0.034	-0.029	0.024	3.965	3.027	3.022	3.013	3.027	3.022	3.022
-0.005	0.015	0.000	0.015	-0.034	0.000	0.024	3.970	3.022	3.022	3.013	3.032	3.022	3.032
0.034	0.000	0.005	0.000	-0.029	0.005	0.029	3.965	3.032	3.022	3.018	3.027	3.027	3.032
0.024	0.000	0.000	-0.005	-0.020	-0.005	0.029	3.965	3.027	3.022	3.018	3.027	3.027	3.032
0.020	-0.005	-0.005	-0.010	-0.010	-0.005	0.029	3.970	3.022	3.018	3.018	3.027	3.027	3.032
0.024	-0.020	-0.005	-0.015	0.000	0.000	0.029	3.970	3.022	3.018	3.013	3.027	3.032	3.032
0.024	-0.005	-0.005	-0.005	0.015	0.000	0.029	3.950	3.018	3.022	3.018	3.032	3.032	3.032
0.010	-0.015	0.000	0.000	0.024	-0.005	0.029	3.960	3.018	3.018	3.013	3.032	3.032	3.037
0.020	-0.015	-0.005	0.005	0.024	0.000	0.029	3.960	3.022	3.013	3.013	3.032	3.037	3.037
0.049	-0.029	0.000	0.005	0.029	0.005	0.024	3.965	3.022	3.018	3.013	3.032	3.032	3.037
0.034	-0.029	-0.005	0.005	0.020	0.015	0.029	3.970	3.018	3.018	3.013	3.032	3.027	3.037
-0.015	-0.020	0.005	0.005	0.005	0.000	0.029	3.979	3.008	3.013	3.013	3.032	3.022	3.027
-0.010	-0.020	0.005	0.000	-0.010	0.000	0.029	3.979	3.013	3.013	3.013	3.027	3.022	3.027
0.000	-0.020	0.000	0.000	0.010	0.000	0.024	3.975	3.018	3.013	3.008	3.027	3.027	3.027
0.024	-0.010	-0.020	0.010	0.000	0.000	0.029	3.970	3.027	3.022	3.008	3.027	3.022	3.027
0.029	0.005	-0.005	0.005	-0.015	0.010	0.029	3.975	3.027	3.027	3.018	3.032	3.022	3.027
