0.005	-0.010	0.000	0.000	0.000	0.020	0.039	2.710	2.495	2.129	2.041	1.953	1.963	1.953
0.010	-0.005	0.005	0.005	0.000	0.005	0.034	2.651	2.344	2.192	2.080	1.992	1.963	1.948
0.010	-0.005	0.005	0.000	-0.005	0.005	0.039	2.666	2.231	2.202	2.114	2.031	1.982	1.958
0.015	-0.005	0.010	0.005	0.000	0.005	0.034	2.686	2.158	2.192	2.139	2.065	2.007	1.973
0.010	0.000	0.005	0.000	0.010	-0.005	0.034	2.700	2.100	2.173	2.148	2.095	2.026	1.982
0.000	-0.005	0.005	0.000	0.005	-0.015	0.039	2.681	2.056	2.139	2.144	2.109	2.046	1.997
0.010	0.005	0.010	0.005	0.000	-0.005	0.039	2.695	2.031	2.109	2.139	2.124	2.065	2.017
0.010	0.015	0.005	0.005	0.005	-0.010	0.039	2.671	2.012	2.085	2.124	2.129	2.085	2.036
0.005	-0.020	0.000	0.005	-0.010	-0.024	0.039	2.700	1.997	2.051	2.100	2.129	2.090	2.046
0.000	-0.015	0.005	0.000	-0.005	-0.015	0.039	2.705	1.992	2.036	2.085	2.119	2.100	2.061
-0.005	-0.005	0.000	0.005	0.005	0.015	0.039	2.671	1.987	2.026	2.070	2.109	2.109	2.080
-0.010	0.000	-0.005	0.000	0.005	0.020	0.034	2.695	1.987	2.017	2.056	2.104	2.104	2.085
-0.010	0.024	0.000	0.005	0.000	0.010	0.034	2.686	1.992	2.017	2.041	2.095	2.100	2.090
-0.005	0.015	0.000	0.005	0.000	0.005	0.039	2.671	1.987	2.007	2.031	2.080	2.095	2.090
-0.005	0.005	-0.005	0.000	0.005	0.005	0.039	2.676	1.987	1.997	2.026	2.070	2.085	2.090
-0.005	0.005	0.000	0.000	0.005	0.015	0.039	2.700	1.992	1.997	2.017	2.061	2.080	2.085
0.005	0.000	0.005	0.000	0.010	-0.005	0.034	2.710	1.997	1.997	2.012	2.051	2.070	2.075
0.015	0.000	-0.005	0.005	0.005	-0.010	0.039	2.676	1.992	1.992	2.007	2.041	2.061	2.075
0.005	-0.010	0.000	0.000	0.005	-0.010	0.039	2.676	1.992	1.992	2.002	2.036	2.051	2.070
0.005	-0.005	0.005	0.000	0.005	0.000	0.039	2.671	1.992	1.997	1.997	2.031	2.046	2.065
0.015	0.000	0.000	0.000	0.005	-0.005	0.039	2.671	1.987	1.992	1.997	2.026	2.041	2.056
0.010	-0.005	0.005	0.005	0.000	0.015	0.039	2.686	1.987	1.992	1.992	2.026	2.031	2.051
0.010	0.000	0.005	0.005	0.005	0.005	0.034	2.666	1.982	1.992	1.992	2.017	2.026	2.046
0.010	0.000	0.005	0.000	0.005	0.020	0.039	2.686	1.987	1.992	1.992	2.017	2.021	2.041
0.005	0.000	0.005	0.000	0.000	0.024	0.039	2.686	1.982	1.987	1.987	2.012	2.021	2.031
0.000	0.005	0.000	0.005	-0.010	0.015	0.039	2.646	1.973	1.982	1.987	2.012	2.012	2.026
0.000	0.015	0.000	0.000	-0.005	0.005	0.039	2.681	1.978	1.987	1.987	2.007	2.012	2.021
-0.005	0.020	0.000	0.000	-0.005	0.010	0.034	2.661	1.973	1.982	1.987	2.007	2.007	2.017
-0.005	0.020	-0.005	0.005	-0.010	-0.005	0.039	2.661	1.968	1.982	1.982	2.002	2.007	2.012
0.000	0.015	-0.005	0.005	-0.005	-0.029	0.039	2.661	1.963	1.978	1.982	2.002	2.002	2.002
-0.015	0.015	-0.005	0.000	0.000	-0.010	0.039	2.690	1.963	1.968	1.978	2.002	2.007	2.007
-0.020	0.005	-0.005	0.000	0.005	0.005	0.039	2.651	1.963	1.968	1.973	1.997	2.002	2.012
-0.005	-0.005	0.000	0.000	0.010	0.010	0.034	2.695	1.968	1.968	1.973	1.997	2.002	2.012
0.005	-0.005	0.000	0.000	0.010	-0.005	0.039	2.705	1.978	1.963	1.973	1.997	1.997	2.002
0.010	-0.010	0.000	0.000	0.010	0.005	0.034	2.676	1.982	1.968	1.968	1.992	1.997	2.002
0.010	-0.010	0.005	0.000	0.000	0.000	0.034	2.646	1.973	1.968	1.968	1.992	1.992	2.002
0.010	-0.015	0.005	0.000	0.010	0.000	0.039	2.705	1.953	1.968	1.968	1.987	1.992	1.997
0.020	-0.005	0.005	0.000	0.000	-0.010	0.039	2.720	1.968	1.963	1.968	1.992	1.987	1.992
0.010	-0.010	0.010	0.000	-0.005	-0.010	0.039	2.622	1.953	1.958	1.968	1.987	1.987	1.992
0.000	0.000	0.000	0.005	0.005	0.005	0.039	2.656	1.953	1.958	1.963	1.987	1.987	1.992
0.005	0.000	0.005	0.005	0.005	0.005	0.034	2.632	1.953	1.958	1.963	1.982	1.982	1.992
0.000	0.000	0.005	0.005	0.005	-0.010	0.034	2.651	1.948	1.958	1.958	1.982	1.982	1.982
0.005	0.005	0.000	0.005	0.005	0.000	0.039	2.671	1.953	1.953	1.958	1.978	1.978	1.987
-0.005	0.005	0.000	-0.005	0.005	0.005	0.034	2.671	1.953	1.953	1.953	1.978	1.978	1.982
-0.010	0.005	-0.005	0.000	0.005	-0.015	0.039	2.661	1.948	1.953	1.948	1.973	1.978	1.978
-0.005	0.005	-0.005	0.005	0.005	-0.005	0.039	2.695	1.948	1.948	1.953	1.978	1.973	1.982
-0.020	0.005	-0.005	0.000	0.005	-0.010	0.039	2.710	1.953	1.948	1.953	1.973	1.973	1.978
-0.020	0.005	0.000	-0.005	0.000	0.010	0.034	2.700	1.958	1.953	1.948	1.973	1.973	1.978
-0.005	0.000	0.000	0.005	0.005	0.005	0.034	2.686	1.958	1.953	1.953	1.968	1.968	1.978
0.005	0.005	-0.005	0.000	0.000	0.010	0.039	2.695	1.963	1.958	1.953	1.973	1.973	1.973
0.000	0.005	0.000	-0.005	0.000	0.015	0.039	2.715	1.963	1.958	1.953	1.973	1.968	1.973
0.010	-0.005	0.000	0.000	0.000	0.010	0.034	2.686	1.958	1.953	1.958	1.973	1.968	1.973
0.015	-0.005	0.005	0.000	0.000	0.005	0.034	2.671	1.953	1.953	1.953	1.973	1.968	1.968
0.000	-0.005	0.005	0.000	0.000	0.010	0.039	2.676	1.948	1.948	1.948	1.973	1.963	1.973
0.010	-0.005	0.010	0.000	0.005	0.015	0.034	2.700	1.948	1.948	1.953	1.973	1.968	1.968
0.010	0.000	0.010	0.000	0.005	0.005	0.034	2.700	1.948	1.953	1.948	1.968	1.968	1.968
0.005	-0.005	0.005	0.005	0.005	-0.005	0.039	2.676	1.943	1.943	1.948	1.968	1.968	1.963
0.005	-0.010	0.005	0.005	0.005	0.000	0.039	2.676	1.943	1.948	1.948	1.968	1.963	1.963
0.005	0.000	0.000	0.005	-0.005	-0.010	0.039	2.710	1.943	1.948	1.943	1.963	1.958	1.958
0.000	0.005	0.000	0.005	-0.010	-0.029	0.039	2.695	1.938	1.948	1.943	1.963	1.958	1.958
0.000	0.010	-0.005	0.000	0.000	-0.005	0.039	2.700	1.938	1.943	1.943	1.963	1.963	1.963
-0.010	0.010	0.000	0.000	0.005	0.005	0.034	2.681	1.938	1.943	1.943	1.963	1.963	1.963
-0.015	0.015	-0.005	0.005	0.005	0.000	0.039	2.671	1.938	1.943	1.943	1.963	1.963	1.963
-0.005	0.020	-0.005	0.005	0.000	0.005	0.039	2.681	1.934	1.943	1.943	1.963	1.958	1.963
-0.005	0.005	0.005	0.005	-0.005	0.000	0.039	2.690	1.934	1.938	1.938	1.958	1.958	1.963
-0.005	0.010	0.000	0.000	0.000	0.015	0.034	2.646	1.934	1.938	1.938	1.958	1.958	1.963
0.005	0.000	0.000	0.000	0.000	0.015	0.034	2.671	1.934	1.934	1.938	1.958	1.958	1.963
0.005	0.000	0.005	0.000	0.000	0.010	0.039	2.764	1.943	1.934	1.938	1.958	1.953	1.958
0.010	-0.005	0.005	-0.005	0.005	0.005	0.034	2.661	1.938	1.934	1.934	1.953	1.953	1.958
0.005	0.005	0.010	0.000	0.005	0.005	0.039	2.734	1.943	1.934	1.938	1.958	1.953	1.958
0.010	-0.005	0.005	0.005	0.005	-0.015	0.039	2.661	1.938	1.934	1.934	1.958	1.953	1.948
0.005	-0.010	0.005	0.000	0.000	0.010	0.034	2.651	1.929	1.929	1.934	1.953	1.948	1.953
0.010	-0.010	0.000	0.000	0.000	-0.005	0.034	2.695	1.924	1.929	1.929	1.948	1.948	1.948
0.010	-0.005	0.005	0.000	-0.005	-0.015	0.034	2.720	1.934	1.929	1.929	1.953	1.948	1.948
0.005	0.000	0.000	0.000	-0.005	0.010	0.034	2.812	1.948	1.934	1.929	1.948	1.948	1.948
0.000	0.000	-0.005	0.000	0.005	0.005	0.039	2.651	1.929	1.934	1.929	1.948	1.948	1.953
-0.010	-0.010	0.000	0.000	0.005	0.015	0.039	2.729	1.934	1.929	1.929	1.948	1.948	1.953
-0.005	-0.015	-0.005	0.005	0.000	0.015	0.039	2.720	1.938	1.929	1.929	1.948	1.948	1.948
-0.010	-0.010	-0.005	0.000	0.000	0.010	0.034	2.617	1.929	1.929	1.929	1.948	1.948	1.948
-0.005	0.005	-0.005	0.005	0.000	0.005	0.039	2.651	1.919	1.934	1.929	1.948	1.943	1.943
-0.005	0.010	-0.005	0.000	0.000	-0.010	0.039	2.725	1.929	1.929	1.929	1.943	1.943	1.943
-0.005	0.010	-0.005	0.000	0.000	0.000	0.039	2.671	1.929	1.929	1.929	1.948	1.943	1.943
-0.005	0.005	0.005	0.000	0.000	-0.020	0.034	2.671	1.929	1.929	1.929	1.948	1.943	1.938
0.005	0.000	0.000	0.005	0.005	0.005	0.039	2.690	1.929	1.924	1.929	1.948	1.948	1.943
0.010	0.005	0.005	0.000	0.000	0.000	0.034	2.700	1.929	1.929	1.929	1.948	1.943	1.943
0.000	0.005	0.005	0.000	0.005	0.010	0.034	2.666	1.924	1.924	1.924	1.948	1.943	1.943
0.010	0.000	0.010	0.005	0.000	-0.015	0.034	2.695	1.924	1.924	1.929	1.943	1.938	1.938
0.005	0.010	0.005	0.000	0.000	0.005	0.039	2.695	1.924	1.924	1.924	1.943	1.943	1.943
0.010	0.005	0.005	0.000	0.005	0.010	0.039	2.700	1.924	1.919	1.919	1.943	1.943	1.943
0.005	-0.015	0.005	0.000	0.005	0.010	0.039	2.661	1.919	1.914	1.919	1.943	1.943	1.943
0.005	-0.005	0.005	0.005	0.000	0.005	0.039	2.695	1.919	1.924	1.919	1.938	1.938	1.938
0.000	0.000	0.005	0.005	0.005	0.005	0.039	2.686	1.919	1.919	1.919	1.938	1.938	1.938
-0.005	0.010	0.000	0.005	0.005	0.000	0.034	2.676	1.914	1.924	1.919	1.938	1.938	1.938
-0.005	0.015	-0.005	0.000	-0.005	-0.010	0.039	2.710	1.919	1.924	1.919	1.938	1.934	1.934
-0.005	0.039	0.000	0.000	-0.005	-0.005	0.039	2.700	1.919	1.924	1.919	1.938	1.934	1.934
0.000	0.020	-0.005	0.000	0.000	0.015	0.034	2.705	1.924	1.919	1.919	1.934	1.934	1.938
-0.010	0.000	0.005	-0.005	-0.005	0.000	0.034	2.710	1.924	1.914	1.919	1.938	1.934	1.934
-0.015	0.024	0.000	-0.005	-0.005	0.005	0.039	2.690	1.924	1.919	1.919	1.938	1.934	1.934
-0.015	-0.015	0.000	0.000	0.005	-0.010	0.039	2.705	1.924	1.914	1.914	1.938	1.934	1.934
0.000	-0.015	-0.005	0.000	0.000	0.010	0.039	2.671	1.919	1.914	1.914	1.938	1.934	1.938
0.010	0.010	0.000	0.000	0.005	0.005	0.039	2.700	1.924	1.924	1.919	1.934	1.934	1.934
0.005	0.010	0.005	0.005	-0.005	0.000	0.039	2.681	1.924	1.919	1.919	1.938	1.929	1.934
-0.005	0.000	0.010	0.000	0.005	0.005	0.039	2.676	1.914	1.914	1.919	1.934	1.934	1.934
0.010	0.005	0.005	0.000	0.000	-0.005	0.039	2.681	1.914	1.919	1.919	1.934	1.929	1.929
0.010	0.005	0.010	0.000	0.005	-0.005	0.039	2.681	1.909	1.919	1.919	1.934	1.934	1.934
0.005	0.000	0.005	0.000	0.010	-0.029	0.039	2.642	1.909	1.914	1.914	1.934	1.934	1.924
-0.010	-0.005	0.000	0.000	0.000	-0.005	0.034	2.681	1.909	1.904	1.909	1.934	1.929	1.934
0.005	-0.005	0.005	0.000	0.005	0.005	0.034	2.646	1.904	1.904	1.909	1.934	1.929	1.934
0.005	-0.005	0.000	0.000	0.000	0.005	0.034	2.661	1.904	1.904	1.909	1.929	1.929	1.929
0.005	0.010	0.000	0.000	0.010	-0.029	0.039	2.632	1.899	1.909	1.904	1.929	1.929	1.924
-0.005	0.000	0.000	0.000	0.000	0.000	0.034	2.656	1.899	1.904	1.904	1.929	1.924	1.929
0.000	0.000	-0.005	0.000	0.010	0.005	0.039	2.681	1.904	1.899	1.899	1.924	1.929	1.929
-0.010	0.000	0.000	0.000	0.000	0.010	0.039	2.686	1.899	1.904	1.904	1.924	1.924	1.929
0.000	0.000	-0.005	0.000	0.000	0.020	0.039	2.720	1.914	1.904	1.904	1.924	1.919	1.929
-0.010	0.005	0.000	0.005	0.005	0.005	0.034	2.690	1.924	1.909	1.904	1.924	1.919	1.919
0.005	0.010	0.000	0.000	-0.005	0.000	0.039	2.642	1.919	1.914	1.909	1.924	1.919	1.919
-0.005	0.005	0.000	0.000	-0.005	-0.010	0.039	2.734	1.919	1.914	1.909	1.924	1.919	1.919
0.005	0.000	0.005	0.005	0.000	0.005	0.039	2.710	1.919	1.914	1.909	1.924	1.919	1.924
0.010	-0.005	-0.005	0.005	0.000	0.010	0.039	2.744	1.909	1.914	1.909	1.924	1.919	1.924
0.000	0.000	0.005	0.005	0.000	0.005	0.039	2.729	1.909	1.909	1.909	1.924	1.919	1.924
0.010	-0.005	0.005	0.000	-0.005	0.005	0.034	2.622	1.919	1.909	1.909	1.924	1.919	1.919
0.005	-0.010	0.005	0.005	-0.005	-0.005	0.034	2.676	1.914	1.909	1.909	1.929	1.919	1.914
0.005	-0.005	0.005	0.005	0.005	0.010	0.039	2.666	1.904	1.909	1.904	1.929	1.924	1.924
0.005	-0.005	0.005	0.000	0.000	0.010	0.039	2.671	1.899	1.909	1.909	1.924	1.919	1.924
0.000	0.000	0.000	0.000	0.005	0.005	0.039	2.705	1.904	1.904	1.909	1.924	1.919	1.919
0.005	-0.015	0.000	0.005	0.000	0.000	0.039	2.671	1.904	1.904	1.904	1.924	1.919	1.919
0.005	0.000	0.000	0.005	0.005	0.000	0.039	2.695	1.904	1.904	1.904	1.924	1.924	1.919
0.000	0.010	-0.010	0.005	0.000	-0.010	0.034	2.666	1.899	1.904	1.899	1.924	1.919	1.919
-0.005	0.010	-0.010	0.000	0.005	0.000	0.034	2.700	1.904	1.904	1.904	1.924	1.919	1.919
-0.010	0.015	-0.010	0.000	0.000	0.000	0.039	2.681	1.899	1.909	1.904	1.924	1.919	1.924
-0.005	0.010	-0.005	0.005	0.005	-0.005	0.039	2.700	1.904	1.904	1.904	1.924	1.919	1.914
-0.010	0.015	0.000	0.005	0.005	-0.010	0.039	2.676	1.904	1.904	1.904	1.924	1.919	1.919
0.000	0.005	-0.005	0.000	0.005	0.005	0.039	2.671	1.904	1.899	1.904	1.924	1.919	1.919
0.000	0.005	0.000	0.000	0.005	-0.010	0.034	2.686	1.904	1.899	1.904	1.924	1.919	1.919
0.005	-0.010	0.000	0.005	0.000	0.000	0.039	2.705	1.909	1.899	1.899	1.919	1.919	1.919
0.000	-0.005	0.000	0.000	0.000	0.024	0.034	2.710	1.909	1.904	1.899	1.919	1.914	1.924
0.005	-0.005	0.005	0.000	0.005	0.010	0.039	2.681	1.909	1.899	1.899	1.919	1.919	1.919
0.010	-0.005	0.010	0.005	0.000	0.015	0.039	2.676	1.909	1.904	1.904	1.919	1.914	1.914
0.015	-0.005	0.005	0.000	-0.005	-0.005	0.039	2.671	1.904	1.904	1.899	1.919	1.909	1.909
0.005	-0.005	0.005	0.005	0.000	-0.015	0.039	2.676	1.895	1.899	1.899	1.919	1.914	1.909
0.010	0.000	0.005	0.005	0.000	-0.020	0.039	2.661	1.895	1.899	1.899	1.919	1.914	1.909
0.005	0.000	-0.005	0.000	0.000	0.005	0.034	2.676	1.895	1.899	1.895	1.914	1.914	1.919
0.005	-0.005	0.005	0.000	-0.005	-0.010	0.034	2.671	1.895	1.895	1.899	1.914	1.914	1.914
-0.005	0.005	0.000	0.000	-0.005	-0.015	0.039	2.676	1.895	1.899	1.895	1.914	1.909	1.909
-0.010	0.010	0.000	0.000	0.000	0.000	0.039	2.686	1.899	1.895	1.895	1.914	1.914	1.914
-0.015	0.010	0.000	0.000	0.005	0.015	0.039	2.642	1.895	1.895	1.895	1.914	1.914	1.914
-0.010	0.015	-0.005	0.005	0.000	0.000	0.034	2.676	1.895	1.895	1.895	1.914	1.914	1.914
-0.015	0.005	0.000	0.000	0.005	0.005	0.034	2.725	1.909	1.895	1.895	1.914	1.914	1.914
-0.015	0.005	-0.005	0.000	0.005	0.005	0.034	2.656	1.909	1.899	1.895	1.914	1.909	1.914
-0.005	0.000	0.000	-0.005	0.005	-0.010	0.039	2.646	1.914	1.899	1.895	1.914	1.909	1.909
0.005	-0.005	0.000	0.000	0.005	0.005	0.039	2.651	1.909	1.904	1.899	1.914	1.909	1.914
0.010	0.000	0.005	0.005	0.005	0.000	0.039	2.661	1.899	1.904	1.899	1.914	1.914	1.909
0.005	-0.005	0.005	0.005	-0.010	0.010	0.034	2.671	1.899	1.899	1.899	1.919	1.909	1.909
0.010	0.000	0.005	0.005	-0.010	0.020	0.034	2.690	1.890	1.899	1.899	1.914	1.909	1.914
0.005	-0.005	0.010	0.005	0.000	0.024	0.039	2.808	1.904	1.895	1.899	1.914	1.914	1.914
0.005	-0.010	0.010	0.000	0.000	0.010	0.039	2.646	1.895	1.895	1.899	1.919	1.914	1.909
0.005	-0.005	0.010	0.000	0.015	0.005	0.039	2.749	1.904	1.895	1.895	1.914	1.914	1.909
0.005	0.000	0.000	0.005	0.010	-0.010	0.039	2.744	1.909	1.899	1.895	1.914	1.909	1.904
0.015	0.000	0.000	0.010	0.005	-0.020	0.039	2.651	1.899	1.899	1.895	1.914	1.909	1.904
-0.005	0.010	-0.005	0.000	-0.005	-0.024	0.034	2.651	1.890	1.899	1.895	1.909	1.904	1.899
-0.020	0.010	0.000	0.000	-0.010	-0.005	0.039	2.705	1.890	1.895	1.895	1.914	1.909	1.909
-0.010	0.010	-0.005	0.000	0.005	0.005	0.039	2.681	1.895	1.895	1.895	1.914	1.909	1.914
-0.005	0.010	0.000	-0.005	0.005	0.005	0.039	2.676	1.899	1.899	1.895	1.909	1.909	1.909
-0.015	0.005	-0.005	0.005	0.000	0.005	0.039	2.695	1.895	1.895	1.895	1.909	1.909	1.914
-0.010	0.015	0.000	0.000	-0.005	0.000	0.034	2.705	1.899	1.895	1.899	1.914	1.904	1.909
-0.010	0.015	0.000	0.000	0.000	-0.020	0.034	2.705	1.904	1.895	1.895	1.914	1.909	1.904
0.000	-0.005	0.000	0.000	0.005	0.005	0.039	2.700	1.899	1.890	1.895	1.909	1.909	1.914
0.000	-0.010	0.005	0.000	0.005	0.000	0.039	2.695	1.899	1.890	1.895	1.914	1.909	1.909
0.000	-0.005	0.005	0.000	0.000	0.010	0.039	2.695	1.899	1.895	1.895	1.914	1.909	1.914
0.015	0.000	0.005	0.000	0.000	-0.005	0.039	2.700	1.904	1.904	1.895	1.909	1.909	1.909
0.015	0.000	0.005	0.005	0.000	0.015	0.039	2.695	1.904	1.899	1.895	1.914	1.909	1.909
0.020	0.005	0.010	0.005	0.000	0.005	0.039	2.676	1.899	1.899	1.899	1.914	1.909	1.909
0.010	-0.005	0.005	0.000	0.000	0.005	0.034	2.671	1.890	1.895	1.895	1.914	1.909	1.909
0.005	-0.005	0.005	0.000	0.005	-0.020	0.039	2.681	1.895	1.895	1.895	1.909	1.909	1.899
0.005	0.000	0.005	0.000	0.000	0.010	0.039	2.700	1.895	1.895	1.895	1.909	1.904	1.909
0.000	0.000	0.000	0.000	0.000	0.005	0.039	2.661	1.890	1.890	1.890	1.909	1.909	1.909
0.005	0.000	-0.005	0.005	0.010	-0.005	0.039	2.671	1.890	1.890	1.890	1.909	1.909	1.909
-0.005	0.010	0.000	0.000	0.000	0.010	0.039	2.690	1.890	1.895	1.890	1.909	1.909	1.909
-0.005	0.005	-0.005	0.000	0.005	0.000	0.039	2.656	1.885	1.890	1.890	1.909	1.904	1.904
-0.010	0.005	-0.005	0.000	0.010	0.000	0.039	2.705	1.890	1.890	1.890	1.909	1.909	1.904
-0.010	0.015	-0.005	0.000	0.010	0.005	0.039	2.705	1.895	1.890	1.890	1.909	1.904	1.909
-0.005	0.010	0.005	0.000	0.005	0.015	0.039	2.681	1.895	1.895	1.890	1.909	1.904	1.909
-0.005	0.010	0.000	0.005	-0.005	0.005	0.034	2.690	1.895	1.895	1.895	1.909	1.899	1.904
0.005	0.005	0.005	0.005	-0.005	0.005	0.039	2.686	1.895	1.890	1.890	1.914	1.904	1.904
0.005	-0.005	0.010	0.005	0.000	-0.005	0.039	2.695	1.899	1.890	1.890	1.909	1.904	1.899
0.005	-0.010	0.005	0.005	0.000	0.000	0.039	2.642	1.885	1.890	1.890	1.909	1.904	1.899
0.010	-0.015	0.010	-0.005	-0.010	-0.020	0.039	2.676	1.890	1.885	1.890	1.909	1.899	1.895
0.010	-0.024	0.005	0.000	0.000	-0.005	0.039	2.642	1.895	1.885	1.885	1.904	1.904	1.904
0.010	-0.005	0.000	0.000	0.000	0.000	0.039	2.651	1.895	1.895	1.885	1.904	1.904	1.904
0.010	-0.005	0.005	0.000	0.000	0.005	0.039	2.720	1.895	1.895	1.890	1.904	1.904	1.909
0.015	-0.010	0.000	0.000	0.010	0.005	0.039	2.656	1.890	1.890	1.890	1.904	1.904	1.904
-0.005	-0.015	0.000	0.000	0.005	0.000	0.034	2.666	1.885	1.890	1.885	1.904	1.904	1.899
-0.005	0.005	0.000	0.000	-0.005	0.005	0.039	2.695	1.890	1.890	1.890	1.904	1.899	1.899
-0.005	0.005	0.005	0.000	-0.005	0.000	0.039	2.627	1.880	1.890	1.890	1.909	1.899	1.899
-0.010	0.010	-0.005	0.005	0.005	0.010	0.039	2.715	1.890	1.890	1.890	1.904	1.904	1.904
-0.005	0.005	-0.010	0.000	0.000	0.010	0.039	2.651	1.890	1.890	1.890	1.909	1.899	1.899
0.000	0.005	-0.005	0.000	0.000	-0.005	0.039	2.715	1.895	1.890	1.890	1.904	1.899	1.899
-0.005	0.015	0.000	0.005	0.005	0.005	0.039	2.754	1.899	1.890	1.890	1.904	1.904	1.899
0.000	0.005	0.000	0.000	0.005	0.005	0.039	2.686	1.890	1.890	1.890	1.904	1.904	1.904
0.005	0.024	0.000	0.000	0.005	-0.005	0.034	2.656	1.890	1.895	1.890	1.909	1.904	1.904
0.000	0.024	0.005	0.000	0.005	0.000	0.039	2.725	1.895	1.890	1.890	1.909	1.899	1.904
0.000	0.005	0.000	0.000	0.005	-0.010	0.039	2.651	1.890	1.885	1.890	1.909	1.904	1.904
0.005	0.000	0.000	0.005	0.015	0.000	0.039	2.661	1.885	1.885	1.885	1.909	1.904	1.904
0.005	-0.005	0.000	0.000	0.010	-0.005	0.039	2.695	1.890	1.885	1.885	1.904	1.904	1.899
0.010	-0.010	0.005	0.005	0.005	0.000	0.039	2.690	1.890	1.885	1.885	1.904	1.899	1.904
0.015	-0.005	0.005	0.005	0.005	0.005	0.034	2.695	1.895	1.885	1.885	1.904	1.899	1.904
0.000	0.005	0.005	0.005	-0.005	0.000	0.039	2.700	1.890	1.890	1.885	1.904	1.899	1.899
0.000	-0.005	0.000	0.005	-0.005	-0.024	0.039	2.705	1.890	1.885	1.880	1.904	1.899	1.895
0.015	0.005	0.005	0.000	0.000	0.000	0.039	2.690	1.895	1.890	1.885	1.899	1.899	1.899
0.000	0.010	0.000	0.000	0.000	-0.005	0.039	2.700	1.890	1.890	1.885	1.904	1.899	1.899
-0.010	0.010	0.000	0.005	-0.005	0.010	0.039	2.681	1.885	1.890	1.885	1.904	1.899	1.899
-0.005	0.000	-0.005	-0.005	0.000	0.010	0.039	2.705	1.890	1.885	1.885	1.904	1.899	1.899
-0.020	0.010	-0.005	0.000	0.005	0.000	0.039	2.700	1.890	1.885	1.885	1.904	1.899	1.899
-0.015	0.005	0.000	0.005	0.005	-0.024	0.039	2.676	1.890	1.885	1.885	1.904	1.899	1.895
-0.005	-0.005	0.000	0.005	0.000	0.005	0.039	2.656	1.885	1.885	1.885	1.904	1.895	1.899
0.000	0.000	0.000	0.000	0.005	0.015	0.034	2.710	1.895	1.885	1.885	1.904	1.899	1.904
0.000	-0.005	0.000	0.000	0.005	0.015	0.039	2.671	1.890	1.890	1.885	1.904	1.899	1.904
0.005	0.000	0.000	0.005	0.005	0.005	0.034	2.671	1.885	1.890	1.890	1.904	1.899	1.895
0.015	0.015	0.005	0.000	0.000	0.010	0.039	2.676	1.890	1.890	1.885	1.904	1.899	1.899
0.010	0.005	0.010	0.000	0.000	-0.024	0.039	2.700	1.895	1.890	1.885	1.904	1.899	1.890
0.005	0.000	0.005	0.005	-0.005	-0.005	0.039	2.676	1.890	1.885	1.885	1.909	1.899	1.895
0.010	-0.005	0.005	0.000	-0.005	0.005	0.039	2.681	1.885	1.880	1.885	1.904	1.899	1.899
0.005	-0.010	0.000	0.000	-0.005	0.015	0.039	2.671	1.885	1.880	1.880	1.904	1.899	1.899
0.010	-0.005	0.005	0.005	0.000	0.005	0.034	2.681	1.885	1.885	1.885	1.904	1.899	1.899
-0.005	0.010	0.000	0.000	0.005	0.005	0.039	2.686	1.885	1.885	1.880	1.899	1.899	1.899
0.000	0.010	0.005	0.000	0.000	0.000	0.039	2.642	1.885	1.885	1.880	1.899	1.899	1.895
0.000	0.005	0.000	0.000	0.005	0.015	0.039	2.676	1.880	1.880	1.880	1.904	1.899	1.899
-0.005	0.015	0.000	0.000	0.005	-0.005	0.039	2.646	1.895	1.885	1.880	1.899	1.899	1.895
-0.005	0.015	-0.005	0.000	0.005	0.005	0.039	2.651	1.890	1.885	1.885	1.899	1.899	1.899
-0.005	0.005	0.000	0.000	0.000	0.000	0.034	2.637	1.890	1.885	1.885	1.899	1.895	1.895
-0.005	0.000	0.000	0.000	0.005	0.010	0.039	2.666	1.890	1.885	1.880	1.904	1.895	1.899
-0.024	0.015	-0.005	0.000	0.005	0.005	0.039	2.637	1.880	1.885	1.880	1.904	1.895	1.895
-0.005	0.005	0.000	0.000	-0.015	0.005	0.039	2.690	1.890	1.880	1.885	1.904	1.890	1.895
0.000	-0.005	0.000	0.000	-0.010	0.000	0.039	2.749	1.875	1.875	1.880	1.904	1.895	1.895
0.005	-0.020	0.005	0.000	0.000	0.010	0.034	2.778	1.890	1.875	1.880	1.899	1.899	1.895
0.010	0.005	0.000	0.000	0.010	0.005	0.039	2.637	1.890	1.890	1.880	1.899	1.899	1.899
0.005	-0.005	0.005	0.005	0.000	0.005	0.039	2.734	1.895	1.885	1.885	1.899	1.895	1.895
0.010	-0.024	0.010	0.000	-0.005	-0.010	0.039	2.744	1.895	1.880	1.880	1.899	1.895	1.895
0.005	-0.015	0.005	0.000	0.010	0.000	0.039	2.651	1.885	1.885	1.880	1.899	1.899	1.895
0.015	-0.015	0.000	0.005	0.010	0.000	0.039	2.671	1.895	1.885	1.880	1.899	1.895	1.895
0.005	0.000	0.005	0.000	0.000	-0.005	0.039	2.710	1.895	1.890	1.885	1.899	1.895	1.890
0.000	0.005	0.000	0.000	0.000	0.000	0.039	2.666	1.885	1.890	1.880	1.899	1.895	1.895
0.000	0.015	0.000	0.005	0.005	0.005	0.039	2.671	1.880	1.895	1.885	1.899	1.895	1.895
0.000	0.024	0.000	0.000	0.005	0.005	0.039	2.705	1.890	1.890	1.885	1.904	1.895	1.895
-0.010	0.015	-0.005	0.005	0.005	0.005	0.039	2.700	1.885	1.890	1.885	1.899	1.895	1.895
-0.005	0.015	-0.010	0.000	-0.005	-0.020	0.039	2.700	1.885	1.885	1.885	1.904	1.895	1.890
-0.015	0.010	0.000	0.000	-0.005	0.010	0.039	2.700	1.885	1.885	1.885	1.899	1.895	1.899
-0.005	0.005	-0.005	0.005	0.005	0.010	0.039	2.676	1.885	1.885	1.885	1.904	1.899	1.899
-0.005	0.000	0.000	0.000	0.005	-0.010	0.039	2.705	1.890	1.885	1.885	1.904	1.899	1.890
-0.005	0.000	0.005	0.000	0.000	0.000	0.034	2.705	1.890	1.885	1.885	1.904	1.899	1.899
0.000	0.005	0.005	0.005	0.005	-0.005	0.039	2.690	1.890	1.885	1.880	1.904	1.899	1.899
0.005	-0.005	0.005	0.000	0.005	0.005	0.034	2.700	1.890	1.885	1.885	1.904	1.899	1.899
0.010	-0.010	0.005	0.000	0.005	0.005	0.039	2.676	1.890	1.885	1.885	1.904	1.899	1.899
0.015	-0.005	0.005	0.000	0.005	0.010	0.039	2.671	1.895	1.890	1.885	1.904	1.899	1.899
0.010	0.000	0.005	0.005	0.000	0.000	0.039	2.661	1.885	1.890	1.885	1.899	1.899	1.895
0.010	0.010	0.005	0.000	0.000	0.010	0.039	2.671	1.885	1.890	1.885	1.904	1.899	1.899
0.005	0.005	0.005	0.000	0.005	0.005	0.039	2.676	1.880	1.885	1.885	1.899	1.899	1.895
0.010	-0.010	0.005	0.000	-0.005	0.005	0.039	2.666	1.880	1.885	1.885	1.899	1.895	1.895
0.000	0.000	0.000	0.000	-0.005	0.005	0.039	2.695	1.875	1.880	1.880	1.899	1.895	1.895
0.000	0.010	-0.005	0.005	0.000	-0.020	0.039	2.671	1.875	1.880	1.880	1.899	1.895	1.890
-0.010	0.000	0.000	0.005	-0.005	0.000	0.039	2.681	1.880	1.880	1.875	1.899	1.895	1.890
-0.005	0.000	-0.010	0.005	0.000	0.010	0.039	2.681	1.880	1.880	1.875	1.899	1.895	1.899
-0.005	0.000	0.000	0.000	-0.005	0.010	0.039	2.705	1.885	1.880	1.875	1.899	1.895	1.899
-0.005	0.005	0.000	0.005	-0.005	-0.005	0.034	2.681	1.885	1.885	1.880	1.899	1.895	1.895
-0.010	0.005	-0.005	0.000	-0.005	-0.020	0.039	2.690	1.885	1.880	1.880	1.899	1.895	1.890
-0.005	-0.015	-0.005	0.000	0.005	0.010	0.039	2.646	1.880	1.875	1.880	1.895	1.895	1.895
-0.005	-0.015	0.000	0.000	-0.005	-0.005	0.039	2.666	1.880	1.875	1.875	1.899	1.890	1.895
0.005	-0.015	0.000	0.000	0.000	-0.005	0.039	2.783	1.895	1.880	1.880	1.899	1.890	1.895
0.000	-0.005	0.000	0.005	0.005	0.015	0.039	2.651	1.885	1.885	1.880	1.899	1.895	1.899
0.010	0.000	0.005	0.005	0.005	0.010	0.039	2.646	1.885	1.885	1.880	1.899	1.890	1.895
0.020	-0.005	0.005	0.000	0.005	0.010	0.034	2.681	1.885	1.880	1.880	1.899	1.895	1.895
0.010	0.000	0.005	0.000	0.000	0.010	0.039	2.734	1.895	1.890	1.880	1.899	1.895	1.895
0.005	0.010	0.005	0.005	0.010	0.005	0.039	2.671	1.890	1.890	1.885	1.899	1.895	1.890
0.010	0.005	0.010	0.005	0.000	0.005	0.039	2.651	1.880	1.885	1.885	1.899	1.895	1.890
0.005	0.015	0.000	0.005	0.005	-0.005	0.034	2.681	1.880	1.885	1.880	1.899	1.895	1.890
-0.005	-0.005	0.000	0.005	-0.005	-0.010	0.039	2.661	1.880	1.880	1.880	1.899	1.890	1.885
-0.005	0.020	0.000	0.000	0.005	-0.005	0.039	2.700	1.880	1.885	1.880	1.899	1.895	1.890
-0.015	0.024	0.000	0.005	0.005	0.005	0.039	2.734	1.885	1.885	1.880	1.899	1.895	1.895
-0.005	0.020	-0.005	0.000	-0.005	0.000	0.039	2.642	1.885	1.885	1.880	1.899	1.895	1.890
-0.010	0.020	-0.005	0.000	-0.005	0.010	0.039	2.734	1.880	1.880	1.880	1.899	1.895	1.895
-0.005	0.010	0.000	0.000	0.000	0.005	0.034	2.754	1.885	1.880	1.880	1.899	1.895	1.895
-0.005	0.005	-0.005	0.000	0.000	0.000	0.039	2.646	1.875	1.875	1.880	1.899	1.895	1.895
-0.005	0.000	0.000	0.005	0.005	0.000	0.039	2.671	1.875	1.875	1.880	1.899	1.899	1.895
0.000	0.005	-0.005	0.000	0.000	-0.020	0.039	2.666	1.880	1.875	1.875	1.899	1.895	1.890
0.000	0.000	0.000	0.000	0.005	0.005	0.039	2.681	1.880	1.875	1.880	1.895	1.895	1.895
0.005	-0.010	0.000	0.000	0.010	-0.015	0.039	2.671	1.880	1.875	1.875	1.895	1.895	1.890
0.015	-0.005	0.010	0.000	0.010	0.015	0.034	2.695	1.885	1.880	1.875	1.895	1.895	1.899
0.010	-0.005	0.010	0.000	0.010	0.010	0.039	2.671	1.885	1.880	1.875	1.895	1.895	1.895
0.010	0.000	0.005	0.000	0.000	0.010	0.039	2.705	1.885	1.880	1.875	1.895	1.890	1.895
0.015	0.000	0.005	0.000	0.010	0.005	0.039	2.705	1.890	1.880	1.875	1.895	1.890	1.890
0.010	-0.005	0.000	-0.005	0.010	-0.024	0.039	2.705	1.885	1.880	1.875	1.895	1.890	1.885
0.000	0.010	0.000	0.000	0.010	-0.010	0.039	2.676	1.880	1.885	1.880	1.895	1.890	1.890
-0.005	-0.010	0.000	0.000	0.010	-0.015	0.039	2.676	1.875	1.875	1.875	1.895	1.890	1.890
-0.005	-0.005	0.000	0.005	0.015	0.010	0.039	2.676	1.880	1.875	1.880	1.895	1.895	1.895
-0.005	-0.005	0.000	0.005	0.010	0.000	0.039	2.695	1.875	1.880	1.875	1.895	1.890	1.890
-0.010	0.000	-0.010	0.000	0.005	0.010	0.039	2.661	1.880	1.880	1.875	1.895	1.890	1.890
-0.010	0.000	0.000	0.000	0.010	-0.005	0.039	2.690	1.880	1.880	1.880	1.895	1.890	1.890
-0.005	-0.005	0.000	0.005	0.005	-0.005	0.034	2.686	1.880	1.880	1.875	1.895	1.890	1.890
0.000	0.010	0.000	0.005	0.005	-0.005	0.039	2.700	1.885	1.885	1.880	1.895	1.890	1.890
0.000	0.000	0.005	0.005	0.010	0.000	0.039	2.671	1.885	1.885	1.880	1.895	1.895	1.890
-0.005	0.000	0.000	0.000	0.010	-0.015	0.039	2.700	1.890	1.885	1.880	1.895	1.895	1.890
0.000	0.005	0.000	0.005	0.010	-0.005	0.039	2.676	1.890	1.885	1.880	1.899	1.890	1.885
0.010	0.000	0.000	0.005	0.005	0.000	0.039	2.681	1.885	1.880	1.880	1.899	1.895	1.890
0.005	0.010	0.010	0.000	0.000	-0.020	0.034	2.686	1.885	1.885	1.880	1.895	1.890	1.885
0.010	0.015	0.005	0.005	0.000	-0.020	0.039	2.690	1.885	1.885	1.880	1.899	1.890	1.885
0.015	0.015	0.005	0.010	-0.005	-0.024	0.039	2.642	1.880	1.885	1.880	1.899	1.890	1.885
0.005	0.005	0.005	0.005	0.000	0.000	0.039	2.676	1.875	1.880	1.880	1.895	1.895	1.895
0.010	0.000	0.000	0.000	0.000	0.000	0.034	2.627	1.890	1.880	1.880	1.895	1.895	1.895
0.000	0.005	-0.005	0.005	-0.005	0.010	0.039	2.651	1.880	1.880	1.880	1.895	1.895	1.895
0.000	0.010	0.000	0.000	-0.005	-0.005	0.034	2.632	1.875	1.880	1.880	1.895	1.890	1.890
-0.005	0.005	0.000	0.005	-0.005	0.005	0.039	2.656	1.875	1.875	1.880	1.895	1.890	1.895
-0.010	0.000	0.000	0.000	0.000	0.015	0.039	2.734	1.875	1.875	1.880	1.895	1.890	1.895
-0.010	0.005	-0.005	0.005	-0.005	0.010	0.039	2.666	1.875	1.875	1.875	1.895	1.890	1.895
-0.015	0.005	-0.005	0.005	-0.005	0.015	0.039	2.720	1.870	1.875	1.875	1.895	1.890	1.890
-0.015	0.000	-0.005	0.000	-0.005	0.000	0.034	2.803	1.890	1.875	1.875	1.895	1.890	1.890
0.000	-0.010	0.000	0.000	-0.005	0.000	0.034	2.642	1.890	1.875	1.875	1.895	1.890	1.890
0.000	-0.005	0.000	0.000	-0.010	0.010	0.039	2.646	1.880	1.880	1.875	1.895	1.890	1.890
0.010	-0.005	0.005	-0.005	0.000	0.010	0.039	2.720	1.890	1.880	1.875	1.895	1.890	1.890
0.010	-0.005	0.000	0.000	-0.010	0.010	0.039	2.720	1.890	1.885	1.875	1.895	1.890	1.895
0.015	-0.010	0.005	0.000	-0.015	0.015	0.039	2.656	1.890	1.880	1.880	1.895	1.885	1.895
0.020	-0.010	0.010	-0.005	-0.024	0.005	0.039	2.715	1.890	1.885	1.880	1.895	1.885	1.890
0.020	-0.005	0.005	0.000	-0.010	0.000	0.039	2.642	1.885	1.885	1.875	1.895	1.890	1.885
0.015	-0.010	0.000	0.000	-0.005	0.010	0.034	2.666	1.875	1.880	1.875	1.895	1.890	1.890
0.010	0.000	0.000	0.000	-0.005	0.010	0.039	2.656	1.880	1.880	1.875	1.895	1.890	1.890
0.000	0.000	0.000	-0.005	-0.005	0.015	0.039	2.705	1.875	1.880	1.880	1.895	1.890	1.895
-0.005	0.000	0.000	-0.005	0.000	0.010	0.039	2.666	1.880	1.875	1.875	1.895	1.895	1.890
0.000	0.005	-0.005	0.000	-0.005	-0.005	0.039	2.705	1.885	1.880	1.875	1.895	1.890	1.885
0.000	0.010	-0.005	0.000	-0.005	-0.010	0.039	2.676	1.880	1.885	1.875	1.895	1.890	1.885
-0.005	0.005	-0.005	0.000	-0.005	0.015	0.039	2.695	1.875	1.875	1.875	1.895	1.890	1.895
-0.010	-0.005	-0.005	0.000	0.000	-0.005	0.039	2.700	1.880	1.875	1.875	1.895	1.890	1.890
-0.005	0.010	-0.005	0.005	0.000	0.005	0.039	2.700	1.885	1.880	1.875	1.895	1.895	1.890
-0.015	0.000	0.000	0.005	0.005	0.005	0.039	2.681	1.880	1.880	1.875	1.895	1.895	1.895
0.000	-0.005	0.000	0.005	0.000	0.015	0.039	2.666	1.880	1.875	1.880	1.895	1.895	1.895
-0.005	0.005	0.000	0.005	0.005	0.010	0.039	2.676	1.890	1.885	1.880	1.899	1.895	1.890
0.005	0.000	0.005	0.005	0.005	0.000	0.034	2.695	1.890	1.885	1.880	1.899	1.890	1.885
0.005	-0.005	0.005	0.005	0.005	0.000	0.039	2.700	1.890	1.885	1.880	1.899	1.895	1.890
0.000	0.000	0.005	0.005	0.005	0.000	0.039	2.700	1.885	1.885	1.880	1.899	1.890	1.890
0.000	-0.005	0.005	0.000	0.005	-0.024	0.039	2.681	1.880	1.880	1.880	1.899	1.890	1.885
0.015	0.005	0.000	0.005	0.005	0.005	0.039	2.671	1.885	1.885	1.880	1.895	1.895	1.890
0.010	-0.005	0.005	0.005	0.000	-0.005	0.039	2.705	1.885	1.880	1.880	1.899	1.895	1.890
0.010	0.000	0.005	0.005	0.005	-0.005	0.039	2.671	1.880	1.880	1.880	1.899	1.895	1.890
0.000	0.005	0.000	0.005	0.005	-0.010	0.039	2.676	1.875	1.880	1.880	1.895	1.895	1.890
-0.005	0.010	-0.005	0.005	0.015	0.000	0.039	2.700	1.880	1.880	1.875	1.895	1.895	1.895
-0.005	0.010	0.000	0.000	0.010	-0.005	0.039	2.671	1.880	1.880	1.880	1.895	1.895	1.890
0.000	0.015	-0.005	0.005	0.000	0.000	0.039	2.686	1.880	1.885	1.875	1.895	1.890	1.895
-0.005	0.015	-0.005	0.000	0.005	0.000	0.039	2.642	1.875	1.880	1.875	1.895	1.895	1.895
-0.005	0.000	0.000	-0.005	0.000	0.010	0.034	2.676	1.875	1.875	1.875	1.895	1.890	1.895
-0.005	0.000	0.000	0.000	0.005	0.000	0.039	2.646	1.875	1.875	1.875	1.899	1.895	1.890
-0.010	-0.005	0.000	0.005	0.000	0.005	0.034	2.666	1.875	1.875	1.875	1.895	1.895	1.890
0.000	0.000	0.000	0.000	0.005	0.000	0.039	2.642	1.875	1.875	1.875	1.895	1.890	1.890
0.000	-0.015	0.005	0.000	0.005	-0.005	0.039	2.651	1.875	1.875	1.875	1.895	1.890	1.890
0.005	-0.005	0.005	0.000	0.000	-0.020	0.039	2.749	1.880	1.875	1.875	1.895	1.890	1.885
-0.005	-0.010	0.015	0.000	0.000	-0.020	0.039	2.695	1.880	1.875	1.875	1.895	1.890	1.885
0.015	0.000	0.010	0.000	0.000	0.005	0.039	2.739	1.890	1.880	1.875	1.895	1.890	1.890
0.005	-0.005	0.000	0.000	0.005	0.000	0.039	2.681	1.904	1.880	1.875	1.890	1.890	1.890
0.010	-0.010	0.010	0.005	0.005	0.010	0.039	2.651	1.899	1.885	1.880	1.895	1.890	1.895
0.010	-0.005	0.000	0.005	0.010	0.015	0.039	2.710	1.895	1.885	1.880	1.895	1.890	1.895
0.015	0.000	0.000	0.005	0.000	0.005	0.039	2.729	1.899	1.890	1.880	1.895	1.890	1.890
0.005	0.005	0.005	0.000	0.005	0.005	0.034	2.754	1.899	1.895	1.885	1.895	1.890	1.890
0.000	-0.005	0.000	0.005	0.000	-0.005	0.039	2.661	1.890	1.890	1.885	1.899	1.890	1.885
-0.010	0.010	0.000	0.005	0.005	-0.020	0.039	2.632	1.880	1.890	1.885	1.899	1.890	1.880
-0.010	0.010	-0.005	0.005	0.005	0.005	0.039	2.676	1.875	1.885	1.885	1.899	1.895	1.895
-0.010	0.020	-0.005	0.000	0.005	-0.015	0.034	2.676	1.880	1.885	1.885	1.899	1.895	1.885
-0.010	0.015	-0.005	0.000	0.000	0.010	0.039	2.695	1.880	1.880	1.880	1.904	1.895	1.895
-0.010	0.005	0.000	0.005	0.005	0.000	0.034	2.690	1.880	1.880	1.880	1.904	1.895	1.890
-0.005	0.010	-0.005	0.000	0.005	0.005	0.039	2.666	1.880	1.880	1.885	1.899	1.899	1.895
0.000	0.000	0.005	0.000	0.005	-0.010	0.039	2.695	1.885	1.875	1.880	1.904	1.895	1.890
0.000	0.000	0.000	0.005	-0.005	0.005	0.039	2.671	1.885	1.880	1.880	1.899	1.895	1.899
0.015	0.005	0.000	0.000	0.000	0.000	0.039	2.686	1.885	1.880	1.880	1.899	1.895	1.895
0.005	-0.005	0.005	0.000	0.005	0.010	0.034	2.671	1.880	1.875	1.880	1.899	1.895	1.895
0.010	-0.015	0.015	0.005	0.000	0.015	0.034	2.681	1.885	1.875	1.880	1.899	1.895	1.895
0.015	-0.015	0.010	0.000	0.000	0.010	0.034	2.651	1.880	1.875	1.875	1.895	1.895	1.895
0.015	-0.020	0.005	0.000	0.005	0.000	0.039	2.671	1.875	1.875	1.875	1.895	1.895	1.895
0.010	-0.020	0.000	0.000	0.005	0.000	0.039	2.681	1.875	1.875	1.875	1.895	1.895	1.890
0.005	-0.010	0.005	0.000	0.000	-0.010	0.039	2.690	1.880	1.880	1.875	1.890	1.890	1.890
-0.005	0.005	0.000	0.000	0.000	0.000	0.034	2.671	1.875	1.880	1.875	1.895	1.890	1.890
0.000	0.010	0.000	-0.005	0.000	0.010	0.034	2.715	1.885	1.880	1.875	1.895	1.890	1.895
-0.010	0.005	-0.005	0.000	0.000	0.015	0.039	2.666	1.875	1.880	1.875	1.895	1.890	1.895
-0.010	0.015	0.000	0.000	0.005	0.010	0.039	2.700	1.885	1.880	1.875	1.895	1.890	1.890
-0.010	0.015	-0.005	0.000	0.000	0.010	0.039	2.676	1.885	1.880	1.875	1.895	1.890	1.890
-0.005	0.015	-0.005	0.000	0.005	0.000	0.039	2.666	1.880	1.880	1.880	1.895	1.890	1.890
0.000	0.010	-0.005	0.005	0.000	0.015	0.034	2.671	1.880	1.880	1.880	1.895	1.890	1.895
-0.015	0.015	0.005	0.000	0.000	0.015	0.034	2.690	1.885	1.880	1.880	1.895	1.890	1.890
-0.005	0.010	0.005	0.000	0.010	-0.005	0.039	2.676	1.885	1.880	1.880	1.899	1.895	1.885
0.000	0.015	0.005	0.000	0.005	0.005	0.039	2.686	1.885	1.880	1.880	1.899	1.890	1.890
0.005	0.000	0.005	0.005	-0.005	-0.015	0.039	2.632	1.880	1.875	1.880	1.899	1.890	1.885
0.005	-0.005	0.005	0.000	0.005	-0.020	0.039	2.671	1.880	1.875	1.875	1.895	1.890	1.885
0.015	-0.005	0.010	0.000	0.000	-0.034	0.034	2.642	1.895	1.880	1.875	1.895	1.890	1.885
0.005	-0.005	0.010	0.000	0.000	-0.029	0.034	2.651	1.880	1.875	1.880	1.895	1.890	1.885
0.005	0.000	0.000	0.005	-0.010	-0.005	0.034	2.739	1.885	1.880	1.875	1.895	1.890	1.895
0.010	0.005	0.005	0.000	0.000	0.010	0.039	2.651	1.890	1.880	1.875	1.895	1.890	1.895
0.000	-0.005	0.005	0.000	0.000	-0.005	0.039	2.646	1.880	1.875	1.875	1.895	1.890	1.890
0.005	-0.005	0.005	0.005	0.005	0.005	0.039	2.666	1.875	1.875	1.875	1.895	1.890	1.895
-0.005	0.000	0.000	0.005	0.005	-0.010	0.039	2.632	1.885	1.880	1.875	1.895	1.890	1.890
-0.010	0.000	0.000	0.000	0.000	0.010	0.039	2.822	1.899	1.885	1.880	1.895	1.890	1.890
-0.010	0.005	0.000	0.000	0.000	0.015	0.034	2.661	1.890	1.885	1.880	1.895	1.890	1.890
-0.010	0.015	-0.005	0.000	0.000	0.010	0.039	2.744	1.895	1.890	1.880	1.895	1.890	1.895
-0.005	0.005	-0.005	-0.005	0.005	0.015	0.039	2.710	1.895	1.890	1.885	1.899	1.890	1.895
-0.005	0.000	-0.005	0.000	0.000	0.000	0.039	2.666	1.885	1.885	1.885	1.899	1.890	1.885
-0.005	0.010	0.000	0.005	0.000	0.005	0.039	2.749	1.895	1.890	1.885	1.899	1.895	1.895
0.000	-0.005	0.005	-0.005	0.000	0.010	0.034	2.710	1.895	1.885	1.885	1.899	1.895	1.895
0.010	-0.005	0.005	0.000	0.005	0.005	0.034	2.656	1.890	1.885	1.885	1.904	1.895	1.895
0.000	-0.005	0.005	0.000	0.000	0.005	0.034	2.671	1.885	1.885	1.885	1.904	1.895	1.890
0.010	-0.005	0.000	0.005	0.005	-0.005	0.039	2.700	1.885	1.885	1.885	1.904	1.895	1.890
0.020	-0.010	0.005	0.005	0.005	0.000	0.039	2.700	1.890	1.880	1.885	1.904	1.895	1.895
0.005	-0.005	0.005	0.000	0.000	0.010	0.039	2.700	1.885	1.880	1.880	1.904	1.899	1.895
0.015	-0.005	0.005	0.000	0.010	-0.005	0.039	2.690	1.890	1.885	1.885	1.899	1.899	1.895
0.000	0.000	0.000	0.000	0.000	-0.005	0.039	2.671	1.880	1.885	1.885	1.899	1.895	1.895
0.010	0.005	0.000	0.000	0.010	0.005	0.039	2.695	1.885	1.885	1.880	1.899	1.895	1.895
-0.010	0.015	0.005	0.000	0.005	-0.020	0.034	2.690	1.880	1.885	1.885	1.899	1.895	1.890
0.000	0.015	0.000	0.005	0.005	-0.020	0.039	2.676	1.880	1.885	1.880	1.899	1.895	1.890
-0.005	0.015	-0.005	0.000	0.000	0.010	0.039	2.705	1.885	1.880	1.880	1.899	1.895	1.899
0.005	0.000	-0.005	0.005	-0.005	0.010	0.039	2.695	1.885	1.880	1.880	1.899	1.895	1.899
-0.010	0.005	-0.005	0.005	0.010	0.010	0.039	2.676	1.885	1.880	1.880	1.904	1.899	1.899
-0.005	0.000	-0.005	0.000	0.000	0.005	0.034	2.690	1.890	1.880	1.880	1.899	1.895	1.895
-0.015	0.000	0.000	-0.005	0.000	0.020	0.039	2.710	1.890	1.885	1.880	1.899	1.895	1.899
0.000	-0.005	-0.005	0.000	0.005	-0.010	0.039	2.700	1.890	1.885	1.885	1.899	1.895	1.890
0.000	0.005	0.000	-0.005	0.015	0.005	0.039	2.676	1.895	1.885	1.885	1.899	1.899	1.895
0.010	-0.005	0.005	0.005	0.000	-0.010	0.039	2.666	1.890	1.890	1.885	1.904	1.895	1.890
0.000	0.010	0.000	0.010	0.005	-0.020	0.039	2.666	1.885	1.885	1.885	1.899	1.895	1.890
0.010	-0.020	0.010	0.000	-0.005	-0.005	0.034	2.700	1.885	1.880	1.885	1.899	1.895	1.895
0.020	-0.010	0.010	0.005	0.000	-0.039	0.034	2.666	1.885	1.885	1.885	1.899	1.895	1.885
0.010	-0.015	0.010	0.000	-0.005	-0.005	0.034	2.666	1.880	1.875	1.885	1.899	1.895	1.895
0.005	0.000	0.010	0.000	0.000	0.010	0.039	2.690	1.885	1.880	1.880	1.899	1.895	1.899
0.005	0.010	0.005	0.000	-0.005	0.005	0.039	2.686	1.880	1.885	1.880	1.899	1.895	1.899
-0.005	0.015	0.005	0.000	0.000	0.015	0.039	2.651	1.875	1.885	1.880	1.899	1.895	1.899
-0.005	0.015	0.000	0.000	-0.005	0.005	0.039	2.666	1.875	1.885	1.880	1.895	1.895	1.895
-0.010	0.010	-0.005	-0.005	0.000	0.005	0.034	2.651	1.875	1.875	1.875	1.899	1.895	1.895
-0.010	0.020	0.000	0.005	0.005	0.005	0.034	2.661	1.870	1.880	1.880	1.899	1.899	1.895
-0.005	0.010	-0.005	0.000	0.000	0.000	0.039	2.632	1.870	1.870	1.875	1.895	1.895	1.895
-0.005	0.010	-0.005	0.000	0.005	-0.020	0.039	2.651	1.870	1.870	1.875	1.895	1.890	1.890
-0.005	0.005	-0.005	0.005	0.005	0.000	0.039	2.637	1.870	1.865	1.870	1.895	1.895	1.895
-0.005	0.005	-0.005	0.005	0.010	0.010	0.034	2.671	1.875	1.870	1.870	1.895	1.895	1.895
0.000	0.000	0.000	0.000	0.015	-0.024	0.034	2.715	1.885	1.870	1.870	1.890	1.895	1.885
0.005	-0.005	0.000	0.000	0.005	0.005	0.039	2.808	1.895	1.875	1.870	1.890	1.885	1.895
0.005	-0.010	0.010	0.000	0.005	0.015	0.039	2.642	1.890	1.875	1.875	1.890	1.885	1.895
0.010	-0.005	0.005	0.005	0.000	-0.010	0.039	2.622	1.880	1.880	1.875	1.890	1.885	1.885
0.010	-0.005	0.000	0.000	0.000	0.024	0.039	2.754	1.885	1.875	1.875	1.890	1.885	1.890
0.005	-0.015	0.005	0.005	0.000	0.015	0.039	2.744	1.895	1.880	1.875	1.890	1.890	1.890
0.020	-0.015	0.005	0.005	0.000	0.005	0.034	2.627	1.885	1.880	1.875	1.890	1.885	1.885
0.000	-0.005	0.000	0.000	-0.005	-0.005	0.034	2.622	1.870	1.880	1.875	1.890	1.885	1.880
0.005	0.000	0.005	0.000	-0.020	0.010	0.039	2.637	1.870	1.880	1.875	1.895	1.880	1.885
-0.005	0.010	0.000	0.005	-0.010	0.015	0.039	2.671	1.870	1.880	1.880	1.895	1.890	1.890
-0.005	0.010	0.005	0.000	0.010	0.010	0.034	2.681	1.875	1.875	1.875	1.895	1.895	1.885
-0.010	0.000	0.000	0.000	0.005	-0.005	0.034	2.715	1.875	1.870	1.875	1.895	1.890	1.880
-0.010	0.005	-0.005	0.000	0.005	0.015	0.039	2.666	1.875	1.875	1.875	1.890	1.890	1.890
-0.010	0.010	0.000	0.000	0.000	0.000	0.039	2.700	1.880	1.875	1.875	1.895	1.890	1.885
-0.005	0.005	0.000	0.000	0.000	0.005	0.039	2.671	1.880	1.875	1.875	1.890	1.890	1.890
0.005	0.000	-0.005	0.010	0.005	0.005	0.039	2.681	1.885	1.880	1.875	1.895	1.890	1.890
-0.005	0.000	0.000	0.005	0.005	-0.010	0.039	2.695	1.885	1.875	1.875	1.890	1.890	1.885
0.000	-0.005	0.005	0.005	0.005	0.005	0.034	2.700	1.885	1.875	1.875	1.895	1.890	1.890
0.015	-0.005	0.000	0.000	0.005	-0.010	0.034	2.676	1.890	1.880	1.875	1.895	1.890	1.890
0.010	0.000	0.005	0.000	0.005	-0.005	0.034	2.671	1.885	1.880	1.880	1.895	1.890	1.885
0.015	-0.005	0.005	0.000	0.005	-0.024	0.039	2.686	1.885	1.880	1.875	1.895	1.890	1.885
0.010	-0.010	0.000	0.005	0.010	-0.005	0.039	2.695	1.880	1.880	1.875	1.895	1.890	1.890
0.015	-0.005	0.010	0.000	0.005	0.000	0.039	2.690	1.880	1.880	1.880	1.895	1.885	1.890
0.010	-0.010	0.005	0.000	0.000	0.000	0.039	2.705	1.880	1.880	1.875	1.890	1.890	1.890
0.010	-0.005	0.000	0.005	0.000	-0.015	0.039	2.676	1.875	1.875	1.875	1.895	1.885	1.880
0.000	0.005	0.000	0.005	0.010	0.015	0.034	2.676	1.875	1.875	1.875	1.895	1.890	1.890
0.005	0.005	0.000	0.005	0.000	0.010	0.039	2.671	1.875	1.875	1.875	1.895	1.890	1.890
0.000	0.005	-0.005	0.000	0.000	0.005	0.039	2.695	1.875	1.875	1.875	1.890	1.885	1.890
-0.005	0.010	-0.005	-0.005	0.000	0.005	0.039	2.686	1.875	1.875	1.875	1.895	1.890	1.890
-0.005	0.015	-0.005	0.000	0.005	0.010	0.039	2.671	1.875	1.875	1.875	1.890	1.890	1.890
-0.005	0.010	-0.005	0.000	0.000	-0.015	0.034	2.686	1.875	1.875	1.875	1.895	1.885	1.880
-0.010	0.005	-0.005	0.005	0.000	-0.005	0.034	2.690	1.875	1.870	1.875	1.895	1.885	1.890
-0.010	-0.005	0.000	0.000	0.000	-0.005	0.039	2.646	1.875	1.870	1.875	1.895	1.890	1.890
-0.005	0.005	0.000	0.000	0.005	0.000	0.039	2.671	1.875	1.875	1.870	1.890	1.890	1.890
0.000	0.000	-0.005	0.000	0.005	0.010	0.039	2.642	1.875	1.875	1.875	1.890	1.890	1.890
0.015	0.005	0.000	0.005	0.005	0.010	0.034	2.656	1.875	1.875	1.875	1.895	1.885	1.890
0.005	-0.005	0.005	0.000	0.005	0.000	0.034	2.744	1.885	1.870	1.875	1.895	1.885	1.885
0.010	-0.005	0.005	0.005	0.000	0.000	0.039	2.651	1.875	1.875	1.875	1.890	1.885	1.890
0.010	-0.010	0.005	-0.005	0.000	0.005	0.034	2.744	1.875	1.870	1.870	1.890	1.885	1.885
0.015	-0.010	0.005	0.005	0.000	-0.024	0.039	2.690	1.880	1.870	1.870	1.890	1.885	1.880
0.010	0.005	0.000	0.000	0.005	0.000	0.039	2.744	1.880	1.875	1.870	1.890	1.885	1.885
0.005	0.010	0.005	0.010	0.010	0.005	0.039	2.661	1.880	1.880	1.870	1.890	1.890	1.885
0.010	0.005	0.000	0.000	0.000	0.010	0.034	2.637	1.875	1.875	1.870	1.885	1.885	1.890
0.000	0.000	0.000	0.000	0.000	0.005	0.034	2.705	1.875	1.875	1.870	1.885	1.885	1.885
-0.005	0.010	0.000	0.000	-0.005	0.005	0.039	2.705	1.880	1.875	1.870	1.885	1.885	1.885
-0.015	0.005	-0.005	0.000	0.000	-0.020	0.039	2.734	1.890	1.875	1.875	1.890	1.885	1.880
-0.010	0.000	-0.005	0.000	0.005	0.010	0.039	2.632	1.875	1.875	1.870	1.890	1.885	1.890
-0.010	0.010	-0.010	0.000	0.010	0.010	0.034	2.637	1.875	1.875	1.875	1.890	1.885	1.890
-0.010	0.005	0.000	0.000	0.000	0.000	0.034	2.637	1.870	1.875	1.875	1.890	1.885	1.885
-0.005	0.005	-0.005	0.005	0.000	-0.015	0.039	2.671	1.875	1.875	1.875	1.890	1.885	1.880
-0.005	0.005	0.000	0.005	0.000	0.005	0.039	2.661	1.870	1.875	1.875	1.890	1.885	1.885
0.000	0.000	0.000	0.005	0.005	0.005	0.039	2.695	1.875	1.870	1.875	1.890	1.890	1.890
0.010	-0.015	0.000	0.005	0.000	0.015	0.039	2.666	1.880	1.870	1.870	1.890	1.885	1.890
0.005	-0.005	0.005	0.000	-0.005	0.005	0.039	2.705	1.880	1.875	1.875	1.890	1.880	1.885
0.020	-0.024	0.010	0.005	-0.005	0.005	0.034	2.666	1.875	1.870	1.870	1.890	1.885	1.885
0.020	-0.020	0.010	0.000	0.005	-0.010	0.034	2.700	1.880	1.875	1.870	1.890	1.885	1.880
0.010	-0.005	0.005	0.000	0.000	0.000	0.039	2.705	1.880	1.880	1.870	1.890	1.885	1.880
0.010	0.015	0.005	0.000	0.000	-0.005	0.039	2.700	1.885	1.885	1.875	1.890	1.885	1.880
0.010	0.010	0.000	0.000	0.005	-0.005	0.039	2.671	1.880	1.880	1.875	1.890	1.885	1.880
0.000	0.000	0.000	0.005	-0.005	-0.010	0.034	2.700	1.875	1.875	1.875	1.895	1.885	1.880
-0.005	0.010	0.000	0.000	-0.005	-0.005	0.039	2.681	1.880	1.880	1.875	1.890	1.885	1.880
-0.005	0.000	-0.005	0.000	0.000	-0.010	0.034	2.681	1.875	1.875	1.875	1.890	1.890	1.885
-0.010	0.010	0.000	-0.005	0.005	0.000	0.034	2.700	1.875	1.875	1.875	1.890	1.885	1.885
-0.015	0.005	-0.005	0.000	0.000	0.005	0.039	2.676	1.875	1.875	1.875	1.890	1.890	1.890
-0.010	0.005	-0.010	0.000	0.010	-0.015	0.039	2.676	1.880	1.875	1.875	1.890	1.890	1.885
-0.010	0.029	-0.005	0.005	0.010	0.000	0.039	2.666	1.875	1.880	1.875	1.890	1.890	1.885
0.000	0.005	0.000	0.000	0.000	-0.005	0.039	2.671	1.875	1.870	1.875	1.890	1.885	1.885
0.005	-0.005	0.000	0.005	0.000	-0.015	0.039	2.671	1.875	1.870	1.875	1.890	1.885	1.880
0.000	-0.005	0.005	0.000	-0.005	0.010	0.039	2.676	1.875	1.870	1.875	1.890	1.890	1.890
0.010	-0.005	0.005	0.005	0.000	-0.010	0.039	2.700	1.875	1.875	1.870	1.890	1.890	1.885
0.015	-0.005	0.005	0.005	0.005	0.024	0.039	2.681	1.880	1.875	1.875	1.890	1.890	1.895
0.005	-0.005	0.000	0.005	0.005	0.024	0.039	2.695	1.875	1.875	1.870	1.890	1.890	1.890
0.005	-0.005	0.000	0.005	-0.005	0.000	0.039	2.632	1.875	1.875	1.870	1.890	1.885	1.880
0.015	-0.005	0.000	0.005	0.005	0.000	0.034	2.676	1.875	1.875	1.870	1.890	1.885	1.885
0.000	-0.005	0.005	0.000	0.005	-0.005	0.034	2.793	1.885	1.875	1.870	1.890	1.885	1.880
0.005	0.010	0.005	0.000	0.005	0.005	0.039	2.656	1.885	1.880	1.875	1.890	1.885	1.885
0.000	0.015	-0.005	0.005	0.000	0.010	0.039	2.725	1.885	1.880	1.875	1.890	1.885	1.885
-0.005	0.020	0.005	0.005	-0.005	-0.005	0.039	2.690	1.885	1.885	1.875	1.895	1.885	1.880
-0.005	0.015	0.000	0.005	-0.005	-0.015	0.039	2.651	1.875	1.875	1.875	1.890	1.885	1.875
-0.005	0.010	0.000	0.000	0.000	-0.020	0.039	2.695	1.875	1.875	1.875	1.890	1.885	1.885
-0.005	0.010	0.000	0.005	-0.005	0.010	0.034	2.632	1.875	1.875	1.875	1.890	1.885	1.890
-0.010	0.005	0.000	0.000	0.000	0.005	0.039	2.681	1.875	1.875	1.875	1.895	1.890	1.890
-0.005	0.000	0.000	0.000	0.000	0.005	0.039	2.749	1.885	1.875	1.875	1.895	1.890	1.890
0.000	0.000	-0.005	0.000	0.010	0.000	0.039	2.725	1.890	1.875	1.875	1.895	1.895	1.890
0.000	0.000	0.005	0.000	0.005	0.005	0.039	2.749	1.895	1.880	1.875	1.895	1.890	1.890
0.015	0.000	0.005	0.005	0.000	-0.020	0.039	2.651	1.890	1.885	1.875	1.895	1.890	1.885
0.005	-0.010	0.005	0.000	0.000	-0.010	0.039	2.754	1.890	1.880	1.875	1.895	1.890	1.885
0.010	0.000	0.005	0.000	0.005	0.005	0.034	2.739	1.885	1.885	1.880	1.895	1.890	1.890
0.005	0.000	0.005	0.000	0.000	0.000	0.039	2.676	1.885	1.880	1.880	1.895	1.890	1.890
0.020	0.005	0.005	0.000	0.005	0.010	0.039	2.661	1.880	1.880	1.880	1.895	1.890	1.895
0.015	-0.005	0.005	0.005	0.005	0.010	0.039	2.671	1.875	1.880	1.875	1.895	1.890	1.890
0.010	-0.005	0.000	0.000	0.005	0.000	0.039	2.671	1.875	1.875	1.875	1.895	1.890	1.890
-0.005	-0.005	0.005	0.000	0.005	-0.020	0.039	2.695	1.875	1.875	1.875	1.895	1.890	1.880
0.010	0.010	-0.005	0.005	0.005	0.005	0.039	2.700	1.880	1.880	1.875	1.895	1.890	1.890
0.000	0.010	0.000	0.005	0.005	0.005	0.039	2.671	1.870	1.875	1.875	1.895	1.890	1.890
-0.010	0.010	-0.005	0.005	0.000	-0.005	0.039	2.695	1.875	1.875	1.875	1.895	1.890	1.885
-0.029	0.010	-0.005	0.000	0.000	-0.015	0.034	2.695	1.875	1.875	1.875	1.890	1.890	1.885
-0.029	0.005	0.000	0.000	-0.005	-0.005	0.039	2.695	1.875	1.875	1.875	1.895	1.890	1.885
-0.024	0.005	0.000	0.005	0.000	0.015	0.039	2.676	1.875	1.875	1.875	1.890	1.890	1.895
-0.029	0.000	0.000	0.000	0.005	0.015	0.039	2.700	1.875	1.875	1.875	1.895	1.890	1.890
-0.010	0.000	0.000	0.000	0.000	0.000	0.039	2.671	1.885	1.875	1.875	1.895	1.890	1.885
-0.005	-0.005	0.005	0.000	-0.005	0.010	0.039	2.700	1.885	1.875	1.875	1.895	1.885	1.890
0.015	-0.005	0.000	0.000	0.005	0.005	0.039	2.671	1.885	1.880	1.875	1.895	1.890	1.890
0.020	0.005	0.000	0.005	0.005	0.000	0.034	2.671	1.885	1.880	1.880	1.895	1.890	1.890
0.015	-0.010	0.005	-0.005	0.000	0.005	0.039	2.666	1.885	1.875	1.875	1.895	1.890	1.890
0.024	-0.024	0.005	0.010	0.005	-0.015	0.039	2.700	1.885	1.875	1.875	1.895	1.890	1.885
0.020	-0.005	0.005	0.000	0.005	0.010	0.034	2.661	1.875	1.880	1.875	1.890	1.890	1.890
0.024	-0.010	0.000	0.005	0.005	0.010	0.039	2.695	1.880	1.880	1.875	1.890	1.890	1.890
0.015	0.000	-0.005	0.010	-0.005	0.010	0.039	2.676	1.875	1.880	1.875	1.895	1.890	1.890
0.005	0.000	0.000	0.005	0.000	0.000	0.039	2.681	1.870	1.880	1.875	1.895	1.890	1.885
0.000	0.000	0.005	0.005	-0.005	-0.015	0.039	2.690	1.870	1.875	1.875	1.895	1.890	1.880
-0.005	0.020	0.000	0.000	0.005	0.005	0.039	2.690	1.880	1.875	1.875	1.895	1.890	1.890
0.000	0.015	0.000	0.000	0.005	0.010	0.039	2.646	1.875	1.875	1.875	1.895	1.890	1.890
-0.015	0.010	-0.005	0.000	0.000	0.005	0.039	2.671	1.870	1.875	1.875	1.890	1.890	1.890
0.000	0.005	-0.005	0.000	0.000	0.005	0.039	2.646	1.875	1.870	1.870	1.890	1.885	1.890
-0.005	0.000	0.000	0.000	0.005	0.000	0.039	2.656	1.875	1.875	1.870	1.890	1.890	1.885
0.000	0.000	0.000	0.005	-0.005	0.000	0.034	2.622	1.875	1.875	1.875	1.890	1.890	1.890
0.000	0.005	0.000	0.005	0.000	0.000	0.039	2.656	1.870	1.870	1.875	1.890	1.890	1.885
0.000	0.005	0.005	0.000	0.005	-0.005	0.039	2.676	1.870	1.870	1.870	1.890	1.890	1.890
0.005	0.010	0.005	-0.005	0.000	-0.015	0.039	2.666	1.870	1.870	1.870	1.890	1.885	1.885
0.010	0.005	0.005	0.000	-0.005	0.000	0.039	2.637	1.875	1.870	1.870	1.890	1.880	1.885
0.005	0.000	0.005	0.000	-0.005	0.000	0.039	2.676	1.885	1.870	1.870	1.885	1.885	1.885
0.005	0.005	0.005	0.000	0.005	0.005	0.039	2.642	1.875	1.870	1.870	1.890	1.885	1.885
0.005	0.010	0.000	0.000	0.010	0.005	0.039	2.710	1.880	1.875	1.870	1.890	1.885	1.885
0.000	-0.010	0.005	0.005	0.005	0.000	0.034	2.744	1.885	1.870	1.870	1.890	1.885	1.885
-0.010	0.010	0.000	0.000	0.005	-0.015	0.034	2.754	1.880	1.880	1.870	1.890	1.885	1.875
0.000	0.015	0.000	-0.005	0.000	0.000	0.039	2.725	1.880	1.875	1.875	1.890	1.880	1.885
-0.005	0.015	-0.005	0.000	0.005	0.020	0.039	2.622	1.880	1.880	1.875	1.890	1.885	1.890
-0.015	0.020	-0.005	0.000	0.005	0.015	0.039	2.651	1.875	1.880	1.875	1.890	1.885	1.890
-0.010	0.010	0.000	0.000	-0.005	0.010	0.039	2.671	1.875	1.875	1.875	1.890	1.885	1.885
-0.005	0.010	0.000	0.000	-0.005	0.005	0.039	2.676	1.875	1.875	1.875	1.890	1.885	1.880
-0.005	0.010	-0.005	0.000	-0.005	-0.005	0.039	2.705	1.880	1.875	1.870	1.895	1.885	1.880
-0.005	0.000	0.000	0.000	0.000	-0.015	0.034	2.666	1.885	1.875	1.875	1.890	1.885	1.880
0.000	-0.005	0.000	0.000	0.005	-0.015	0.039	2.695	1.880	1.875	1.875	1.890	1.885	1.885
0.000	-0.010	0.005	0.000	0.000	0.005	0.039	2.700	1.880	1.875	1.875	1.895	1.885	1.885
0.010	-0.005	0.005	0.005	0.000	0.005	0.039	2.700	1.885	1.880	1.875	1.895	1.890	1.890
0.005	0.000	0.000	0.005	0.005	0.000	0.039	2.666	1.880	1.880	1.875	1.890	1.885	1.885
0.024	-0.005	0.005	0.005	0.000	0.005	0.039	2.690	1.885	1.880	1.875	1.890	1.885	1.890
0.015	-0.005	0.010	0.000	0.000	0.015	0.034	2.666	1.880	1.880	1.875	1.895	1.890	1.890
0.015	-0.015	0.005	0.000	0.005	0.000	0.039	2.656	1.875	1.875	1.875	1.890	1.885	1.885
0.005	-0.010	0.005	0.000	0.005	0.005	0.039	2.676	1.875	1.875	1.875	1.890	1.885	1.885
0.000	-0.005	0.005	0.005	0.005	0.005	0.039	2.700	1.880	1.875	1.875	1.895	1.890	1.885
-0.005	-0.005	0.000	0.005	0.000	0.005	0.039	2.661	1.875	1.875	1.875	1.890	1.885	1.885
0.005	0.010	-0.005	0.005	0.005	-0.024	0.034	2.666	1.875	1.880	1.875	1.890	1.885	1.880
-0.010	0.005	0.000	-0.005	0.000	0.015	0.039	2.690	1.875	1.875	1.875	1.890	1.890	1.890
-0.010	0.005	-0.005	0.005	0.000	-0.010	0.034	2.700	1.875	1.875	1.875	1.890	1.885	1.885
-0.015	0.005	-0.005	0.000	0.000	0.010	0.039	2.700	1.875	1.875	1.875	1.890	1.885	1.890
-0.005	0.000	0.000	0.000	0.005	0.000	0.039	2.700	1.885	1.875	1.875	1.895	1.885	1.885
-0.010	0.000	-0.005	0.000	0.000	0.005	0.039	2.690	1.885	1.875	1.875	1.890	1.885	1.885
0.005	-0.005	0.000	0.005	-0.005	0.000	0.039	2.695	1.885	1.875	1.875	1.890	1.885	1.885
0.000	0.005	0.000	0.000	0.005	0.010	0.039	2.681	1.885	1.880	1.875	1.895	1.890	1.890
0.000	0.000	0.000	0.000	0.005	0.000	0.034	2.690	1.885	1.880	1.875	1.895	1.890	1.885
0.010	-0.015	0.005	0.000	0.000	0.010	0.039	2.646	1.880	1.880	1.875	1.895	1.885	1.885
0.020	-0.005	0.005	0.000	0.000	0.005	0.039	2.661	1.880	1.880	1.875	1.890	1.890	1.885
0.015	-0.005	0.010	0.005	-0.005	0.000	0.039	2.637	1.875	1.875	1.880	1.895	1.885	1.890
0.020	0.000	0.005	0.000	0.000	0.005	0.039	2.646	1.870	1.875	1.875	1.895	1.890	1.885
0.015	0.005	0.010	0.000	0.005	0.000	0.039	2.642	1.870	1.875	1.875	1.895	1.890	1.885
0.010	0.000	0.005	0.000	0.000	0.000	0.039	2.661	1.870	1.870	1.875	1.895	1.890	1.885
0.010	0.005	0.000	0.000	0.005	0.005	0.034	2.744	1.880	1.875	1.875	1.895	1.890	1.890
-0.005	0.005	0.005	0.000	0.000	0.000	0.039	2.671	1.875	1.870	1.870	1.890	1.885	1.885
-0.020	0.000	-0.005	0.005	0.000	0.005	0.039	2.739	1.880	1.870	1.870	1.890	1.885	1.890
-0.015	0.010	-0.005	0.005	0.005	0.000	0.034	2.676	1.880	1.875	1.870	1.890	1.885	1.885
-0.015	0.000	-0.005	0.000	0.000	-0.010	0.039	2.642	1.875	1.870	1.870	1.890	1.885	1.885
-0.005	0.000	-0.005	0.000	0.005	0.005	0.039	2.622	1.885	1.875	1.870	1.890	1.885	1.890
-0.024	-0.005	-0.005	0.000	0.000	0.000	0.039	2.754	1.885	1.875	1.870	1.890	1.885	1.880
-0.010	0.005	0.000	0.000	-0.005	0.005	0.039	2.612	1.880	1.880	1.875	1.890	1.885	1.890
-0.005	0.000	-0.005	0.000	0.000	0.010	0.039	2.632	1.875	1.875	1.875	1.890	1.885	1.885
0.000	0.005	0.000	0.000	0.010	-0.005	0.039	2.617	1.875	1.875	1.875	1.890	1.890	1.885
0.000	0.000	0.010	0.000	0.005	0.005	0.034	2.637	1.870	1.870	1.875	1.890	1.885	1.890
0.015	0.000	0.005	0.000	0.000	0.000	0.039	2.666	1.875	1.875	1.875	1.895	1.885	1.885
0.020	0.000	0.010	0.000	0.005	0.005	0.039	2.676	1.875	1.875	1.870	1.890	1.885	1.880
0.020	-0.005	0.005	0.005	0.005	0.015	0.039	2.661	1.875	1.875	1.875	1.895	1.890	1.885
0.010	-0.005	0.005	0.000	0.000	-0.015	0.039	2.671	1.875	1.870	1.870	1.890	1.885	1.880
0.020	-0.005	0.000	0.000	0.005	0.000	0.039	2.710	1.880	1.870	1.870	1.890	1.885	1.885
0.010	-0.005	0.000	0.000	0.005	0.000	0.039	2.676	1.880	1.870	1.870	1.890	1.885	1.885
0.010	-0.005	0.005	0.005	0.000	0.000	0.034	2.695	1.880	1.875	1.870	1.890	1.885	1.885
0.000	0.005	0.000	0.005	0.005	-0.015	0.039	2.695	1.875	1.875	1.870	1.890	1.885	1.880
0.005	0.005	-0.005	0.000	0.005	-0.020	0.034	2.710	1.880	1.875	1.870	1.890	1.885	1.880
-0.005	0.005	-0.005	0.005	0.005	0.005	0.039	2.656	1.875	1.880	1.870	1.890	1.885	1.885
-0.005	0.010	0.000	0.000	0.000	0.010	0.039	2.671	1.875	1.875	1.875	1.890	1.885	1.890
-0.010	0.000	-0.005	0.000	-0.005	0.000	0.039	2.686	1.880	1.875	1.875	1.890	1.885	1.885
-0.010	0.015	-0.005	0.000	-0.015	0.015	0.039	2.666	1.875	1.880	1.875	1.890	1.885	1.890
-0.005	0.000	0.000	0.000	-0.015	0.000	0.039	2.671	1.875	1.875	1.875	1.895	1.885	1.880
-0.005	0.010	0.005	0.005	0.000	0.020	0.034	2.710	1.880	1.875	1.875	1.895	1.890	1.885
0.010	-0.010	0.000	0.005	0.005	0.010	0.039	2.666	1.880	1.875	1.875	1.890	1.890	1.885
0.000	-0.010	0.005	0.000	0.005	0.005	0.039	2.676	1.875	1.875	1.875	1.895	1.890	1.885
0.010	-0.005	0.005	0.000	0.005	-0.010	0.039	2.676	1.880	1.875	1.870	1.890	1.890	1.885
0.005	0.000	0.010	0.000	0.005	-0.010	0.039	2.695	1.880	1.880	1.875	1.890	1.885	1.885
0.005	0.005	0.000	0.000	0.005	0.000	0.039	2.671	1.880	1.880	1.875	1.890	1.885	1.885
0.015	0.005	0.000	0.000	0.000	0.000	0.039	2.705	1.885	1.880	1.875	1.890	1.885	1.885
0.024	-0.005	0.000	0.005	0.005	-0.010	0.039	2.686	1.880	1.875	1.875	1.890	1.890	1.885
0.020	0.000	0.005	0.000	0.005	-0.010	0.039	2.690	1.880	1.875	1.875	1.890	1.885	1.880
0.010	0.000	0.000	0.005	0.005	0.015	0.039	2.632	1.870	1.875	1.875	1.890	1.890	1.890
0.005	0.005	-0.005	0.000	0.010	0.000	0.039	2.671	1.870	1.875	1.875	1.890	1.885	1.885
-0.010	0.005	0.000	0.000	0.010	0.015	0.039	2.642	1.865	1.870	1.870	1.890	1.890	1.890
-0.015	0.005	-0.005	0.000	0.000	0.010	0.039	2.646	1.865	1.870	1.870	1.890	1.885	1.890
-0.020	0.015	-0.005	0.005	-0.005	0.005	0.034	2.734	1.875	1.870	1.870	1.890	1.885	1.885
-0.020	0.010	-0.005	0.005	0.000	0.000	0.039	2.646	1.870	1.875	1.870	1.890	1.885	1.885
-0.010	0.005	0.000	0.000	-0.005	-0.005	0.034	2.764	1.875	1.875	1.870	1.890	1.885	1.885
-0.010	0.015	0.000	0.000	0.000	0.010	0.039	2.671	1.875	1.875	1.875	1.890	1.885	1.885
-0.005	0.005	0.005	0.000	0.000	0.015	0.039	2.656	1.875	1.870	1.870	1.890	1.885	1.885
0.010	0.000	0.005	0.000	0.010	0.010	0.039	2.656	1.895	1.875	1.870	1.890	1.890	1.885
0.010	-0.005	0.010	0.000	0.005	-0.010	0.034	2.642	1.890	1.875	1.875	1.890	1.885	1.880
0.010	-0.010	0.010	0.000	0.010	0.015	0.039	2.739	1.895	1.880	1.875	1.890	1.885	1.890
0.010	-0.020	0.010	0.005	0.005	0.010	0.034	2.739	1.895	1.880	1.875	1.890	1.885	1.885
0.015	-0.010	0.005	0.000	0.000	0.010	0.039	2.725	1.895	1.885	1.875	1.890	1.885	1.885
0.005	0.000	0.000	0.000	0.005	-0.020	0.039	2.651	1.885	1.890	1.880	1.895	1.885	1.880
0.010	-0.005	0.005	0.000	0.005	-0.010	0.039	2.705	1.885	1.885	1.880	1.895	1.885	1.880
0.005	0.000	0.000	0.000	0.000	0.020	0.039	2.646	1.875	1.885	1.880	1.895	1.885	1.890
0.000	0.020	0.000	0.000	0.010	0.010	0.039	2.671	1.875	1.885	1.880	1.899	1.890	1.890
0.005	0.020	0.005	0.005	0.005	0.010	0.034	2.700	1.880	1.885	1.885	1.895	1.890	1.885
0.000	0.020	-0.005	0.005	0.000	-0.020	0.034	2.700	1.880	1.880	1.880	1.899	1.890	1.880
-0.010	0.010	-0.005	0.000	0.005	-0.005	0.039	2.690	1.875	1.875	1.880	1.899	1.890	1.885
-0.005	0.005	-0.005	0.000	-0.005	0.005	0.039	2.695	1.875	1.875	1.880	1.895	1.890	1.890
-0.005	0.000	-0.005	0.000	0.000	-0.005	0.039	2.681	1.875	1.875	1.875	1.895	1.890	1.890
-0.010	0.005	-0.005	0.005	0.000	-0.015	0.039	2.695	1.875	1.875	1.880	1.895	1.890	1.890
0.010	-0.005	0.000	0.000	0.005	0.015	0.034	2.661	1.880	1.875	1.875	1.895	1.895	1.895
-0.005	-0.010	0.000	0.000	0.010	0.005	0.039	2.666	1.870	1.875	1.875	1.895	1.895	1.890
0.015	0.000	0.005	0.000	0.010	0.015	0.039	2.690	1.880	1.875	1.875	1.899	1.890	1.895
0.005	-0.010	0.010	0.005	0.000	0.005	0.034	2.676	1.880	1.875	1.875	1.895	1.890	1.890
0.010	-0.010	0.005	0.010	-0.005	0.000	0.039	2.676	1.880	1.875	1.875	1.895	1.885	1.885
0.010	-0.010	0.010	0.000	-0.005	0.005	0.039	2.681	1.875	1.875	1.875	1.895	1.890	1.885
0.010	-0.005	0.010	0.000	0.000	-0.005	0.034	2.676	1.875	1.875	1.875	1.895	1.890	1.885
0.005	-0.005	0.000	0.000	0.005	-0.024	0.039	2.705	1.875	1.875	1.870	1.890	1.890	1.885
0.000	-0.005	0.000	0.000	0.005	0.015	0.039	2.671	1.875	1.875	1.875	1.890	1.890	1.895
0.000	0.005	0.005	0.000	0.000	0.015	0.039	2.705	1.880	1.875	1.875	1.890	1.890	1.890
0.000	0.005	-0.005	0.005	0.000	-0.020	0.039	2.671	1.875	1.875	1.875	1.890	1.885	1.880
-0.010	0.010	-0.005	0.005	0.000	0.000	0.039	2.676	1.875	1.875	1.875	1.890	1.890	1.890
-0.010	0.010	-0.005	0.000	0.000	-0.010	0.034	2.681	1.875	1.875	1.875	1.890	1.885	1.885
-0.010	0.010	-0.005	0.000	-0.005	0.000	0.039	2.695	1.880	1.875	1.875	1.890	1.890	1.885
-0.005	0.010	-0.005	0.005	0.000	0.010	0.039	2.681	1.885	1.875	1.875	1.890	1.885	1.890
-0.010	0.010	0.000	0.000	0.000	0.010	0.039	2.686	1.880	1.875	1.875	1.890	1.885	1.890
-0.005	0.000	0.000	0.000	0.000	0.000	0.039	2.646	1.875	1.875	1.875	1.890	1.890	1.885
0.005	-0.005	0.000	0.000	0.010	0.000	0.034	2.671	1.875	1.875	1.875	1.890	1.890	1.885
0.005	-0.010	0.000	0.000	-0.005	0.000	0.039	2.651	1.875	1.870	1.875	1.890	1.885	1.885
0.010	-0.005	0.005	0.005	-0.010	0.000	0.039	2.656	1.875	1.875	1.875	1.895	1.885	1.885
0.005	-0.005	0.005	0.000	0.005	-0.005	0.039	2.642	1.870	1.870	1.870	1.890	1.890	1.885
0.010	-0.005	0.005	0.000	0.005	-0.010	0.039	2.646	1.870	1.870	1.870	1.890	1.890	1.885
0.010	0.000	0.005	0.000	0.005	-0.010	0.039	2.734	1.875	1.875	1.870	1.890	1.885	1.885
0.015	-0.005	0.010	0.005	0.005	-0.005	0.039	2.671	1.880	1.875	1.870	1.890	1.885	1.885
0.015	-0.005	0.005	0.000	0.005	0.015	0.034	2.651	1.875	1.875	1.870	1.885	1.885	1.890
0.005	0.005	0.005	0.000	0.005	0.010	0.039	2.651	1.875	1.875	1.870	1.890	1.885	1.885
0.015	0.015	0.000	0.000	0.010	0.000	0.039	2.656	1.875	1.880	1.870	1.885	1.885	1.885
0.020	0.015	0.000	0.000	0.005	0.005	0.039	2.705	1.885	1.880	1.875	1.890	1.885	1.885
0.015	0.010	0.000	0.000	-0.005	0.005	0.039	2.749	1.890	1.875	1.875	1.890	1.880	1.880
-0.010	0.005	0.000	0.000	-0.005	0.010	0.034	2.729	1.885	1.880	1.875	1.890	1.880	1.885
-0.020	0.000	-0.010	0.000	-0.005	0.010	0.039	2.729	1.885	1.880	1.870	1.890	1.885	1.880
-0.029	0.000	-0.010	0.000	-0.005	-0.005	0.039	2.710	1.885	1.880	1.875	1.890	1.885	1.880
-0.034	0.010	-0.005	0.000	0.000	0.000	0.039	2.676	1.880	1.880	1.875	1.895	1.885	1.885
-0.024	0.000	0.000	0.000	-0.005	-0.005	0.039	2.671	1.880	1.880	1.880	1.895	1.885	1.880
-0.005	0.000	0.005	0.005	0.000	-0.005	0.039	2.661	1.880	1.880	1.880	1.895	1.890	1.885
0.000	-0.005	0.000	0.005	0.000	-0.020	0.034	2.690	1.880	1.880	1.875	1.895	1.890	1.880
0.010	-0.015	0.005	0.010	0.015	0.000	0.039	2.666	1.880	1.875	1.875	1.895	1.895	1.890
0.015	-0.010	0.005	0.010	0.020	0.000	0.034	2.695	1.880	1.880	1.875	1.895	1.895	1.890
0.024	-0.010	0.005	0.000	0.005	0.010	0.039	2.695	1.885	1.880	1.875	1.895	1.890	1.890
0.020	-0.005	0.010	0.000	0.000	0.005	0.039	2.705	1.885	1.885	1.875	1.895	1.890	1.890
0.015	-0.015	0.005	0.000	-0.005	0.000	0.039	2.695	1.880	1.875	1.875	1.895	1.890	1.885
0.010	0.005	0.005	0.000	0.000	0.010	0.034	2.705	1.880	1.880	1.875	1.895	1.890	1.890
0.005	-0.015	0.005	0.000	0.005	-0.010	0.039	2.705	1.880	1.875	1.875	1.895	1.890	1.885
0.000	0.000	0.005	0.005	0.010	0.000	0.039	2.705	1.885	1.880	1.875	1.895	1.890	1.890
-0.010	0.005	0.000	0.005	0.010	0.005	0.039	2.676	1.880	1.880	1.875	1.895	1.890	1.890
-0.005	0.024	-0.005	0.005	0.005	0.010	0.039	2.671	1.880	1.880	1.880	1.895	1.890	1.890
0.000	0.020	-0.005	0.000	0.000	0.010	0.039	2.681	1.880	1.885	1.880	1.895	1.890	1.890
-0.005	0.020	-0.010	0.000	0.000	0.005	0.034	2.681	1.880	1.880	1.880	1.895	1.890	1.890
-0.005	0.015	0.000	0.000	0.000	0.000	0.039	2.671	1.875	1.875	1.880	1.899	1.890	1.890
-0.015	0.000	0.000	0.000	0.000	0.000	0.039	2.671	1.875	1.870	1.875	1.895	1.895	1.890
-0.005	0.005	0.000	0.005	0.005	0.000	0.039	2.666	1.875	1.875	1.875	1.895	1.895	1.890
-0.005	0.005	0.000	0.005	0.005	0.005	0.039	2.695	1.880	1.875	1.875	1.895	1.895	1.890
0.005	0.000	0.005	0.000	0.000	-0.010	0.039	2.671	1.880	1.875	1.875	1.895	1.890	1.885
0.005	-0.010	0.005	0.000	0.005	0.015	0.039	2.671	1.875	1.875	1.875	1.895	1.890	1.890
0.010	-0.005	0.005	0.000	-0.015	-0.005	0.034	2.676	1.880	1.875	1.875	1.895	1.885	1.885
0.010	0.000	0.010	0.005	-0.005	0.010	0.039	2.690	1.880	1.875	1.875	1.895	1.890	1.890
0.020	0.000	0.010	0.000	0.005	0.000	0.039	2.646	1.875	1.875	1.875	1.890	1.890	1.885
0.015	0.005	0.005	0.000	0.005	-0.010	0.039	2.656	1.870	1.875	1.875	1.890	1.890	1.890
0.000	0.000	0.000	0.005	0.005	-0.010	0.034	2.646	1.870	1.870	1.870	1.895	1.890	1.885
0.005	-0.005	0.000	-0.005	-0.005	0.000	0.039	2.661	1.870	1.870	1.870	1.890	1.885	1.890
0.005	-0.005	0.005	0.005	-0.005	-0.015	0.034	2.637	1.870	1.870	1.870	1.890	1.885	1.880
0.000	0.005	0.000	0.000	-0.005	0.010	0.039	2.661	1.870	1.870	1.870	1.890	1.885	1.890
-0.005	0.000	-0.005	0.005	0.000	-0.015	0.039	2.739	1.870	1.870	1.870	1.890	1.885	1.885
-0.010	0.005	-0.005	0.005	0.000	0.005	0.039	2.695	1.870	1.870	1.870	1.890	1.885	1.885
-0.005	-0.010	-0.010	0.000	0.000	0.000	0.039	2.749	1.880	1.870	1.870	1.885	1.885	1.885
-0.010	-0.010	-0.010	0.005	0.015	0.005	0.034	2.642	1.875	1.870	1.870	1.885	1.885	1.885
-0.010	0.005	-0.005	0.005	0.005	-0.005	0.039	2.646	1.875	1.875	1.870	1.885	1.885	1.885
-0.005	0.000	0.000	0.000	0.005	0.005	0.039	2.749	1.885	1.875	1.875	1.890	1.885	1.885
0.010	0.005	0.005	0.000	0.010	0.010	0.039	2.725	1.890	1.880	1.875	1.890	1.885	1.890
0.010	0.010	0.000	0.000	0.010	-0.005	0.039	2.725	1.890	1.885	1.875	1.890	1.885	1.885
0.010	0.020	0.005	0.000	0.005	-0.010	0.039	2.720	1.895	1.890	1.880	1.895	1.885	1.880
0.005	0.015	0.000	0.000	0.005	0.005	0.039	2.720	1.895	1.890	1.880	1.895	1.885	1.885
0.010	0.015	0.005	0.000	0.005	-0.020	0.039	2.646	1.875	1.885	1.885	1.895	1.890	1.880
0.010	0.010	0.005	0.005	0.005	-0.005	0.039	2.666	1.875	1.880	1.880	1.895	1.890	1.880
0.005	-0.005	0.005	0.000	0.000	0.010	0.039	2.666	1.875	1.875	1.875	1.895	1.890	1.890
0.000	0.000	0.000	0.000	0.005	0.010	0.039	2.686	1.875	1.875	1.875	1.895	1.890	1.890
0.005	0.010	0.000	0.000	-0.005	0.010	0.039	2.681	1.875	1.875	1.875	1.895	1.890	1.890
0.000	0.005	-0.005	0.005	0.000	0.000	0.039	2.695	1.875	1.875	1.875	1.895	1.890	1.890
-0.005	0.000	-0.005	0.000	0.000	0.005	0.034	2.686	1.875	1.875	1.875	1.890	1.890	1.890
-0.010	0.005	-0.005	0.010	-0.005	0.005	0.039	2.705	1.875	1.875	1.875	1.895	1.890	1.890
-0.015	-0.005	-0.005	0.005	0.000	0.005	0.034	2.700	1.875	1.870	1.870	1.895	1.890	1.890
0.000	0.000	0.000	0.005	0.005	0.000	0.039	2.700	1.885	1.875	1.875	1.895	1.890	1.890
0.000	-0.010	0.005	0.000	0.005	0.010	0.039	2.666	1.885	1.875	1.875	1.890	1.890	1.890
-0.005	0.000	0.005	0.000	0.000	0.010	0.039	2.710	1.885	1.875	1.875	1.890	1.890	1.890
0.000	-0.010	0.005	0.000	0.005	0.015	0.039	2.686	1.885	1.875	1.875	1.895	1.890	1.890
0.005	-0.010	0.005	0.000	0.005	0.005	0.039	2.705	1.885	1.875	1.875	1.895	1.890	1.885
0.020	-0.010	0.005	0.000	0.005	0.005	0.034	2.700	1.890	1.880	1.875	1.895	1.890	1.890
0.010	-0.005	0.005	0.005	0.010	-0.015	0.039	2.700	1.885	1.880	1.875	1.895	1.890	1.885
0.010	0.000	0.005	0.000	0.005	0.000	0.039	2.666	1.880	1.885	1.880	1.895	1.890	1.890
0.015	-0.005	0.005	0.005	0.005	0.010	0.039	2.690	1.880	1.880	1.880	1.895	1.890	1.890
0.005	0.005	0.005	0.005	0.000	0.000	0.039	2.661	1.875	1.880	1.880	1.895	1.890	1.885
0.000	0.000	0.005	0.000	-0.010	-0.005	0.039	2.695	1.875	1.875	1.875	1.895	1.890	1.885
0.005	0.005	0.005	0.000	-0.005	0.010	0.034	2.676	1.875	1.875	1.875	1.895	1.890	1.890
0.010	0.000	0.000	0.000	0.000	-0.005	0.039	2.671	1.875	1.875	1.875	1.895	1.890	1.885
0.010	0.005	0.000	-0.005	0.005	0.000	0.039	2.690	1.880	1.875	1.875	1.890	1.890	1.890
0.000	0.010	-0.005	0.000	0.000	0.010	0.039	2.695	1.880	1.880	1.875	1.895	1.890	1.890
-0.005	0.015	-0.005	0.000	0.005	0.000	0.039	2.642	1.870	1.880	1.875	1.895	1.890	1.885
-0.020	0.010	0.000	0.005	0.000	0.005	0.039	2.666	1.870	1.870	1.875	1.890	1.890	1.890
-0.010	0.000	0.000	-0.005	0.000	0.005	0.039	2.632	1.870	1.870	1.870	1.890	1.890	1.885
-0.020	0.000	-0.005	0.000	0.005	0.005	0.039	2.656	1.870	1.870	1.870	1.890	1.890	1.890
-0.015	-0.005	0.005	0.000	0.005	-0.005	0.039	2.739	1.875	1.870	1.870	1.890	1.885	1.880
-0.010	-0.005	0.000	0.000	0.000	0.005	0.039	2.666	1.880	1.870	1.870	1.890	1.890	1.885
0.005	0.000	0.005	0.005	0.000	0.000	0.039	2.744	1.880	1.875	1.870	1.890	1.890	1.890
0.015	-0.005	0.005	0.005	0.000	0.010	0.034	2.656	1.875	1.875	1.870	1.890	1.885	1.890
0.015	-0.005	0.005	0.005	0.005	0.005	0.034	2.642	1.875	1.875	1.870	1.890	1.885	1.890
0.010	0.000	0.005	0.005	0.000	0.000	0.034	2.651	1.870	1.875	1.870	1.890	1.885	1.885
0.000	-0.005	0.010	0.005	0.000	0.000	0.039	2.651	1.875	1.870	1.870	1.890	1.885	1.880
0.010	0.000	0.005	0.000	0.000	0.015	0.039	2.739	1.885	1.875	1.870	1.890	1.885	1.885
0.000	-0.020	0.005	0.000	0.000	0.005	0.039	2.729	1.885	1.870	1.870	1.885	1.885	1.880
0.000	0.000	0.005	0.005	0.000	0.010	0.034	2.744	1.890	1.880	1.870	1.890	1.885	1.885
-0.005	0.015	0.000	0.000	0.000	0.005	0.039	2.715	1.890	1.885	1.875	1.890	1.885	1.880
0.000	0.010	0.000	0.000	0.000	0.005	0.039	2.720	1.890	1.885	1.880	1.890	1.885	1.885
-0.015	0.015	0.000	0.000	0.000	0.010	0.039	2.681	1.885	1.885	1.880	1.890	1.885	1.880
-0.005	0.015	-0.005	0.005	0.005	0.000	0.039	2.671	1.885	1.885	1.880	1.895	1.885	1.885
-0.020	0.010	0.000	0.005	0.000	-0.010	0.039	2.676	1.880	1.880	1.880	1.895	1.890	1.885
-0.010	0.005	-0.005	0.000	-0.005	-0.005	0.039	2.700	1.885	1.880	1.880	1.895	1.885	1.885
-0.005	0.000	0.000	0.000	0.000	0.010	0.039	2.695	1.885	1.880	1.880	1.895	1.890	1.890
0.005	0.000	0.000	0.000	0.000	0.010	0.034	2.710	1.890	1.880	1.880	1.895	1.890	1.890
0.005	0.000	0.000	0.005	0.000	0.005	0.039	2.710	1.890	1.885	1.880	1.895	1.890	1.885
0.015	-0.010	0.005	0.005	0.005	-0.020	0.039	2.695	1.890	1.880	1.880	1.895	1.890	1.885
0.010	-0.020	0.000	0.000	0.005	0.010	0.039	2.681	1.880	1.875	1.875	1.899	1.895	1.890
0.015	-0.020	0.010	0.005	0.000	0.000	0.039	2.671	1.880	1.880	1.880	1.895	1.890	1.890
0.015	-0.015	0.005	0.000	-0.005	0.000	0.039	2.705	1.885	1.880	1.880	1.895	1.890	1.890
0.015	0.000	0.000	0.000	-0.005	-0.024	0.039	2.695	1.885	1.880	1.880	1.895	1.890	1.885
0.010	0.000	0.005	0.000	0.000	0.000	0.039	2.690	1.880	1.880	1.880	1.895	1.890	1.890
0.015	0.000	0.000	0.000	0.000	-0.015	0.039	2.661	1.875	1.880	1.875	1.895	1.890	1.890
-0.005	-0.005	0.005	0.000	0.005	0.005	0.039	2.676	1.875	1.875	1.875	1.895	1.890	1.895
-0.005	0.010	0.000	0.000	0.005	0.000	0.039	2.705	1.875	1.880	1.875	1.899	1.890	1.895
0.000	0.010	0.000	0.005	0.000	0.015	0.039	2.671	1.880	1.880	1.875	1.895	1.890	1.895
0.000	0.015	-0.005	0.000	0.000	0.020	0.039	2.661	1.875	1.880	1.875	1.895	1.895	1.895
-0.010	0.015	-0.005	0.000	0.005	0.015	0.034	2.676	1.875	1.875	1.875	1.895	1.890	1.890
-0.010	0.005	0.005	0.000	0.000	0.010	0.039	2.671	1.875	1.875	1.875	1.895	1.895	1.890
-0.005	0.020	-0.005	0.005	0.000	0.005	0.039	2.671	1.875	1.880	1.875	1.895	1.890	1.890
0.000	0.005	0.000	0.000	0.000	-0.005	0.039	2.700	1.885	1.870	1.875	1.895	1.890	1.890
0.000	0.000	0.000	0.010	0.005	-0.024	0.039	2.686	1.885	1.880	1.875	1.895	1.890	1.880
0.005	0.015	0.000	0.000	0.000	0.000	0.039	2.686	1.880	1.880	1.875	1.890	1.890	1.890
0.010	0.010	0.010	0.000	-0.005	-0.005	0.039	2.637	1.880	1.880	1.875	1.895	1.890	1.885
0.010	0.005	0.005	0.000	0.000	-0.005	0.039	2.671	1.875	1.875	1.875	1.895	1.890	1.890
0.010	0.000	0.005	0.000	0.005	0.005	0.034	2.627	1.870	1.875	1.875	1.895	1.890	1.890
0.015	-0.010	0.005	0.000	0.000	-0.005	0.039	2.651	1.875	1.870	1.870	1.890	1.890	1.890
0.020	-0.005	-0.005	0.010	0.000	-0.029	0.039	2.632	1.870	1.870	1.870	1.890	1.885	1.880
0.024	-0.010	0.000	0.000	0.000	0.010	0.039	2.651	1.870	1.870	1.870	1.890	1.885	1.890
0.020	0.000	0.000	0.000	0.000	0.005	0.039	2.637	1.870	1.870	1.870	1.890	1.885	1.890
0.010	0.000	0.000	0.000	0.000	0.010	0.039	2.661	1.865	1.870	1.870	1.885	1.885	1.890
-0.005	-0.005	0.000	0.000	0.010	0.015	0.039	2.710	1.870	1.865	1.870	1.885	1.885	1.890
-0.029	0.005	-0.005	0.000	0.005	0.020	0.039	2.827	1.885	1.875	1.870	1.885	1.885	1.890
-0.039	0.005	-0.005	0.000	0.000	0.010	0.039	2.725	1.885	1.875	1.870	1.885	1.880	1.885
-0.024	0.005	0.000	0.000	-0.005	0.015	0.039	2.720	1.875	1.875	1.870	1.885	1.880	1.885
-0.020	0.005	-0.005	0.000	0.000	0.015	0.034	2.725	1.885	1.875	1.870	1.885	1.885	1.885
-0.015	0.010	-0.005	0.000	0.000	0.000	0.034	2.661	1.895	1.880	1.875	1.890	1.885	1.880
-0.005	0.005	0.000	0.000	0.000	0.000	0.039	2.744	1.899	1.885	1.875	1.890	1.885	1.880
-0.005	-0.005	0.005	0.000	0.005	0.000	0.039	2.710	1.899	1.885	1.880	1.895	1.885	1.885
0.015	-0.010	0.005	0.000	0.005	-0.029	0.034	2.676	1.895	1.885	1.880	1.895	1.885	1.875
0.015	-0.010	0.005	0.000	0.005	0.000	0.039	2.676	1.885	1.885	1.885	1.895	1.890	1.885
0.010	-0.005	0.005	0.005	0.005	0.010	0.034	2.695	1.885	1.885	1.885	1.895	1.890	1.890
0.020	0.000	0.005	0.005	-0.005	0.000	0.039	2.690	1.885	1.885	1.885	1.899	1.890	1.885
0.015	-0.010	0.010	0.000	0.000	0.015	0.039	2.695	1.885	1.880	1.880	1.899	1.895	1.890
0.015	0.000	0.005	0.000	0.005	0.020	0.039	2.690	1.880	1.885	1.880	1.895	1.895	1.895
0.010	0.005	0.000	0.005	0.005	0.010	0.034	2.676	1.880	1.880	1.880	1.895	1.890	1.890
0.010	0.005	0.000	0.000	0.000	0.000	0.034	2.700	1.880	1.880	1.880	1.895	1.890	1.890
0.005	0.000	0.005	0.000	0.000	-0.010	0.039	2.710	1.885	1.880	1.880	1.899	1.895	1.885
-0.005	0.005	-0.005	0.005	0.000	-0.024	0.039	2.700	1.880	1.880	1.880	1.899	1.890	1.885
-0.005	0.029	-0.005	0.000	0.005	-0.029	0.039	2.700	1.880	1.885	1.880	1.899	1.895	1.885
-0.010	0.010	-0.005	0.005	-0.005	-0.010	0.039	2.681	1.875	1.875	1.875	1.899	1.895	1.890
-0.010	0.015	-0.005	0.005	0.000	-0.015	0.039	2.671	1.875	1.880	1.880	1.899	1.895	1.895
-0.010	0.005	-0.005	0.005	0.005	0.010	0.039	2.671	1.875	1.875	1.880	1.899	1.895	1.899
0.000	-0.005	0.010	0.000	0.005	-0.015	0.039	2.681	1.880	1.875	1.875	1.899	1.895	1.885
0.000	-0.005	0.000	0.000	0.005	-0.005	0.039	2.700	1.875	1.875	1.875	1.895	1.895	1.895
0.000	-0.005	0.005	0.000	0.000	0.015	0.034	2.681	1.880	1.875	1.875	1.895	1.895	1.895
0.010	0.010	0.005	0.005	0.000	0.024	0.039	2.671	1.880	1.880	1.875	1.895	1.890	1.895
0.005	-0.020	0.010	0.005	0.005	0.020	0.039	2.666	1.880	1.870	1.875	1.895	1.895	1.895
0.015	-0.005	0.010	0.000	0.000	0.010	0.039	2.690	1.880	1.875	1.875	1.895	1.890	1.890
0.010	-0.010	0.010	0.000	0.000	0.005	0.039	2.686	1.880	1.875	1.875	1.890	1.890	1.890
0.005	-0.010	0.005	0.000	0.000	0.005	0.039	2.671	1.875	1.875	1.875	1.890	1.890	1.885
0.000	0.010	0.000	0.000	-0.005	0.010	0.034	2.676	1.875	1.880	1.875	1.890	1.885	1.890
0.015	0.010	0.005	0.000	0.000	-0.010	0.039	2.681	1.880	1.880	1.875	1.890	1.890	1.885
0.005	0.015	0.000	0.000	-0.005	0.000	0.039	2.637	1.870	1.875	1.875	1.890	1.885	1.885
0.000	0.005	0.005	0.005	0.000	0.005	0.039	2.666	1.870	1.875	1.875	1.890	1.885	1.885
-0.010	0.010	0.000	0.005	-0.005	0.010	0.039	2.642	1.870	1.875	1.875	1.890	1.890	1.890
0.000	0.010	-0.005	0.005	0.005	0.005	0.039	2.651	1.870	1.870	1.870	1.890	1.890	1.890
0.000	0.015	-0.005	0.000	-0.005	-0.010	0.039	2.705	1.875	1.875	1.870	1.890	1.885	1.885
0.000	0.000	-0.005	0.000	0.000	-0.005	0.039	2.656	1.875	1.870	1.870	1.890	1.890	1.880
-0.020	0.005	-0.005	0.000	0.000	-0.020	0.039	2.739	1.880	1.875	1.870	1.890	1.890	1.885
-0.005	0.005	-0.005	0.005	0.005	0.000	0.039	2.690	1.880	1.875	1.870	1.890	1.890	1.890
-0.005	-0.010	-0.005	0.000	0.005	-0.005	0.039	2.710	1.890	1.875	1.870	1.890	1.885	1.885
-0.005	-0.005	0.005	0.000	0.005	0.015	0.039	2.666	1.890	1.880	1.875	1.890	1.890	1.895
-0.005	-0.005	0.000	0.005	0.005	0.005	0.039	2.646	1.880	1.880	1.875	1.890	1.890	1.890
0.010	-0.005	0.005	0.000	0.005	0.015	0.039	2.617	1.895	1.880	1.875	1.890	1.890	1.885
0.010	-0.005	0.010	0.000	0.005	0.005	0.039	2.739	1.899	1.885	1.875	1.890	1.885	1.885
0.005	-0.005	0.010	0.005	0.000	-0.010	0.039	2.715	1.895	1.885	1.880	1.895	1.885	1.880
0.000	-0.010	0.005	0.005	-0.005	-0.005	0.039	2.715	1.899	1.885	1.875	1.895	1.885	1.880
0.005	-0.005	0.000	0.005	-0.005	0.000	0.039	2.705	1.895	1.890	1.880	1.895	1.885	1.885
0.015	-0.010	0.000	0.000	0.000	0.000	0.039	2.637	1.890	1.885	1.880	1.895	1.890	1.885
0.005	-0.005	-0.005	0.000	0.010	0.005	0.039	2.671	1.880	1.885	1.880	1.899	1.895	1.890
-0.005	-0.005	0.000	0.000	0.015	-0.005	0.039	2.705	1.880	1.885	1.880	1.899	1.895	1.885
-0.005	0.020	-0.005	0.000	0.010	0.000	0.039	2.676	1.885	1.890	1.885	1.899	1.890	1.890
-0.005	0.020	-0.005	0.000	0.005	0.000	0.039	2.705	1.885	1.885	1.885	1.899	1.890	1.890
0.000	0.010	0.000	0.005	0.000	0.010	0.039	2.725	1.890	1.885	1.885	1.899	1.895	1.890
0.000	0.005	-0.005	0.005	0.005	0.000	0.039	2.671	1.885	1.885	1.885	1.899	1.895	1.890
0.000	0.005	0.000	0.000	0.000	0.010	0.039	2.705	1.885	1.880	1.885	1.904	1.895	1.895
0.005	0.005	0.000	0.005	0.000	0.010	0.039	2.661	1.890	1.885	1.885	1.904	1.895	1.895
-0.005	0.000	0.005	0.000	0.000	-0.010	0.039	2.671	1.885	1.880	1.885	1.899	1.895	1.890
0.005	0.000	0.005	0.000	0.000	0.010	0.039	2.671	1.885	1.880	1.880	1.904	1.895	1.895
0.010	-0.005	0.010	0.005	-0.005	0.005	0.039	2.686	1.890	1.880	1.885	1.904	1.895	1.895
0.010	-0.010	0.005	0.005	0.000	-0.010	0.039	2.671	1.880	1.875	1.880	1.904	1.895	1.890
0.010	-0.010	0.005	0.000	0.000	-0.005	0.039	2.671	1.880	1.875	1.880	1.899	1.895	1.895
0.010	-0.005	0.010	0.005	0.005	-0.024	0.034	2.695	1.885	1.880	1.880	1.899	1.895	1.890
0.020	-0.005	0.000	0.000	0.000	0.010	0.034	2.700	1.885	1.885	1.880	1.895	1.895	1.899
0.010	0.000	0.005	0.000	0.000	0.010	0.039	2.681	1.885	1.885	1.880	1.899	1.895	1.899
0.005	0.000	0.005	0.000	-0.005	0.005	0.039	2.681	1.885	1.880	1.880	1.895	1.895	1.895
0.010	0.010	0.005	0.000	0.000	-0.005	0.039	2.700	1.875	1.880	1.880	1.899	1.895	1.895
0.000	0.010	0.000	0.000	0.005	-0.005	0.039	2.671	1.875	1.880	1.880	1.899	1.895	1.890
-0.015	0.005	-0.005	0.005	0.000	0.000	0.034	2.666	1.870	1.875	1.875	1.895	1.895	1.890
-0.010	0.000	-0.005	0.005	0.005	0.000	0.039	2.705	1.880	1.875	1.875	1.895	1.895	1.895
-0.015	0.010	-0.005	0.000	0.000	-0.005	0.039	2.690	1.885	1.880	1.875	1.899	1.890	1.890
-0.020	0.005	0.000	0.005	0.000	0.005	0.039	2.695	1.885	1.880	1.875	1.895	1.895	1.890
-0.015	0.005	0.000	0.000	0.000	0.005	0.039	2.637	1.880	1.880	1.875	1.899	1.895	1.895
-0.005	-0.005	0.000	0.005	-0.005	0.005	0.039	2.671	1.880	1.875	1.875	1.895	1.890	1.890
-0.005	0.005	0.005	0.005	0.000	-0.005	0.034	2.646	1.875	1.875	1.875	1.895	1.895	1.890
-0.005	-0.005	0.005	0.000	0.000	0.005	0.039	2.661	1.880	1.875	1.875	1.895	1.890	1.890
0.005	0.010	0.000	0.000	0.000	-0.020	0.039	2.637	1.875	1.880	1.875	1.899	1.890	1.890
0.005	-0.005	0.005	0.000	0.000	-0.005	0.039	2.656	1.875	1.875	1.875	1.895	1.890	1.890
0.015	0.000	0.005	0.000	0.000	0.005	0.039	2.749	1.885	1.875	1.875	1.895	1.890	1.890
0.015	-0.010	0.005	0.000	-0.005	-0.005	0.039	2.671	1.880	1.875	1.875	1.890	1.890	1.890
0.005	0.000	0.005	0.000	0.005	0.010	0.034	2.749	1.885	1.880	1.875	1.890	1.890	1.890
0.005	-0.005	0.010	0.000	0.005	0.005	0.034	2.651	1.880	1.880	1.875	1.895	1.890	1.890
0.010	-0.005	-0.005	0.005	0.000	0.000	0.039	2.627	1.875	1.880	1.870	1.890	1.890	1.885
0.010	0.005	0.005	0.000	0.000	0.005	0.039	2.725	1.885	1.880	1.875	1.890	1.890	1.890
-0.005	0.000	0.000	0.005	0.010	0.010	0.039	2.749	1.890	1.880	1.875	1.895	1.890	1.890
-0.005	0.010	-0.005	0.005	0.000	0.000	0.039	2.749	1.895	1.885	1.875	1.895	1.885	1.890
-0.005	0.010	-0.005	0.000	-0.005	-0.005	0.034	2.749	1.895	1.885	1.880	1.890	1.890	1.890
-0.010	0.015	-0.005	0.000	0.000	0.010	0.034	2.710	1.890	1.890	1.880	1.895	1.890	1.890
-0.020	0.010	0.000	0.000	-0.005	0.010	0.039	2.661	1.885	1.890	1.885	1.895	1.890	1.890
-0.015	0.010	0.000	0.000	0.000	0.015	0.039	2.681	1.885	1.885	1.885	1.899	1.890	1.890
-0.010	0.000	0.005	0.000	-0.005	0.015	0.039	2.686	1.885	1.885	1.885	1.899	1.890	1.890
0.005	0.000	0.005	-0.005	0.000	0.020	0.039	2.700	1.890	1.885	1.885	1.899	1.895	1.895
0.000	0.005	0.005	0.000	0.005	0.015	0.039	2.671	1.885	1.885	1.885	1.904	1.895	1.890
0.000	0.005	0.005	-0.005	0.005	-0.005	0.039	2.700	1.885	1.880	1.885	1.899	1.895	1.885
0.010	-0.010	0.005	0.000	0.005	-0.020	0.034	2.671	1.885	1.880	1.880	1.899	1.895	1.885
0.020	-0.010	0.005	0.000	0.005	-0.034	0.039	2.695	1.885	1.880	1.880	1.899	1.895	1.880
0.015	-0.024	0.005	0.005	0.005	-0.015	0.039	2.695	1.880	1.875	1.880	1.899	1.895	1.890
0.010	-0.015	0.000	0.005	0.000	-0.020	0.039	2.695	1.880	1.880	1.875	1.895	1.895	1.890
0.010	-0.010	0.000	0.005	0.010	-0.010	0.034	2.661	1.880	1.880	1.875	1.895	1.895	1.895
0.000	-0.005	0.000	0.005	0.010	-0.020	0.039	2.690	1.875	1.875	1.875	1.895	1.895	1.890
0.010	0.005	0.000	0.005	0.005	-0.010	0.039	2.661	1.880	1.880	1.880	1.895	1.890	1.895
-0.005	0.024	-0.005	0.000	0.000	0.000	0.039	2.666	1.880	1.885	1.875	1.895	1.890	1.895
0.000	0.020	-0.005	0.000	-0.005	-0.005	0.039	2.671	1.875	1.885	1.880	1.895	1.890	1.890
0.000	0.020	0.000	0.000	-0.005	0.005	0.039	2.686	1.880	1.880	1.880	1.895	1.890	1.895
-0.005	0.015	-0.005	0.005	0.005	0.015	0.034	2.666	1.885	1.880	1.880	1.899	1.895	1.899
0.000	0.015	0.000	0.000	-0.005	0.029	0.039	2.671	1.885	1.880	1.880	1.899	1.890	1.899
0.000	0.015	-0.005	0.000	-0.010	0.024	0.039	2.671	1.880	1.880	1.880	1.895	1.890	1.895
0.000	-0.005	0.000	0.005	-0.024	0.024	0.039	2.695	1.885	1.875	1.875	1.899	1.890	1.890
0.015	-0.010	0.005	0.000	-0.010	0.024	0.039	2.676	1.890	1.880	1.880	1.899	1.895	1.890
0.005	-0.005	0.005	0.005	0.005	0.000	0.039	2.695	1.885	1.880	1.880	1.899	1.895	1.885
0.029	-0.005	0.010	0.000	0.005	0.015	0.039	2.681	1.890	1.885	1.880	1.899	1.895	1.895
0.034	0.010	0.010	0.000	0.010	-0.005	0.039	2.686	1.885	1.885	1.880	1.899	1.895	1.885
0.020	-0.010	0.010	0.005	0.005	0.005	0.039	2.632	1.875	1.880	1.880	1.899	1.895	1.890
0.000	0.005	0.005	0.000	0.005	0.005	0.039	2.666	1.875	1.880	1.880	1.895	1.895	1.890
0.015	-0.005	0.005	0.000	0.005	0.000	0.039	2.632	1.870	1.875	1.875	1.895	1.890	1.890
-0.024	0.000	0.005	0.000	0.000	0.000	0.039	2.651	1.860	1.870	1.875	1.895	1.890	1.890
-0.024	0.005	0.000	0.000	0.005	0.000	0.039	2.725	1.875	1.875	1.870	1.890	1.890	1.890
-0.029	-0.010	0.000	0.000	0.005	-0.015	0.039	2.661	1.870	1.865	1.870	1.895	1.890	1.885
-0.034	-0.005	0.000	0.000	0.000	-0.020	0.039	2.646	1.870	1.870	1.870	1.890	1.890	1.885
-0.020	-0.005	-0.005	0.000	0.000	0.000	0.039	2.695	1.875	1.870	1.870	1.890	1.890	1.890
-0.020	0.005	-0.005	0.000	0.005	0.015	0.039	2.700	1.885	1.875	1.870	1.885	1.890	1.895
-0.010	0.000	0.000	0.000	0.000	0.010	0.039	2.832	1.904	1.880	1.875	1.890	1.885	1.890
0.000	0.005	-0.005	0.000	0.005	0.000	0.039	2.642	1.904	1.890	1.875	1.890	1.885	1.890
-0.005	0.024	-0.005	-0.005	0.010	0.015	0.034	2.725	1.899	1.895	1.880	1.895	1.890	1.890
-0.005	0.015	0.005	0.000	0.000	-0.010	0.039	2.739	1.899	1.895	1.885	1.895	1.885	1.885
0.005	0.000	0.000	0.005	0.000	0.005	0.039	2.632	1.904	1.895	1.890	1.899	1.890	1.890
0.010	0.000	0.005	0.000	0.000	0.020	0.039	2.632	1.890	1.890	1.890	1.899	1.890	1.890
0.020	0.005	0.005	0.000	0.000	0.015	0.039	2.705	1.895	1.890	1.890	1.904	1.895	1.890
0.024	-0.010	0.005	0.005	0.005	0.015	0.039	2.666	1.890	1.885	1.885	1.904	1.895	1.890
0.020	-0.010	0.005	0.005	0.005	0.010	0.034	2.671	1.885	1.885	1.885	1.904	1.895	1.890
0.024	0.000	0.010	0.005	0.000	-0.005	0.039	2.710	1.885	1.885	1.885	1.904	1.895	1.890
0.020	0.000	0.000	0.000	0.005	0.000	0.039	2.700	1.885	1.885	1.880	1.904	1.899	1.890
0.010	0.015	0.000	0.000	0.005	-0.010	0.039	2.705	1.880	1.890	1.880	1.899	1.899	1.890
0.000	0.000	0.000	0.005	0.000	0.000	0.039	2.690	1.880	1.880	1.880	1.904	1.895	1.895
-0.005	-0.005	-0.005	0.000	0.000	0.005	0.034	2.676	1.875	1.875	1.880	1.899	1.895	1.895
-0.010	0.005	0.000	0.000	0.000	-0.015	0.034	2.700	1.875	1.880	1.880	1.899	1.895	1.885
-0.005	0.005	0.000	0.000	0.000	-0.010	0.039	2.710	1.885	1.880	1.880	1.899	1.895	1.895
-0.015	0.005	0.000	-0.005	0.000	-0.005	0.039	2.710	1.885	1.880	1.880	1.899	1.895	1.895
-0.005	0.000	0.000	0.000	0.005	-0.039	0.039	2.676	1.885	1.880	1.880	1.899	1.895	1.885
-0.005	0.000	0.000	-0.005	0.000	-0.005	0.039	2.676	1.880	1.880	1.875	1.899	1.895	1.895
-0.005	0.000	-0.005	0.000	0.000	0.005	0.039	2.686	1.885	1.880	1.880	1.899	1.895	1.899
0.010	-0.010	0.005	0.005	0.005	0.020	0.034	2.671	1.880	1.875	1.880	1.899	1.895	1.904
0.010	0.000	0.000	0.000	0.005	0.015	0.039	2.695	1.880	1.880	1.880	1.899	1.895	1.895
0.010	-0.015	0.000	0.005	-0.010	0.015	0.039	2.700	1.885	1.875	1.875	1.899	1.890	1.895
0.010	-0.024	0.005	0.005	-0.015	0.029	0.039	2.676	1.885	1.875	1.875	1.895	1.890	1.899
0.015	-0.010	0.005	0.005	-0.010	0.015	0.039	2.690	1.885	1.880	1.880	1.895	1.890	1.890
0.015	-0.010	0.010	0.005	0.005	0.015	0.039	2.666	1.875	1.880	1.880	1.895	1.895	1.890
0.015	-0.005	0.010	0.010	0.000	0.000	0.034	2.666	1.875	1.885	1.880	1.895	1.895	1.885
0.005	0.005	0.005	0.000	0.000	0.005	0.039	2.686	1.875	1.880	1.875	1.895	1.895	1.890
0.000	0.005	0.000	0.000	0.000	0.010	0.039	2.695	1.875	1.880	1.875	1.895	1.890	1.890
0.000	0.010	-0.005	0.000	0.000	0.005	0.039	2.690	1.880	1.875	1.875	1.895	1.890	1.890
-0.010	0.010	-0.005	0.000	0.005	-0.005	0.039	2.690	1.880	1.880	1.875	1.895	1.890	1.885
-0.010	0.015	-0.005	0.000	0.005	0.010	0.039	2.642	1.875	1.880	1.875	1.895	1.890	1.895
-0.005	0.020	-0.005	0.000	0.000	0.005	0.039	2.676	1.875	1.880	1.875	1.895	1.890	1.890
0.015	0.034	0.000	0.005	0.000	0.005	0.039	2.642	1.885	1.885	1.880	1.899	1.890	1.890
0.005	0.020	0.000	0.000	0.005	0.000	0.034	2.656	1.880	1.875	1.880	1.899	1.890	1.890
0.000	0.005	0.000	-0.005	0.000	-0.005	0.039	2.729	1.885	1.875	1.875	1.895	1.890	1.890
0.005	0.005	0.005	0.000	0.000	0.000	0.039	2.651	1.880	1.875	1.880	1.899	1.890	1.890
0.000	0.000	0.005	0.005	0.000	0.000	0.039	2.744	1.885	1.875	1.875	1.899	1.890	1.890
-0.005	-0.015	0.000	0.005	0.000	-0.005	0.039	2.671	1.885	1.875	1.875	1.895	1.890	1.890
-0.010	-0.005	0.005	0.005	0.000	0.010	0.034	2.710	1.885	1.880	1.875	1.895	1.895	1.895
0.000	0.000	0.005	0.005	0.000	-0.015	0.039	2.671	1.875	1.880	1.875	1.895	1.890	1.885
0.000	-0.010	0.010	0.000	0.010	-0.020	0.039	2.676	1.875	1.875	1.875	1.895	1.890	1.885
-0.005	0.000	0.005	0.005	0.005	0.005	0.039	2.622	1.870	1.875	1.875	1.895	1.890	1.890
-0.005	-0.010	0.005	0.000	0.000	0.015	0.039	2.749	1.885	1.875	1.870	1.895	1.890	1.895
0.005	0.000	0.000	0.000	0.000	0.015	0.039	2.744	1.890	1.880	1.870	1.890	1.890	1.890
0.000	0.000	0.000	0.005	0.005	0.005	0.039	2.622	1.885	1.880	1.875	1.895	1.890	1.890
0.000	-0.005	-0.005	0.000	0.000	0.005	0.039	2.715	1.885	1.880	1.875	1.890	1.890	1.890
-0.015	0.005	-0.005	0.000	-0.005	0.005	0.039	2.651	1.880	1.880	1.875	1.890	1.885	1.885
-0.010	0.005	0.000	0.000	-0.005	0.005	0.039	2.676	1.880	1.880	1.880	1.895	1.885	1.885
0.005	0.005	0.000	0.005	-0.010	-0.005	0.039	2.705	1.885	1.880	1.880	1.895	1.885	1.885
0.000	0.005	0.000	0.005	-0.010	-0.005	0.044	2.681	1.890	1.885	1.880	1.895	1.890	1.885
0.000	0.000	-0.005	0.005	0.000	-0.005	0.039	2.666	1.885	1.885	1.880	1.895	1.890	1.885
0.010	0.000	0.000	0.005	0.000	0.000	0.039	2.705	1.890	1.885	1.880	1.899	1.895	1.885
0.015	0.010	0.000	0.005	0.010	-0.020	0.039	2.700	1.885	1.885	1.885	1.899	1.895	1.885
0.015	-0.010	0.000	-0.005	0.015	-0.024	0.039	2.705	1.885	1.880	1.885	1.899	1.895	1.885
0.010	-0.005	0.005	0.000	0.010	0.010	0.039	2.666	1.880	1.880	1.880	1.899	1.895	1.899
0.005	-0.005	0.005	0.000	0.015	0.000	0.039	2.695	1.880	1.875	1.880	1.899	1.895	1.895
0.005	-0.010	0.005	0.000	0.034	-0.005	0.039	2.671	1.875	1.875	1.880	1.899	1.899	1.895
-0.005	-0.015	0.005	-0.005	0.034	0.000	0.034	2.700	1.880	1.875	1.875	1.899	1.895	1.895
-0.015	-0.005	0.005	0.000	0.005	-0.029	0.039	2.656	1.875	1.875	1.875	1.895	1.890	1.885
0.000	0.010	0.000	0.000	0.000	0.015	0.039	2.671	1.880	1.880	1.875	1.895	1.885	1.899
-0.005	0.005	0.005	0.005	-0.010	0.010	0.039	2.700	1.880	1.875	1.875	1.895	1.885	1.890
-0.005	0.015	0.000	0.000	-0.010	-0.015	0.039	2.681	1.880	1.880	1.875	1.895	1.885	1.885
-0.010	0.024	0.000	0.000	-0.005	0.000	0.039	2.676	1.880	1.885	1.880	1.895	1.890	1.890
-0.005	0.020	0.000	0.000	0.000	-0.010	0.039	2.700	1.885	1.880	1.880	1.895	1.890	1.885
-0.005	0.015	0.000	0.000	0.005	0.000	0.039	2.666	1.880	1.880	1.880	1.895	1.895	1.895
-0.010	0.010	0.000	0.000	0.015	0.005	0.039	2.705	1.885	1.875	1.880	1.895	1.895	1.895
-0.010	0.005	0.000	0.000	0.015	-0.024	0.039	2.681	1.885	1.875	1.880	1.895	1.895	1.885
-0.005	-0.010	0.000	0.005	0.020	-0.015	0.039	2.666	1.880	1.875	1.875	1.895	1.895	1.895
-0.010	-0.005	0.000	0.010	0.029	0.000	0.039	2.681	1.880	1.875	1.875	1.899	1.895	1.895
0.000	-0.005	0.005	0.005	0.015	-0.010	0.039	2.681	1.885	1.875	1.875	1.895	1.890	1.890
0.020	-0.010	0.005	0.005	0.010	0.015	0.039	2.627	1.885	1.880	1.875	1.895	1.890	1.895
0.029	-0.005	0.000	0.005	0.010	-0.020	0.039	2.681	1.885	1.880	1.875	1.895	1.890	1.885
0.020	-0.010	0.005	0.005	0.005	-0.005	0.039	2.783	1.890	1.880	1.875	1.890	1.885	1.885
0.020	0.005	0.000	0.010	0.005	0.020	0.039	2.637	1.880	1.885	1.880	1.895	1.890	1.895
0.005	0.005	0.000	0.005	-0.005	0.015	0.039	2.720	1.885	1.880	1.880	1.895	1.885	1.890
0.010	-0.015	0.000	0.000	0.000	0.015	0.039	2.695	1.885	1.875	1.875	1.895	1.890	1.890
0.000	-0.010	0.000	0.005	-0.005	0.010	0.034	2.637	1.875	1.875	1.875	1.895	1.890	1.890
-0.010	-0.010	0.000	0.005	-0.005	-0.010	0.034	2.651	1.870	1.875	1.875	1.895	1.885	1.880
-0.010	0.005	0.000	0.005	0.000	0.000	0.039	2.627	1.870	1.875	1.875	1.895	1.890	1.885
0.020	0.005	-0.005	0.000	-0.005	0.005	0.039	2.656	1.875	1.875	1.875	1.895	1.890	1.885
0.015	0.010	-0.005	0.000	-0.005	0.005	0.039	2.656	1.875	1.875	1.875	1.895	1.890	1.890
-0.005	0.010	-0.010	0.000	-0.010	0.015	0.039	2.651	1.875	1.875	1.875	1.890	1.890	1.890
0.005	0.015	-0.005	0.005	-0.010	0.005	0.039	2.725	1.890	1.875	1.875	1.895	1.890	1.890
0.000	0.010	0.000	0.000	-0.010	0.015	0.039	2.661	1.885	1.880	1.875	1.890	1.890	1.885
-0.015	0.029	0.005	0.000	-0.005	0.015	0.039	2.661	1.875	1.880	1.880	1.895	1.890	1.890
-0.024	0.020	0.005	0.000	-0.005	0.015	0.039	2.720	1.880	1.880	1.875	1.895	1.890	1.890
-0.024	0.010	0.000	-0.005	-0.005	0.015	0.039	2.686	1.880	1.875	1.875	1.895	1.890	1.885
-0.010	0.000	0.000	-0.005	-0.010	0.000	0.039	2.681	1.880	1.870	1.875	1.895	1.890	1.885
-0.010	-0.015	0.010	0.000	-0.005	0.010	0.039	2.695	1.880	1.870	1.875	1.890	1.890	1.890
-0.005	-0.015	0.015	-0.005	-0.005	-0.010	0.039	2.671	1.880	1.875	1.875	1.895	1.890	1.880
0.000	-0.015	0.005	-0.005	-0.010	0.010	0.034	2.695	1.880	1.875	1.870	1.890	1.890	1.890
0.010	0.000	0.010	0.000	-0.005	0.010	0.039	2.666	1.875	1.875	1.875	1.890	1.885	1.890
0.005	0.005	0.005	0.000	-0.010	0.000	0.039	2.661	1.875	1.875	1.875	1.890	1.890	1.890
0.005	-0.005	-0.005	-0.005	-0.005	0.010	0.039	2.705	1.880	1.875	1.870	1.890	1.890	1.885
0.000	0.000	-0.005	0.000	-0.005	0.005	0.039	2.676	1.875	1.875	1.875	1.890	1.890	1.885
0.005	0.005	0.000	0.000	0.000	-0.024	0.039	2.695	1.875	1.875	1.875	1.890	1.890	1.880
-0.005	0.005	-0.005	-0.005	-0.005	-0.010	0.039	2.705	1.880	1.880	1.875	1.890	1.885	1.880
-0.010	0.005	-0.005	0.000	0.000	0.010	0.039	2.671	1.880	1.880	1.875	1.890	1.890	1.890
-0.015	0.010	-0.005	0.000	0.000	0.005	0.039	2.671	1.880	1.880	1.875	1.895	1.890	1.890
-0.010	0.000	-0.010	0.005	0.000	0.005	0.039	2.695	1.880	1.875	1.875	1.895	1.890	1.890
-0.005	0.015	-0.005	0.000	0.005	-0.010	0.039	2.676	1.880	1.880	1.880	1.895	1.890	1.885
-0.005	0.015	-0.005	0.005	0.005	0.000	0.039	2.666	1.880	1.880	1.880	1.895	1.890	1.890
0.000	0.010	0.000	0.005	0.005	-0.005	0.039	2.671	1.880	1.875	1.875	1.895	1.890	1.890
0.010	-0.005	0.005	0.000	0.005	0.010	0.039	2.666	1.880	1.875	1.875	1.895	1.890	1.895
0.015	0.000	0.005	0.005	0.005	0.005	0.039	2.671	1.880	1.880	1.875	1.895	1.890	1.890
0.034	-0.005	0.005	0.005	0.005	-0.015	0.039	2.671	1.885	1.875	1.875	1.895	1.890	1.880
0.034	-0.024	0.000	0.005	0.005	-0.005	0.039	2.666	1.875	1.875	1.875	1.895	1.890	1.890
0.024	-0.015	0.010	0.005	0.005	0.005	0.039	2.661	1.875	1.875	1.875	1.895	1.890	1.890
0.020	-0.005	0.005	0.005	0.005	0.000	0.034	2.686	1.880	1.880	1.875	1.895	1.890	1.885
0.024	0.005	0.010	0.000	0.005	0.010	0.039	2.686	1.880	1.885	1.875	1.890	1.890	1.890
0.015	-0.005	0.005	0.005	0.005	-0.005	0.039	2.637	1.870	1.870	1.875	1.890	1.885	1.880
0.005	0.000	0.000	0.000	0.005	0.000	0.039	2.671	1.870	1.870	1.870	1.890	1.885	1.890
0.000	0.000	0.000	0.005	0.000	0.010	0.039	2.646	1.870	1.870	1.870	1.895	1.885	1.885
-0.010	-0.005	-0.005	0.005	0.005	0.005	0.039	2.651	1.870	1.870	1.870	1.890	1.890	1.890
-0.020	0.005	-0.005	0.000	0.005	-0.010	0.034	2.651	1.870	1.870	1.870	1.890	1.885	1.885
-0.020	0.005	-0.005	0.000	0.005	0.005	0.039	2.656	1.865	1.870	1.870	1.890	1.885	1.885
-0.020	0.010	0.000	0.000	0.000	0.005	0.039	2.749	1.880	1.875	1.870	1.890	1.885	1.885
-0.020	0.000	-0.005	0.000	0.005	0.000	0.039	2.671	1.880	1.875	1.870	1.890	1.885	1.885
-0.010	0.010	0.000	0.005	-0.005	0.010	0.039	2.720	1.885	1.875	1.870	1.890	1.885	1.885
-0.005	-0.005	0.000	0.000	0.005	-0.010	0.039	2.651	1.880	1.875	1.875	1.885	1.885	1.880
-0.005	-0.005	0.010	0.000	0.000	0.005	0.039	2.656	1.880	1.875	1.870	1.890	1.885	1.885
0.005	-0.010	0.010	0.005	0.000	0.000	0.039	2.671	1.885	1.875	1.875	1.890	1.885	1.885
0.000	0.005	0.010	0.005	0.005	0.005	0.039	2.739	1.890	1.880	1.875	1.890	1.885	1.885
0.024	0.005	0.010	0.000	0.000	0.000	0.039	2.729	1.899	1.885	1.875	1.890	1.885	1.880
0.034	-0.005	0.005	0.005	0.005	-0.020	0.039	2.622	1.885	1.880	1.880	1.890	1.885	1.880
0.024	0.000	0.005	0.010	0.005	0.005	0.034	2.627	1.875	1.880	1.880	1.895	1.890	1.885
0.015	0.000	0.005	0.000	0.005	-0.020	0.039	2.646	1.870	1.875	1.875	1.895	1.885	1.880
0.005	0.000	0.000	0.000	0.010	0.010	0.039	2.676	1.865	1.870	1.875	1.895	1.890	1.890
-0.010	0.010	-0.005	0.005	0.000	0.000	0.039	2.681	1.870	1.875	1.870	1.895	1.890	1.885
-0.015	0.010	-0.005	0.000	0.005	0.010	0.039	2.681	1.870	1.875	1.875	1.890	1.890	1.890
-0.015	0.010	-0.005	0.000	0.000	0.010	0.039	2.700	1.875	1.870	1.875	1.890	1.885	1.890
-0.029	0.010	-0.005	0.000	0.005	-0.005	0.039	2.705	1.870	1.870	1.875	1.890	1.885	1.880
-0.024	0.005	-0.005	0.005	0.000	0.005	0.034	2.681	1.875	1.875	1.870	1.890	1.885	1.885
-0.024	0.005	0.005	0.000	0.000	0.015	0.039	2.700	1.880	1.875	1.875	1.890	1.890	1.890
-0.010	-0.005	-0.010	0.005	0.005	-0.010	0.039	2.666	1.875	1.875	1.870	1.890	1.890	1.885
-0.010	-0.005	0.005	0.010	0.015	0.015	0.039	2.700	1.880	1.875	1.875	1.895	1.890	1.890
-0.005	0.000	0.005	0.005	0.000	0.005	0.039	2.651	1.880	1.880	1.875	1.890	1.885	1.885
0.015	0.000	0.000	0.005	0.005	0.005	0.039	2.700	1.885	1.875	1.875	1.890	1.885	1.885
0.024	0.000	0.015	0.000	0.000	-0.015	0.034	2.666	1.885	1.880	1.875	1.890	1.880	1.880
0.020	-0.005	0.005	0.000	0.005	0.005	0.039	2.681	1.880	1.880	1.875	1.890	1.885	1.885
0.034	-0.010	0.005	0.000	0.010	-0.010	0.039	2.695	1.880	1.875	1.875	1.895	1.885	1.880
0.024	-0.010	0.005	-0.005	0.000	-0.015	0.039	2.681	1.880	1.875	1.875	1.895	1.885	1.880
0.024	-0.010	0.005	0.005	-0.005	-0.015	0.039	2.671	1.875	1.875	1.875	1.890	1.885	1.880
0.024	-0.005	0.000	0.000	-0.005	-0.010	0.039	2.700	1.880	1.875	1.875	1.890	1.885	1.885
-0.005	0.000	-0.005	0.000	-0.015	0.000	0.039	2.690	1.875	1.875	1.875	1.890	1.885	1.885
-0.010	0.005	0.000	0.005	-0.005	0.005	0.039	2.681	1.875	1.875	1.870	1.890	1.890	1.885
-0.010	0.005	-0.005	0.000	-0.005	0.000	0.039	2.676	1.870	1.875	1.875	1.890	1.890	1.885
-0.020	0.015	0.000	0.000	0.000	0.010	0.039	2.681	1.875	1.875	1.875	1.890	1.890	1.890
-0.024	0.010	0.005	0.005	0.005	0.010	0.039	2.695	1.875	1.875	1.875	1.895	1.890	1.890
-0.015	0.024	-0.005	0.005	0.010	0.005	0.039	2.686	1.880	1.875	1.875	1.890	1.890	1.890
-0.015	0.005	0.000	0.000	0.005	0.010	0.039	2.642	1.875	1.870	1.875	1.890	1.890	1.890
-0.010	-0.005	0.005	0.000	0.005	0.005	0.039	2.681	1.875	1.870	1.875	1.890	1.890	1.885
-0.005	-0.010	0.005	0.010	0.005	-0.005	0.039	2.632	1.875	1.870	1.875	1.890	1.890	1.885
0.000	-0.005	0.000	-0.005	0.005	-0.020	0.039	2.651	1.870	1.870	1.870	1.890	1.885	1.880
0.000	0.010	0.010	0.000	0.000	0.010	0.039	2.642	1.875	1.875	1.870	1.890	1.885	1.890
0.010	0.010	0.000	0.005	0.000	0.005	0.039	2.651	1.870	1.875	1.870	1.890	1.885	1.885
0.010	0.000	0.000	0.005	0.000	0.000	0.039	2.744	1.875	1.870	1.870	1.890	1.885	1.885
0.010	-0.005	0.005	0.005	0.005	-0.010	0.039	2.671	1.875	1.870	1.870	1.890	1.885	1.885
0.015	0.005	0.000	0.000	0.005	0.005	0.039	2.651	1.880	1.875	1.870	1.890	1.885	1.885
0.010	0.000	0.005	0.005	0.005	-0.005	0.039	2.642	1.875	1.875	1.870	1.885	1.885	1.880
0.000	0.000	0.000	0.000	0.005	-0.010	0.039	2.642	1.870	1.875	1.870	1.885	1.880	1.880
0.005	-0.005	0.000	0.000	0.005	-0.020	0.039	2.651	1.870	1.870	1.870	1.885	1.880	1.875
-0.005	-0.005	0.000	-0.005	0.000	0.015	0.039	2.710	1.875	1.870	1.870	1.885	1.880	1.890
-0.005	0.005	0.000	0.000	0.000	-0.015	0.039	2.642	1.870	1.875	1.870	1.885	1.880	1.880
-0.010	0.005	-0.005	0.005	0.000	0.010	0.039	2.627	1.875	1.875	1.870	1.885	1.885	1.885
0.010	0.005	-0.005	0.005	0.000	-0.005	0.039	2.622	1.875	1.870	1.870	1.885	1.880	1.875
0.000	-0.005	-0.005	0.000	0.000	0.010	0.034	2.651	1.865	1.870	1.870	1.885	1.880	1.885
0.000	-0.005	0.000	-0.005	0.005	0.010	0.034	2.666	1.870	1.870	1.870	1.885	1.885	1.885
0.000	-0.005	-0.005	0.000	-0.005	-0.005	0.039	2.676	1.875	1.870	1.870	1.885	1.880	1.885
0.005	0.010	0.000	0.000	0.000	-0.005	0.039	2.666	1.875	1.875	1.870	1.890	1.885	1.880
0.010	0.010	0.005	0.005	0.000	0.005	0.039	2.676	1.875	1.875	1.870	1.890	1.880	1.880
0.015	0.000	0.005	0.005	0.000	-0.020	0.039	2.710	1.875	1.875	1.870	1.890	1.885	1.875
0.000	-0.015	0.005	0.005	0.000	0.020	0.039	2.690	1.875	1.870	1.870	1.890	1.885	1.890
0.010	-0.005	0.005	0.005	0.005	0.000	0.039	2.695	1.880	1.875	1.870	1.885	1.885	1.880
0.015	-0.005	0.000	0.000	0.010	0.010	0.039	2.690	1.875	1.875	1.870	1.890	1.885	1.885
0.005	-0.005	0.005	0.005	0.005	0.015	0.039	2.690	1.880	1.875	1.870	1.885	1.885	1.885
0.000	0.005	0.005	0.000	0.005	0.010	0.039	2.681	1.875	1.875	1.870	1.890	1.880	1.880
0.010	0.005	0.000	0.000	0.010	0.010	0.039	2.671	1.880	1.875	1.870	1.890	1.885	1.885
0.000	0.010	-0.005	0.005	0.005	-0.010	0.034	2.676	1.870	1.875	1.870	1.890	1.885	1.880
-0.005	0.010	-0.005	0.000	0.000	0.010	0.034	2.700	1.875	1.875	1.870	1.890	1.880	1.885
-0.005	0.005	-0.005	0.000	-0.005	0.005	0.039	2.695	1.880	1.875	1.875	1.890	1.880	1.880
-0.010	0.005	-0.005	0.005	-0.005	0.010	0.039	2.666	1.875	1.875	1.875	1.890	1.880	1.885
0.000	0.000	-0.005	0.000	-0.005	-0.005	0.039	2.671	1.875	1.875	1.870	1.890	1.880	1.880
-0.005	0.000	-0.005	0.005	-0.020	-0.024	0.039	2.671	1.875	1.875	1.870	1.890	1.875	1.870
-0.015	-0.005	0.000	0.005	-0.015	-0.024	0.034	2.671	1.870	1.870	1.875	1.890	1.885	1.875
-0.005	-0.005	0.005	0.005	-0.010	-0.024	0.039	2.671	1.870	1.870	1.875	1.895	1.885	1.880
-0.005	0.000	0.000	0.000	0.010	-0.029	0.039	2.676	1.870	1.870	1.870	1.890	1.890	1.880
0.000	0.000	0.005	-0.005	0.005	-0.029	0.039	2.676	1.875	1.870	1.870	1.890	1.890	1.880
0.005	0.000	0.005	-0.005	0.015	0.005	0.039	2.686	1.875	1.870	1.870	1.890	1.890	1.890
0.010	-0.005	0.000	0.000	0.005	0.015	0.039	2.676	1.875	1.870	1.870	1.890	1.885	1.890
0.010	0.000	0.005	0.005	0.005	0.015	0.034	2.627	1.870	1.875	1.870	1.890	1.885	1.890
0.010	0.005	0.000	0.010	0.000	0.015	0.039	2.676	1.870	1.870	1.870	1.890	1.885	1.890
0.010	-0.005	0.005	0.000	0.000	0.020	0.039	2.646	1.870	1.870	1.870	1.890	1.885	1.885
0.005	0.000	0.000	0.005	0.005	0.005	0.039	2.651	1.870	1.870	1.870	1.885	1.885	1.885
0.000	0.000	0.000	0.005	0.000	0.015	0.039	2.632	1.860	1.870	1.870	1.885	1.885	1.880
-0.005	0.010	0.000	0.000	0.000	0.015	0.039	2.666	1.865	1.870	1.865	1.885	1.885	1.885
0.005	0.015	0.000	-0.005	0.005	0.010	0.039	2.739	1.875	1.870	1.870	1.885	1.885	1.880
0.015	0.015	-0.005	-0.005	0.000	-0.005	0.039	2.661	1.880	1.875	1.865	1.880	1.880	1.875
0.010	0.015	0.000	-0.005	0.000	0.005	0.039	2.646	1.875	1.870	1.870	1.885	1.880	1.880
0.005	0.005	0.000	-0.005	0.005	0.010	0.039	2.676	1.870	1.870	1.870	1.885	1.880	1.880
-0.015	-0.010	0.000	-0.005	0.000	0.005	0.039	2.739	1.875	1.865	1.870	1.885	1.880	1.880
-0.015	0.000	-0.005	0.000	0.000	0.005	0.034	2.622	1.880	1.870	1.870	1.890	1.885	1.880
-0.024	-0.005	0.000	0.005	0.000	0.000	0.034	2.749	1.885	1.875	1.870	1.890	1.885	1.875
-0.020	-0.005	0.010	0.000	0.005	-0.010	0.039	2.666	1.880	1.875	1.870	1.890	1.885	1.875
-0.024	-0.015	0.010	0.005	0.000	0.005	0.039	2.759	1.890	1.875	1.875	1.890	1.885	1.880
-0.010	-0.005	0.005	0.005	0.005	0.005	0.039	2.622	1.880	1.880	1.875	1.890	1.885	1.885
0.020	-0.010	0.005	0.010	0.000	0.020	0.039	2.632	1.880	1.875	1.875	1.890	1.885	1.885
0.015	-0.015	0.005	0.005	0.000	0.010	0.039	2.671	1.875	1.875	1.875	1.890	1.885	1.885
0.044	0.000	0.010	0.010	0.000	0.010	0.034	2.671	1.880	1.880	1.875	1.890	1.885	1.885
0.044	-0.005	0.000	0.000	0.010	0.005	0.039	2.676	1.880	1.880	1.875	1.890	1.885	1.885
0.029	0.005	0.000	0.005	0.005	0.005	0.039	2.700	1.875	1.880	1.875	1.890	1.885	1.885
0.000	0.005	-0.005	0.005	0.005	0.010	0.039	2.700	1.875	1.880	1.875	1.890	1.885	1.885
-0.020	0.000	-0.005	0.005	0.000	0.005	0.039	2.705	1.870	1.875	1.875	1.895	1.885	1.885
-0.029	0.005	0.000	0.005	0.000	0.005	0.039	2.705	1.865	1.870	1.875	1.890	1.885	1.880
-0.039	-0.005	0.000	0.000	0.005	-0.029	0.039	2.695	1.860	1.865	1.870	1.890	1.885	1.875
-0.044	0.005	-0.005	0.005	0.000	-0.005	0.039	2.686	1.865	1.870	1.870	1.890	1.885	1.880
-0.029	0.010	-0.005	0.000	-0.005	-0.005	0.039	2.700	1.875	1.870	1.870	1.890	1.885	1.885
-0.020	0.005	-0.005	-0.005	-0.010	0.010	0.039	2.705	1.880	1.870	1.870	1.885	1.885	1.885
0.000	0.005	-0.005	-0.005	-0.010	0.015	0.039	2.676	1.885	1.875	1.870	1.890	1.885	1.885
0.005	-0.010	0.005	0.000	-0.010	0.005	0.039	2.700	1.880	1.875	1.875	1.890	1.885	1.885
0.005	-0.005	0.000	0.000	0.005	0.010	0.039	2.700	1.885	1.875	1.875	1.890	1.885	1.885
0.024	-0.005	0.005	0.005	0.010	0.005	0.039	2.671	1.885	1.880	1.875	1.890	1.890	1.885
0.020	0.010	0.005	0.010	0.010	-0.005	0.034	2.671	1.880	1.880	1.875	1.895	1.885	1.880
0.034	0.005	0.010	0.005	0.010	0.005	0.039	2.671	1.885	1.880	1.875	1.895	1.890	1.885
0.034	0.000	0.005	0.005	0.005	-0.020	0.039	2.695	1.875	1.880	1.875	1.895	1.885	1.880
0.034	0.010	0.005	0.000	0.000	-0.005	0.039	2.690	1.880	1.880	1.875	1.890	1.885	1.885
0.024	0.005	0.000	0.000	0.005	-0.010	0.039	2.676	1.870	1.875	1.875	1.890	1.885	1.880
0.005	0.005	0.000	-0.005	0.010	0.005	0.039	2.690	1.870	1.875	1.875	1.890	1.885	1.890
0.000	0.010	0.000	-0.005	0.000	-0.010	0.034	2.686	1.870	1.875	1.870	1.890	1.880	1.880
0.000	0.010	-0.005	0.000	0.000	0.015	0.034	2.681	1.870	1.875	1.875	1.890	1.885	1.890
-0.015	0.005	0.000	0.000	-0.005	0.000	0.039	2.642	1.865	1.870	1.870	1.890	1.885	1.885
-0.020	0.010	-0.005	0.010	-0.010	0.005	0.039	2.686	1.870	1.870	1.870	1.890	1.885	1.885
-0.020	0.010	-0.005	0.010	-0.005	-0.005	0.039	2.637	1.870	1.870	1.870	1.890	1.885	1.885
-0.024	0.010	0.000	0.000	-0.005	-0.039	0.039	2.651	1.870	1.870	1.870	1.890	1.885	1.875
-0.010	0.005	0.000	0.000	-0.005	-0.005	0.039	2.646	1.880	1.870	1.870	1.890	1.885	1.885
0.010	-0.005	0.000	0.005	-0.005	0.000	0.039	2.651	1.880	1.870	1.870	1.890	1.885	1.885
0.005	0.000	-0.005	-0.005	-0.005	0.000	0.034	2.695	1.885	1.870	1.870	1.885	1.880	1.885
0.015	-0.005	0.000	-0.005	-0.005	0.000	0.039	2.651	1.880	1.875	1.870	1.885	1.885	1.885
0.000	-0.005	0.005	-0.010	-0.005	0.015	0.039	2.627	1.880	1.875	1.870	1.885	1.880	1.885
0.015	-0.010	0.005	-0.005	-0.010	0.015	0.039	2.681	1.885	1.875	1.870	1.890	1.880	1.885
0.049	-0.005	0.005	-0.010	0.010	0.005	0.039	2.642	1.885	1.880	1.875	1.885	1.885	1.880
0.054	-0.005	0.005	0.000	0.005	-0.005	0.039	2.651	1.880	1.880	1.875	1.890	1.885	1.875
0.024	0.005	0.000	-0.005	0.010	0.000	0.039	2.744	1.880	1.880	1.875	1.890	1.885	1.885
-0.005	0.010	0.000	0.005	0.005	-0.015	0.039	2.715	1.875	1.880	1.875	1.895	1.885	1.880
-0.029	0.000	-0.010	0.005	0.010	-0.005	0.039	2.690	1.860	1.870	1.875	1.890	1.890	1.885
-0.039	0.000	-0.005	0.010	0.005	0.010	0.034	2.632	1.855	1.865	1.870	1.895	1.890	1.890
-0.054	0.010	0.000	0.005	0.000	0.005	0.039	2.681	1.865	1.865	1.870	1.890	1.885	1.885
-0.049	0.005	-0.005	0.010	0.000	0.010	0.039	2.676	1.870	1.865	1.870	1.890	1.885	1.885
-0.044	0.000	-0.005	0.015	0.005	-0.020	0.039	2.671	1.870	1.865	1.865	1.890	1.885	1.880
-0.020	0.005	-0.005	0.015	0.005	0.010	0.039	2.676	1.880	1.870	1.870	1.890	1.885	1.890
-0.024	-0.005	0.000	0.005	0.000	0.000	0.039	2.700	1.880	1.870	1.865	1.885	1.885	1.885
-0.005	0.000	0.005	0.000	0.005	0.005	0.034	2.690	1.885	1.875	1.870	1.885	1.880	1.885
0.005	0.000	0.000	0.005	0.005	-0.015	0.039	2.676	1.885	1.880	1.870	1.885	1.880	1.880
0.005	0.010	0.000	0.000	0.005	-0.010	0.039	2.700	1.885	1.880	1.875	1.890	1.880	1.880
0.024	-0.010	0.005	0.005	0.000	0.010	0.039	2.690	1.890	1.880	1.875	1.885	1.880	1.885
0.020	0.000	0.005	0.005	0.005	0.005	0.039	2.671	1.885	1.880	1.875	1.890	1.885	1.885
0.029	-0.005	0.005	0.000	0.000	0.005	0.039	2.666	1.885	1.880	1.875	1.890	1.885	1.880
0.029	-0.015	0.010	0.005	-0.005	0.005	0.039	2.666	1.880	1.875	1.875	1.890	1.880	1.885
0.015	0.000	0.005	-0.005	0.010	-0.010	0.039	2.671	1.875	1.875	1.875	1.890	1.885	1.880
0.010	0.000	0.005	-0.005	0.005	0.015	0.039	2.705	1.880	1.875	1.875	1.895	1.885	1.885
0.024	0.005	0.000	0.000	0.010	0.005	0.039	2.700	1.880	1.880	1.875	1.890	1.890	1.890
0.010	0.020	0.005	0.000	0.010	-0.020	0.034	2.676	1.875	1.880	1.875	1.890	1.885	1.880
0.000	0.010	0.000	0.005	0.005	0.005	0.039	2.666	1.870	1.875	1.875	1.895	1.885	1.885
0.000	0.015	-0.005	0.000	0.005	0.005	0.039	2.681	1.875	1.875	1.875	1.895	1.885	1.880
0.005	0.010	0.000	0.005	-0.005	0.005	0.039	2.656	1.875	1.875	1.870	1.895	1.885	1.885
0.005	0.005	-0.005	0.005	-0.005	0.010	0.039	2.700	1.875	1.870	1.875	1.895	1.890	1.890
0.000	0.005	-0.005	0.000	-0.005	0.015	0.039	2.681	1.880	1.870	1.870	1.890	1.885	1.885
0.000	0.005	0.000	0.000	-0.005	0.020	0.039	2.700	1.880	1.875	1.870	1.890	1.885	1.890
0.005	-0.005	-0.005	0.005	-0.010	0.010	0.039	2.681	1.880	1.875	1.875	1.890	1.885	1.885
0.010	0.000	0.005	0.000	-0.005	0.010	0.034	2.690	1.880	1.880	1.875	1.890	1.885	1.885
0.020	-0.010	0.005	0.010	-0.010	-0.015	0.039	2.642	1.875	1.875	1.875	1.895	1.885	1.880
0.010	-0.005	0.005	0.005	-0.005	0.005	0.039	2.681	1.875	1.875	1.875	1.895	1.890	1.885
0.020	0.005	0.015	0.005	0.000	0.000	0.039	2.642	1.875	1.875	1.875	1.890	1.885	1.885
0.015	-0.005	0.005	0.005	0.005	-0.005	0.039	2.646	1.865	1.870	1.870	1.890	1.890	1.885
0.010	0.000	0.005	0.000	0.005	0.005	0.039	2.632	1.865	1.870	1.875	1.890	1.890	1.885
0.010	0.000	0.005	-0.005	0.010	0.005	0.034	2.661	1.870	1.870	1.870	1.890	1.890	1.890
0.015	0.000	0.000	0.000	0.010	0.005	0.039	2.739	1.875	1.870	1.865	1.885	1.890	1.885
0.005	0.005	0.005	-0.005	0.000	0.005	0.039	2.666	1.875	1.875	1.870	1.885	1.880	1.885
-0.005	0.005	0.000	-0.005	0.000	-0.010	0.039	2.715	1.875	1.875	1.870	1.885	1.880	1.880
-0.015	0.010	0.000	-0.005	0.015	0.015	0.039	2.651	1.875	1.870	1.870	1.885	1.885	1.885
-0.020	0.010	-0.005	-0.005	0.010	0.000	0.039	2.725	1.870	1.870	1.870	1.885	1.885	1.885
-0.015	0.005	0.000	-0.005	0.005	0.005	0.039	2.632	1.870	1.870	1.870	1.885	1.880	1.880
-0.024	0.000	-0.005	0.000	0.000	0.005	0.039	2.725	1.870	1.870	1.870	1.885	1.885	1.885
-0.020	0.005	-0.005	0.000	0.005	0.000	0.039	2.749	1.880	1.875	1.870	1.885	1.880	1.880
-0.020	0.005	-0.005	0.010	0.010	0.005	0.039	2.637	1.880	1.875	1.870	1.890	1.885	1.885
-0.015	-0.005	0.005	0.010	0.005	-0.005	0.039	2.622	1.875	1.870	1.870	1.890	1.885	1.880
-0.005	0.000	0.005	0.005	0.005	0.010	0.039	2.671	1.875	1.875	1.870	1.890	1.885	1.885
0.005	-0.005	0.005	0.005	0.000	0.005	0.039	2.690	1.880	1.875	1.875	1.890	1.885	1.880
0.015	0.015	0.005	0.005	0.010	-0.020	0.039	2.666	1.880	1.875	1.875	1.890	1.885	1.875
0.015	-0.005	0.005	0.005	0.005	0.010	0.034	2.676	1.880	1.875	1.870	1.890	1.885	1.885
0.005	-0.010	0.005	0.005	0.005	0.000	0.039	2.676	1.875	1.870	1.875	1.890	1.885	1.885
0.024	-0.010	0.005	0.000	0.005	0.010	0.039	2.710	1.880	1.875	1.870	1.890	1.885	1.885
0.039	-0.010	0.000	0.005	0.010	-0.015	0.034	2.656	1.880	1.875	1.875	1.890	1.885	1.880
0.024	0.010	0.000	0.005	0.010	0.010	0.039	2.695	1.880	1.880	1.875	1.890	1.885	1.885
0.010	-0.005	0.005	0.005	0.005	0.015	0.039	2.700	1.875	1.875	1.875	1.890	1.885	1.885
-0.010	0.010	-0.005	0.000	0.000	0.000	0.039	2.671	1.870	1.875	1.870	1.890	1.880	1.875
-0.029	0.010	-0.005	0.000	0.005	-0.010	0.039	2.676	1.870	1.875	1.875	1.890	1.885	1.875
-0.034	0.015	0.000	0.000	0.000	-0.015	0.039	2.676	1.865	1.870	1.870	1.890	1.885	1.875
-0.029	0.005	0.000	0.005	-0.015	-0.015	0.039	2.681	1.870	1.870	1.870	1.890	1.880	1.875
-0.020	0.005	-0.005	0.000	-0.024	-0.020	0.039	2.690	1.865	1.870	1.870	1.885	1.880	1.875
-0.015	0.005	-0.005	0.000	-0.015	-0.005	0.039	2.681	1.875	1.870	1.870	1.890	1.885	1.880
-0.010	-0.010	-0.005	0.000	-0.005	-0.005	0.039	2.700	1.875	1.865	1.870	1.885	1.885	1.885
0.005	-0.005	-0.005	0.000	-0.005	0.005	0.039	2.661	1.880	1.870	1.870	1.885	1.885	1.885
0.010	-0.005	0.000	-0.005	0.000	0.010	0.039	2.671	1.880	1.875	1.870	1.885	1.885	1.890
0.015	-0.015	0.005	0.000	0.010	0.010	0.034	2.695	1.880	1.875	1.870	1.885	1.885	1.890
0.020	-0.020	0.010	0.000	0.005	-0.010	0.039	2.676	1.880	1.870	1.870	1.885	1.880	1.880
0.015	0.000	0.005	0.000	0.005	0.010	0.034	2.676	1.880	1.880	1.875	1.890	1.885	1.885
0.015	0.000	0.005	0.005	0.010	0.020	0.039	2.681	1.875	1.875	1.875	1.890	1.890	1.890
0.015	0.015	0.005	0.000	0.024	0.024	0.039	2.676	1.875	1.880	1.875	1.890	1.890	1.890
0.010	0.015	0.000	0.005	0.010	-0.010	0.039	2.695	1.880	1.875	1.870	1.890	1.880	1.880
0.000	0.015	0.000	0.005	0.005	0.020	0.039	2.646	1.875	1.875	1.870	1.890	1.885	1.885
-0.005	0.015	0.000	0.005	0.005	0.015	0.039	2.686	1.870	1.875	1.875	1.890	1.885	1.885
-0.015	0.010	-0.005	0.000	0.010	0.015	0.039	2.788	1.875	1.870	1.875	1.890	1.885	1.885
-0.010	0.020	0.000	-0.005	0.000	0.000	0.039	2.661	1.875	1.875	1.875	1.885	1.885	1.880
-0.015	0.015	-0.005	0.000	-0.005	0.005	0.039	2.715	1.875	1.875	1.870	1.890	1.880	1.880
-0.010	0.000	0.000	0.000	-0.010	-0.010	0.039	2.686	1.875	1.870	1.870	1.890	1.880	1.875
0.000	0.000	-0.005	0.000	-0.005	-0.005	0.039	2.725	1.880	1.870	1.870	1.890	1.880	1.880
-0.010	0.000	0.000	0.005	-0.005	0.005	0.039	2.686	1.880	1.875	1.870	1.890	1.885	1.885
-0.005	-0.005	0.005	0.005	0.000	0.005	0.039	2.739	1.875	1.875	1.875	1.890	1.885	1.885
0.005	-0.015	0.010	0.005	0.000	-0.005	0.039	2.705	1.880	1.875	1.875	1.895	1.890	1.880
0.005	-0.005	0.010	0.005	0.005	-0.010	0.039	2.744	1.875	1.875	1.870	1.890	1.890	1.880
0.015	0.005	0.005	0.005	0.010	0.010	0.039	2.646	1.870	1.875	1.875	1.890	1.890	1.890
0.010	-0.029	0.005	0.000	0.000	0.010	0.039	2.739	1.885	1.870	1.870	1.890	1.885	1.890
0.005	-0.020	0.005	-0.005	-0.005	-0.015	0.039	2.661	1.875	1.875	1.870	1.890	1.885	1.875
0.015	-0.015	0.005	-0.005	0.000	0.000	0.039	2.651	1.875	1.875	1.870	1.890	1.885	1.880
0.015	-0.010	0.005	0.000	0.000	0.005	0.039	2.729	1.880	1.875	1.870	1.890	1.885	1.885
-0.005	0.005	0.000	-0.005	0.005	0.005	0.039	2.646	1.870	1.880	1.875	1.885	1.885	1.885
-0.005	0.015	0.000	-0.005	0.010	-0.005	0.039	2.676	1.870	1.875	1.875	1.890	1.885	1.880
0.005	0.010	0.005	0.000	0.005	0.015	0.039	2.681	1.875	1.875	1.875	1.890	1.885	1.885
-0.005	0.005	-0.005	0.005	0.005	0.000	0.039	2.671	1.870	1.870	1.875	1.890	1.885	1.885
-0.015	0.005	-0.005	0.005	-0.005	0.015	0.039	2.700	1.875	1.875	1.870	1.890	1.885	1.885
-0.010	0.005	0.000	0.010	-0.005	0.020	0.039	2.671	1.875	1.870	1.875	1.890	1.885	1.890
-0.010	0.010	-0.005	0.010	0.000	0.005	0.039	2.705	1.875	1.875	1.875	1.890	1.885	1.885
-0.010	0.010	-0.005	0.005	0.000	-0.005	0.039	2.700	1.880	1.875	1.870	1.890	1.885	1.885
-0.005	0.010	0.000	0.000	0.000	-0.005	0.039	2.690	1.880	1.875	1.875	1.890	1.885	1.885
0.005	0.005	0.000	0.000	0.005	-0.010	0.039	2.695	1.880	1.875	1.875	1.890	1.885	1.885
0.005	0.020	0.000	-0.005	-0.005	-0.005	0.039	2.705	1.885	1.880	1.875	1.890	1.885	1.880
0.015	-0.010	0.005	-0.005	-0.010	-0.024	0.039	2.695	1.885	1.875	1.875	1.890	1.880	1.880
0.010	0.000	0.005	-0.005	-0.044	-0.010	0.034	2.666	1.880	1.875	1.875	1.890	1.875	1.880
0.010	0.000	0.005	0.000	-0.020	-0.015	0.039	2.710	1.880	1.875	1.875	1.895	1.885	1.880
0.010	-0.010	0.005	0.005	0.005	-0.020	0.039	2.666	1.875	1.875	1.875	1.895	1.895	1.885
0.005	0.000	0.005	0.005	0.034	-0.005	0.039	2.671	1.870	1.875	1.875	1.895	1.899	1.890
0.010	0.005	0.005	0.000	0.000	0.015	0.039	2.686	1.880	1.875	1.875	1.890	1.890	1.890
0.005	0.005	0.005	0.005	-0.020	0.029	0.039	2.666	1.875	1.875	1.875	1.890	1.885	1.895
-0.005	0.015	0.000	0.000	-0.020	0.029	0.039	2.666	1.875	1.875	1.875	1.890	1.880	1.895
0.000	0.005	0.000	0.000	-0.010	0.010	0.039	2.671	1.875	1.875	1.875	1.890	1.890	1.885
-0.005	0.010	-0.005	0.000	0.034	0.015	0.039	2.676	1.870	1.870	1.875	1.890	1.895	1.895
-0.010	0.010	0.000	-0.005	0.044	0.015	0.034	2.686	1.875	1.875	1.870	1.890	1.899	1.895
-0.015	0.005	-0.005	0.005	0.034	0.010	0.039	2.671	1.875	1.875	1.870	1.890	1.895	1.890
-0.010	0.000	-0.005	0.005	0.029	0.000	0.039	2.690	1.880	1.870	1.875	1.890	1.885	1.885
-0.005	0.000	-0.005	0.000	0.005	0.000	0.039	2.642	1.875	1.870	1.870	1.890	1.880	1.885
0.005	0.000	-0.005	0.000	0.000	-0.010	0.039	2.681	1.875	1.870	1.870	1.890	1.880	1.880
0.005	0.010	0.005	0.005	0.000	0.000	0.039	2.646	1.875	1.875	1.875	1.890	1.885	1.885
0.005	-0.005	0.010	0.005	0.000	-0.020	0.039	2.651	1.870	1.870	1.875	1.890	1.880	1.875
0.005	-0.010	0.005	0.000	-0.005	-0.024	0.039	2.642	1.865	1.865	1.870	1.890	1.885	1.880
0.005	-0.010	0.005	0.000	-0.005	-0.005	0.039	2.661	1.870	1.865	1.870	1.890	1.885	1.885
0.015	0.000	0.010	0.000	-0.005	0.005	0.039	2.754	1.880	1.870	1.870	1.890	1.885	1.880
0.010	-0.005	0.005	0.005	-0.005	0.005	0.039	2.686	1.880	1.875	1.870	1.890	1.885	1.885
0.015	-0.010	0.010	0.005	-0.005	0.005	0.039	2.661	1.885	1.875	1.870	1.885	1.885	1.880
0.010	-0.005	0.000	0.000	0.000	0.010	0.039	2.808	1.890	1.880	1.870	1.885	1.880	1.885
0.005	0.000	0.000	0.005	0.000	0.000	0.039	2.646	1.885	1.880	1.875	1.885	1.880	1.880
-0.005	0.000	0.000	0.000	0.000	-0.015	0.039	2.710	1.880	1.880	1.875	1.885	1.880	1.880
0.000	0.010	-0.005	0.005	0.000	0.000	0.039	2.715	1.880	1.880	1.875	1.890	1.885	1.880
0.005	-0.005	-0.005	0.005	-0.005	0.000	0.039	2.632	1.875	1.880	1.875	1.890	1.885	1.885
-0.015	0.010	-0.005	0.005	0.000	-0.010	0.039	2.661	1.875	1.880	1.875	1.895	1.885	1.880
-0.010	0.000	-0.005	0.005	-0.005	-0.005	0.039	2.612	1.870	1.875	1.875	1.895	1.885	1.885
-0.005	0.005	-0.005	0.000	0.000	0.010	0.039	2.661	1.870	1.875	1.875	1.890	1.890	1.890
-0.005	0.005	0.000	0.000	0.000	0.005	0.039	2.676	1.870	1.875	1.875	1.890	1.890	1.885
0.000	0.000	0.000	0.000	0.000	0.005	0.034	2.700	1.880	1.875	1.875	1.890	1.890	1.890
0.000	0.000	0.005	-0.005	0.000	0.005	0.039	2.666	1.875	1.875	1.875	1.890	1.890	1.885
0.010	0.000	0.005	-0.005	0.005	0.000	0.039	2.686	1.875	1.870	1.875	1.895	1.885	1.885
0.010	-0.005	0.005	0.000	0.005	0.000	0.039	2.705	1.880	1.875	1.875	1.895	1.885	1.885
0.015	0.000	0.005	0.000	0.005	0.000	0.039	2.705	1.885	1.875	1.870	1.890	1.890	1.885
0.010	-0.010	0.005	0.000	0.005	-0.010	0.039	2.700	1.880	1.875	1.875	1.890	1.885	1.885
0.005	-0.010	0.005	0.005	0.005	0.005	0.039	2.695	1.880	1.875	1.875	1.890	1.885	1.885
0.015	-0.005	0.005	0.005	0.005	0.010	0.039	2.710	1.880	1.875	1.875	1.890	1.885	1.890
0.005	0.000	0.000	0.005	0.005	0.010	0.039	2.671	1.880	1.875	1.875	1.890	1.885	1.890
-0.005	0.010	0.000	0.000	0.005	0.000	0.039	2.690	1.880	1.875	1.875	1.890	1.885	1.885
-0.005	0.015	0.005	0.000	0.005	0.005	0.039	2.671	1.880	1.880	1.875	1.890	1.885	1.885
-0.010	0.015	-0.005	0.005	0.005	-0.024	0.039	2.666	1.875	1.875	1.875	1.890	1.885	1.875
-0.020	-0.005	-0.005	0.000	0.000	-0.010	0.039	2.671	1.870	1.870	1.870	1.895	1.885	1.885
-0.005	-0.005	-0.005	0.005	-0.010	0.000	0.039	2.705	1.880	1.875	1.870	1.890	1.885	1.885
0.000	-0.005	-0.005	0.000	0.000	0.000	0.039	2.705	1.880	1.875	1.870	1.890	1.885	1.885
-0.010	0.000	-0.005	0.005	0.005	0.005	0.039	2.686	1.880	1.875	1.875	1.890	1.890	1.885
-0.005	0.020	0.000	0.000	-0.005	0.005	0.039	2.705	1.880	1.880	1.875	1.890	1.885	1.885
-0.005	0.015	0.000	0.000	-0.005	-0.010	0.039	2.676	1.880	1.880	1.875	1.895	1.885	1.880
0.000	0.000	0.005	0.000	-0.015	0.000	0.034	2.681	1.875	1.875	1.875	1.895	1.885	1.885
0.000	0.000	0.010	0.000	-0.015	0.010	0.039	2.676	1.875	1.880	1.875	1.890	1.885	1.885
0.005	0.005	0.010	0.000	-0.015	0.000	0.039	2.681	1.880	1.880	1.875	1.890	1.885	1.880
0.010	-0.005	0.010	0.005	-0.005	0.000	0.039	2.686	1.880	1.875	1.875	1.895	1.890	1.885
0.010	-0.005	0.005	0.000	0.000	0.000	0.039	2.646	1.875	1.875	1.875	1.890	1.890	1.885
0.015	0.000	0.000	0.000	0.005	0.005	0.039	2.676	1.875	1.875	1.875	1.890	1.890	1.890
0.010	0.005	0.005	0.000	0.005	0.005	0.039	2.646	1.870	1.875	1.875	1.890	1.890	1.885
-0.005	0.010	0.000	0.000	0.010	0.005	0.039	2.651	1.865	1.875	1.870	1.890	1.890	1.885
-0.005	0.000	0.000	0.000	0.005	0.005	0.034	2.646	1.865	1.870	1.870	1.890	1.885	1.885
-0.005	0.010	0.000	0.000	0.005	-0.005	0.039	2.646	1.860	1.870	1.870	1.890	1.890	1.885
0.000	0.024	0.000	0.005	0.010	0.000	0.039	2.744	1.880	1.875	1.870	1.890	1.890	1.890
-0.005	0.024	-0.005	0.005	0.015	0.005	0.039	2.671	1.875	1.875	1.870	1.890	1.890	1.890
-0.005	0.039	0.000	0.000	0.010	0.005	0.039	2.720	1.885	1.880	1.875	1.890	1.885	1.890
-0.010	0.020	0.005	0.000	0.000	0.000	0.039	2.656	1.875	1.875	1.870	1.890	1.885	1.885
-0.005	-0.015	-0.005	-0.005	0.000	0.010	0.039	2.734	1.880	1.870	1.870	1.885	1.885	1.885
0.000	-0.020	0.000	-0.005	0.000	0.005	0.039	2.646	1.880	1.865	1.870	1.890	1.885	1.885
0.000	-0.020	0.005	-0.010	-0.005	-0.005	0.039	2.720	1.885	1.875	1.870	1.885	1.880	1.880
0.005	-0.010	0.005	0.000	0.005	-0.015	0.039	2.725	1.880	1.875	1.875	1.890	1.885	1.880
0.010	-0.020	0.005	0.000	0.010	0.005	0.039	2.739	1.885	1.875	1.875	1.890	1.885	1.885
0.005	-0.024	0.000	0.000	0.015	0.005	0.039	2.612	1.885	1.870	1.875	1.890	1.885	1.885
0.010	-0.049	0.005	0.005	0.020	0.010	0.039	2.676	1.880	1.870	1.870	1.890	1.885	1.890
0.010	-0.044	0.005	0.000	0.005	0.010	0.039	2.676	1.880	1.870	1.870	1.890	1.885	1.885
0.010	-0.034	0.000	0.000	0.010	-0.020	0.039	2.676	1.875	1.870	1.870	1.885	1.880	1.875
0.005	-0.020	0.005	0.000	0.000	-0.015	0.039	2.676	1.875	1.875	1.875	1.885	1.880	1.875
0.005	-0.010	0.000	0.000	-0.005	0.020	0.039	2.700	1.875	1.875	1.875	1.890	1.880	1.890
0.000	-0.005	0.000	0.000	-0.010	0.020	0.039	2.695	1.875	1.880	1.875	1.890	1.880	1.890
-0.005	0.015	-0.005	0.005	-0.005	0.000	0.039	2.666	1.875	1.885	1.875	1.890	1.885	1.880
-0.010	0.034	-0.005	0.015	0.005	0.015	0.039	2.695	1.880	1.890	1.880	1.895	1.890	1.885
-0.010	0.029	0.000	0.005	0.005	-0.005	0.039	2.695	1.875	1.880	1.880	1.895	1.890	1.880
0.000	0.029	0.000	0.005	0.010	0.015	0.039	2.671	1.880	1.885	1.880	1.895	1.890	1.890
-0.005	0.024	0.000	0.000	-0.005	-0.005	0.039	2.705	1.880	1.875	1.880	1.895	1.885	1.880
-0.010	0.020	0.000	0.000	-0.010	0.000	0.039	2.690	1.885	1.875	1.875	1.895	1.890	1.885
0.000	0.015	0.005	-0.005	-0.024	-0.005	0.039	2.671	1.880	1.875	1.880	1.895	1.880	1.885
0.005	0.010	0.010	0.000	-0.044	-0.020	0.039	2.700	1.880	1.875	1.880	1.895	1.875	1.880
-0.010	-0.005	0.015	0.005	-0.044	0.020	0.039	2.676	1.875	1.870	1.875	1.895	1.885	1.890
0.000	0.005	0.010	0.000	-0.049	-0.005	0.039	2.676	1.880	1.875	1.875	1.895	1.880	1.880
0.010	-0.005	0.005	0.010	-0.063	-0.020	0.039	2.700	1.880	1.875	1.875	1.895	1.880	1.875
0.005	0.005	0.005	0.005	-0.049	-0.049	0.039	2.705	1.880	1.875	1.875	1.895	1.885	1.870
0.000	-0.005	0.000	0.000	-0.034	-0.054	0.039	2.700	1.875	1.875	1.875	1.890	1.890	1.875
0.010	0.005	0.005	0.000	-0.054	-0.024	0.039	2.671	1.875	1.875	1.875	1.890	1.885	1.885
0.010	0.000	0.000	-0.005	-0.063	-0.015	0.039	2.671	1.875	1.870	1.870	1.890	1.885	1.885
0.005	0.000	0.005	0.005	-0.015	0.005	0.039	2.690	1.875	1.875	1.870	1.895	1.899	1.895
-0.005	0.000	0.000	0.005	0.073	0.020	0.039	2.676	1.875	1.875	1.875	1.895	1.924	1.909
-0.010	0.005	-0.005	0.005	0.190	0.020	0.039	2.686	1.875	1.875	1.875	1.899	1.948	1.924
0.000	0.005	0.000	0.005	0.264	0.029	0.039	2.646	1.875	1.875	1.870	1.895	1.948	1.934
-0.010	0.000	-0.005	0.010	0.239	0.024	0.039	2.671	1.880	1.875	1.875	1.895	1.924	1.929
-0.010	0.005	-0.005	-0.005	0.181	0.020	0.039	2.646	1.885	1.875	1.875	1.890	1.899	1.919
-0.005	0.010	0.000	-0.005	0.088	0.024	0.039	2.642	1.880	1.880	1.875	1.885	1.870	1.904
0.005	0.000	0.000	0.000	0.015	0.024	0.039	2.642	1.880	1.875	1.875	1.885	1.855	1.890
0.010	0.000	-0.005	-0.005	-0.054	0.015	0.039	2.656	1.880	1.875	1.870	1.885	1.846	1.870
0.005	-0.005	0.000	0.000	-0.093	0.005	0.039	2.710	1.885	1.875	1.875	1.890	1.846	1.860
0.010	-0.015	0.000	-0.005	-0.098	0.005	0.039	2.671	1.880	1.870	1.870	1.890	1.855	1.860
0.024	-0.029	0.005	0.005	-0.078	0.010	0.039	2.622	1.875	1.870	1.870	1.890	1.870	1.865
0.010	-0.015	0.010	0.000	-0.049	0.015	0.039	2.656	1.870	1.875	1.870	1.890	1.880	1.870
0.000	-0.015	0.000	0.005	-0.039	0.010	0.039	2.729	1.865	1.870	1.870	1.890	1.885	1.870
0.005	-0.015	0.005	0.005	-0.024	0.010	0.039	2.622	1.860	1.865	1.870	1.890	1.885	1.875
0.000	-0.010	0.005	0.000	-0.010	0.000	0.039	2.710	1.870	1.870	1.870	1.890	1.890	1.875
0.005	0.010	0.005	0.005	-0.034	-0.005	0.039	2.651	1.870	1.875	1.870	1.885	1.880	1.875
-0.005	-0.005	0.005	0.000	-0.044	-0.024	0.039	2.661	1.870	1.865	1.865	1.885	1.880	1.875
-0.005	-0.010	0.000	0.005	-0.039	-0.015	0.039	2.720	1.875	1.870	1.865	1.885	1.880	1.875
-0.005	0.000	0.000	0.000	-0.039	-0.005	0.039	2.656	1.870	1.870	1.865	1.885	1.880	1.880
-0.010	0.005	-0.005	-0.005	-0.020	-0.015	0.034	2.666	1.870	1.875	1.870	1.885	1.885	1.880
-0.010	0.024	0.000	0.000	0.000	0.000	0.039	2.676	1.875	1.875	1.870	1.890	1.890	1.885
-0.005	0.029	0.000	0.000	0.015	0.005	0.039	2.676	1.875	1.875	1.870	1.890	1.890	1.890
-0.005	0.015	-0.005	0.000	0.010	0.005	0.039	2.686	1.880	1.875	1.870	1.890	1.890	1.890
-0.005	0.010	-0.005	0.000	-0.005	0.005	0.039	2.695	1.880	1.875	1.870	1.890	1.880	1.890
0.000	0.000	0.005	0.005	0.000	0.020	0.039	2.715	1.885	1.875	1.870	1.890	1.885	1.890
0.010	-0.005	0.000	0.000	0.005	0.010	0.039	2.695	1.885	1.875	1.870	1.890	1.885	1.885
0.010	-0.020	0.010	0.005	-0.005	0.005	0.039	2.700	1.890	1.875	1.870	1.890	1.885	1.880
0.015	-0.015	0.010	0.005	-0.015	-0.010	0.039	2.690	1.890	1.880	1.875	1.890	1.880	1.880
0.015	-0.015	0.005	0.005	-0.010	0.005	0.039	2.661	1.880	1.880	1.875	1.890	1.885	1.885
0.010	-0.005	0.005	0.000	0.000	0.005	0.039	2.671	1.875	1.880	1.875	1.890	1.885	1.885
0.010	-0.015	0.005	-0.005	0.020	0.005	0.039	2.681	1.875	1.875	1.870	1.890	1.895	1.885
0.005	-0.015	0.000	-0.005	0.044	-0.015	0.039	2.666	1.870	1.870	1.875	1.885	1.895	1.885
0.010	-0.005	0.005	-0.005	0.034	-0.005	0.039	2.705	1.875	1.875	1.875	1.890	1.885	1.885
0.005	-0.015	0.005	0.000	0.015	-0.005	0.039	2.705	1.875	1.870	1.870	1.890	1.880	1.885
-0.010	-0.005	0.000	0.000	-0.005	-0.015	0.039	2.705	1.880	1.875	1.870	1.890	1.880	1.875
-0.005	0.000	0.000	0.005	-0.010	-0.015	0.039	2.700	1.880	1.875	1.875	1.890	1.880	1.880
-0.020	0.010	-0.005	0.005	-0.005	0.010	0.039	2.671	1.875	1.880	1.875	1.895	1.885	1.890
0.000	0.010	-0.005	0.010	0.010	0.010	0.039	2.666	1.875	1.880	1.875	1.890	1.890	1.890
-0.010	0.010	0.000	0.005	0.005	0.000	0.039	2.686	1.880	1.880	1.875	1.895	1.890	1.885
-0.010	0.005	0.000	0.005	-0.005	-0.015	0.039	2.671	1.875	1.875	1.875	1.890	1.885	1.880
-0.010	0.010	0.000	0.000	-0.005	0.015	0.039	2.690	1.875	1.875	1.875	1.890	1.885	1.890
0.000	0.010	0.005	0.005	-0.005	0.010	0.039	2.690	1.880	1.880	1.875	1.890	1.885	1.885
0.000	0.005	0.005	0.000	-0.005	0.005	0.039	2.646	1.875	1.875	1.875	1.890	1.885	1.885
