0.000	0.000	0.000	0.000	-0.005	0.005	0.029	2.661	1.880	1.880	1.875	1.865	1.851	1.870
0.010	0.000	0.005	0.000	-0.010	-0.024	0.029	2.671	1.880	1.880	1.875	1.875	1.855	1.865
0.005	0.000	0.000	0.000	-0.010	0.000	0.029	2.676	1.880	1.880	1.875	1.875	1.860	1.870
0.010	-0.005	0.000	0.005	-0.005	-0.020	0.029	2.676	1.880	1.875	1.875	1.885	1.865	1.860
0.000	0.000	0.000	-0.005	0.010	0.000	0.029	2.666	1.875	1.875	1.875	1.885	1.875	1.870
0.000	-0.005	0.000	0.000	0.005	0.000	0.029	2.676	1.875	1.875	1.875	1.885	1.875	1.870
0.000	0.000	0.005	0.000	0.020	-0.010	0.029	2.681	1.875	1.875	1.875	1.890	1.880	1.875
-0.005	-0.005	-0.005	-0.005	0.015	0.010	0.029	2.681	1.875	1.875	1.875	1.890	1.880	1.875
0.005	0.000	-0.005	0.000	0.005	-0.005	0.029	2.666	1.875	1.875	1.870	1.890	1.875	1.875
0.005	0.015	0.000	0.000	-0.005	0.010	0.029	2.686	1.880	1.880	1.875	1.890	1.875	1.880
0.000	0.005	0.005	0.005	-0.010	0.010	0.029	2.686	1.880	1.875	1.875	1.895	1.880	1.880
0.005	0.015	0.000	0.005	-0.005	0.000	0.029	2.676	1.880	1.875	1.875	1.890	1.880	1.875
0.000	0.005	0.000	0.005	0.005	0.000	0.029	2.661	1.875	1.875	1.875	1.890	1.885	1.880
0.000	0.010	0.000	0.005	0.015	-0.020	0.029	2.686	1.875	1.875	1.875	1.895	1.890	1.880
0.000	-0.005	0.000	0.005	-0.005	-0.005	0.029	2.671	1.875	1.875	1.875	1.890	1.885	1.880
-0.005	-0.005	-0.005	0.000	-0.005	0.015	0.029	2.681	1.880	1.875	1.875	1.890	1.885	1.890
0.000	0.010	0.000	0.005	-0.005	0.005	0.029	2.676	1.880	1.880	1.875	1.895	1.890	1.885
0.000	-0.005	-0.005	-0.005	0.010	0.000	0.029	2.671	1.875	1.875	1.875	1.890	1.890	1.890
-0.005	0.000	0.000	0.000	0.015	0.005	0.029	2.671	1.875	1.875	1.875	1.895	1.890	1.890
-0.010	-0.005	0.005	0.000	0.010	0.005	0.029	2.676	1.880	1.875	1.875	1.890	1.890	1.890
-0.005	0.000	0.000	-0.005	0.000	-0.005	0.029	2.686	1.880	1.875	1.875	1.890	1.885	1.885
0.000	0.000	0.000	-0.005	0.000	-0.005	0.029	2.671	1.875	1.880	1.875	1.890	1.885	1.885
0.000	0.000	0.005	0.000	-0.005	0.000	0.029	2.666	1.880	1.875	1.875	1.890	1.885	1.885
0.000	-0.005	0.000	0.000	-0.005	0.015	0.029	2.646	1.875	1.875	1.875	1.890	1.885	1.890
0.005	0.010	0.005	0.005	-0.005	0.010	0.029	2.666	1.880	1.875	1.875	1.890	1.885	1.885
0.015	0.010	0.000	0.000	-0.005	0.000	0.029	2.642	1.875	1.875	1.875	1.890	1.885	1.885
0.000	-0.005	0.005	0.010	-0.010	-0.015	0.029	2.651	1.875	1.875	1.870	1.895	1.885	1.880
-0.005	0.010	0.000	-0.005	0.000	0.005	0.029	2.666	1.875	1.875	1.875	1.890	1.885	1.890
0.005	-0.005	-0.005	0.000	0.000	-0.010	0.029	2.666	1.880	1.870	1.870	1.890	1.885	1.885
0.000	0.000	0.000	0.000	0.000	-0.005	0.029	2.656	1.875	1.875	1.875	1.890	1.890	1.885
0.005	-0.005	0.000	0.000	0.000	0.015	0.029	2.642	1.875	1.875	1.875	1.890	1.890	1.895
0.005	0.005	0.005	0.000	0.000	0.015	0.024	2.661	1.880	1.875	1.875	1.890	1.885	1.890
0.000	0.015	0.005	0.000	0.000	0.005	0.029	2.773	1.890	1.885	1.875	1.890	1.885	1.890
0.005	0.010	0.005	0.005	0.005	0.015	0.029	2.651	1.885	1.880	1.880	1.895	1.890	1.890
0.000	0.000	0.000	0.000	-0.005	0.010	0.029	2.646	1.880	1.880	1.875	1.895	1.885	1.885
0.005	0.000	0.000	0.000	0.000	-0.010	0.029	2.666	1.880	1.875	1.875	1.895	1.890	1.880
-0.005	0.000	0.000	0.000	0.010	0.000	0.029	2.681	1.880	1.875	1.875	1.895	1.895	1.890
-0.005	-0.015	0.000	0.000	0.034	-0.005	0.029	2.676	1.880	1.875	1.875	1.895	1.895	1.890
0.000	0.000	0.005	0.000	0.015	0.000	0.029	2.676	1.885	1.880	1.875	1.895	1.890	1.890
0.000	-0.005	0.000	0.000	-0.005	-0.005	0.029	2.671	1.885	1.875	1.875	1.890	1.880	1.885
0.000	-0.005	0.000	0.005	-0.010	-0.015	0.029	2.671	1.875	1.875	1.875	1.890	1.885	1.885
0.000	0.000	0.000	0.005	-0.005	-0.005	0.029	2.666	1.885	1.875	1.875	1.895	1.885	1.885
-0.005	0.000	0.000	0.005	0.005	-0.005	0.029	2.661	1.880	1.875	1.875	1.895	1.890	1.890
0.005	-0.005	0.000	0.000	0.005	0.005	0.029	2.651	1.880	1.875	1.875	1.890	1.890	1.890
0.000	-0.005	0.000	0.000	0.005	0.010	0.029	2.646	1.880	1.880	1.875	1.895	1.890	1.890
0.010	0.000	0.005	0.000	0.005	0.005	0.029	2.637	1.875	1.880	1.875	1.890	1.890	1.890
0.005	0.005	0.000	-0.005	0.000	-0.005	0.029	2.754	1.885	1.880	1.875	1.895	1.885	1.890
-0.010	0.005	0.000	-0.005	0.000	0.000	0.029	2.651	1.880	1.880	1.875	1.895	1.890	1.885
0.000	0.010	0.000	0.000	-0.005	0.005	0.029	2.822	1.899	1.885	1.875	1.895	1.890	1.890
0.000	0.015	-0.005	0.005	0.010	-0.015	0.029	2.827	1.890	1.890	1.880	1.895	1.890	1.885
0.000	0.005	-0.005	0.000	-0.005	-0.010	0.029	2.681	1.890	1.885	1.880	1.899	1.890	1.890
0.000	0.000	-0.005	0.005	-0.010	0.005	0.029	2.681	1.885	1.885	1.880	1.899	1.890	1.895
-0.005	0.010	0.000	0.005	-0.005	0.000	0.029	2.676	1.880	1.885	1.885	1.899	1.890	1.890
0.005	0.005	0.005	0.000	-0.005	0.005	0.029	2.681	1.885	1.885	1.885	1.899	1.895	1.895
0.000	-0.010	0.000	0.000	0.005	0.010	0.029	2.671	1.880	1.880	1.880	1.899	1.895	1.895
0.000	-0.010	0.000	0.005	0.000	0.010	0.029	2.656	1.880	1.875	1.875	1.899	1.895	1.895
-0.005	-0.005	0.000	-0.005	0.005	0.015	0.029	2.666	1.880	1.875	1.880	1.895	1.895	1.895
0.005	-0.005	0.000	0.005	0.000	0.000	0.029	2.656	1.880	1.880	1.875	1.895	1.890	1.890
0.005	0.005	0.000	0.000	-0.005	-0.005	0.029	2.651	1.880	1.880	1.875	1.895	1.890	1.890
0.015	0.000	0.000	0.000	-0.005	0.000	0.029	2.646	1.880	1.875	1.875	1.895	1.890	1.890
0.005	0.000	0.000	0.000	0.005	-0.010	0.029	2.715	1.880	1.880	1.875	1.895	1.890	1.890
0.005	-0.015	-0.005	0.005	-0.005	-0.010	0.029	2.651	1.880	1.870	1.875	1.895	1.890	1.890
-0.005	-0.005	0.005	0.000	0.000	-0.010	0.029	2.642	1.875	1.875	1.875	1.895	1.895	1.890
0.000	0.005	0.000	0.005	0.000	0.015	0.029	2.837	1.899	1.885	1.875	1.895	1.895	1.895
0.000	0.020	0.000	-0.005	0.005	0.005	0.029	2.686	1.895	1.890	1.880	1.899	1.895	1.895
-0.005	0.015	0.000	0.000	0.015	-0.005	0.029	2.676	1.890	1.890	1.880	1.899	1.895	1.890
-0.005	0.000	-0.005	0.000	0.020	0.005	0.029	2.666	1.890	1.885	1.880	1.899	1.899	1.895
-0.005	0.010	0.000	0.005	0.010	-0.029	0.034	2.671	1.885	1.890	1.885	1.899	1.890	1.890
-0.005	0.015	0.000	0.000	0.010	0.000	0.029	2.666	1.885	1.890	1.885	1.899	1.895	1.895
-0.005	0.000	0.000	0.000	0.005	0.005	0.029	2.661	1.885	1.885	1.885	1.899	1.895	1.895
-0.010	0.000	0.000	0.000	-0.005	0.000	0.029	2.661	1.885	1.880	1.885	1.899	1.890	1.895
0.000	-0.015	0.000	0.005	0.000	0.000	0.029	2.651	1.885	1.880	1.880	1.904	1.895	1.895
0.000	0.000	-0.005	0.000	0.005	0.010	0.029	2.646	1.880	1.880	1.880	1.899	1.895	1.895
0.000	0.005	0.000	0.000	-0.005	0.005	0.029	2.646	1.875	1.880	1.880	1.899	1.890	1.895
-0.005	-0.005	0.000	0.000	-0.005	0.005	0.029	2.695	1.880	1.880	1.880	1.895	1.890	1.895
0.005	0.005	0.005	0.000	-0.015	0.015	0.029	2.695	1.885	1.880	1.880	1.899	1.895	1.895
0.000	0.005	0.000	0.005	-0.010	0.005	0.029	2.642	1.880	1.880	1.880	1.899	1.895	1.895
0.005	-0.005	0.005	0.000	0.010	-0.020	0.029	2.832	1.904	1.885	1.880	1.899	1.899	1.890
0.000	0.005	-0.005	0.000	0.015	0.015	0.029	2.671	1.895	1.890	1.880	1.899	1.899	1.899
0.000	0.005	-0.005	0.000	0.010	0.020	0.029	2.671	1.895	1.890	1.885	1.899	1.895	1.899
0.000	0.000	0.000	0.000	0.000	0.020	0.029	2.681	1.890	1.885	1.885	1.899	1.895	1.899
0.005	0.000	0.000	0.005	-0.010	0.005	0.029	2.681	1.895	1.890	1.885	1.899	1.890	1.895
-0.005	0.005	0.000	0.000	-0.005	0.005	0.029	2.661	1.885	1.890	1.885	1.899	1.895	1.895
0.010	0.000	-0.005	0.000	-0.005	-0.015	0.029	2.651	1.885	1.885	1.885	1.899	1.890	1.885
0.000	0.005	0.000	0.005	-0.010	-0.005	0.029	2.676	1.885	1.885	1.885	1.904	1.895	1.895
0.005	-0.005	0.005	0.000	0.000	0.000	0.029	2.651	1.885	1.885	1.885	1.904	1.899	1.895
0.000	-0.005	0.000	0.000	-0.010	0.000	0.029	2.646	1.880	1.885	1.885	1.904	1.895	1.895
0.000	0.000	0.005	0.000	-0.005	-0.005	0.029	2.646	1.875	1.885	1.885	1.904	1.899	1.895
0.000	0.000	0.000	0.000	-0.005	-0.005	0.029	2.676	1.875	1.880	1.880	1.899	1.899	1.895
0.000	-0.005	0.005	0.000	-0.005	-0.005	0.029	2.812	1.899	1.880	1.880	1.899	1.895	1.895
-0.015	0.005	0.000	0.000	-0.005	-0.010	0.029	2.646	1.890	1.885	1.880	1.899	1.895	1.895
0.010	-0.005	-0.005	0.005	-0.010	-0.005	0.029	2.827	1.909	1.890	1.880	1.899	1.895	1.895
0.010	-0.005	0.005	0.005	-0.005	0.000	0.029	2.671	1.899	1.890	1.885	1.899	1.895	1.895
0.005	0.000	0.000	-0.005	0.024	0.010	0.029	2.676	1.899	1.895	1.885	1.899	1.904	1.904
0.000	0.010	-0.005	0.005	0.034	0.015	0.029	2.676	1.895	1.899	1.890	1.904	1.904	1.904
0.005	0.005	0.005	0.005	0.034	0.005	0.029	2.676	1.895	1.895	1.890	1.904	1.904	1.904
0.000	0.010	0.000	0.000	0.015	-0.020	0.029	2.671	1.890	1.895	1.890	1.904	1.899	1.895
0.005	0.005	0.000	0.000	0.015	0.000	0.029	2.656	1.890	1.895	1.890	1.909	1.899	1.899
-0.005	0.005	-0.005	0.005	0.005	-0.005	0.029	2.656	1.885	1.890	1.890	1.909	1.899	1.899
-0.010	0.005	-0.005	0.000	-0.024	0.005	0.029	2.656	1.885	1.885	1.890	1.904	1.890	1.899
0.000	0.005	0.000	0.000	-0.020	0.005	0.029	2.651	1.885	1.890	1.890	1.909	1.895	1.895
0.000	0.000	0.000	0.005	-0.010	0.015	0.029	2.632	1.880	1.885	1.885	1.904	1.899	1.899
0.000	-0.005	0.000	0.000	-0.010	0.015	0.029	2.690	1.885	1.885	1.885	1.909	1.904	1.899
0.000	0.005	0.005	0.000	0.005	0.005	0.029	2.817	1.904	1.890	1.885	1.909	1.904	1.899
-0.005	-0.010	0.000	0.000	0.010	-0.005	0.029	2.642	1.895	1.885	1.885	1.904	1.909	1.895
0.005	0.000	0.005	0.005	0.024	0.005	0.029	2.812	1.909	1.895	1.885	1.904	1.909	1.904
-0.010	-0.005	0.000	0.000	0.015	-0.010	0.029	2.681	1.899	1.895	1.885	1.904	1.899	1.899
0.010	0.000	0.000	-0.005	-0.005	0.005	0.029	2.676	1.899	1.895	1.890	1.904	1.899	1.904
0.005	-0.005	0.005	0.000	-0.005	0.015	0.029	2.671	1.895	1.890	1.890	1.904	1.899	1.904
0.000	-0.020	-0.005	0.005	-0.005	0.000	0.029	2.671	1.890	1.890	1.890	1.909	1.899	1.899
0.005	-0.015	0.000	0.000	0.000	0.010	0.029	2.666	1.890	1.890	1.890	1.909	1.899	1.904
0.005	-0.005	0.000	0.000	-0.005	-0.005	0.029	2.676	1.890	1.890	1.890	1.904	1.899	1.899
0.010	-0.005	0.000	0.000	-0.005	0.010	0.024	2.656	1.890	1.890	1.890	1.909	1.899	1.899
0.005	0.000	-0.005	0.000	-0.015	0.000	0.029	2.661	1.885	1.890	1.890	1.909	1.899	1.899
0.000	0.000	0.005	0.000	-0.010	-0.005	0.029	2.646	1.885	1.890	1.890	1.909	1.904	1.895
0.005	0.010	0.000	-0.005	0.000	0.000	0.029	2.651	1.885	1.890	1.890	1.909	1.904	1.899
-0.005	0.005	0.010	-0.005	0.000	-0.005	0.024	2.676	1.885	1.885	1.890	1.909	1.904	1.899
0.000	0.005	-0.005	0.000	0.020	-0.005	0.029	2.803	1.885	1.885	1.885	1.904	1.914	1.904
0.005	0.005	0.000	0.005	0.034	-0.010	0.029	2.637	1.885	1.885	1.885	1.909	1.914	1.904
0.000	0.000	-0.005	0.005	0.054	-0.005	0.029	2.773	1.899	1.890	1.885	1.909	1.914	1.909
0.010	0.005	0.000	0.000	0.024	0.005	0.029	2.676	1.904	1.895	1.890	1.909	1.904	1.909
0.039	0.000	0.005	0.005	-0.005	0.005	0.029	2.646	1.904	1.895	1.890	1.904	1.895	1.904
0.029	-0.005	0.005	0.000	-0.020	-0.010	0.029	2.646	1.895	1.895	1.890	1.904	1.890	1.899
0.015	0.000	0.000	0.005	-0.020	0.010	0.029	2.642	1.880	1.890	1.885	1.904	1.895	1.904
-0.005	0.000	0.005	0.000	-0.010	0.015	0.029	2.754	1.885	1.885	1.890	1.904	1.899	1.899
-0.015	-0.005	0.005	0.005	-0.005	0.005	0.029	2.651	1.880	1.885	1.885	1.909	1.904	1.899
-0.020	0.005	0.000	0.000	-0.005	-0.005	0.029	2.651	1.880	1.885	1.885	1.904	1.899	1.899
-0.024	0.005	0.000	0.000	-0.005	-0.005	0.029	2.676	1.880	1.880	1.885	1.904	1.899	1.899
-0.034	0.015	0.000	0.005	-0.010	-0.010	0.029	2.646	1.875	1.885	1.880	1.899	1.899	1.899
-0.034	0.010	-0.005	0.000	-0.005	-0.010	0.029	2.646	1.880	1.880	1.880	1.899	1.899	1.899
-0.034	0.010	0.000	0.000	0.015	-0.015	0.029	2.646	1.880	1.885	1.880	1.899	1.904	1.899
-0.024	0.010	0.000	0.000	0.010	-0.029	0.029	2.676	1.885	1.880	1.885	1.899	1.899	1.899
-0.010	0.015	0.000	0.000	0.005	-0.005	0.029	2.808	1.909	1.885	1.885	1.899	1.899	1.904
-0.005	0.005	0.000	0.000	0.005	0.005	0.029	2.803	1.919	1.895	1.885	1.899	1.899	1.904
0.005	-0.010	0.005	0.005	0.005	0.005	0.029	2.656	1.914	1.895	1.890	1.904	1.899	1.904
0.010	-0.005	0.000	0.005	0.010	0.000	0.029	2.681	1.909	1.899	1.890	1.904	1.899	1.899
0.010	0.000	0.000	0.000	0.005	0.000	0.029	2.661	1.904	1.899	1.895	1.904	1.899	1.899
0.005	0.000	0.000	0.005	0.000	0.010	0.029	2.651	1.895	1.899	1.895	1.909	1.899	1.904
0.020	-0.005	0.005	-0.005	-0.005	0.015	0.029	2.642	1.890	1.890	1.890	1.909	1.899	1.904
0.020	0.010	0.005	0.000	0.000	0.005	0.029	2.715	1.895	1.899	1.895	1.909	1.899	1.899
0.010	0.010	0.005	0.000	0.000	0.005	0.029	2.656	1.890	1.895	1.895	1.909	1.899	1.899
0.005	-0.005	0.005	0.000	-0.010	0.005	0.029	2.632	1.885	1.890	1.890	1.909	1.899	1.904
0.010	0.000	0.000	-0.005	-0.010	-0.005	0.029	2.827	1.904	1.895	1.890	1.909	1.899	1.899
0.005	0.000	0.000	0.000	-0.020	-0.005	0.029	2.686	1.899	1.890	1.890	1.909	1.899	1.895
0.000	-0.005	0.005	0.000	-0.005	-0.010	0.029	2.671	1.895	1.895	1.890	1.909	1.904	1.899
-0.005	0.010	0.000	0.000	0.000	-0.005	0.029	2.681	1.895	1.895	1.890	1.909	1.904	1.899
0.005	-0.005	0.005	0.000	0.005	-0.010	0.029	2.676	1.895	1.895	1.895	1.909	1.904	1.904
0.005	0.015	0.000	0.000	0.005	0.010	0.029	2.671	1.890	1.899	1.890	1.909	1.909	1.909
0.015	0.010	-0.005	0.000	0.005	0.000	0.029	2.642	1.890	1.899	1.895	1.909	1.904	1.904
-0.005	0.005	-0.005	0.000	0.005	-0.005	0.029	2.646	1.909	1.899	1.890	1.909	1.909	1.904
0.010	0.005	0.000	0.000	0.010	-0.005	0.029	2.681	1.904	1.899	1.899	1.914	1.909	1.909
0.005	0.000	0.000	0.005	0.029	0.000	0.029	2.651	1.895	1.895	1.895	1.909	1.914	1.909
0.005	-0.005	0.000	0.000	0.015	-0.015	0.029	2.646	1.890	1.890	1.895	1.909	1.909	1.904
-0.005	0.000	0.000	0.005	0.005	-0.010	0.029	2.642	1.890	1.890	1.895	1.909	1.904	1.904
0.000	-0.005	0.000	0.000	0.000	0.010	0.029	2.710	1.895	1.890	1.895	1.909	1.904	1.909
0.005	0.000	0.005	-0.005	-0.010	0.010	0.029	2.812	1.890	1.890	1.890	1.909	1.899	1.904
-0.005	-0.010	0.005	0.000	-0.010	-0.010	0.029	2.642	1.885	1.885	1.890	1.909	1.904	1.899
0.005	0.000	0.000	-0.005	0.020	0.015	0.029	2.822	1.909	1.895	1.890	1.909	1.909	1.909
0.000	-0.005	0.000	0.000	-0.005	0.010	0.029	2.676	1.899	1.890	1.890	1.909	1.899	1.904
0.000	-0.005	0.005	0.005	-0.015	0.010	0.029	2.676	1.904	1.895	1.890	1.909	1.899	1.904
0.000	-0.005	-0.005	0.000	-0.005	0.005	0.029	2.671	1.899	1.895	1.890	1.909	1.904	1.904
-0.005	0.005	0.005	0.000	-0.010	0.010	0.029	2.651	1.895	1.895	1.890	1.909	1.904	1.904
0.010	-0.010	0.000	0.005	-0.005	0.005	0.029	2.788	1.909	1.895	1.890	1.909	1.904	1.904
-0.005	0.000	0.005	-0.005	-0.005	0.015	0.029	2.646	1.899	1.899	1.895	1.909	1.904	1.904
0.000	0.000	0.000	0.000	0.010	0.010	0.029	2.632	1.890	1.899	1.890	1.909	1.909	1.904
-0.010	-0.005	-0.005	0.000	0.015	0.010	0.029	2.637	1.885	1.890	1.895	1.914	1.909	1.904
-0.010	0.015	0.000	0.005	0.015	0.005	0.029	2.632	1.895	1.899	1.895	1.914	1.909	1.904
0.000	0.015	0.000	0.005	0.015	0.000	0.029	2.734	1.904	1.899	1.899	1.914	1.914	1.909
0.000	0.010	0.000	0.005	-0.005	-0.010	0.029	2.681	1.899	1.899	1.899	1.909	1.904	1.904
0.000	0.005	-0.005	0.000	0.000	0.005	0.029	2.686	1.899	1.895	1.895	1.914	1.909	1.909
-0.005	0.015	0.000	0.000	0.005	0.005	0.024	2.686	1.899	1.899	1.895	1.909	1.909	1.909
0.000	0.000	0.000	0.000	0.000	-0.005	0.029	2.681	1.895	1.895	1.895	1.909	1.904	1.909
-0.005	0.005	0.000	0.000	0.000	-0.015	0.029	2.651	1.890	1.890	1.895	1.909	1.909	1.904
0.005	-0.010	0.000	0.000	-0.005	0.005	0.029	2.666	1.895	1.885	1.890	1.909	1.904	1.909
0.005	-0.005	0.000	0.005	-0.005	0.000	0.029	2.681	1.895	1.890	1.890	1.909	1.904	1.904
0.005	0.000	0.005	0.005	0.000	-0.015	0.029	2.681	1.895	1.890	1.890	1.909	1.904	1.904
0.000	0.000	0.005	0.000	0.000	0.010	0.029	2.686	1.899	1.895	1.890	1.909	1.904	1.909
0.005	-0.005	0.000	0.000	0.005	-0.005	0.029	2.681	1.895	1.890	1.890	1.909	1.909	1.904
0.000	0.005	-0.005	0.000	0.005	-0.020	0.029	2.681	1.895	1.895	1.890	1.909	1.909	1.904
-0.005	-0.015	0.000	0.000	0.010	0.000	0.029	2.681	1.890	1.890	1.890	1.909	1.909	1.909
0.000	-0.005	0.000	0.000	0.010	0.000	0.029	2.686	1.895	1.895	1.890	1.914	1.909	1.909
-0.005	0.005	0.000	0.005	0.000	-0.010	0.029	2.676	1.890	1.895	1.890	1.914	1.904	1.904
0.000	0.020	0.000	0.000	-0.005	-0.005	0.029	2.686	1.895	1.899	1.895	1.909	1.904	1.904
-0.005	0.010	0.005	0.000	-0.010	0.005	0.029	2.686	1.895	1.899	1.895	1.909	1.904	1.909
-0.005	0.000	-0.005	0.000	-0.005	0.015	0.029	2.686	1.895	1.895	1.895	1.909	1.909	1.909
0.000	0.000	0.000	0.000	0.005	0.010	0.029	2.700	1.895	1.895	1.895	1.914	1.909	1.909
0.005	0.000	0.005	0.005	0.005	0.015	0.029	2.676	1.895	1.895	1.890	1.914	1.909	1.909
-0.010	0.000	0.000	0.000	-0.005	0.010	0.029	2.666	1.890	1.895	1.890	1.909	1.904	1.909
-0.005	-0.005	0.000	0.005	-0.010	-0.005	0.029	2.671	1.890	1.890	1.890	1.914	1.904	1.899
0.000	-0.005	0.000	0.000	-0.005	-0.005	0.029	2.651	1.890	1.890	1.890	1.909	1.904	1.904
0.005	0.000	0.000	0.000	-0.005	-0.005	0.029	2.666	1.890	1.890	1.890	1.909	1.904	1.904
0.005	0.005	0.000	0.000	-0.010	-0.015	0.029	2.681	1.895	1.890	1.890	1.909	1.904	1.904
-0.005	0.000	0.005	0.000	0.005	-0.015	0.029	2.681	1.895	1.890	1.890	1.909	1.909	1.904
0.010	0.005	0.000	0.000	0.020	-0.010	0.029	2.681	1.895	1.890	1.890	1.909	1.909	1.904
0.005	0.000	0.000	0.000	0.005	0.010	0.029	2.681	1.895	1.890	1.890	1.909	1.904	1.909
0.010	-0.015	0.005	0.000	0.000	0.020	0.029	2.690	1.899	1.890	1.890	1.909	1.904	1.909
-0.005	0.000	0.000	0.005	0.010	0.010	0.029	2.690	1.899	1.895	1.890	1.909	1.904	1.904
0.010	0.005	-0.005	0.005	0.005	0.010	0.029	2.661	1.899	1.899	1.890	1.909	1.904	1.909
0.000	0.010	0.000	0.000	-0.010	0.000	0.029	2.681	1.899	1.899	1.895	1.909	1.899	1.904
0.000	0.010	0.010	0.000	-0.015	0.005	0.029	2.686	1.899	1.899	1.895	1.914	1.904	1.899
-0.005	0.010	-0.005	-0.005	-0.005	0.000	0.029	2.681	1.899	1.899	1.895	1.909	1.904	1.904
0.005	0.005	0.005	0.000	-0.005	-0.015	0.029	2.676	1.899	1.895	1.895	1.909	1.904	1.895
0.005	0.000	0.000	0.000	0.005	0.000	0.029	2.686	1.899	1.895	1.895	1.914	1.909	1.909
0.005	0.020	0.005	0.005	0.005	0.005	0.029	2.681	1.899	1.899	1.895	1.914	1.909	1.909
-0.005	0.005	0.005	0.000	0.005	-0.005	0.029	2.666	1.895	1.895	1.895	1.909	1.909	1.904
0.010	0.005	0.000	0.000	0.005	-0.015	0.029	2.681	1.895	1.895	1.895	1.909	1.909	1.904
-0.005	-0.005	0.010	0.000	0.010	0.005	0.029	2.681	1.890	1.890	1.895	1.914	1.909	1.909
0.005	-0.005	0.005	0.005	0.005	-0.015	0.029	2.686	1.895	1.890	1.890	1.909	1.909	1.904
0.000	-0.010	0.005	0.000	0.005	0.000	0.029	2.666	1.890	1.890	1.890	1.909	1.904	1.904
0.010	-0.010	0.000	0.000	0.005	0.005	0.029	2.666	1.890	1.890	1.890	1.909	1.904	1.909
0.000	0.005	0.000	0.000	0.005	0.005	0.029	2.681	1.890	1.895	1.890	1.909	1.904	1.909
0.005	0.005	0.000	0.005	0.010	-0.010	0.029	2.676	1.895	1.895	1.890	1.909	1.904	1.904
-0.010	0.005	0.000	-0.005	0.005	0.005	0.029	2.676	1.895	1.895	1.890	1.909	1.904	1.909
0.005	0.000	0.000	0.005	-0.005	0.000	0.029	2.656	1.895	1.895	1.890	1.909	1.904	1.904
0.010	0.000	-0.005	0.005	0.000	-0.010	0.029	2.671	1.895	1.890	1.890	1.909	1.904	1.904
0.000	-0.005	-0.005	0.000	0.000	0.005	0.029	2.681	1.895	1.890	1.885	1.909	1.904	1.909
-0.005	0.000	0.000	0.005	-0.005	0.010	0.029	2.690	1.899	1.895	1.890	1.909	1.904	1.904
-0.005	0.000	-0.005	0.005	0.000	0.005	0.029	2.681	1.899	1.895	1.890	1.909	1.904	1.904
0.000	0.005	0.005	0.000	0.000	0.010	0.029	2.676	1.895	1.895	1.895	1.909	1.909	1.904
0.005	0.000	0.005	0.000	0.005	0.015	0.029	2.676	1.895	1.895	1.895	1.909	1.904	1.909
0.000	0.000	0.000	0.000	0.005	0.000	0.029	2.686	1.895	1.895	1.890	1.909	1.904	1.904
0.010	-0.005	-0.005	0.000	0.005	-0.005	0.029	2.671	1.895	1.895	1.890	1.909	1.904	1.904
0.010	0.000	0.005	0.005	0.005	-0.015	0.029	2.671	1.895	1.895	1.890	1.909	1.904	1.899
0.000	0.005	0.005	0.000	0.000	0.000	0.029	2.681	1.895	1.895	1.895	1.909	1.904	1.904
0.000	0.005	0.000	0.000	0.010	0.000	0.029	2.661	1.890	1.890	1.890	1.909	1.904	1.904
0.005	0.000	0.005	0.000	0.005	0.000	0.029	2.681	1.895	1.890	1.890	1.909	1.904	1.904
0.000	0.005	-0.005	0.005	-0.005	-0.005	0.029	2.676	1.890	1.895	1.890	1.909	1.899	1.904
-0.005	0.005	-0.005	0.000	-0.005	-0.015	0.029	2.681	1.890	1.890	1.890	1.909	1.899	1.904
-0.005	0.005	0.000	0.000	0.000	0.005	0.029	2.681	1.895	1.890	1.890	1.909	1.904	1.909
0.005	0.000	0.005	0.005	0.005	0.010	0.029	2.651	1.895	1.890	1.890	1.909	1.909	1.909
0.005	-0.005	0.000	0.000	0.010	0.010	0.029	2.681	1.895	1.890	1.890	1.909	1.909	1.909
0.000	0.000	-0.005	0.000	0.000	0.010	0.024	2.686	1.895	1.895	1.890	1.909	1.904	1.909
0.005	0.000	0.000	0.000	0.000	0.000	0.029	2.686	1.899	1.895	1.890	1.909	1.904	1.904
0.010	0.005	0.000	0.000	-0.010	0.010	0.029	2.676	1.899	1.899	1.890	1.909	1.904	1.904
0.000	0.000	0.000	0.000	-0.005	0.000	0.029	2.681	1.895	1.895	1.895	1.909	1.904	1.899
-0.005	-0.010	0.000	0.005	-0.005	0.005	0.029	2.686	1.895	1.895	1.890	1.909	1.904	1.904
0.005	0.000	-0.005	0.000	-0.010	0.005	0.029	2.666	1.895	1.895	1.890	1.909	1.904	1.904
0.000	0.005	0.000	0.005	0.000	0.000	0.029	2.676	1.895	1.895	1.895	1.914	1.904	1.904
0.000	-0.010	0.005	0.000	0.005	-0.005	0.029	2.681	1.895	1.890	1.890	1.909	1.904	1.904
-0.005	0.000	0.000	0.000	0.000	0.000	0.029	2.676	1.895	1.895	1.890	1.909	1.904	1.909
0.005	-0.010	0.005	0.000	0.000	-0.005	0.029	2.681	1.895	1.890	1.890	1.909	1.904	1.904
0.010	0.000	0.005	0.000	-0.010	0.000	0.029	2.661	1.895	1.890	1.890	1.909	1.899	1.904
0.000	-0.005	0.005	0.000	-0.005	0.005	0.029	2.666	1.890	1.890	1.890	1.909	1.904	1.904
-0.005	0.005	0.000	0.000	-0.005	0.000	0.024	2.661	1.890	1.890	1.890	1.909	1.899	1.904
0.000	0.000	0.000	0.005	-0.005	0.024	0.029	2.686	1.890	1.895	1.890	1.909	1.904	1.909
0.010	-0.005	0.000	0.005	-0.010	0.005	0.029	2.700	1.899	1.890	1.885	1.909	1.904	1.904
0.000	-0.005	-0.005	0.005	-0.005	0.010	0.029	2.686	1.895	1.895	1.885	1.909	1.904	1.904
0.000	0.005	0.000	0.000	0.010	-0.010	0.029	2.681	1.899	1.895	1.890	1.909	1.909	1.904
-0.005	-0.005	-0.005	0.000	0.015	-0.020	0.029	2.690	1.899	1.890	1.890	1.909	1.909	1.899
-0.005	-0.005	0.005	0.000	0.024	0.005	0.029	2.676	1.895	1.895	1.895	1.909	1.909	1.909
-0.005	0.005	0.000	0.000	0.024	-0.010	0.029	2.681	1.899	1.895	1.895	1.909	1.904	1.909
-0.005	0.000	0.005	0.000	0.010	-0.005	0.029	2.671	1.895	1.895	1.890	1.909	1.904	1.909
0.005	0.000	-0.005	0.000	0.010	0.005	0.029	2.661	1.895	1.895	1.890	1.909	1.904	1.909
0.005	-0.005	0.005	0.000	-0.005	0.005	0.029	2.671	1.895	1.895	1.890	1.909	1.899	1.904
0.005	-0.005	0.000	0.000	-0.024	0.005	0.029	2.671	1.895	1.895	1.895	1.909	1.895	1.899
0.000	0.005	0.000	-0.005	-0.015	0.010	0.029	2.686	1.895	1.895	1.895	1.909	1.899	1.899
0.000	0.005	0.000	0.000	-0.020	-0.005	0.029	2.676	1.890	1.890	1.890	1.909	1.899	1.899
0.000	0.010	0.000	0.000	0.005	-0.010	0.029	2.666	1.890	1.890	1.890	1.909	1.909	1.899
-0.005	0.005	0.005	-0.005	0.005	-0.005	0.029	2.686	1.895	1.890	1.890	1.909	1.904	1.904
-0.005	0.000	0.000	0.000	0.000	0.010	0.029	2.686	1.895	1.890	1.890	1.909	1.904	1.909
0.010	0.000	0.000	0.000	-0.005	0.000	0.029	2.676	1.895	1.895	1.885	1.909	1.904	1.904
0.005	0.015	0.000	0.000	0.010	0.005	0.029	2.671	1.895	1.899	1.895	1.909	1.909	1.904
0.000	0.000	-0.005	-0.005	0.020	-0.010	0.029	2.681	1.895	1.890	1.890	1.909	1.909	1.904
0.000	0.005	0.000	0.000	0.015	0.010	0.029	2.690	1.899	1.895	1.890	1.909	1.909	1.909
-0.005	-0.005	0.000	-0.005	0.024	0.005	0.029	2.690	1.895	1.895	1.890	1.909	1.909	1.909
-0.005	0.005	0.005	0.000	0.015	-0.005	0.029	2.690	1.895	1.895	1.895	1.909	1.904	1.904
-0.005	0.000	0.005	0.000	0.010	0.010	0.029	2.686	1.899	1.895	1.895	1.909	1.904	1.909
-0.005	0.000	0.005	0.000	0.015	0.005	0.029	2.666	1.899	1.895	1.895	1.914	1.909	1.909
0.005	0.000	0.000	0.000	0.020	-0.015	0.029	2.817	1.914	1.899	1.895	1.909	1.909	1.904
0.005	0.000	0.000	0.000	0.015	0.000	0.029	2.686	1.909	1.899	1.895	1.914	1.904	1.909
0.005	0.000	0.000	0.000	0.015	0.000	0.029	2.671	1.904	1.899	1.895	1.909	1.909	1.909
0.000	0.000	0.005	0.000	0.000	-0.010	0.029	2.681	1.904	1.899	1.895	1.914	1.899	1.899
0.005	-0.010	0.000	0.000	-0.005	0.005	0.029	2.676	1.899	1.895	1.895	1.914	1.904	1.909
-0.005	0.015	-0.005	0.000	0.005	0.000	0.029	2.676	1.899	1.899	1.895	1.914	1.904	1.909
0.005	-0.005	0.000	0.000	0.005	0.005	0.029	2.681	1.895	1.895	1.895	1.914	1.904	1.909
0.010	0.000	0.000	0.005	0.000	0.000	0.029	2.676	1.895	1.899	1.895	1.914	1.909	1.904
0.000	0.000	0.000	0.005	0.000	0.005	0.029	2.686	1.895	1.895	1.895	1.909	1.904	1.909
0.000	-0.010	0.005	0.000	0.000	0.000	0.029	2.686	1.895	1.890	1.890	1.914	1.904	1.904
0.000	-0.005	0.000	0.005	-0.010	0.000	0.029	2.681	1.895	1.895	1.890	1.914	1.904	1.904
0.000	0.005	0.000	0.005	-0.005	0.010	0.024	2.690	1.899	1.899	1.895	1.909	1.909	1.909
0.000	0.000	0.005	0.005	-0.010	-0.010	0.029	2.676	1.895	1.895	1.895	1.909	1.904	1.904
0.000	-0.020	0.000	0.000	-0.015	0.000	0.029	2.676	1.895	1.890	1.890	1.909	1.904	1.909
0.000	0.000	0.000	0.000	-0.005	0.000	0.029	2.681	1.899	1.895	1.890	1.914	1.909	1.904
-0.005	0.000	0.000	0.005	0.000	0.000	0.029	2.651	1.895	1.895	1.890	1.909	1.909	1.909
-0.005	0.005	0.000	0.000	0.000	0.005	0.029	2.666	1.895	1.895	1.895	1.909	1.909	1.909
0.000	0.000	-0.005	0.005	-0.010	0.010	0.029	2.681	1.895	1.895	1.895	1.909	1.904	1.909
0.000	0.000	-0.005	0.000	-0.005	0.010	0.029	2.666	1.895	1.895	1.895	1.909	1.909	1.909
0.000	0.010	0.000	0.005	0.000	0.005	0.029	2.676	1.895	1.895	1.895	1.909	1.909	1.909
0.005	0.015	0.000	0.005	-0.005	0.005	0.029	2.671	1.895	1.899	1.895	1.909	1.904	1.909
0.005	0.020	0.000	0.005	-0.010	0.010	0.029	2.681	1.895	1.895	1.895	1.914	1.904	1.909
-0.005	-0.005	0.000	0.005	-0.005	0.005	0.029	2.690	1.895	1.890	1.890	1.909	1.909	1.904
0.005	0.000	0.005	0.005	-0.005	-0.005	0.029	2.666	1.895	1.890	1.890	1.909	1.904	1.904
-0.005	-0.005	0.005	0.005	0.000	-0.005	0.029	2.671	1.885	1.890	1.890	1.914	1.909	1.904
-0.005	0.005	0.005	0.000	0.005	0.010	0.029	2.681	1.895	1.890	1.885	1.909	1.909	1.909
-0.005	0.000	0.000	0.010	-0.005	-0.010	0.029	2.671	1.895	1.890	1.885	1.909	1.904	1.904
0.010	-0.010	0.000	0.000	-0.010	0.005	0.029	2.686	1.899	1.890	1.890	1.904	1.904	1.909
-0.005	-0.005	0.000	0.000	-0.015	-0.010	0.029	2.671	1.895	1.890	1.890	1.909	1.904	1.899
-0.005	0.005	-0.005	0.000	-0.010	0.005	0.029	2.686	1.895	1.895	1.890	1.904	1.904	1.909
-0.010	-0.010	0.000	0.000	-0.015	0.005	0.029	2.686	1.899	1.895	1.890	1.909	1.904	1.904
-0.005	0.000	0.005	0.000	-0.010	-0.005	0.029	2.686	1.899	1.895	1.890	1.909	1.904	1.899
0.000	0.005	0.005	0.000	-0.005	0.015	0.029	2.681	1.899	1.899	1.895	1.909	1.909	1.909
0.000	0.000	0.000	-0.005	-0.005	0.005	0.024	2.676	1.895	1.895	1.895	1.909	1.909	1.904
-0.005	0.005	0.005	0.000	-0.005	-0.010	0.029	2.666	1.895	1.899	1.895	1.909	1.904	1.904
0.005	0.000	0.005	0.000	0.000	-0.005	0.029	2.671	1.895	1.895	1.890	1.909	1.909	1.904
-0.010	0.010	0.000	0.005	0.000	0.005	0.029	2.676	1.895	1.895	1.895	1.914	1.904	1.909
0.005	0.005	0.000	-0.005	0.010	0.010	0.029	2.671	1.895	1.895	1.890	1.909	1.909	1.909
-0.005	-0.005	0.000	-0.005	0.005	0.000	0.029	2.681	1.890	1.890	1.890	1.909	1.909	1.909
0.005	0.000	0.000	0.000	0.005	0.000	0.029	2.671	1.890	1.895	1.890	1.909	1.909	1.909
0.005	-0.010	-0.005	0.000	0.020	-0.005	0.029	2.656	1.890	1.890	1.890	1.909	1.909	1.904
0.000	-0.005	0.000	0.000	0.029	-0.010	0.029	2.671	1.890	1.890	1.890	1.909	1.909	1.904
-0.005	0.005	0.000	0.000	0.020	0.015	0.029	2.681	1.890	1.895	1.890	1.909	1.909	1.914
0.005	0.005	0.000	0.000	0.010	0.000	0.029	2.656	1.895	1.890	1.890	1.909	1.904	1.909
0.005	0.000	0.000	0.000	0.005	0.010	0.029	2.676	1.895	1.895	1.890	1.909	1.899	1.909
0.005	0.000	0.000	0.000	-0.005	0.015	0.024	2.686	1.895	1.895	1.895	1.909	1.899	1.904
-0.005	0.005	0.005	0.000	-0.005	0.005	0.029	2.681	1.899	1.895	1.895	1.909	1.899	1.899
0.000	0.005	0.000	0.000	-0.005	0.000	0.029	2.681	1.895	1.895	1.890	1.909	1.904	1.899
0.000	0.010	0.000	0.000	-0.015	0.000	0.029	2.671	1.899	1.895	1.895	1.909	1.899	1.899
0.000	0.000	0.000	0.000	-0.015	0.005	0.029	2.676	1.895	1.890	1.890	1.909	1.899	1.904
0.000	0.005	0.000	0.000	-0.010	0.010	0.029	2.666	1.895	1.895	1.890	1.909	1.904	1.904
0.005	0.000	0.000	0.000	-0.010	0.005	0.029	2.686	1.899	1.895	1.890	1.909	1.904	1.904
0.000	-0.005	-0.005	0.010	-0.005	-0.020	0.029	2.661	1.890	1.890	1.890	1.909	1.909	1.895
-0.005	-0.005	0.000	0.005	0.000	0.005	0.029	2.676	1.890	1.890	1.890	1.909	1.909	1.909
0.005	-0.010	0.000	0.000	0.015	-0.015	0.029	2.681	1.895	1.890	1.890	1.909	1.909	1.904
0.005	-0.010	0.005	0.000	0.020	-0.005	0.029	2.671	1.890	1.890	1.890	1.909	1.909	1.909
0.000	-0.005	0.005	0.005	0.010	-0.005	0.029	2.676	1.890	1.890	1.890	1.909	1.904	1.909
0.005	-0.005	0.005	0.000	0.010	-0.010	0.029	2.676	1.895	1.895	1.890	1.909	1.904	1.904
0.000	0.000	0.000	0.005	0.005	-0.005	0.029	2.686	1.895	1.895	1.890	1.909	1.904	1.904
0.000	0.010	0.000	0.005	0.010	-0.015	0.029	2.686	1.895	1.895	1.890	1.909	1.904	1.904
0.005	0.000	0.000	0.000	0.010	-0.005	0.029	2.676	1.895	1.895	1.890	1.909	1.904	1.909
0.005	-0.005	0.000	0.000	0.005	0.010	0.029	2.671	1.895	1.890	1.890	1.909	1.904	1.909
0.005	-0.010	0.000	0.000	0.005	-0.005	0.029	2.671	1.899	1.890	1.890	1.909	1.904	1.904
0.005	-0.005	0.005	0.000	0.000	-0.005	0.029	2.729	1.899	1.895	1.890	1.909	1.904	1.904
0.000	-0.005	0.005	0.005	0.000	-0.005	0.029	2.651	1.895	1.895	1.890	1.909	1.904	1.899
0.000	0.005	0.000	0.000	0.000	0.010	0.029	2.661	1.895	1.895	1.895	1.909	1.904	1.909
0.000	0.000	0.000	0.000	-0.005	0.010	0.029	2.676	1.899	1.895	1.895	1.909	1.904	1.909
0.000	-0.005	0.000	0.000	-0.005	-0.005	0.029	2.681	1.895	1.895	1.890	1.909	1.904	1.904
0.000	0.000	0.000	0.000	0.005	0.000	0.029	2.681	1.895	1.895	1.895	1.909	1.909	1.904
0.000	0.000	0.000	0.000	0.005	0.010	0.029	2.671	1.899	1.895	1.890	1.909	1.909	1.909
-0.005	0.000	0.000	0.000	0.005	0.010	0.029	2.666	1.895	1.895	1.890	1.909	1.904	1.909
0.000	0.005	0.000	0.005	0.000	-0.005	0.029	2.666	1.890	1.895	1.890	1.909	1.904	1.904
0.005	0.005	0.005	0.000	0.005	0.000	0.029	2.676	1.895	1.895	1.895	1.909	1.904	1.904
0.000	0.005	0.005	0.000	0.005	0.015	0.029	2.676	1.890	1.895	1.895	1.909	1.909	1.909
0.000	0.010	0.000	0.000	0.000	-0.010	0.029	2.681	1.895	1.895	1.890	1.909	1.904	1.899
0.005	0.010	-0.005	0.000	0.000	0.015	0.029	2.661	1.895	1.895	1.890	1.909	1.904	1.909
0.000	0.010	-0.005	0.000	0.005	0.010	0.029	2.676	1.895	1.890	1.890	1.909	1.904	1.909
0.005	0.005	0.000	0.000	0.000	-0.020	0.029	2.681	1.895	1.890	1.895	1.909	1.904	1.899
0.000	0.015	0.005	0.005	0.005	0.005	0.029	2.681	1.895	1.890	1.890	1.909	1.904	1.909
0.000	0.005	0.000	0.005	-0.005	0.005	0.029	2.666	1.895	1.890	1.890	1.909	1.904	1.904
0.005	0.005	0.005	0.005	-0.005	0.000	0.029	2.832	1.895	1.895	1.890	1.914	1.904	1.904
-0.005	0.000	0.000	0.000	0.005	0.005	0.029	2.690	1.895	1.890	1.890	1.909	1.909	1.909
0.000	0.005	0.000	0.005	0.005	-0.020	0.029	2.671	1.895	1.895	1.890	1.909	1.904	1.904
-0.005	0.010	-0.005	0.005	0.000	-0.015	0.029	2.686	1.895	1.895	1.890	1.909	1.904	1.899
0.000	0.000	-0.005	0.005	0.005	0.005	0.029	2.681	1.895	1.895	1.895	1.909	1.904	1.909
0.005	-0.005	0.000	0.000	0.010	0.005	0.029	2.686	1.899	1.885	1.885	1.909	1.904	1.909
0.000	-0.020	0.000	0.000	0.000	-0.005	0.029	2.681	1.895	1.890	1.885	1.909	1.904	1.909
0.005	-0.010	0.000	-0.005	0.005	0.000	0.029	2.666	1.895	1.890	1.885	1.909	1.904	1.904
-0.005	-0.010	0.000	0.000	-0.005	-0.010	0.029	2.681	1.895	1.890	1.890	1.909	1.899	1.904
0.005	-0.005	0.000	-0.005	0.000	0.015	0.029	2.671	1.899	1.895	1.890	1.904	1.899	1.909
0.005	-0.010	0.000	0.000	0.000	0.000	0.029	2.690	1.895	1.890	1.890	1.904	1.899	1.904
0.010	-0.010	0.000	-0.005	0.000	0.015	0.029	2.676	1.895	1.895	1.890	1.904	1.904	1.904
0.000	0.005	0.000	0.000	0.005	0.005	0.029	2.700	1.899	1.899	1.890	1.909	1.904	1.899
0.000	-0.005	0.000	0.000	0.000	0.005	0.029	2.666	1.895	1.899	1.895	1.909	1.904	1.904
0.005	0.000	0.000	0.000	0.000	0.000	0.029	2.686	1.899	1.899	1.895	1.909	1.904	1.904
0.000	0.015	0.005	0.005	0.000	0.005	0.029	2.686	1.895	1.899	1.895	1.909	1.904	1.904
0.000	0.005	0.000	0.005	0.005	0.000	0.029	2.671	1.895	1.899	1.895	1.914	1.909	1.904
0.000	0.005	0.000	0.000	0.005	-0.010	0.029	2.686	1.899	1.895	1.895	1.914	1.904	1.904
0.000	0.010	0.005	0.005	0.000	-0.020	0.029	2.686	1.899	1.899	1.899	1.914	1.904	1.904
0.005	0.005	-0.005	0.000	-0.005	0.005	0.029	2.681	1.899	1.895	1.895	1.914	1.909	1.909
-0.005	0.005	0.000	0.000	-0.005	0.005	0.029	2.686	1.899	1.895	1.895	1.914	1.909	1.909
-0.005	0.000	0.000	0.000	0.000	-0.015	0.029	2.676	1.895	1.895	1.895	1.909	1.909	1.904
0.005	0.000	-0.005	0.000	0.000	0.010	0.029	2.681	1.895	1.890	1.895	1.909	1.909	1.909
0.005	0.010	0.000	0.000	0.000	0.005	0.029	2.666	1.895	1.899	1.895	1.914	1.909	1.909
0.000	-0.020	0.000	0.000	0.005	-0.010	0.029	2.666	1.890	1.885	1.890	1.909	1.909	1.904
-0.005	-0.020	0.000	-0.005	0.010	-0.005	0.029	2.686	1.890	1.890	1.890	1.909	1.909	1.904
0.000	-0.015	0.005	0.005	0.005	0.010	0.029	2.676	1.890	1.890	1.890	1.909	1.909	1.909
0.000	0.000	0.005	0.000	0.000	-0.005	0.029	2.666	1.890	1.895	1.890	1.909	1.904	1.909
-0.005	-0.005	0.005	-0.005	-0.005	0.005	0.029	2.681	1.895	1.890	1.890	1.909	1.904	1.909
0.000	0.005	0.000	0.005	0.005	-0.010	0.029	2.690	1.899	1.895	1.890	1.909	1.904	1.904
0.005	0.015	0.005	0.000	0.010	0.000	0.029	2.686	1.899	1.899	1.895	1.909	1.904	1.909
0.010	0.010	0.000	0.000	0.000	-0.005	0.029	2.676	1.904	1.899	1.890	1.909	1.904	1.904
-0.005	0.005	-0.005	0.000	0.000	0.005	0.029	2.666	1.895	1.895	1.890	1.909	1.904	1.909
-0.005	0.000	-0.005	0.000	0.000	0.000	0.029	2.681	1.895	1.895	1.890	1.909	1.904	1.904
0.000	0.000	0.000	0.000	0.000	-0.005	0.029	2.686	1.899	1.895	1.890	1.909	1.904	1.899
0.005	0.000	-0.005	0.005	-0.005	0.010	0.029	2.666	1.895	1.895	1.895	1.909	1.909	1.909
0.000	0.000	0.000	0.000	-0.005	0.005	0.024	2.705	1.904	1.895	1.895	1.909	1.909	1.909
0.000	0.000	0.000	0.000	0.000	0.015	0.029	2.690	1.904	1.895	1.895	1.909	1.909	1.909
-0.010	0.010	0.000	-0.005	0.000	0.000	0.024	2.681	1.899	1.899	1.895	1.914	1.904	1.904
0.000	-0.010	0.005	0.000	0.000	0.010	0.029	2.671	1.895	1.890	1.895	1.914	1.909	1.909
0.000	-0.005	0.000	0.000	0.000	-0.005	0.029	2.798	1.909	1.899	1.895	1.909	1.904	1.904
0.000	0.000	0.000	0.000	0.005	0.005	0.029	2.681	1.909	1.899	1.895	1.914	1.909	1.909
0.000	0.010	0.000	0.010	0.000	0.005	0.029	2.681	1.904	1.904	1.895	1.914	1.909	1.909
-0.005	-0.005	0.005	0.000	0.005	0.005	0.029	2.686	1.899	1.895	1.895	1.914	1.909	1.909
0.010	0.015	0.005	0.005	0.000	-0.020	0.029	2.661	1.904	1.904	1.899	1.914	1.909	1.899
0.000	0.010	0.005	0.000	0.000	0.005	0.029	2.686	1.895	1.899	1.899	1.914	1.909	1.914
-0.005	0.010	0.005	0.000	0.000	0.005	0.029	2.686	1.899	1.899	1.895	1.914	1.909	1.904
0.005	0.000	0.000	0.000	0.000	-0.010	0.029	2.686	1.899	1.895	1.895	1.914	1.909	1.904
0.005	0.010	0.000	0.005	0.005	-0.005	0.029	2.671	1.899	1.899	1.895	1.914	1.909	1.909
0.005	0.000	0.000	0.000	0.005	-0.020	0.029	2.681	1.899	1.899	1.895	1.914	1.909	1.904
0.005	-0.005	0.000	0.000	0.000	0.015	0.029	2.681	1.899	1.890	1.899	1.914	1.909	1.914
0.000	0.000	0.005	0.005	0.005	0.010	0.029	2.671	1.899	1.899	1.899	1.914	1.909	1.914
-0.005	0.000	0.005	0.000	-0.005	0.005	0.029	2.686	1.899	1.895	1.895	1.914	1.909	1.909
0.000	0.010	0.000	0.000	-0.005	0.005	0.029	2.671	1.899	1.899	1.895	1.914	1.909	1.914
0.000	-0.005	-0.005	0.010	0.000	-0.005	0.029	2.666	1.895	1.895	1.895	1.914	1.909	1.909
-0.005	-0.015	0.000	0.000	0.000	0.005	0.029	2.681	1.899	1.890	1.895	1.914	1.909	1.909
-0.010	-0.015	0.000	0.000	0.000	0.005	0.029	2.671	1.895	1.890	1.890	1.909	1.909	1.909
0.000	-0.005	0.005	0.000	0.000	0.005	0.029	2.681	1.899	1.895	1.895	1.909	1.909	1.909
0.005	-0.010	0.000	0.000	0.000	0.005	0.029	2.695	1.899	1.895	1.890	1.909	1.909	1.904
0.005	0.000	0.000	0.000	0.010	-0.005	0.029	2.686	1.899	1.899	1.890	1.909	1.909	1.909
0.005	-0.005	-0.005	0.000	0.000	0.005	0.029	2.666	1.899	1.895	1.890	1.909	1.904	1.909
0.005	0.020	0.000	0.000	0.000	0.000	0.029	2.676	1.895	1.904	1.895	1.909	1.904	1.909
-0.005	0.015	0.000	0.000	0.000	0.005	0.029	2.681	1.895	1.895	1.895	1.914	1.904	1.909
-0.005	0.010	0.000	0.000	0.005	0.005	0.029	2.676	1.895	1.895	1.895	1.914	1.904	1.909
0.005	0.005	-0.005	0.005	0.000	0.000	0.029	2.676	1.899	1.899	1.895	1.909	1.909	1.909
0.000	0.010	0.000	0.000	0.005	0.000	0.029	2.681	1.899	1.899	1.895	1.914	1.909	1.909
0.005	0.000	0.000	0.000	0.000	0.000	0.029	2.690	1.899	1.895	1.895	1.914	1.904	1.909
0.000	0.010	0.000	0.000	0.000	-0.005	0.029	2.686	1.899	1.899	1.895	1.914	1.904	1.904
-0.010	0.005	-0.005	0.000	0.000	-0.024	0.029	2.671	1.895	1.895	1.895	1.909	1.909	1.899
0.005	0.000	-0.005	0.000	0.005	0.005	0.029	2.681	1.899	1.895	1.895	1.909	1.909	1.909
-0.005	-0.005	0.000	0.000	0.000	0.005	0.029	2.671	1.895	1.895	1.895	1.914	1.909	1.914
-0.010	-0.024	0.005	0.000	-0.005	-0.015	0.029	2.686	1.895	1.885	1.895	1.909	1.904	1.904
0.000	-0.015	0.000	0.000	-0.005	-0.010	0.024	2.686	1.899	1.895	1.890	1.909	1.904	1.904
-0.005	-0.010	0.000	0.000	0.000	0.010	0.029	2.671	1.895	1.895	1.890	1.909	1.904	1.914
-0.005	-0.005	-0.005	0.000	0.005	0.000	0.029	2.671	1.895	1.895	1.890	1.909	1.909	1.909
0.010	0.000	0.000	0.000	0.005	0.000	0.029	2.666	1.899	1.899	1.890	1.909	1.909	1.909
-0.010	0.000	0.000	0.000	0.000	-0.005	0.029	2.671	1.890	1.895	1.890	1.909	1.904	1.909
0.000	0.010	0.000	0.005	0.000	-0.010	0.029	2.651	1.890	1.895	1.895	1.909	1.904	1.909
0.000	0.015	0.000	0.000	0.005	0.010	0.029	2.676	1.890	1.895	1.890	1.909	1.909	1.909
0.005	0.015	0.005	0.000	0.000	0.010	0.029	2.651	1.890	1.895	1.895	1.909	1.904	1.904
0.005	-0.010	0.000	0.005	0.000	0.005	0.029	2.681	1.890	1.885	1.890	1.909	1.904	1.909
0.010	-0.010	0.005	0.000	0.000	0.010	0.029	2.676	1.895	1.890	1.890	1.909	1.904	1.909
0.005	-0.005	-0.005	0.005	0.000	0.005	0.029	2.676	1.895	1.890	1.890	1.909	1.904	1.909
0.000	-0.010	-0.005	0.000	0.000	0.005	0.029	2.681	1.895	1.890	1.890	1.909	1.904	1.904
0.000	0.005	0.005	-0.005	0.000	0.010	0.029	2.690	1.899	1.895	1.895	1.909	1.904	1.909
-0.005	0.000	-0.005	0.000	0.000	0.005	0.029	2.671	1.890	1.895	1.890	1.909	1.904	1.909
-0.005	0.005	0.000	0.000	0.000	0.005	0.029	2.686	1.895	1.890	1.890	1.909	1.904	1.904
0.000	0.005	0.000	0.000	0.000	-0.020	0.029	2.681	1.899	1.895	1.895	1.909	1.904	1.899
-0.010	-0.005	-0.005	0.000	0.000	0.005	0.029	2.671	1.895	1.890	1.890	1.909	1.904	1.904
0.000	0.005	0.000	0.000	0.000	-0.010	0.029	2.681	1.895	1.895	1.890	1.909	1.904	1.904
0.005	-0.005	0.000	0.005	-0.005	0.000	0.029	2.686	1.899	1.890	1.890	1.909	1.904	1.904
0.010	-0.015	0.005	0.000	-0.005	-0.005	0.029	2.642	1.904	1.895	1.895	1.909	1.904	1.904
0.010	0.005	0.000	0.005	-0.005	0.000	0.029	2.656	1.904	1.904	1.895	1.909	1.904	1.904
-0.005	0.015	0.000	0.005	0.000	-0.024	0.029	2.676	1.895	1.904	1.895	1.909	1.904	1.899
0.000	0.020	0.000	0.000	0.005	-0.020	0.029	2.671	1.895	1.899	1.895	1.909	1.904	1.899
0.010	0.015	0.000	0.000	0.005	0.015	0.029	2.690	1.899	1.899	1.895	1.914	1.909	1.914
0.000	0.010	0.005	0.000	0.000	0.015	0.029	2.690	1.895	1.895	1.895	1.914	1.909	1.909
0.005	0.000	0.000	0.000	0.000	0.000	0.029	2.681	1.895	1.890	1.895	1.914	1.904	1.904
0.000	0.015	0.000	0.000	0.000	0.000	0.029	2.686	1.895	1.895	1.895	1.914	1.909	1.909
0.000	-0.005	0.000	0.000	0.000	0.005	0.029	2.686	1.895	1.890	1.895	1.914	1.909	1.909
-0.005	0.010	0.000	0.000	0.000	0.000	0.029	2.681	1.899	1.895	1.895	1.909	1.904	1.909
0.000	0.010	0.000	0.005	0.000	0.000	0.029	2.676	1.899	1.895	1.895	1.914	1.909	1.904
-0.005	0.005	0.000	0.000	0.000	-0.005	0.029	2.671	1.895	1.895	1.895	1.914	1.909	1.909
0.005	0.000	-0.005	0.005	0.000	0.005	0.029	2.783	1.909	1.895	1.890	1.909	1.909	1.909
0.000	-0.005	-0.005	0.005	0.005	-0.005	0.029	2.778	1.919	1.899	1.895	1.914	1.909	1.909
0.000	0.005	0.000	0.000	0.000	0.010	0.029	2.656	1.909	1.904	1.895	1.914	1.909	1.909
0.005	0.000	0.000	-0.005	0.000	0.005	0.029	2.646	1.899	1.904	1.895	1.914	1.904	1.909
-0.005	0.000	0.005	-0.005	0.005	-0.005	0.029	2.646	1.895	1.899	1.895	1.909	1.909	1.904
-0.005	0.000	0.000	0.000	0.005	0.005	0.029	2.710	1.895	1.899	1.895	1.914	1.909	1.909
-0.010	-0.005	0.000	0.000	-0.005	0.005	0.029	2.646	1.890	1.895	1.895	1.914	1.909	1.909
0.000	0.000	0.005	0.000	-0.005	-0.010	0.029	2.710	1.895	1.895	1.895	1.914	1.909	1.904
0.005	-0.005	0.005	0.000	0.000	0.005	0.029	2.632	1.895	1.895	1.895	1.914	1.909	1.909
0.005	0.000	-0.005	0.000	0.000	0.000	0.029	2.744	1.899	1.895	1.890	1.914	1.909	1.904
0.010	-0.005	0.000	0.000	0.000	0.000	0.029	2.642	1.895	1.895	1.890	1.914	1.909	1.909
0.005	-0.005	0.000	0.000	0.005	0.000	0.029	2.734	1.899	1.895	1.895	1.914	1.909	1.909
0.000	0.000	0.000	0.000	0.000	-0.005	0.029	2.632	1.890	1.899	1.895	1.909	1.909	1.909
0.000	0.000	0.000	0.000	0.000	-0.020	0.029	2.725	1.899	1.895	1.890	1.914	1.909	1.904
-0.005	-0.005	-0.005	0.005	0.000	0.000	0.029	2.651	1.899	1.895	1.890	1.914	1.909	1.909
0.000	0.005	0.000	0.000	0.005	0.005	0.029	2.651	1.895	1.895	1.895	1.914	1.909	1.914
-0.005	-0.010	0.005	0.000	0.000	0.005	0.029	2.632	1.895	1.895	1.895	1.914	1.909	1.909
0.000	-0.005	0.005	0.000	-0.005	0.000	0.029	2.646	1.890	1.895	1.895	1.914	1.909	1.904
0.005	-0.005	-0.005	0.000	0.000	-0.020	0.029	2.637	1.909	1.899	1.890	1.909	1.904	1.904
0.005	-0.005	0.000	0.005	-0.005	0.010	0.029	2.695	1.899	1.899	1.895	1.909	1.909	1.914
0.000	-0.005	0.005	0.005	0.000	0.005	0.029	2.642	1.890	1.895	1.895	1.909	1.909	1.909
0.000	0.005	0.000	0.000	0.005	0.010	0.029	2.695	1.895	1.899	1.895	1.914	1.909	1.904
0.005	-0.005	0.000	0.000	0.000	-0.005	0.029	2.651	1.890	1.895	1.895	1.909	1.904	1.904
-0.005	0.000	-0.005	0.000	0.005	0.000	0.029	2.739	1.899	1.895	1.890	1.909	1.909	1.909
0.005	-0.005	0.005	-0.005	0.000	0.010	0.029	2.656	1.899	1.895	1.895	1.909	1.909	1.909
0.010	-0.005	0.005	0.000	-0.005	0.010	0.029	2.627	1.899	1.899	1.895	1.914	1.904	1.909
0.005	0.005	0.005	0.000	0.000	0.010	0.029	2.632	1.890	1.899	1.895	1.909	1.909	1.909
0.010	0.000	0.000	0.005	-0.005	0.010	0.029	2.744	1.904	1.899	1.895	1.914	1.909	1.909
0.010	0.000	0.000	0.000	-0.005	-0.005	0.029	2.676	1.904	1.899	1.895	1.914	1.904	1.904
0.010	0.010	0.000	0.000	0.005	0.010	0.029	2.700	1.909	1.904	1.895	1.914	1.909	1.909
0.000	0.005	0.000	0.000	0.000	-0.005	0.029	2.656	1.899	1.899	1.899	1.914	1.909	1.904
0.005	0.005	-0.005	0.000	0.010	0.000	0.029	2.739	1.904	1.904	1.899	1.909	1.909	1.909
0.000	0.005	0.000	0.005	0.000	0.000	0.029	2.695	1.904	1.899	1.899	1.914	1.909	1.904
0.029	0.005	0.000	0.005	0.000	0.000	0.029	2.671	1.909	1.904	1.904	1.914	1.909	1.909
0.029	0.000	0.000	0.000	0.000	0.010	0.029	2.690	1.904	1.904	1.899	1.914	1.909	1.909
0.020	0.005	0.000	0.005	0.000	-0.020	0.029	2.666	1.899	1.899	1.899	1.919	1.914	1.904
0.000	-0.005	0.005	0.000	-0.005	0.005	0.029	2.661	1.890	1.895	1.899	1.914	1.909	1.909
0.005	0.000	0.000	0.000	0.000	-0.010	0.029	2.661	1.890	1.895	1.895	1.914	1.914	1.909
-0.010	-0.005	0.000	0.005	0.000	0.010	0.029	2.686	1.885	1.890	1.890	1.914	1.909	1.914
-0.029	-0.010	0.005	0.005	0.000	0.005	0.029	2.671	1.885	1.885	1.890	1.914	1.909	1.909
-0.034	-0.005	0.000	0.005	0.000	0.015	0.029	2.661	1.885	1.890	1.890	1.909	1.909	1.914
-0.039	-0.005	0.005	0.005	0.005	0.005	0.029	2.661	1.890	1.885	1.890	1.909	1.909	1.909
-0.024	0.005	0.000	0.000	-0.005	0.000	0.029	2.700	1.895	1.890	1.885	1.909	1.904	1.904
-0.029	0.000	0.000	0.005	0.000	-0.020	0.029	2.700	1.899	1.890	1.890	1.909	1.904	1.899
-0.015	-0.005	0.000	0.005	0.000	0.000	0.029	2.671	1.899	1.890	1.890	1.904	1.909	1.909
-0.005	0.000	0.005	0.005	0.000	0.010	0.029	2.695	1.904	1.895	1.890	1.909	1.904	1.909
0.000	0.000	0.000	0.005	-0.005	0.005	0.029	2.690	1.904	1.899	1.895	1.909	1.904	1.904
0.005	0.010	-0.005	0.005	0.000	0.000	0.029	2.700	1.909	1.899	1.895	1.909	1.904	1.909
0.000	0.005	0.000	0.005	0.000	-0.024	0.029	2.671	1.904	1.904	1.899	1.909	1.904	1.899
0.010	0.000	0.000	0.000	0.000	0.005	0.029	2.686	1.899	1.895	1.895	1.914	1.904	1.909
0.010	0.000	0.000	0.000	0.000	0.005	0.029	2.676	1.899	1.899	1.895	1.914	1.909	1.909
0.010	-0.005	0.000	0.005	0.005	0.005	0.029	2.671	1.899	1.899	1.895	1.914	1.909	1.909
0.010	0.005	0.005	0.005	0.000	0.000	0.029	2.700	1.904	1.899	1.899	1.914	1.909	1.904
0.015	-0.010	0.000	0.005	0.000	-0.005	0.029	2.676	1.899	1.895	1.895	1.914	1.909	1.909
0.015	-0.005	0.005	0.005	0.000	0.000	0.029	2.681	1.899	1.899	1.895	1.914	1.909	1.904
0.005	-0.010	-0.005	0.000	-0.005	0.005	0.029	2.661	1.895	1.895	1.890	1.914	1.909	1.904
0.010	-0.005	0.000	0.005	0.000	-0.020	0.029	2.642	1.890	1.895	1.895	1.909	1.909	1.899
0.020	-0.005	0.000	0.000	0.005	0.000	0.029	2.656	1.890	1.890	1.895	1.909	1.909	1.909
0.000	0.015	0.000	0.000	0.000	0.005	0.029	2.642	1.880	1.890	1.895	1.909	1.904	1.909
0.000	-0.005	0.000	0.005	0.005	0.000	0.029	2.783	1.899	1.890	1.890	1.909	1.909	1.904
0.005	0.010	0.000	0.000	0.005	-0.015	0.029	2.729	1.904	1.899	1.890	1.909	1.909	1.899
0.005	0.005	0.000	0.000	-0.005	-0.005	0.029	2.681	1.899	1.895	1.895	1.909	1.904	1.904
0.005	0.015	-0.005	0.000	0.000	0.005	0.029	2.749	1.895	1.899	1.890	1.909	1.909	1.909
0.015	0.000	0.000	0.005	0.000	0.000	0.029	2.749	1.904	1.895	1.895	1.914	1.909	1.909
0.010	0.005	0.000	0.000	0.005	0.000	0.029	2.617	1.895	1.899	1.895	1.914	1.909	1.909
0.010	0.000	0.005	0.000	-0.005	0.000	0.029	2.729	1.899	1.895	1.895	1.914	1.909	1.904
0.015	0.000	0.005	0.005	0.000	-0.020	0.029	2.642	1.895	1.895	1.895	1.914	1.909	1.904
0.020	0.000	0.000	0.000	0.000	0.005	0.029	2.710	1.899	1.899	1.895	1.909	1.909	1.914
0.024	0.000	0.005	0.000	0.005	0.010	0.029	2.651	1.899	1.899	1.895	1.914	1.909	1.914
0.039	0.000	0.005	0.000	0.000	-0.005	0.029	2.622	1.890	1.895	1.895	1.914	1.909	1.904
0.015	-0.005	0.000	0.005	0.005	-0.010	0.029	2.661	1.880	1.890	1.890	1.914	1.909	1.904
0.000	-0.005	0.000	0.005	-0.005	0.000	0.029	2.749	1.890	1.890	1.890	1.914	1.904	1.909
-0.005	0.000	0.000	0.005	0.005	-0.010	0.029	2.690	1.895	1.890	1.890	1.909	1.909	1.904
-0.005	0.000	0.000	0.005	0.005	0.015	0.029	2.676	1.890	1.885	1.890	1.909	1.909	1.914
-0.005	0.010	0.000	0.000	0.000	0.015	0.029	2.690	1.895	1.890	1.890	1.909	1.904	1.909
0.020	0.005	0.000	-0.005	-0.005	0.010	0.029	2.690	1.899	1.895	1.890	1.904	1.904	1.904
0.024	0.000	0.005	0.000	-0.005	-0.005	0.029	2.695	1.899	1.895	1.890	1.904	1.904	1.899
-0.005	0.005	0.005	-0.005	0.000	0.010	0.029	2.705	1.895	1.895	1.890	1.909	1.904	1.904
-0.015	0.010	0.000	0.000	0.000	0.000	0.029	2.705	1.895	1.895	1.890	1.909	1.904	1.904
-0.039	0.005	0.000	0.000	0.000	0.000	0.024	2.671	1.890	1.890	1.890	1.909	1.904	1.904
-0.039	0.000	0.000	0.005	0.000	-0.005	0.029	2.690	1.895	1.890	1.890	1.909	1.904	1.904
-0.024	0.005	0.000	0.000	0.000	0.000	0.029	2.676	1.899	1.890	1.890	1.909	1.904	1.909
-0.005	-0.005	0.000	0.000	-0.005	-0.005	0.029	2.671	1.899	1.895	1.890	1.909	1.904	1.899
0.010	-0.020	0.000	0.000	-0.005	0.000	0.029	2.705	1.909	1.895	1.890	1.909	1.904	1.904
0.020	-0.010	0.000	0.015	0.005	0.000	0.029	2.681	1.909	1.899	1.895	1.914	1.904	1.904
0.029	0.005	0.005	0.015	0.000	0.010	0.029	2.700	1.904	1.909	1.895	1.914	1.909	1.909
-0.005	0.015	0.000	0.005	0.000	0.005	0.029	2.695	1.895	1.899	1.899	1.909	1.904	1.909
-0.029	0.000	0.005	-0.005	0.005	-0.010	0.029	2.690	1.890	1.895	1.895	1.909	1.909	1.904
-0.068	-0.005	0.000	0.000	0.000	0.010	0.029	2.661	1.875	1.885	1.890	1.909	1.904	1.909
-0.083	0.010	0.000	0.005	0.005	0.010	0.029	2.690	1.875	1.885	1.890	1.909	1.904	1.909
-0.088	0.000	0.005	0.005	0.000	0.005	0.029	2.666	1.880	1.880	1.885	1.909	1.909	1.904
-0.083	0.005	0.005	0.010	0.005	0.000	0.029	2.695	1.885	1.880	1.885	1.909	1.904	1.904
-0.059	0.005	0.000	0.010	0.000	-0.010	0.029	2.681	1.895	1.885	1.880	1.904	1.904	1.904
-0.029	0.000	-0.005	0.015	-0.005	0.005	0.029	2.676	1.904	1.890	1.880	1.904	1.904	1.909
-0.010	-0.005	-0.005	0.005	0.000	-0.020	0.029	2.686	1.909	1.890	1.885	1.904	1.899	1.899
0.034	-0.005	0.000	0.000	0.000	0.005	0.029	2.661	1.914	1.904	1.890	1.904	1.899	1.904
0.073	-0.010	0.000	-0.005	0.000	0.015	0.029	2.793	1.934	1.909	1.895	1.904	1.899	1.909
0.083	0.000	0.000	-0.005	0.005	-0.015	0.029	2.651	1.919	1.914	1.899	1.909	1.904	1.899
0.073	0.000	0.005	-0.010	0.000	0.010	0.029	2.793	1.924	1.914	1.904	1.909	1.904	1.909
0.059	0.005	0.000	-0.010	0.000	0.000	0.029	2.788	1.924	1.919	1.909	1.914	1.904	1.904
0.054	0.020	0.000	-0.005	0.005	-0.005	0.029	2.715	1.909	1.919	1.909	1.919	1.909	1.904
0.024	0.005	0.005	0.000	0.005	0.010	0.029	2.690	1.899	1.909	1.909	1.924	1.914	1.909
0.010	0.000	0.000	0.000	0.000	0.000	0.029	2.734	1.899	1.909	1.904	1.924	1.909	1.909
-0.005	0.020	-0.005	0.005	0.000	0.000	0.029	2.725	1.904	1.909	1.909	1.924	1.914	1.909
0.024	0.010	-0.005	0.010	-0.005	-0.015	0.029	2.637	1.904	1.904	1.904	1.929	1.914	1.909
0.034	0.000	0.000	0.000	0.005	-0.005	0.029	2.622	1.895	1.899	1.904	1.924	1.919	1.914
0.024	0.000	0.000	0.000	0.000	-0.005	0.029	2.607	1.885	1.895	1.904	1.919	1.919	1.914
0.015	0.005	0.005	0.000	0.000	0.000	0.029	2.651	1.880	1.890	1.899	1.919	1.914	1.919
0.029	-0.010	0.005	0.000	0.000	0.010	0.029	2.690	1.890	1.890	1.895	1.919	1.914	1.919
0.010	0.000	0.005	0.000	0.000	0.010	0.029	2.729	1.880	1.885	1.895	1.914	1.914	1.919
0.024	0.010	0.005	0.000	0.000	0.005	0.024	2.656	1.885	1.890	1.890	1.914	1.914	1.914
0.010	0.000	0.005	0.000	0.000	0.005	0.029	2.744	1.890	1.890	1.890	1.914	1.909	1.914
-0.024	0.005	0.000	0.000	-0.005	0.000	0.029	2.690	1.885	1.890	1.885	1.909	1.909	1.914
-0.039	0.000	0.000	0.000	0.005	0.005	0.029	2.676	1.885	1.885	1.885	1.909	1.909	1.914
-0.068	0.000	0.000	0.000	0.000	-0.010	0.029	2.695	1.885	1.885	1.885	1.909	1.909	1.909
-0.078	0.000	-0.005	0.005	0.000	0.010	0.029	2.671	1.885	1.885	1.885	1.909	1.904	1.909
-0.068	0.000	0.000	0.000	0.000	0.005	0.029	2.700	1.890	1.885	1.885	1.904	1.904	1.909
-0.049	-0.005	-0.005	0.010	0.005	-0.020	0.029	2.690	1.899	1.890	1.885	1.904	1.904	1.899
-0.029	-0.005	0.000	0.010	0.000	0.005	0.029	2.666	1.904	1.890	1.890	1.909	1.904	1.909
0.000	-0.010	-0.005	0.005	0.000	-0.005	0.029	2.671	1.914	1.895	1.885	1.904	1.899	1.899
0.015	-0.010	0.000	0.005	0.005	0.010	0.029	2.695	1.909	1.899	1.890	1.904	1.904	1.909
0.044	-0.005	0.000	0.000	0.005	0.015	0.029	2.681	1.919	1.904	1.890	1.904	1.899	1.904
0.063	-0.015	-0.005	0.000	0.000	0.010	0.029	2.671	1.914	1.904	1.895	1.909	1.904	1.904
0.073	-0.005	-0.005	0.000	0.000	0.000	0.029	2.676	1.909	1.909	1.899	1.909	1.899	1.899
0.054	-0.005	-0.005	0.000	0.000	0.010	0.029	2.695	1.899	1.904	1.899	1.909	1.904	1.899
0.029	0.010	-0.005	-0.005	-0.005	-0.005	0.029	2.700	1.895	1.909	1.904	1.909	1.899	1.899
0.005	0.015	0.000	-0.005	0.005	0.005	0.029	2.681	1.890	1.904	1.904	1.914	1.909	1.904
-0.015	0.010	-0.005	-0.005	0.005	-0.015	0.029	2.700	1.885	1.895	1.899	1.914	1.904	1.899
-0.015	0.000	-0.005	-0.005	0.005	0.015	0.029	2.676	1.885	1.890	1.895	1.914	1.909	1.909
-0.024	-0.005	0.005	-0.005	0.000	0.010	0.029	2.666	1.885	1.890	1.895	1.914	1.909	1.909
-0.034	0.000	0.005	-0.005	0.000	-0.010	0.029	2.671	1.885	1.890	1.895	1.914	1.909	1.904
-0.015	0.000	0.010	0.005	0.000	0.000	0.029	2.681	1.899	1.890	1.890	1.919	1.909	1.909
0.039	0.010	0.005	0.015	-0.005	-0.015	0.029	2.666	1.909	1.899	1.895	1.919	1.909	1.904
0.044	0.010	0.005	0.010	0.000	0.010	0.029	2.676	1.909	1.899	1.895	1.919	1.914	1.914
0.029	0.000	0.010	0.015	0.000	0.005	0.029	2.690	1.904	1.899	1.895	1.919	1.914	1.909
0.020	-0.005	0.005	0.010	0.000	-0.005	0.029	2.642	1.890	1.895	1.895	1.914	1.914	1.909
0.015	-0.015	0.010	0.005	0.005	-0.015	0.029	2.783	1.904	1.890	1.890	1.914	1.909	1.904
-0.015	0.010	0.010	0.005	0.000	0.000	0.029	2.651	1.890	1.899	1.895	1.909	1.909	1.909
-0.034	-0.005	0.005	-0.005	0.000	0.005	0.029	2.793	1.885	1.885	1.890	1.904	1.909	1.909
-0.024	-0.010	0.000	-0.015	0.000	0.005	0.029	2.773	1.899	1.890	1.885	1.904	1.904	1.909
-0.020	0.000	0.000	-0.020	0.000	0.005	0.029	2.637	1.890	1.890	1.890	1.904	1.904	1.904
-0.029	-0.010	0.000	-0.010	0.005	0.010	0.029	2.661	1.890	1.890	1.890	1.909	1.904	1.909
-0.024	0.000	0.000	0.000	0.000	0.010	0.029	2.646	1.890	1.890	1.890	1.909	1.899	1.904
-0.005	-0.010	0.005	0.005	0.000	0.005	0.029	2.739	1.904	1.890	1.890	1.909	1.904	1.904
0.029	0.000	0.000	0.010	0.005	-0.005	0.029	2.627	1.904	1.899	1.890	1.914	1.909	1.904
0.083	0.020	-0.005	0.010	0.000	0.005	0.029	2.729	1.919	1.914	1.895	1.914	1.909	1.904
0.088	0.010	0.000	0.015	0.005	0.005	0.029	2.622	1.899	1.909	1.899	1.914	1.909	1.904
0.063	0.010	0.000	0.005	0.000	0.000	0.029	2.642	1.890	1.899	1.895	1.914	1.909	1.904
0.034	0.000	0.000	0.010	0.000	-0.010	0.029	2.681	1.885	1.890	1.895	1.914	1.909	1.904
-0.010	0.015	-0.005	0.005	0.005	0.000	0.029	2.705	1.875	1.890	1.899	1.914	1.909	1.909
-0.034	0.010	-0.005	0.005	0.000	0.000	0.029	2.646	1.870	1.880	1.890	1.914	1.909	1.909
-0.059	0.005	0.005	0.005	0.010	0.005	0.029	2.729	1.875	1.875	1.885	1.909	1.909	1.909
-0.054	-0.005	0.000	0.000	0.005	-0.005	0.029	2.695	1.885	1.875	1.880	1.904	1.904	1.904
-0.020	-0.005	-0.005	0.000	0.000	0.000	0.029	2.666	1.895	1.880	1.880	1.904	1.904	1.909
-0.010	-0.010	0.005	0.000	0.000	0.005	0.029	2.700	1.904	1.885	1.880	1.899	1.904	1.904
-0.015	-0.010	0.000	0.000	0.000	0.000	0.029	2.661	1.895	1.885	1.880	1.899	1.899	1.904
-0.015	0.005	0.000	-0.005	0.000	0.010	0.029	2.700	1.895	1.890	1.885	1.899	1.899	1.904
-0.024	-0.010	0.000	0.000	0.000	-0.015	0.029	2.695	1.895	1.890	1.885	1.899	1.895	1.899
-0.039	-0.005	0.000	-0.005	0.005	0.000	0.029	2.690	1.890	1.890	1.885	1.899	1.899	1.904
-0.039	0.010	0.000	-0.005	0.000	0.010	0.029	2.671	1.890	1.890	1.890	1.904	1.895	1.904
-0.049	0.000	0.000	0.000	0.000	0.000	0.029	2.705	1.890	1.890	1.885	1.904	1.899	1.895
0.054	0.005	0.000	-0.005	0.000	0.015	0.029	2.671	1.929	1.904	1.890	1.909	1.899	1.899
0.059	-0.005	-0.005	0.005	0.000	0.015	0.029	2.681	1.919	1.909	1.895	1.904	1.899	1.904
0.024	0.000	-0.005	0.000	0.000	0.010	0.029	2.690	1.904	1.904	1.895	1.909	1.899	1.899
0.005	0.015	0.000	0.005	0.000	0.000	0.029	2.695	1.895	1.904	1.899	1.909	1.904	1.899
-0.005	0.005	0.000	0.000	0.010	-0.015	0.029	2.695	1.895	1.899	1.899	1.914	1.904	1.899
-0.020	0.005	0.000	0.000	0.000	0.005	0.029	2.695	1.890	1.895	1.899	1.914	1.904	1.904
-0.054	0.005	0.005	0.000	0.005	-0.005	0.029	2.695	1.880	1.895	1.899	1.914	1.909	1.899
-0.059	-0.005	0.000	0.005	0.000	0.005	0.029	2.681	1.880	1.885	1.895	1.914	1.909	1.909
-0.059	-0.010	0.010	-0.005	0.005	-0.010	0.029	2.671	1.885	1.885	1.890	1.909	1.909	1.904
-0.044	0.000	0.000	-0.005	0.000	0.005	0.029	2.690	1.895	1.890	1.890	1.909	1.909	1.909
-0.005	0.005	0.000	-0.010	-0.005	0.005	0.029	2.700	1.909	1.895	1.890	1.909	1.904	1.904
0.015	-0.005	0.005	-0.005	0.000	0.000	0.029	2.671	1.904	1.895	1.890	1.909	1.904	1.904
0.015	-0.010	0.000	0.000	0.005	-0.005	0.029	2.671	1.899	1.895	1.890	1.909	1.904	1.899
0.029	0.000	0.005	0.000	0.000	-0.005	0.029	2.681	1.904	1.899	1.895	1.909	1.904	1.904
0.044	-0.005	0.005	0.005	0.000	0.005	0.029	2.637	1.895	1.899	1.895	1.909	1.909	1.904
0.024	0.000	0.005	0.000	0.000	-0.015	0.029	2.783	1.890	1.895	1.899	1.909	1.904	1.904
0.010	0.010	-0.005	0.005	0.000	-0.005	0.029	2.651	1.885	1.895	1.895	1.914	1.904	1.909
0.010	0.005	0.000	0.005	0.005	-0.010	0.029	2.769	1.904	1.895	1.895	1.914	1.904	1.904
0.020	0.005	-0.005	0.005	-0.005	0.010	0.029	2.788	1.914	1.899	1.895	1.914	1.909	1.909
0.005	0.010	0.000	0.005	0.000	0.010	0.029	2.725	1.904	1.899	1.895	1.914	1.909	1.909
0.000	0.005	-0.005	0.005	0.005	0.000	0.029	2.671	1.899	1.899	1.895	1.914	1.909	1.909
-0.005	0.000	0.000	0.000	0.000	-0.010	0.029	2.759	1.909	1.899	1.895	1.914	1.909	1.904
0.005	-0.010	-0.005	-0.005	0.005	0.010	0.029	2.759	1.914	1.895	1.895	1.914	1.909	1.914
0.010	-0.005	0.000	-0.005	0.010	0.005	0.029	2.715	1.914	1.904	1.899	1.909	1.909	1.909
0.020	0.000	0.005	-0.005	0.005	0.000	0.029	2.734	1.919	1.909	1.899	1.914	1.909	1.909
0.020	0.000	0.000	0.000	0.005	0.000	0.029	2.715	1.914	1.909	1.904	1.914	1.909	1.909
0.015	-0.005	0.005	0.000	0.005	-0.005	0.029	2.744	1.909	1.909	1.904	1.919	1.909	1.909
0.010	-0.005	0.005	0.010	0.005	0.000	0.029	2.656	1.904	1.909	1.904	1.919	1.909	1.914
0.024	-0.005	0.000	0.015	0.005	0.000	0.029	2.637	1.904	1.904	1.904	1.924	1.914	1.914
0.029	-0.005	0.000	0.020	-0.005	0.000	0.029	2.661	1.899	1.904	1.904	1.924	1.909	1.909
0.024	0.005	0.000	0.015	0.000	-0.024	0.029	2.637	1.890	1.899	1.899	1.924	1.914	1.904
0.005	0.010	-0.005	0.010	0.000	-0.010	0.029	2.666	1.885	1.899	1.899	1.919	1.914	1.914
-0.005	0.000	0.000	0.000	0.000	0.000	0.029	2.676	1.885	1.890	1.895	1.914	1.914	1.914
-0.010	0.010	0.000	-0.005	0.000	0.005	0.029	2.695	1.890	1.890	1.895	1.914	1.909	1.909
0.015	0.010	0.000	-0.020	0.000	0.005	0.029	2.690	1.899	1.895	1.895	1.909	1.909	1.914
0.000	-0.005	0.005	-0.020	0.000	0.005	0.029	2.695	1.899	1.890	1.895	1.909	1.909	1.914
0.024	0.005	0.000	-0.010	0.000	0.010	0.029	2.705	1.909	1.899	1.895	1.914	1.909	1.914
0.059	0.015	0.000	-0.005	0.000	0.005	0.029	2.686	1.919	1.909	1.899	1.919	1.909	1.909
0.068	0.005	0.005	0.000	0.000	0.005	0.029	2.700	1.914	1.909	1.899	1.919	1.909	1.914
0.054	-0.005	0.000	-0.005	0.000	-0.010	0.029	2.690	1.904	1.904	1.899	1.919	1.909	1.909
0.000	0.000	0.000	0.000	0.005	0.010	0.029	2.666	1.890	1.904	1.899	1.919	1.914	1.914
-0.039	0.005	0.000	0.000	0.000	0.000	0.029	2.700	1.880	1.890	1.895	1.914	1.909	1.909
-0.073	-0.005	0.000	0.000	-0.005	0.000	0.029	2.676	1.870	1.885	1.890	1.914	1.909	1.914
-0.103	-0.010	0.000	0.005	0.000	0.005	0.029	2.671	1.870	1.875	1.885	1.914	1.909	1.914
-0.117	-0.015	0.000	0.010	0.000	0.005	0.029	2.681	1.875	1.875	1.880	1.914	1.909	1.914
-0.083	0.005	0.000	0.005	0.000	0.005	0.029	2.686	1.895	1.885	1.880	1.909	1.904	1.909
-0.054	0.005	0.000	0.000	0.000	0.010	0.029	2.700	1.904	1.890	1.885	1.904	1.904	1.909
-0.015	0.005	0.010	-0.010	-0.005	-0.010	0.029	2.686	1.914	1.899	1.885	1.904	1.904	1.899
-0.005	0.000	0.000	-0.005	-0.005	0.005	0.029	2.686	1.914	1.899	1.890	1.904	1.904	1.904
0.005	0.010	0.005	0.005	0.000	0.005	0.029	2.705	1.914	1.904	1.890	1.909	1.899	1.904
0.015	-0.005	0.000	0.010	-0.005	0.000	0.029	2.681	1.914	1.904	1.895	1.909	1.904	1.904
0.015	0.015	0.000	0.015	0.005	0.000	0.024	2.676	1.909	1.909	1.899	1.914	1.904	1.909
0.010	0.000	0.005	0.010	0.000	0.005	0.029	2.681	1.899	1.904	1.899	1.914	1.904	1.909
0.020	0.005	0.005	0.005	0.005	0.005	0.029	2.690	1.904	1.904	1.899	1.914	1.909	1.909
0.015	0.000	0.005	0.000	0.005	0.000	0.029	2.661	1.899	1.904	1.899	1.914	1.909	1.909
0.020	0.000	0.000	-0.005	0.005	0.005	0.029	2.783	1.914	1.904	1.899	1.919	1.909	1.909
0.015	0.005	0.000	0.005	0.000	-0.005	0.029	2.642	1.899	1.904	1.904	1.919	1.909	1.904
0.010	0.005	0.000	0.010	0.000	-0.010	0.029	2.778	1.909	1.904	1.899	1.919	1.909	1.904
0.015	0.010	0.000	0.005	0.005	0.010	0.029	2.788	1.919	1.909	1.904	1.919	1.914	1.914
0.024	0.000	0.000	0.000	0.005	0.010	0.029	2.642	1.909	1.909	1.904	1.919	1.914	1.914
0.049	-0.005	0.000	0.005	0.005	-0.015	0.029	2.666	1.909	1.904	1.904	1.919	1.914	1.909
0.083	-0.015	0.000	0.000	0.000	0.015	0.029	2.651	1.919	1.904	1.904	1.919	1.914	1.914
0.093	-0.015	0.005	0.000	0.000	0.010	0.029	2.778	1.929	1.909	1.904	1.919	1.914	1.914
0.059	-0.010	0.000	0.000	0.000	-0.010	0.029	2.715	1.909	1.909	1.904	1.919	1.914	1.909
0.020	0.000	0.005	0.005	-0.005	0.005	0.029	2.734	1.899	1.909	1.904	1.924	1.914	1.914
-0.015	0.010	0.000	0.000	0.000	-0.015	0.029	2.749	1.895	1.904	1.904	1.919	1.914	1.909
-0.034	0.010	0.005	0.000	0.000	0.005	0.029	2.715	1.895	1.899	1.904	1.924	1.919	1.919
-0.059	0.005	0.005	-0.005	-0.005	0.010	0.029	2.705	1.895	1.895	1.899	1.919	1.914	1.919
-0.073	0.015	0.000	-0.005	0.000	0.000	0.029	2.729	1.895	1.899	1.899	1.919	1.919	1.914
-0.063	0.005	0.000	-0.005	-0.005	0.005	0.029	2.661	1.895	1.895	1.899	1.919	1.914	1.919
-0.049	0.005	-0.005	-0.005	0.000	0.005	0.029	2.705	1.899	1.895	1.895	1.919	1.914	1.919
-0.039	0.020	-0.005	0.000	0.005	0.005	0.029	2.690	1.909	1.904	1.899	1.919	1.914	1.919
-0.024	0.015	-0.005	0.005	0.005	-0.005	0.029	2.695	1.909	1.904	1.899	1.919	1.914	1.914
-0.020	0.005	0.000	0.000	0.000	0.005	0.029	2.671	1.904	1.904	1.899	1.919	1.914	1.919
0.000	0.005	0.005	0.000	0.000	0.010	0.029	2.700	1.909	1.904	1.904	1.919	1.914	1.914
0.029	0.000	0.000	0.010	0.005	0.005	0.029	2.661	1.914	1.909	1.899	1.919	1.919	1.914
0.059	0.005	0.000	0.005	0.000	-0.005	0.029	2.695	1.919	1.914	1.904	1.919	1.914	1.914
0.034	-0.005	0.005	0.000	-0.005	-0.005	0.029	2.671	1.909	1.904	1.904	1.919	1.914	1.909
0.005	0.000	0.000	0.000	0.005	-0.005	0.029	2.671	1.895	1.904	1.899	1.919	1.919	1.914
-0.015	-0.010	0.000	0.000	0.005	-0.015	0.029	2.700	1.890	1.895	1.899	1.919	1.914	1.914
-0.024	-0.010	0.005	0.000	0.000	-0.015	0.029	2.676	1.890	1.895	1.899	1.919	1.914	1.909
-0.039	-0.005	0.005	0.010	0.000	0.010	0.029	2.690	1.890	1.895	1.895	1.919	1.914	1.919
-0.039	0.000	0.005	0.005	0.000	0.010	0.029	2.686	1.899	1.895	1.895	1.919	1.914	1.919
-0.029	0.000	0.005	-0.005	0.000	0.010	0.029	2.666	1.899	1.895	1.895	1.914	1.914	1.919
0.005	0.010	0.000	-0.005	-0.005	-0.005	0.029	2.705	1.914	1.904	1.895	1.909	1.909	1.914
0.010	-0.005	0.000	-0.010	-0.005	0.005	0.029	2.705	1.909	1.904	1.895	1.909	1.909	1.914
0.005	0.000	-0.005	-0.005	0.000	0.010	0.029	2.705	1.914	1.904	1.899	1.914	1.909	1.914
-0.005	0.000	0.000	0.000	0.005	0.000	0.029	2.676	1.904	1.909	1.904	1.919	1.909	1.909
-0.010	-0.005	-0.005	0.005	0.005	0.005	0.029	2.690	1.904	1.904	1.899	1.919	1.914	1.914
-0.010	0.015	0.000	0.010	0.005	0.005	0.029	2.671	1.899	1.909	1.899	1.919	1.914	1.914
-0.010	0.000	0.000	0.010	0.000	0.000	0.034	2.700	1.904	1.899	1.899	1.924	1.914	1.914
0.000	-0.005	-0.005	0.010	0.005	0.000	0.029	2.676	1.909	1.899	1.899	1.919	1.914	1.914
-0.005	-0.010	-0.005	0.010	0.000	-0.005	0.029	2.676	1.899	1.899	1.895	1.919	1.914	1.909
-0.005	-0.010	0.000	0.005	-0.005	0.000	0.029	2.681	1.899	1.899	1.895	1.914	1.914	1.909
0.010	-0.015	0.000	0.005	0.000	0.005	0.029	2.656	1.904	1.899	1.899	1.914	1.914	1.914
0.029	-0.005	-0.005	0.000	0.000	0.000	0.029	2.769	1.919	1.904	1.899	1.914	1.914	1.914
0.029	0.000	0.000	0.010	0.000	0.000	0.029	2.646	1.914	1.909	1.899	1.919	1.914	1.909
0.034	0.005	0.005	0.005	0.000	0.005	0.029	2.798	1.919	1.909	1.904	1.919	1.909	1.914
0.024	0.015	0.000	0.010	0.000	0.000	0.029	2.783	1.924	1.919	1.904	1.919	1.914	1.914
0.020	0.010	0.000	0.005	0.000	-0.005	0.029	2.622	1.909	1.914	1.904	1.919	1.914	1.914
0.020	0.010	0.005	0.005	0.000	0.000	0.029	2.676	1.904	1.909	1.909	1.924	1.914	1.914
0.044	0.010	0.000	0.000	0.000	0.005	0.029	2.656	1.909	1.909	1.909	1.924	1.914	1.919
0.039	0.000	0.000	-0.005	0.000	-0.005	0.029	2.725	1.909	1.909	1.909	1.924	1.914	1.914
0.029	-0.005	0.000	-0.005	0.005	-0.005	0.029	2.617	1.899	1.904	1.904	1.924	1.919	1.914
0.039	-0.010	-0.005	-0.005	0.005	0.000	0.029	2.729	1.904	1.899	1.904	1.924	1.919	1.919
0.015	0.000	-0.005	-0.005	0.005	0.005	0.029	2.642	1.895	1.899	1.904	1.924	1.919	1.919
-0.005	0.005	-0.005	0.005	0.005	-0.020	0.029	2.720	1.899	1.895	1.904	1.924	1.919	1.909
-0.039	0.005	0.010	0.005	0.000	0.005	0.029	2.686	1.890	1.895	1.904	1.924	1.919	1.924
-0.054	0.000	0.020	0.005	0.000	0.010	0.029	2.720	1.890	1.890	1.899	1.924	1.919	1.924
-0.059	0.005	0.015	0.000	0.000	0.005	0.029	2.676	1.890	1.895	1.895	1.919	1.919	1.919
-0.054	-0.005	0.010	0.005	0.005	0.005	0.029	2.710	1.895	1.890	1.890	1.919	1.919	1.919
-0.044	0.005	0.010	0.000	0.000	0.010	0.029	2.690	1.904	1.895	1.890	1.914	1.914	1.919
-0.024	0.005	0.010	0.005	0.005	0.000	0.029	2.700	1.909	1.899	1.895	1.914	1.914	1.914
-0.015	-0.005	0.005	0.005	0.005	0.010	0.029	2.666	1.909	1.899	1.895	1.914	1.914	1.914
0.010	-0.005	0.000	0.020	0.005	0.005	0.029	2.676	1.914	1.899	1.895	1.914	1.914	1.914
0.015	-0.010	-0.005	0.015	0.000	0.005	0.029	2.676	1.909	1.904	1.895	1.909	1.909	1.914
0.020	0.000	-0.005	-0.010	0.000	-0.015	0.029	2.705	1.914	1.909	1.895	1.909	1.909	1.909
0.024	0.005	0.000	-0.029	0.005	-0.005	0.029	2.705	1.914	1.909	1.899	1.909	1.909	1.909
0.020	0.000	-0.005	-0.024	0.005	0.015	0.029	2.671	1.909	1.909	1.899	1.909	1.909	1.914
0.020	0.005	-0.005	-0.020	0.000	0.010	0.029	2.681	1.904	1.909	1.904	1.914	1.904	1.909
0.005	0.000	0.000	-0.005	0.005	0.010	0.029	2.686	1.899	1.904	1.904	1.919	1.909	1.909
0.010	0.000	-0.005	0.010	0.005	-0.010	0.029	2.676	1.899	1.899	1.904	1.924	1.914	1.904
0.005	0.010	0.000	0.010	0.005	0.010	0.029	2.676	1.904	1.904	1.904	1.929	1.914	1.914
0.000	0.000	0.000	0.015	-0.005	-0.010	0.029	2.656	1.895	1.899	1.904	1.924	1.914	1.914
0.000	0.005	0.000	0.024	0.000	0.010	0.029	2.695	1.899	1.895	1.899	1.924	1.914	1.914
0.000	0.000	0.000	0.020	-0.005	0.010	0.029	2.705	1.904	1.895	1.899	1.924	1.919	1.914
0.005	0.000	-0.005	0.015	0.005	-0.010	0.029	2.690	1.904	1.899	1.895	1.919	1.914	1.914
0.000	0.000	0.000	0.005	0.000	0.010	0.029	2.676	1.899	1.895	1.899	1.914	1.914	1.919
0.000	-0.010	0.005	0.000	0.000	0.005	0.029	2.666	1.899	1.895	1.895	1.914	1.914	1.914
0.005	-0.005	-0.005	0.010	0.000	0.000	0.029	2.676	1.899	1.895	1.895	1.914	1.909	1.914
0.005	0.005	0.000	0.005	0.005	0.005	0.029	2.681	1.899	1.899	1.895	1.914	1.914	1.909
0.000	0.000	-0.005	0.000	0.005	0.000	0.029	2.666	1.899	1.899	1.895	1.909	1.909	1.914
0.000	0.010	0.000	0.000	0.005	0.000	0.029	2.676	1.899	1.899	1.895	1.914	1.909	1.909
-0.005	0.005	0.000	-0.005	0.000	0.005	0.029	2.690	1.899	1.899	1.895	1.909	1.909	1.914
-0.005	0.010	0.000	-0.005	0.005	0.005	0.029	2.666	1.899	1.899	1.895	1.914	1.909	1.909
-0.010	0.005	-0.005	-0.005	0.000	-0.015	0.029	2.773	1.895	1.895	1.895	1.914	1.909	1.909
-0.005	0.005	0.000	-0.005	0.000	-0.005	0.029	2.646	1.895	1.895	1.895	1.914	1.909	1.909
0.000	-0.005	0.000	0.000	0.000	-0.005	0.029	2.744	1.899	1.890	1.895	1.914	1.909	1.909
-0.005	-0.005	0.000	0.005	-0.005	0.005	0.029	2.788	1.909	1.895	1.895	1.914	1.909	1.909
0.000	0.000	0.000	0.000	0.000	0.000	0.029	2.729	1.914	1.899	1.895	1.914	1.909	1.909
0.005	0.005	0.005	0.000	0.005	-0.020	0.029	2.695	1.914	1.909	1.899	1.914	1.909	1.904
0.005	0.005	0.000	0.000	0.000	0.000	0.029	2.651	1.899	1.904	1.899	1.914	1.909	1.909
-0.015	-0.005	0.010	0.005	0.000	0.010	0.029	2.764	1.904	1.899	1.899	1.919	1.909	1.914
0.005	0.005	0.000	0.010	0.000	0.010	0.029	2.632	1.899	1.904	1.899	1.919	1.914	1.914
0.005	-0.005	0.005	0.000	0.000	0.005	0.029	2.734	1.909	1.899	1.899	1.919	1.909	1.909
-0.010	0.000	0.005	0.000	0.000	0.000	0.029	2.725	1.904	1.904	1.899	1.914	1.909	1.909
0.005	0.000	0.000	-0.005	-0.005	0.010	0.029	2.632	1.904	1.904	1.895	1.914	1.909	1.914
0.000	0.000	0.000	-0.005	0.005	0.000	0.029	2.705	1.899	1.904	1.899	1.914	1.909	1.909
0.005	0.000	0.000	0.000	0.000	0.005	0.029	2.705	1.899	1.904	1.899	1.919	1.914	1.909
0.000	0.000	0.000	0.005	-0.005	0.005	0.029	2.656	1.899	1.899	1.899	1.919	1.909	1.909
0.000	-0.005	0.000	0.000	0.000	-0.015	0.029	2.720	1.904	1.904	1.899	1.919	1.909	1.904
-0.005	0.010	0.000	0.000	0.000	0.010	0.029	2.700	1.904	1.904	1.899	1.919	1.914	1.914
0.000	0.020	0.000	0.000	0.000	0.000	0.029	2.661	1.899	1.904	1.899	1.919	1.914	1.909
0.000	0.020	0.000	0.000	0.005	0.010	0.029	2.676	1.899	1.904	1.904	1.919	1.919	1.914
0.000	0.020	0.000	0.000	0.005	0.005	0.029	2.700	1.899	1.904	1.899	1.919	1.914	1.914
0.005	0.000	0.000	-0.005	0.005	0.000	0.029	2.671	1.899	1.895	1.899	1.919	1.914	1.914
0.005	0.010	0.000	-0.005	0.000	0.000	0.024	2.705	1.904	1.899	1.899	1.919	1.914	1.914
-0.005	0.000	0.005	0.000	0.000	0.000	0.029	2.681	1.899	1.899	1.899	1.919	1.914	1.914
-0.005	0.010	0.005	0.000	0.005	0.005	0.029	2.666	1.899	1.899	1.899	1.919	1.914	1.914
0.005	-0.005	-0.005	0.005	0.005	0.000	0.029	2.705	1.904	1.890	1.895	1.919	1.914	1.914
-0.005	-0.005	0.005	0.005	0.000	0.000	0.029	2.676	1.899	1.895	1.895	1.919	1.909	1.909
0.000	-0.010	0.000	0.005	0.000	0.005	0.029	2.671	1.899	1.895	1.895	1.914	1.909	1.914
0.005	-0.005	0.000	0.010	0.000	0.000	0.029	2.705	1.904	1.895	1.895	1.914	1.909	1.909
0.000	-0.005	0.000	0.005	0.005	0.015	0.029	2.705	1.904	1.899	1.895	1.914	1.909	1.914
0.005	0.000	-0.005	0.005	0.000	-0.020	0.029	2.695	1.904	1.899	1.895	1.914	1.909	1.904
0.000	-0.010	0.000	0.005	0.000	0.000	0.029	2.700	1.904	1.899	1.895	1.914	1.909	1.914
0.000	0.000	0.000	0.005	0.000	0.010	0.029	2.700	1.909	1.904	1.899	1.914	1.909	1.914
0.005	0.000	0.010	0.005	0.005	-0.005	0.029	2.681	1.904	1.904	1.904	1.914	1.909	1.904
0.005	-0.005	0.005	0.010	0.000	-0.010	0.029	2.695	1.904	1.904	1.899	1.919	1.909	1.909
0.000	0.000	0.000	0.010	-0.005	0.000	0.029	2.666	1.904	1.904	1.899	1.919	1.914	1.914
0.000	0.000	0.000	0.005	0.005	0.005	0.029	2.671	1.899	1.899	1.899	1.919	1.914	1.914
-0.005	0.005	0.005	-0.005	0.005	0.000	0.029	2.676	1.899	1.899	1.899	1.914	1.914	1.914
-0.005	0.000	0.000	-0.005	0.005	0.005	0.029	2.671	1.899	1.899	1.899	1.914	1.909	1.914
-0.005	-0.005	0.000	-0.010	0.000	0.000	0.029	2.671	1.895	1.895	1.895	1.914	1.909	1.914
0.005	0.005	0.000	-0.005	0.000	0.000	0.029	2.666	1.899	1.899	1.899	1.919	1.909	1.909
-0.005	-0.010	0.005	0.000	0.000	0.000	0.029	2.773	1.904	1.895	1.899	1.914	1.909	1.909
0.000	-0.015	0.000	0.005	0.000	0.015	0.029	2.651	1.899	1.895	1.895	1.919	1.909	1.914
0.005	-0.020	-0.005	0.005	0.000	0.010	0.029	2.788	1.904	1.895	1.895	1.914	1.909	1.914
0.010	-0.010	0.000	0.005	0.000	-0.005	0.029	2.788	1.914	1.899	1.895	1.914	1.909	1.909
-0.005	-0.015	0.000	0.005	-0.005	-0.005	0.029	2.729	1.909	1.899	1.895	1.914	1.909	1.909
-0.010	-0.005	0.000	0.000	-0.005	0.005	0.029	2.671	1.904	1.904	1.899	1.914	1.909	1.909
0.000	-0.005	0.000	0.005	-0.005	0.000	0.029	2.739	1.914	1.904	1.899	1.914	1.909	1.909
0.005	-0.005	0.000	0.000	0.000	0.005	0.029	2.754	1.914	1.909	1.904	1.914	1.909	1.909
0.000	0.010	0.005	0.005	0.000	-0.010	0.029	2.642	1.904	1.909	1.904	1.919	1.914	1.909
0.000	0.024	0.005	0.005	0.000	0.005	0.034	2.725	1.899	1.909	1.909	1.919	1.909	1.914
-0.005	0.015	0.000	0.005	0.000	-0.010	0.029	2.651	1.895	1.904	1.909	1.924	1.914	1.909
0.000	0.010	0.000	0.005	0.000	0.000	0.029	2.749	1.904	1.899	1.904	1.924	1.914	1.914
0.005	0.005	0.000	0.010	0.010	0.005	0.029	2.690	1.899	1.899	1.904	1.924	1.924	1.919
0.000	0.005	0.000	0.005	0.005	0.000	0.029	2.729	1.895	1.895	1.899	1.924	1.919	1.919
0.000	0.000	0.000	0.000	0.005	0.010	0.024	2.656	1.895	1.895	1.899	1.919	1.914	1.919
0.000	-0.010	0.000	-0.005	0.000	0.010	0.029	2.720	1.899	1.890	1.899	1.914	1.914	1.919
0.005	-0.005	0.010	-0.005	0.000	0.005	0.029	2.686	1.904	1.895	1.895	1.914	1.909	1.914
0.015	-0.015	0.005	-0.010	0.005	0.005	0.029	2.671	1.899	1.895	1.895	1.914	1.909	1.914
0.005	-0.010	0.005	-0.010	0.000	0.010	0.029	2.695	1.904	1.899	1.890	1.914	1.909	1.914
0.010	0.000	0.005	-0.005	0.010	0.015	0.029	2.695	1.899	1.899	1.895	1.914	1.909	1.914
0.015	0.000	0.000	0.005	0.000	0.000	0.029	2.695	1.904	1.899	1.895	1.914	1.909	1.909
0.000	0.005	0.000	0.005	0.000	0.005	0.029	2.671	1.895	1.899	1.895	1.914	1.909	1.909
-0.015	0.000	0.000	0.010	0.005	-0.005	0.029	2.690	1.895	1.895	1.895	1.914	1.914	1.909
-0.005	0.010	0.000	0.005	0.005	0.010	0.029	2.666	1.899	1.899	1.899	1.914	1.909	1.914
0.000	0.010	0.005	0.005	-0.005	0.005	0.029	2.700	1.904	1.904	1.895	1.914	1.909	1.909
0.000	0.015	0.000	0.005	0.000	-0.005	0.029	2.676	1.904	1.899	1.899	1.914	1.909	1.909
-0.010	0.005	0.000	0.005	-0.005	-0.015	0.029	2.705	1.899	1.899	1.899	1.914	1.909	1.904
0.000	0.005	0.005	0.000	-0.005	-0.005	0.029	2.676	1.904	1.899	1.899	1.914	1.909	1.909
-0.005	0.005	0.000	0.005	-0.010	0.000	0.024	2.705	1.904	1.899	1.899	1.914	1.909	1.914
0.000	0.000	0.000	0.000	-0.020	0.000	0.029	2.695	1.909	1.904	1.899	1.914	1.904	1.909
-0.005	0.010	0.000	0.000	-0.015	-0.015	0.029	2.671	1.904	1.904	1.899	1.919	1.909	1.909
0.000	0.000	0.000	0.000	-0.005	-0.005	0.029	2.700	1.904	1.899	1.899	1.919	1.914	1.909
0.005	-0.005	-0.005	0.005	0.005	0.005	0.029	2.676	1.899	1.899	1.899	1.914	1.914	1.914
0.010	0.000	0.000	-0.005	0.015	-0.010	0.029	2.695	1.909	1.904	1.899	1.919	1.914	1.909
0.000	0.015	0.000	0.000	0.029	0.010	0.029	2.690	1.904	1.904	1.899	1.919	1.924	1.919
0.010	0.005	0.000	0.000	0.015	0.005	0.029	2.690	1.904	1.904	1.899	1.919	1.914	1.914
0.010	0.010	0.000	0.000	0.005	0.015	0.029	2.671	1.899	1.899	1.899	1.919	1.909	1.914
0.010	0.010	0.005	0.000	0.000	-0.005	0.029	2.686	1.899	1.899	1.899	1.919	1.909	1.909
0.005	0.000	0.000	0.000	0.000	0.000	0.029	2.686	1.899	1.895	1.899	1.919	1.909	1.914
0.000	-0.005	0.005	0.000	0.005	-0.005	0.024	2.651	1.890	1.895	1.895	1.914	1.909	1.909
-0.005	0.000	0.000	0.000	-0.005	0.010	0.029	2.783	1.880	1.890	1.895	1.914	1.909	1.919
0.000	0.000	-0.005	0.000	-0.005	-0.005	0.029	2.656	1.885	1.890	1.890	1.914	1.909	1.909
0.005	0.005	-0.005	0.000	-0.005	0.005	0.029	2.769	1.890	1.895	1.890	1.914	1.909	1.914
0.000	0.000	0.000	0.000	0.000	0.005	0.029	2.778	1.904	1.890	1.890	1.909	1.909	1.914
0.000	0.005	-0.005	0.000	-0.005	0.000	0.029	2.632	1.914	1.899	1.890	1.914	1.909	1.909
0.000	0.000	0.000	0.000	0.005	-0.005	0.029	2.695	1.909	1.899	1.895	1.909	1.909	1.909
-0.005	-0.005	0.000	0.000	0.000	0.005	0.029	2.705	1.919	1.904	1.895	1.914	1.909	1.909
0.000	-0.005	0.000	0.005	0.010	0.010	0.029	2.793	1.924	1.909	1.899	1.914	1.914	1.914
0.000	-0.005	0.005	0.005	0.005	-0.010	0.029	2.617	1.919	1.909	1.904	1.914	1.909	1.904
-0.005	-0.010	0.000	0.005	0.000	0.010	0.029	2.622	1.904	1.909	1.899	1.919	1.909	1.914
-0.005	-0.010	0.000	0.005	0.000	-0.010	0.029	2.734	1.909	1.909	1.899	1.919	1.909	1.904
0.005	-0.005	0.000	0.000	0.000	0.010	0.024	2.715	1.914	1.909	1.904	1.919	1.909	1.914
0.010	-0.015	0.005	0.010	0.010	-0.029	0.029	2.656	1.909	1.909	1.904	1.919	1.914	1.899
0.005	-0.010	0.000	0.005	0.005	-0.005	0.029	2.715	1.909	1.909	1.904	1.919	1.914	1.914
-0.005	-0.005	0.005	0.000	-0.010	0.000	0.029	2.676	1.904	1.909	1.904	1.919	1.909	1.914
0.000	-0.005	0.000	0.000	-0.010	0.005	0.029	2.710	1.904	1.904	1.904	1.919	1.909	1.914
0.000	-0.010	0.005	0.000	0.005	0.010	0.029	2.666	1.899	1.904	1.904	1.919	1.914	1.914
0.000	-0.010	0.000	0.005	0.010	-0.005	0.029	2.676	1.904	1.904	1.904	1.924	1.919	1.914
-0.005	0.010	0.000	0.005	0.000	0.000	0.029	2.705	1.904	1.909	1.904	1.919	1.914	1.919
0.005	0.020	0.000	0.000	-0.010	0.005	0.029	2.671	1.904	1.909	1.904	1.919	1.914	1.914
-0.005	0.005	-0.005	0.000	-0.005	0.010	0.029	2.666	1.899	1.904	1.904	1.919	1.914	1.919
-0.005	0.010	0.000	0.000	0.015	0.010	0.029	2.671	1.899	1.904	1.904	1.919	1.924	1.919
0.000	0.010	0.005	-0.005	0.000	0.010	0.029	2.681	1.895	1.899	1.904	1.919	1.914	1.919
0.005	0.010	0.000	0.000	-0.005	0.000	0.029	2.676	1.899	1.899	1.904	1.924	1.914	1.914
0.000	0.000	0.000	0.000	0.010	0.000	0.029	2.671	1.895	1.895	1.899	1.919	1.919	1.919
-0.005	-0.005	-0.005	-0.005	0.010	0.000	0.029	2.671	1.899	1.895	1.899	1.919	1.919	1.919
0.000	-0.005	0.005	-0.005	0.005	-0.005	0.029	2.700	1.899	1.895	1.899	1.919	1.914	1.914
0.000	-0.005	0.000	0.000	0.000	0.000	0.029	2.700	1.899	1.895	1.895	1.919	1.909	1.914
-0.005	-0.005	0.000	0.000	0.005	-0.010	0.029	2.700	1.899	1.895	1.895	1.919	1.909	1.914
-0.010	-0.005	0.005	-0.005	0.000	-0.005	0.029	2.705	1.904	1.899	1.895	1.914	1.909	1.914
0.000	-0.010	0.005	-0.005	0.005	-0.005	0.029	2.671	1.904	1.895	1.895	1.914	1.914	1.914
0.000	0.000	0.000	-0.005	0.024	0.000	0.029	2.695	1.904	1.899	1.895	1.914	1.914	1.914
0.000	0.000	0.000	0.005	0.020	-0.015	0.029	2.681	1.899	1.899	1.895	1.914	1.914	1.909
-0.005	-0.005	0.000	0.000	0.020	-0.005	0.029	2.705	1.899	1.899	1.895	1.914	1.914	1.914
0.000	0.005	0.000	0.000	0.010	-0.015	0.029	2.695	1.904	1.899	1.899	1.914	1.909	1.914
0.005	0.015	0.000	0.000	0.015	0.005	0.029	2.705	1.909	1.904	1.899	1.919	1.909	1.914
-0.005	0.005	0.000	0.005	0.005	0.005	0.029	2.686	1.904	1.899	1.899	1.914	1.909	1.914
0.000	0.000	0.005	-0.005	0.000	0.000	0.029	2.676	1.904	1.904	1.899	1.914	1.909	1.909
0.005	-0.010	-0.005	0.005	0.005	-0.005	0.029	2.690	1.904	1.899	1.895	1.919	1.909	1.909
-0.005	-0.005	0.000	0.000	0.015	-0.015	0.029	2.661	1.895	1.899	1.899	1.919	1.914	1.909
0.000	0.000	0.000	0.000	0.015	-0.024	0.029	2.793	1.914	1.904	1.899	1.919	1.914	1.909
-0.010	0.000	0.005	0.000	0.010	0.000	0.029	2.656	1.904	1.904	1.899	1.919	1.914	1.914
0.000	0.000	0.000	0.010	0.000	0.000	0.029	2.646	1.904	1.904	1.899	1.919	1.909	1.914
0.000	0.005	0.010	0.005	0.000	-0.005	0.029	2.788	1.919	1.904	1.904	1.919	1.909	1.909
0.005	-0.005	-0.005	0.005	0.005	-0.020	0.029	2.725	1.919	1.904	1.904	1.919	1.914	1.909
-0.005	-0.005	0.000	0.005	0.000	-0.005	0.029	2.666	1.909	1.909	1.904	1.919	1.914	1.914
0.000	0.000	0.000	0.000	0.000	0.010	0.029	2.666	1.904	1.909	1.904	1.919	1.914	1.914
0.005	0.010	0.000	0.005	-0.010	0.015	0.029	2.773	1.914	1.914	1.904	1.919	1.914	1.914
0.000	0.010	0.005	0.000	-0.005	0.020	0.024	2.744	1.904	1.909	1.904	1.919	1.914	1.919
-0.005	0.015	0.005	0.005	-0.005	0.010	0.029	2.642	1.899	1.909	1.904	1.924	1.914	1.914
0.005	0.000	0.005	0.005	-0.005	0.010	0.029	2.739	1.909	1.904	1.904	1.924	1.914	1.914
0.000	0.005	0.000	0.000	-0.005	-0.020	0.029	2.651	1.899	1.899	1.904	1.919	1.914	1.909
0.005	0.005	0.005	0.005	0.000	0.010	0.029	2.690	1.899	1.904	1.899	1.924	1.919	1.919
0.000	0.005	-0.005	0.005	-0.010	0.005	0.029	2.661	1.899	1.899	1.899	1.919	1.914	1.919
-0.005	0.005	0.000	0.005	-0.010	-0.005	0.029	2.661	1.895	1.899	1.899	1.919	1.914	1.909
-0.005	0.010	0.005	0.005	-0.005	0.010	0.029	2.749	1.899	1.899	1.899	1.919	1.914	1.919
0.010	0.015	0.005	0.005	-0.005	0.000	0.029	2.666	1.904	1.899	1.899	1.919	1.919	1.919
0.010	0.015	0.005	0.005	0.000	0.015	0.029	2.671	1.904	1.904	1.899	1.919	1.919	1.919
0.000	0.005	0.005	0.000	-0.005	-0.005	0.029	2.676	1.899	1.895	1.899	1.919	1.914	1.914
0.000	0.010	0.005	0.005	0.005	0.000	0.029	2.681	1.899	1.899	1.895	1.919	1.914	1.919
0.005	0.010	0.005	0.000	0.000	0.000	0.029	2.695	1.904	1.899	1.899	1.919	1.914	1.914
-0.005	0.005	0.005	0.000	0.000	0.005	0.029	2.661	1.895	1.895	1.895	1.919	1.914	1.919
-0.005	0.000	0.005	0.000	0.000	0.005	0.029	2.666	1.899	1.895	1.895	1.914	1.909	1.914
0.005	-0.005	0.005	0.000	-0.005	0.015	0.029	2.700	1.904	1.895	1.895	1.914	1.909	1.914
0.000	-0.005	0.000	-0.005	-0.010	0.005	0.029	2.695	1.904	1.899	1.890	1.909	1.909	1.914
-0.005	0.005	0.000	-0.005	-0.015	0.000	0.029	2.666	1.899	1.899	1.895	1.914	1.904	1.909
0.005	0.000	0.005	0.000	-0.020	0.015	0.029	2.690	1.904	1.899	1.895	1.914	1.904	1.909
-0.005	0.000	-0.005	0.000	-0.020	0.000	0.029	2.671	1.899	1.895	1.895	1.914	1.909	1.909
-0.005	-0.005	0.005	0.000	-0.010	0.000	0.029	2.676	1.899	1.895	1.895	1.914	1.909	1.909
0.000	-0.005	0.005	0.000	-0.005	0.020	0.029	2.671	1.899	1.899	1.895	1.914	1.914	1.914
0.005	0.000	0.000	0.005	0.000	0.000	0.029	2.710	1.904	1.904	1.895	1.914	1.914	1.904
0.000	0.005	0.000	0.000	0.005	0.010	0.029	2.720	1.909	1.904	1.899	1.914	1.914	1.914
0.000	0.005	-0.005	0.005	0.015	0.000	0.029	2.676	1.904	1.904	1.899	1.914	1.919	1.909
0.005	0.000	-0.005	-0.005	0.020	-0.005	0.029	2.686	1.909	1.899	1.895	1.914	1.914	1.914
0.000	0.000	-0.005	0.000	0.010	-0.010	0.029	2.676	1.904	1.904	1.899	1.914	1.909	1.909
0.005	0.000	0.005	0.000	-0.005	-0.010	0.029	2.671	1.904	1.904	1.899	1.914	1.904	1.909
0.005	-0.005	0.005	0.000	-0.015	-0.024	0.029	2.666	1.899	1.899	1.899	1.914	1.909	1.909
0.005	0.000	0.005	0.000	-0.020	0.000	0.029	2.661	1.895	1.899	1.899	1.914	1.904	1.909
0.000	0.010	0.000	0.000	-0.015	0.000	0.029	2.686	1.895	1.899	1.899	1.919	1.909	1.914
-0.005	0.005	0.000	0.000	-0.024	-0.010	0.029	2.661	1.890	1.895	1.895	1.919	1.909	1.904
0.000	0.000	0.000	0.000	-0.010	0.005	0.029	2.773	1.904	1.895	1.899	1.919	1.909	1.914
0.005	-0.005	0.000	0.005	-0.010	0.010	0.029	2.656	1.904	1.890	1.895	1.914	1.914	1.914
-0.005	0.005	0.005	0.000	0.010	0.015	0.029	2.788	1.909	1.899	1.895	1.914	1.914	1.914
-0.005	0.010	0.000	0.000	0.024	-0.010	0.029	2.793	1.924	1.904	1.899	1.914	1.919	1.909
-0.005	-0.005	0.000	0.000	0.034	0.005	0.029	2.725	1.924	1.904	1.899	1.914	1.924	1.919
0.000	0.005	-0.005	0.005	0.029	-0.015	0.029	2.676	1.914	1.909	1.899	1.919	1.914	1.914
0.000	0.000	0.000	0.005	0.034	0.010	0.029	2.681	1.919	1.909	1.904	1.919	1.919	1.919
0.000	0.005	0.000	0.000	0.034	0.010	0.029	2.759	1.924	1.914	1.904	1.919	1.919	1.919
0.005	0.010	0.005	0.005	0.034	0.010	0.029	2.627	1.909	1.919	1.909	1.924	1.919	1.919
-0.005	0.005	0.000	0.000	0.020	0.000	0.029	2.725	1.914	1.914	1.909	1.924	1.914	1.914
-0.005	0.020	0.000	0.005	0.000	0.005	0.029	2.651	1.904	1.909	1.909	1.924	1.914	1.914
0.000	0.005	0.000	0.000	-0.005	0.000	0.029	2.646	1.899	1.909	1.909	1.924	1.914	1.909
0.005	0.005	0.000	0.000	-0.005	0.000	0.029	2.686	1.899	1.909	1.904	1.924	1.919	1.914
0.005	0.000	0.000	0.000	-0.010	-0.005	0.029	2.715	1.904	1.899	1.904	1.924	1.914	1.914
0.000	-0.015	0.005	-0.005	-0.015	-0.024	0.034	2.656	1.895	1.890	1.899	1.924	1.914	1.909
0.005	-0.024	0.005	0.005	-0.010	-0.005	0.029	2.734	1.904	1.895	1.899	1.924	1.919	1.914
0.000	-0.005	0.000	0.005	0.000	0.000	0.029	2.661	1.899	1.899	1.899	1.919	1.919	1.919
0.005	-0.005	-0.005	0.005	-0.005	0.000	0.029	2.671	1.899	1.899	1.899	1.919	1.914	1.919
0.005	-0.010	0.000	0.000	-0.005	0.010	0.029	2.700	1.904	1.899	1.895	1.914	1.914	1.919
0.005	0.000	0.000	0.005	-0.015	0.000	0.029	2.700	1.904	1.899	1.899	1.919	1.909	1.914
-0.005	0.000	-0.005	0.005	-0.015	0.005	0.029	2.695	1.904	1.904	1.895	1.919	1.914	1.914
0.005	0.010	0.000	0.005	-0.015	-0.005	0.029	2.666	1.904	1.904	1.904	1.919	1.909	1.909
0.000	0.015	0.000	0.000	-0.005	0.005	0.029	2.710	1.904	1.909	1.899	1.919	1.919	1.914
0.010	0.005	0.005	0.000	0.029	0.010	0.029	2.681	1.909	1.904	1.904	1.919	1.929	1.924
0.000	0.005	0.000	0.000	0.044	-0.020	0.029	2.705	1.904	1.904	1.904	1.919	1.924	1.914
0.000	0.015	0.000	0.000	0.024	0.010	0.029	2.671	1.904	1.904	1.904	1.919	1.919	1.924
0.000	0.005	0.000	0.000	0.010	0.005	0.029	2.681	1.904	1.899	1.904	1.919	1.914	1.924
0.000	0.010	0.000	0.000	0.015	-0.005	0.029	2.676	1.904	1.904	1.904	1.919	1.914	1.919
0.000	0.029	0.000	0.000	0.005	0.015	0.029	2.676	1.904	1.909	1.904	1.919	1.914	1.924
0.000	0.024	0.000	0.000	0.015	-0.015	0.029	2.695	1.904	1.904	1.899	1.919	1.914	1.914
0.005	0.015	0.000	0.000	0.005	-0.020	0.029	2.695	1.904	1.904	1.904	1.919	1.909	1.909
0.000	0.005	0.000	0.000	-0.020	0.000	0.029	2.700	1.909	1.899	1.899	1.919	1.909	1.914
0.005	-0.005	0.000	0.000	-0.010	0.015	0.029	2.661	1.904	1.899	1.899	1.919	1.914	1.919
0.005	-0.005	-0.005	0.005	0.010	-0.010	0.029	2.690	1.904	1.895	1.895	1.919	1.914	1.914
0.000	-0.005	0.000	-0.005	0.005	0.010	0.029	2.705	1.904	1.899	1.895	1.914	1.914	1.919
0.000	-0.005	0.000	0.000	-0.015	0.010	0.029	2.671	1.904	1.899	1.899	1.914	1.909	1.914
0.010	-0.010	0.005	0.005	-0.024	-0.005	0.029	2.671	1.909	1.895	1.899	1.919	1.904	1.904
0.005	-0.010	0.010	0.000	-0.039	0.000	0.029	2.676	1.899	1.899	1.895	1.914	1.904	1.909
0.000	-0.005	0.000	0.000	-0.059	0.000	0.029	2.686	1.899	1.899	1.895	1.914	1.899	1.904
0.000	0.000	0.005	0.005	-0.054	0.015	0.029	2.666	1.904	1.899	1.899	1.919	1.909	1.909
0.000	-0.005	-0.005	0.000	-0.044	0.010	0.029	2.783	1.914	1.899	1.899	1.914	1.909	1.909
0.000	0.000	0.005	0.005	-0.049	0.029	0.029	2.646	1.904	1.904	1.899	1.919	1.909	1.914
0.000	0.000	-0.005	0.005	-0.059	0.015	0.029	2.783	1.899	1.904	1.899	1.919	1.904	1.909
0.000	-0.005	0.000	0.005	-0.049	0.005	0.029	2.778	1.914	1.909	1.899	1.919	1.909	1.909
0.005	0.000	-0.005	0.000	-0.020	-0.024	0.024	2.632	1.904	1.904	1.899	1.919	1.919	1.904
0.005	0.000	0.000	0.000	-0.010	-0.039	0.024	2.671	1.899	1.904	1.904	1.919	1.919	1.904
-0.005	-0.005	0.005	0.000	0.034	-0.024	0.029	2.661	1.895	1.904	1.904	1.924	1.934	1.914
0.005	-0.005	0.000	0.000	0.088	-0.015	0.029	2.744	1.904	1.904	1.899	1.919	1.943	1.924
-0.005	-0.005	0.005	0.000	0.127	0.005	0.029	2.622	1.895	1.899	1.904	1.924	1.948	1.938
0.005	-0.015	0.000	0.000	0.156	0.000	0.029	2.715	1.890	1.895	1.899	1.924	1.943	1.943
-0.005	-0.020	0.010	0.000	0.166	0.020	0.029	2.637	1.890	1.895	1.895	1.919	1.938	1.948
0.000	-0.010	-0.005	0.000	0.171	0.024	0.029	2.637	1.890	1.895	1.895	1.914	1.934	1.943
0.000	-0.005	0.005	0.000	0.132	0.015	0.029	2.656	1.895	1.895	1.895	1.914	1.914	1.934
0.005	0.005	-0.005	0.000	0.034	0.000	0.029	2.710	1.895	1.895	1.895	1.909	1.885	1.914
0.000	0.015	0.000	0.000	-0.024	0.010	0.029	2.681	1.899	1.899	1.895	1.909	1.875	1.904
0.000	0.005	0.005	0.000	-0.029	0.015	0.029	2.744	1.909	1.895	1.895	1.914	1.885	1.899
0.010	0.010	0.005	0.005	-0.020	0.005	0.029	2.705	1.909	1.899	1.895	1.914	1.895	1.890
0.000	0.010	0.000	0.000	-0.029	0.015	0.029	2.676	1.904	1.904	1.899	1.914	1.895	1.899
-0.005	0.010	0.005	0.000	-0.034	0.010	0.029	2.681	1.904	1.899	1.899	1.914	1.899	1.899
0.000	0.015	0.005	0.000	-0.054	0.010	0.029	2.695	1.899	1.904	1.899	1.914	1.895	1.895
0.005	0.010	0.000	0.005	-0.059	0.000	0.029	2.681	1.899	1.899	1.899	1.914	1.899	1.895
0.005	0.010	0.000	0.005	-0.054	0.010	0.029	2.661	1.895	1.895	1.895	1.914	1.904	1.899
0.005	-0.010	0.000	0.000	-0.049	-0.005	0.029	2.695	1.895	1.890	1.895	1.914	1.909	1.899
0.005	-0.010	0.000	0.000	-0.039	0.005	0.029	2.671	1.895	1.890	1.895	1.914	1.909	1.899
0.005	-0.010	0.005	0.000	-0.034	0.005	0.029	2.690	1.895	1.890	1.895	1.909	1.909	1.904
0.005	-0.010	0.000	0.000	-0.029	-0.010	0.029	2.676	1.895	1.885	1.890	1.909	1.909	1.899
0.000	-0.015	0.000	0.000	-0.024	0.000	0.029	2.681	1.895	1.890	1.890	1.909	1.909	1.909
-0.010	-0.005	0.005	0.000	-0.020	0.015	0.029	2.676	1.899	1.890	1.890	1.909	1.909	1.914
0.005	-0.005	0.005	0.005	-0.020	0.005	0.029	2.690	1.899	1.899	1.890	1.914	1.909	1.909
0.005	0.000	0.000	0.005	-0.005	-0.005	0.029	2.700	1.904	1.895	1.895	1.909	1.909	1.904
0.000	0.015	0.000	0.005	-0.020	0.010	0.029	2.686	1.899	1.904	1.890	1.909	1.909	1.909
-0.005	0.005	0.005	0.005	-0.015	0.015	0.029	2.695	1.899	1.899	1.895	1.909	1.904	1.909
-0.005	0.000	0.005	0.000	-0.005	0.000	0.029	2.686	1.899	1.895	1.895	1.909	1.909	1.904
0.000	0.005	0.000	-0.005	-0.005	0.010	0.029	2.700	1.899	1.899	1.895	1.909	1.909	1.909
-0.010	0.000	-0.005	0.000	-0.005	0.000	0.029	2.676	1.895	1.895	1.895	1.914	1.909	1.909
0.000	-0.010	-0.005	0.000	0.000	0.000	0.029	2.690	1.904	1.895	1.895	1.914	1.909	1.909
0.000	-0.005	0.000	0.000	0.000	0.000	0.029	2.676	1.899	1.895	1.895	1.909	1.909	1.909
0.005	0.005	0.000	0.005	0.000	0.000	0.029	2.666	1.899	1.899	1.895	1.914	1.909	1.909
0.000	0.005	-0.005	0.000	0.000	-0.005	0.029	2.686	1.895	1.895	1.895	1.914	1.909	1.904
-0.005	-0.005	0.000	0.000	0.005	-0.005	0.029	2.651	1.895	1.895	1.895	1.914	1.909	1.909
0.000	0.000	0.000	0.005	0.000	-0.010	0.029	2.783	1.890	1.895	1.895	1.914	1.909	1.909
0.005	0.005	0.005	0.000	0.000	0.005	0.029	2.651	1.890	1.895	1.895	1.914	1.909	1.909
0.005	0.005	0.005	0.005	0.005	-0.015	0.029	2.671	1.895	1.895	1.890	1.914	1.909	1.904
0.005	0.005	0.000	0.000	0.010	0.005	0.029	2.773	1.909	1.895	1.895	1.909	1.909	1.914
0.010	0.015	0.005	0.000	0.010	0.000	0.029	2.725	1.899	1.899	1.895	1.909	1.909	1.909
-0.005	0.015	0.005	-0.005	0.005	0.005	0.029	2.681	1.895	1.895	1.895	1.909	1.904	1.909
0.000	0.010	0.005	-0.005	0.005	-0.005	0.029	2.759	1.904	1.899	1.895	1.909	1.904	1.899
0.005	0.000	0.005	0.005	0.000	0.000	0.029	2.729	1.909	1.895	1.895	1.909	1.904	1.909
0.000	0.005	0.000	0.000	0.010	0.005	0.029	2.666	1.899	1.899	1.895	1.909	1.909	1.909
0.000	0.005	-0.005	0.000	0.010	0.000	0.029	2.764	1.909	1.899	1.895	1.914	1.909	1.909
0.000	0.015	0.000	0.005	0.015	0.005	0.029	2.651	1.904	1.904	1.899	1.914	1.909	1.909
0.000	0.005	-0.005	0.005	0.010	0.005	0.029	2.651	1.899	1.899	1.899	1.914	1.909	1.909
0.005	0.005	-0.005	0.000	0.005	0.000	0.029	2.690	1.899	1.899	1.899	1.914	1.909	1.909
0.005	0.000	0.000	0.005	0.005	0.005	0.029	2.627	1.895	1.899	1.899	1.914	1.909	1.909
0.000	0.000	0.000	0.000	0.005	0.005	0.029	2.686	1.895	1.895	1.895	1.914	1.909	1.909
0.000	0.005	0.000	0.000	0.010	0.000	0.029	2.734	1.899	1.895	1.899	1.914	1.909	1.909
0.000	-0.005	0.000	0.000	0.000	0.005	0.029	2.695	1.899	1.895	1.895	1.914	1.909	1.909
0.010	-0.005	0.000	0.000	0.005	0.005	0.029	2.676	1.904	1.895	1.895	1.914	1.909	1.909
-0.010	-0.005	0.000	0.000	0.005	0.005	0.029	2.671	1.895	1.895	1.895	1.914	1.909	1.909
0.000	0.000	0.000	0.000	0.005	0.010	0.029	2.671	1.899	1.895	1.895	1.914	1.909	1.909
-0.005	-0.005	0.000	0.000	0.005	0.000	0.029	2.661	1.895	1.895	1.895	1.909	1.909	1.909
0.000	-0.005	0.000	0.005	0.005	-0.024	0.029	2.666	1.895	1.895	1.890	1.914	1.909	1.899
0.000	0.000	0.005	0.000	0.000	0.015	0.029	2.671	1.895	1.899	1.890	1.909	1.909	1.909
0.000	0.010	-0.005	0.005	0.005	0.005	0.029	2.671	1.890	1.895	1.895	1.909	1.909	1.909
0.000	0.000	0.005	0.000	0.005	0.005	0.029	2.681	1.895	1.895	1.895	1.914	1.909	1.909
0.000	0.000	0.010	0.000	0.005	0.000	0.029	2.671	1.899	1.899	1.895	1.909	1.909	1.909
-0.010	0.015	0.000	0.005	0.005	-0.005	0.029	2.690	1.895	1.899	1.895	1.914	1.909	1.909
0.000	0.010	0.000	0.000	0.010	0.000	0.029	2.695	1.899	1.899	1.895	1.914	1.909	1.904
0.000	0.015	-0.005	0.010	0.020	0.005	0.029	2.695	1.899	1.899	1.895	1.914	1.914	1.914
0.000	0.015	0.000	0.005	0.010	0.000	0.029	2.700	1.909	1.899	1.895	1.914	1.909	1.904
0.000	-0.005	0.000	0.000	-0.024	0.000	0.029	2.700	1.904	1.895	1.895	1.914	1.899	1.904
0.005	-0.010	0.000	0.005	-0.029	-0.005	0.029	2.695	1.904	1.895	1.895	1.914	1.899	1.904
-0.005	-0.010	0.000	0.000	-0.029	0.020	0.029	2.676	1.899	1.899	1.895	1.909	1.904	1.909
-0.005	0.000	0.000	0.000	-0.029	0.024	0.029	2.661	1.899	1.899	1.895	1.914	1.904	1.914
-0.005	-0.020	-0.010	0.005	-0.010	0.020	0.029	2.676	1.895	1.895	1.895	1.914	1.909	1.909
0.000	-0.020	0.000	0.005	0.000	-0.010	0.029	2.676	1.895	1.895	1.895	1.909	1.914	1.899
0.010	-0.015	0.000	0.005	0.000	-0.020	0.029	2.671	1.895	1.895	1.895	1.909	1.909	1.904
0.005	-0.020	0.005	-0.005	0.015	-0.005	0.029	2.671	1.895	1.890	1.895	1.909	1.914	1.909
0.010	-0.015	0.005	0.000	0.005	-0.015	0.029	2.681	1.899	1.895	1.895	1.909	1.909	1.904
0.005	0.005	0.000	0.005	0.000	-0.015	0.029	2.651	1.890	1.895	1.895	1.914	1.909	1.904
0.005	0.005	0.005	-0.005	0.049	-0.024	0.029	2.788	1.899	1.895	1.895	1.914	1.919	1.909
0.000	0.000	0.005	0.000	0.054	-0.015	0.029	2.651	1.890	1.895	1.895	1.909	1.919	1.914
0.000	0.000	0.000	0.000	0.054	0.020	0.029	2.783	1.895	1.895	1.890	1.914	1.914	1.924
0.005	-0.005	0.000	0.000	0.020	0.034	0.029	2.793	1.909	1.895	1.890	1.909	1.904	1.919
0.000	0.000	0.000	0.000	-0.015	0.029	0.029	2.646	1.904	1.899	1.895	1.909	1.895	1.914
0.000	0.005	0.000	0.000	-0.020	0.024	0.029	2.700	1.904	1.904	1.895	1.914	1.899	1.909
0.005	0.000	0.005	0.000	-0.010	0.020	0.029	2.656	1.899	1.899	1.899	1.914	1.904	1.904
-0.005	0.024	0.000	0.000	-0.010	0.005	0.029	2.725	1.899	1.904	1.899	1.914	1.904	1.904
0.000	0.024	0.000	0.005	-0.020	0.000	0.029	2.710	1.904	1.909	1.899	1.914	1.904	1.899
0.010	0.024	0.000	0.005	-0.005	-0.005	0.029	2.651	1.904	1.909	1.899	1.919	1.909	1.904
0.010	0.034	0.000	0.005	0.005	-0.020	0.029	2.637	1.899	1.904	1.904	1.919	1.914	1.904
0.000	0.034	0.005	0.005	0.015	-0.010	0.029	2.725	1.899	1.904	1.899	1.919	1.914	1.909
0.000	-0.005	0.000	0.000	-0.010	-0.005	0.029	2.671	1.899	1.890	1.895	1.919	1.909	1.909
0.005	-0.020	0.000	0.005	-0.034	-0.005	0.029	2.617	1.890	1.890	1.890	1.914	1.904	1.904
0.015	-0.015	0.000	0.000	-0.063	-0.020	0.029	2.686	1.895	1.890	1.890	1.914	1.895	1.899
-0.005	-0.005	0.005	0.000	-0.068	-0.010	0.029	2.710	1.895	1.890	1.890	1.909	1.899	1.904
0.005	-0.005	0.000	0.000	-0.059	-0.015	0.029	2.695	1.899	1.890	1.890	1.909	1.904	1.904
-0.010	0.000	0.000	0.000	-0.020	0.000	0.029	2.681	1.899	1.895	1.890	1.909	1.914	1.909
0.000	0.005	0.005	0.000	0.020	0.000	0.029	2.695	1.899	1.895	1.890	1.909	1.924	1.914
0.005	-0.005	0.005	-0.005	0.029	-0.005	0.024	2.676	1.899	1.895	1.895	1.909	1.919	1.914
-0.005	0.000	0.005	0.000	0.073	0.034	0.029	2.676	1.899	1.899	1.895	1.914	1.934	1.929
-0.010	0.000	0.005	0.000	0.146	0.015	0.029	2.676	1.899	1.899	1.895	1.914	1.948	1.929
-0.005	0.005	0.005	0.005	0.122	0.020	0.029	2.681	1.904	1.904	1.895	1.914	1.929	1.934
-0.005	-0.005	0.000	0.005	0.059	0.015	0.029	2.666	1.899	1.899	1.895	1.914	1.904	1.919
0.005	-0.005	0.000	0.000	0.029	0.010	0.029	2.681	1.899	1.899	1.899	1.909	1.899	1.914
0.000	-0.005	0.000	0.005	0.020	0.000	0.029	2.671	1.899	1.899	1.895	1.914	1.899	1.909
0.000	-0.010	0.000	0.005	0.005	0.005	0.029	2.695	1.899	1.895	1.895	1.914	1.895	1.909
0.000	-0.010	0.000	0.005	-0.010	0.020	0.029	2.690	1.895	1.895	1.895	1.909	1.895	1.909
0.000	0.000	0.000	0.000	0.005	0.020	0.029	2.690	1.899	1.899	1.895	1.914	1.904	1.909
-0.010	0.015	0.000	0.005	0.000	0.000	0.029	2.700	1.899	1.899	1.895	1.914	1.899	1.904
-0.005	0.015	-0.005	0.000	-0.024	0.010	0.029	2.676	1.899	1.899	1.895	1.914	1.895	1.899
0.015	0.020	0.000	0.000	-0.024	0.005	0.029	2.700	1.904	1.899	1.899	1.914	1.899	1.899
0.000	0.015	0.000	0.000	0.020	-0.005	0.029	2.671	1.899	1.899	1.899	1.914	1.914	1.899
0.000	0.029	0.000	0.000	0.020	-0.029	0.029	2.700	1.899	1.899	1.899	1.914	1.909	1.899
-0.005	0.024	0.000	0.000	0.005	0.000	0.029	2.705	1.899	1.899	1.899	1.914	1.909	1.909
0.015	0.015	0.000	0.000	0.005	-0.005	0.029	2.681	1.904	1.899	1.899	1.914	1.909	1.909
0.000	0.005	0.000	0.000	0.000	0.005	0.029	2.676	1.899	1.899	1.895	1.914	1.909	1.909
-0.005	-0.005	0.000	0.000	-0.020	-0.015	0.029	2.676	1.895	1.895	1.895	1.914	1.904	1.904
-0.005	-0.005	0.005	0.000	-0.034	0.005	0.029	2.681	1.895	1.895	1.895	1.914	1.899	1.909
-0.005	-0.010	0.005	0.000	-0.049	0.005	0.029	2.656	1.895	1.890	1.890	1.914	1.899	1.904
0.005	-0.015	0.005	0.000	-0.049	-0.020	0.029	2.778	1.904	1.895	1.890	1.909	1.899	1.899
-0.005	-0.015	0.000	0.000	-0.039	0.000	0.029	2.651	1.899	1.895	1.890	1.914	1.904	1.904
0.000	-0.010	0.000	0.005	-0.039	0.000	0.029	2.788	1.914	1.899	1.895	1.914	1.904	1.904
-0.005	-0.010	0.000	0.005	-0.029	0.000	0.029	2.783	1.919	1.904	1.895	1.914	1.909	1.909
0.005	-0.015	0.000	0.000	-0.024	-0.024	0.029	2.734	1.919	1.904	1.895	1.909	1.909	1.904
0.005	-0.024	0.005	0.000	-0.024	-0.015	0.029	2.666	1.909	1.904	1.899	1.914	1.909	1.904
0.005	-0.024	0.000	0.000	-0.015	-0.015	0.029	2.646	1.899	1.904	1.899	1.914	1.909	1.909
0.000	-0.010	0.005	0.000	-0.010	0.000	0.029	2.729	1.899	1.904	1.899	1.914	1.914	1.914
0.000	-0.015	0.000	0.000	-0.010	0.000	0.029	2.710	1.909	1.904	1.899	1.919	1.909	1.914
-0.005	-0.005	0.000	0.000	-0.005	0.010	0.029	2.749	1.909	1.909	1.904	1.914	1.914	1.919
0.005	0.000	-0.005	0.005	-0.005	-0.005	0.029	2.617	1.904	1.909	1.899	1.919	1.914	1.909
0.000	0.010	0.005	0.000	0.000	0.000	0.029	2.720	1.904	1.909	1.904	1.919	1.914	1.914
0.000	-0.005	0.005	0.000	-0.005	-0.005	0.029	2.676	1.904	1.904	1.904	1.919	1.914	1.914
0.000	0.005	0.000	0.000	0.000	0.000	0.029	2.749	1.895	1.899	1.904	1.919	1.914	1.914
-0.005	0.010	0.000	0.000	0.005	0.020	0.029	2.666	1.890	1.904	1.904	1.919	1.919	1.919
0.000	0.005	0.005	-0.005	0.005	0.015	0.029	2.729	1.899	1.899	1.904	1.924	1.919	1.919
0.000	0.005	0.000	0.000	0.010	0.010	0.029	2.695	1.904	1.899	1.899	1.919	1.919	1.919
0.000	0.015	0.000	-0.005	0.005	0.005	0.029	2.676	1.899	1.899	1.899	1.919	1.914	1.919
-0.005	0.005	0.000	-0.005	0.005	0.000	0.029	2.700	1.899	1.899	1.899	1.919	1.914	1.914
-0.010	0.000	0.000	0.005	0.010	0.005	0.029	2.700	1.904	1.899	1.899	1.919	1.919	1.919
0.005	-0.005	0.000	0.000	0.010	0.000	0.029	2.676	1.904	1.899	1.899	1.919	1.914	1.914
-0.005	0.000	0.000	0.005	0.010	0.015	0.029	2.676	1.899	1.899	1.899	1.919	1.919	1.919
0.005	0.000	0.000	0.005	0.010	0.005	0.029	2.681	1.899	1.899	1.895	1.919	1.914	1.914
0.000	-0.005	0.000	0.005	0.000	0.000	0.029	2.676	1.899	1.899	1.895	1.914	1.914	1.914
0.000	0.000	0.000	0.005	0.005	-0.015	0.029	2.681	1.899	1.899	1.895	1.914	1.914	1.909
0.005	0.000	0.000	0.005	0.005	-0.010	0.029	2.681	1.904	1.899	1.895	1.914	1.914	1.909
0.005	0.015	0.005	0.005	0.005	0.015	0.029	2.695	1.904	1.904	1.899	1.914	1.914	1.914
0.005	0.020	0.000	0.005	0.010	0.010	0.029	2.671	1.904	1.909	1.899	1.919	1.909	1.914
0.005	0.010	0.000	0.000	0.010	0.005	0.029	2.666	1.904	1.904	1.899	1.914	1.914	1.914
-0.005	0.000	0.005	0.000	0.005	0.005	0.029	2.695	1.899	1.899	1.899	1.914	1.914	1.909
0.000	0.005	0.005	0.000	0.005	-0.005	0.029	2.705	1.904	1.904	1.899	1.919	1.914	1.909
-0.005	0.000	0.000	0.000	0.005	0.000	0.029	2.695	1.899	1.899	1.899	1.919	1.914	1.914
0.000	-0.005	-0.005	0.000	0.000	-0.015	0.029	2.676	1.904	1.899	1.895	1.914	1.909	1.909
0.005	-0.005	0.000	0.000	0.005	0.005	0.029	2.690	1.904	1.899	1.899	1.919	1.914	1.919
0.005	-0.010	0.000	0.000	0.010	-0.005	0.029	2.671	1.904	1.899	1.899	1.919	1.914	1.914
0.005	0.000	0.000	0.000	0.000	-0.005	0.029	2.676	1.899	1.904	1.899	1.914	1.909	1.909
-0.005	0.010	-0.005	0.000	0.005	0.005	0.029	2.681	1.899	1.899	1.899	1.919	1.914	1.914
0.005	-0.020	0.000	-0.005	0.005	-0.005	0.029	2.671	1.895	1.890	1.895	1.914	1.914	1.909
0.005	-0.020	0.000	0.000	0.005	0.005	0.029	2.686	1.899	1.895	1.895	1.914	1.914	1.914
0.000	-0.010	0.005	0.000	0.005	-0.005	0.029	2.661	1.895	1.899	1.895	1.914	1.909	1.909
-0.010	-0.005	0.000	-0.005	0.005	0.005	0.029	2.788	1.899	1.899	1.895	1.914	1.909	1.909
0.005	0.020	0.000	0.000	0.000	-0.020	0.029	2.651	1.895	1.904	1.899	1.914	1.909	1.909
0.000	0.005	0.000	0.000	0.005	0.010	0.029	2.686	1.904	1.895	1.895	1.914	1.909	1.914
0.005	0.005	0.000	0.000	0.000	0.005	0.029	2.788	1.919	1.904	1.899	1.914	1.909	1.909
0.000	0.005	0.005	0.000	0.000	0.000	0.029	2.725	1.919	1.909	1.899	1.914	1.909	1.909
-0.005	0.010	-0.005	0.005	0.000	0.000	0.029	2.695	1.909	1.909	1.904	1.919	1.909	1.914
0.000	0.010	0.000	0.000	0.005	0.005	0.029	2.749	1.914	1.914	1.904	1.914	1.914	1.914
0.000	0.005	0.000	0.000	0.000	0.015	0.029	2.778	1.924	1.914	1.904	1.919	1.914	1.914
-0.005	0.010	0.000	-0.005	0.005	0.010	0.029	2.739	1.924	1.914	1.909	1.924	1.914	1.909
0.000	0.000	-0.005	0.005	0.005	0.010	0.029	2.710	1.924	1.914	1.909	1.924	1.914	1.914
0.005	-0.005	0.000	0.000	0.000	0.010	0.029	2.739	1.924	1.914	1.909	1.924	1.914	1.914
0.005	-0.010	-0.005	0.000	-0.005	-0.005	0.029	2.651	1.914	1.909	1.909	1.924	1.919	1.914
-0.005	0.000	0.000	0.000	0.000	-0.005	0.029	2.681	1.909	1.914	1.914	1.929	1.919	1.909
0.000	-0.005	0.005	0.005	-0.005	0.000	0.029	2.622	1.899	1.909	1.909	1.929	1.919	1.914
0.000	0.005	0.005	0.000	-0.005	-0.010	0.029	2.671	1.895	1.909	1.909	1.929	1.919	1.909
0.000	0.000	0.005	0.000	0.005	0.000	0.029	2.646	1.885	1.904	1.909	1.924	1.924	1.924
0.000	-0.005	0.000	0.000	-0.010	0.000	0.029	2.700	1.890	1.895	1.904	1.924	1.914	1.919
-0.005	0.015	0.000	0.005	-0.015	0.015	0.029	2.681	1.895	1.899	1.899	1.924	1.914	1.919
0.015	0.010	0.000	0.000	-0.020	-0.005	0.029	2.690	1.899	1.899	1.899	1.919	1.914	1.914
0.000	0.010	-0.005	0.000	-0.039	0.020	0.029	2.681	1.899	1.899	1.895	1.919	1.909	1.919
0.000	0.010	0.000	0.000	-0.049	0.024	0.029	2.700	1.904	1.899	1.895	1.919	1.909	1.914
0.005	0.015	-0.005	0.000	-0.054	0.000	0.029	2.671	1.899	1.904	1.895	1.914	1.904	1.914
0.005	0.024	0.005	-0.005	-0.063	0.010	0.029	2.705	1.904	1.904	1.899	1.919	1.904	1.909
0.015	0.020	0.000	0.010	-0.044	-0.015	0.029	2.690	1.909	1.909	1.899	1.919	1.919	1.909
-0.005	0.010	-0.005	0.005	-0.020	-0.010	0.029	2.695	1.909	1.899	1.899	1.919	1.919	1.909
0.005	0.024	0.000	0.000	-0.015	-0.034	0.029	2.676	1.904	1.909	1.904	1.919	1.924	1.909
-0.005	0.015	0.000	0.000	0.044	-0.034	0.029	2.695	1.899	1.904	1.904	1.919	1.934	1.914
0.005	0.000	0.005	0.000	0.039	-0.049	0.029	2.676	1.904	1.899	1.899	1.919	1.929	1.909
0.005	0.000	0.005	-0.005	0.015	-0.054	0.029	2.666	1.899	1.899	1.904	1.919	1.914	1.914
0.000	-0.015	0.000	0.005	-0.005	-0.034	0.029	2.671	1.895	1.895	1.895	1.919	1.914	1.919
-0.005	-0.005	0.000	0.000	-0.005	-0.005	0.029	2.671	1.895	1.899	1.895	1.919	1.914	1.924
0.000	-0.010	0.005	0.000	0.054	0.024	0.029	2.700	1.899	1.895	1.899	1.919	1.934	1.938
-0.005	-0.015	0.005	-0.005	0.146	0.034	0.029	2.671	1.899	1.895	1.895	1.919	1.953	1.943
0.000	-0.010	0.005	-0.005	0.225	0.024	0.029	2.695	1.904	1.899	1.899	1.919	1.963	1.948
0.000	-0.015	0.000	-0.005	0.303	0.034	0.029	2.671	1.909	1.899	1.895	1.919	1.968	1.958
0.005	-0.020	0.000	0.010	0.229	0.059	0.029	2.705	1.914	1.899	1.895	1.919	1.934	1.953
0.005	-0.015	0.000	0.005	0.107	0.049	0.029	2.686	1.914	1.904	1.899	1.914	1.895	1.934
0.010	0.005	0.000	0.005	0.029	0.034	0.029	2.666	1.909	1.914	1.899	1.914	1.875	1.914
0.015	-0.005	0.000	0.000	-0.034	0.029	0.029	2.671	1.909	1.909	1.899	1.909	1.870	1.899
0.005	0.005	0.000	0.000	-0.059	0.020	0.024	2.661	1.904	1.909	1.904	1.919	1.875	1.890
-0.005	0.005	-0.005	0.015	-0.068	0.005	0.029	2.764	1.909	1.909	1.904	1.919	1.880	1.885
0.000	0.010	0.000	0.005	-0.083	0.010	0.029	2.666	1.904	1.909	1.904	1.919	1.890	1.885
-0.005	0.000	-0.005	0.000	-0.098	-0.010	0.029	2.788	1.909	1.904	1.904	1.919	1.890	1.880
0.000	0.000	0.005	-0.005	-0.103	0.010	0.029	2.793	1.919	1.909	1.904	1.919	1.895	1.890
0.000	-0.005	0.000	-0.015	-0.103	0.005	0.029	2.637	1.909	1.909	1.904	1.919	1.899	1.890
-0.005	-0.005	0.000	-0.015	-0.093	-0.010	0.029	2.686	1.899	1.909	1.904	1.919	1.909	1.895
-0.010	-0.005	0.000	-0.005	-0.088	0.000	0.029	2.656	1.895	1.899	1.904	1.924	1.909	1.899
-0.005	0.000	0.005	0.000	-0.078	-0.010	0.029	2.725	1.904	1.904	1.904	1.924	1.914	1.899
-0.005	-0.010	0.005	0.005	-0.063	-0.010	0.029	2.617	1.895	1.899	1.899	1.924	1.919	1.904
0.010	0.005	0.005	0.010	-0.039	-0.015	0.029	2.744	1.904	1.899	1.899	1.929	1.929	1.909
0.010	-0.005	0.005	0.010	-0.015	0.000	0.029	2.646	1.899	1.899	1.899	1.924	1.934	1.924
0.015	0.000	0.000	0.015	-0.010	-0.005	0.029	2.734	1.909	1.904	1.899	1.924	1.929	1.919
0.020	0.000	0.005	0.010	-0.005	-0.010	0.029	2.695	1.904	1.899	1.899	1.919	1.929	1.919
0.034	-0.005	0.000	0.010	0.010	-0.020	0.029	2.749	1.919	1.904	1.899	1.919	1.929	1.924
0.034	0.015	0.000	0.010	0.005	-0.005	0.029	2.681	1.909	1.914	1.904	1.919	1.924	1.929
0.029	0.010	-0.005	0.010	0.010	-0.020	0.029	2.720	1.914	1.909	1.904	1.919	1.924	1.924
0.015	0.010	0.000	0.010	0.010	-0.020	0.029	2.695	1.909	1.909	1.904	1.924	1.919	1.919
-0.005	0.005	-0.005	0.015	0.005	-0.005	0.029	2.690	1.899	1.904	1.904	1.924	1.919	1.924
-0.020	-0.010	-0.005	0.015	0.010	-0.015	0.029	2.681	1.895	1.899	1.904	1.924	1.919	1.924
-0.034	-0.010	0.005	0.005	0.010	-0.005	0.029	2.681	1.895	1.895	1.899	1.919	1.919	1.924
-0.044	-0.010	0.005	0.000	0.020	0.005	0.029	2.690	1.895	1.899	1.899	1.919	1.919	1.924
-0.034	0.010	0.005	0.000	0.020	0.000	0.029	2.671	1.899	1.904	1.899	1.919	1.919	1.924
-0.039	0.010	0.005	0.000	0.010	0.010	0.029	2.700	1.904	1.904	1.899	1.919	1.914	1.924
-0.034	0.000	0.000	0.000	0.005	0.005	0.029	2.666	1.904	1.899	1.899	1.919	1.909	1.919
-0.024	0.000	0.005	0.000	0.000	0.005	0.029	2.690	1.909	1.899	1.895	1.919	1.914	1.914
-0.020	-0.005	0.000	0.000	-0.005	0.010	0.029	2.671	1.904	1.899	1.899	1.919	1.909	1.914
0.005	0.015	0.005	0.000	-0.005	0.015	0.029	2.705	1.914	1.914	1.899	1.919	1.914	1.914
-0.005	0.005	0.005	0.000	-0.005	0.000	0.029	2.661	1.914	1.909	1.899	1.919	1.914	1.909
0.005	0.000	0.000	0.000	0.000	0.000	0.024	2.661	1.909	1.904	1.899	1.919	1.909	1.909
0.020	0.000	0.000	-0.005	-0.005	-0.015	0.029	2.705	1.914	1.909	1.904	1.919	1.914	1.909
0.044	0.000	0.000	-0.005	0.005	0.010	0.024	2.695	1.924	1.914	1.904	1.919	1.914	1.919
0.059	0.005	0.000	-0.005	0.005	-0.005	0.029	2.710	1.924	1.914	1.904	1.919	1.914	1.914
0.073	0.000	-0.005	0.000	0.000	-0.005	0.029	2.676	1.919	1.919	1.909	1.924	1.914	1.914
0.044	-0.005	0.005	0.000	0.005	0.010	0.029	2.686	1.909	1.914	1.909	1.929	1.919	1.919
-0.005	0.000	0.000	0.000	0.000	0.000	0.029	2.676	1.895	1.909	1.909	1.924	1.919	1.914
-0.024	0.005	0.000	0.005	0.000	0.010	0.029	2.705	1.895	1.904	1.909	1.929	1.919	1.924
-0.044	0.005	0.005	0.005	0.000	-0.005	0.029	2.686	1.890	1.899	1.904	1.929	1.919	1.914
-0.049	0.005	0.000	0.005	0.005	0.005	0.029	2.686	1.895	1.895	1.899	1.924	1.919	1.924
-0.034	0.000	0.000	-0.005	0.005	0.000	0.029	2.671	1.895	1.895	1.899	1.919	1.919	1.919
-0.024	-0.005	0.000	-0.020	0.010	-0.015	0.029	2.671	1.904	1.895	1.895	1.919	1.914	1.914
-0.010	-0.005	0.000	-0.010	0.000	0.015	0.029	2.778	1.914	1.899	1.895	1.914	1.919	1.924
-0.010	0.005	0.005	-0.010	0.005	0.010	0.029	2.646	1.904	1.904	1.899	1.914	1.914	1.919
-0.010	-0.005	0.010	-0.005	0.005	-0.005	0.029	2.788	1.904	1.904	1.899	1.919	1.914	1.914
-0.010	-0.005	-0.005	0.000	0.010	-0.005	0.029	2.783	1.914	1.904	1.899	1.919	1.914	1.914
0.000	0.000	-0.005	0.005	0.005	0.005	0.029	2.632	1.904	1.904	1.899	1.919	1.914	1.914
0.000	0.010	0.000	0.010	0.005	0.005	0.024	2.661	1.904	1.904	1.899	1.924	1.914	1.914
0.020	0.015	0.005	0.010	0.005	-0.020	0.029	2.642	1.919	1.909	1.904	1.924	1.914	1.909
0.029	0.010	0.000	0.005	0.005	0.015	0.029	2.793	1.934	1.914	1.904	1.919	1.914	1.919
0.034	0.015	0.000	0.005	0.000	0.010	0.029	2.734	1.929	1.919	1.909	1.924	1.914	1.919
0.024	0.010	0.000	0.015	0.000	-0.005	0.029	2.764	1.929	1.924	1.909	1.929	1.919	1.914
0.020	0.010	-0.005	0.015	0.000	0.010	0.029	2.725	1.929	1.924	1.909	1.929	1.919	1.919
0.015	0.005	0.000	0.000	-0.005	-0.024	0.029	2.759	1.929	1.924	1.914	1.924	1.919	1.914
0.020	0.000	0.000	-0.010	0.000	-0.010	0.029	2.695	1.924	1.919	1.914	1.924	1.919	1.919
0.005	0.000	0.000	-0.010	0.005	0.005	0.029	2.754	1.914	1.919	1.919	1.924	1.924	1.924
0.005	0.005	0.000	-0.015	0.005	0.010	0.029	2.661	1.914	1.919	1.919	1.929	1.924	1.924
0.005	-0.005	0.005	-0.005	0.000	0.010	0.029	2.739	1.914	1.919	1.919	1.934	1.924	1.924
0.015	0.000	0.005	0.005	0.000	0.015	0.029	2.700	1.919	1.919	1.914	1.934	1.924	1.924
0.020	-0.005	0.005	0.005	0.005	0.000	0.029	2.686	1.914	1.914	1.914	1.938	1.929	1.924
0.015	0.000	0.010	0.015	0.005	0.005	0.029	2.705	1.919	1.914	1.914	1.938	1.929	1.924
0.005	0.005	0.005	0.010	0.000	-0.010	0.029	2.690	1.909	1.914	1.914	1.934	1.929	1.924
0.015	0.000	0.005	0.010	0.000	0.010	0.029	2.690	1.909	1.909	1.914	1.934	1.929	1.929
0.020	-0.005	0.000	0.005	0.000	0.015	0.029	2.676	1.909	1.904	1.909	1.929	1.929	1.929
0.000	0.000	0.000	0.005	0.005	0.005	0.029	2.695	1.904	1.909	1.909	1.929	1.924	1.924
0.005	0.015	0.000	0.000	0.005	0.005	0.029	2.681	1.909	1.909	1.909	1.929	1.929	1.929
0.010	0.005	-0.005	0.000	0.000	0.010	0.034	2.686	1.904	1.909	1.909	1.924	1.929	1.929
0.000	0.000	0.005	0.000	0.015	0.005	0.029	2.676	1.904	1.904	1.909	1.929	1.929	1.924
-0.005	-0.005	0.000	0.010	0.000	-0.005	0.029	2.700	1.909	1.904	1.904	1.929	1.924	1.919
-0.010	0.000	0.000	0.010	-0.020	-0.024	0.029	2.695	1.909	1.904	1.904	1.924	1.914	1.914
0.005	-0.005	0.000	0.000	-0.034	0.005	0.029	2.676	1.909	1.909	1.904	1.924	1.914	1.924
-0.010	-0.005	-0.005	-0.005	-0.029	0.010	0.029	2.686	1.904	1.909	1.904	1.924	1.914	1.919
-0.005	0.000	-0.005	-0.010	-0.020	-0.005	0.029	2.671	1.909	1.909	1.904	1.919	1.919	1.919
-0.015	0.005	0.000	-0.024	0.010	0.000	0.029	2.705	1.904	1.909	1.904	1.919	1.924	1.924
-0.010	0.005	0.000	-0.015	0.029	0.005	0.029	2.676	1.904	1.909	1.909	1.924	1.929	1.929
-0.020	0.000	0.000	-0.010	0.000	0.005	0.029	2.686	1.904	1.909	1.904	1.929	1.919	1.919
-0.010	0.005	0.005	0.005	-0.010	-0.010	0.029	2.666	1.909	1.904	1.904	1.929	1.919	1.919
-0.005	0.000	0.000	0.010	-0.010	-0.015	0.029	2.690	1.909	1.904	1.904	1.929	1.919	1.914
0.005	0.000	0.005	0.005	-0.015	-0.005	0.029	2.681	1.909	1.904	1.904	1.924	1.919	1.919
0.000	-0.010	0.005	0.005	-0.024	-0.020	0.029	2.671	1.904	1.899	1.904	1.924	1.914	1.914
-0.005	0.000	0.010	0.005	-0.044	-0.005	0.029	2.690	1.909	1.904	1.904	1.924	1.909	1.919
-0.005	0.000	0.005	0.005	-0.049	0.015	0.029	2.656	1.904	1.904	1.904	1.919	1.909	1.919
0.000	-0.005	0.000	0.000	-0.034	0.015	0.029	2.793	1.914	1.904	1.899	1.924	1.919	1.919
0.005	0.010	0.000	0.010	0.015	0.010	0.029	2.661	1.914	1.909	1.904	1.924	1.934	1.924
0.005	0.000	0.000	0.020	0.073	0.005	0.029	2.788	1.904	1.909	1.904	1.929	1.948	1.929
0.010	0.000	-0.005	0.015	0.117	0.010	0.029	2.778	1.919	1.909	1.904	1.929	1.953	1.938
0.005	0.005	-0.005	0.015	0.137	0.010	0.029	2.739	1.914	1.914	1.909	1.929	1.948	1.938
0.010	0.005	0.000	0.010	0.107	-0.010	0.029	2.695	1.924	1.919	1.909	1.924	1.934	1.934
0.005	-0.005	0.000	0.005	0.068	-0.020	0.029	2.666	1.929	1.914	1.909	1.924	1.919	1.924
0.015	0.000	-0.005	0.005	0.049	0.000	0.029	2.798	1.938	1.919	1.914	1.924	1.914	1.929
0.020	0.000	-0.005	0.005	0.010	0.000	0.029	2.710	1.934	1.919	1.914	1.924	1.904	1.924
0.020	-0.010	0.005	-0.005	-0.010	-0.005	0.029	2.666	1.929	1.919	1.914	1.929	1.904	1.919
0.010	-0.005	0.005	-0.005	-0.020	0.020	0.029	2.749	1.924	1.924	1.919	1.929	1.909	1.919
0.005	-0.005	0.005	-0.005	-0.010	0.020	0.029	2.720	1.919	1.919	1.919	1.929	1.914	1.914
0.000	-0.010	0.000	-0.005	0.000	0.005	0.029	2.695	1.914	1.919	1.914	1.934	1.919	1.914
0.000	-0.005	-0.005	0.000	0.000	0.015	0.029	2.744	1.919	1.919	1.914	1.934	1.924	1.919
-0.005	-0.020	-0.005	0.005	-0.005	0.005	0.029	2.656	1.904	1.909	1.914	1.934	1.924	1.914
-0.005	-0.015	0.000	0.005	-0.010	0.010	0.029	2.720	1.909	1.914	1.914	1.934	1.924	1.919
-0.005	0.000	0.005	0.000	-0.005	0.000	0.029	2.676	1.904	1.914	1.914	1.934	1.924	1.919
-0.015	-0.020	0.005	-0.005	-0.020	0.000	0.029	2.705	1.904	1.904	1.909	1.929	1.919	1.919
-0.029	-0.010	0.000	-0.005	-0.049	0.000	0.029	2.681	1.899	1.904	1.909	1.929	1.914	1.914
-0.039	-0.005	-0.005	0.000	-0.049	0.005	0.029	2.700	1.899	1.904	1.904	1.929	1.919	1.919
-0.039	0.005	0.000	0.000	-0.039	0.000	0.029	2.695	1.904	1.909	1.909	1.924	1.919	1.919
-0.020	0.005	0.000	0.000	-0.034	-0.005	0.029	2.666	1.909	1.909	1.909	1.929	1.919	1.919
-0.020	0.010	0.000	0.005	-0.029	-0.020	0.029	2.700	1.909	1.909	1.909	1.929	1.924	1.919
-0.020	0.020	0.000	0.000	-0.015	0.005	0.029	2.671	1.909	1.909	1.909	1.929	1.929	1.929
-0.010	0.005	0.000	0.000	-0.010	0.000	0.029	2.671	1.909	1.904	1.909	1.929	1.929	1.929
0.000	0.020	0.005	0.000	0.000	-0.020	0.029	2.676	1.909	1.909	1.909	1.929	1.929	1.919
-0.010	0.005	0.010	0.005	-0.005	0.005	0.029	2.676	1.909	1.904	1.909	1.929	1.929	1.929
0.005	0.005	0.005	0.000	-0.005	-0.020	0.029	2.690	1.914	1.909	1.909	1.924	1.924	1.924
0.000	0.000	0.005	0.000	-0.005	0.005	0.029	2.705	1.914	1.909	1.904	1.924	1.924	1.929
0.015	-0.005	0.005	-0.005	-0.010	0.005	0.029	2.700	1.914	1.909	1.904	1.924	1.919	1.924
0.024	-0.005	0.010	0.000	-0.010	0.000	0.024	2.700	1.919	1.909	1.904	1.924	1.919	1.919
0.034	0.000	0.000	-0.005	0.000	0.005	0.029	2.705	1.919	1.909	1.904	1.924	1.924	1.924
0.024	0.005	-0.005	0.005	-0.010	0.005	0.029	2.676	1.914	1.914	1.909	1.929	1.919	1.924
0.020	0.020	-0.005	0.000	0.000	0.005	0.029	2.661	1.914	1.919	1.909	1.924	1.924	1.924
0.020	0.020	-0.005	0.000	0.000	0.005	0.029	2.676	1.909	1.914	1.909	1.929	1.919	1.924
0.015	0.010	0.000	0.000	0.000	-0.005	0.029	2.700	1.904	1.909	1.909	1.929	1.924	1.919
0.020	0.010	0.000	0.005	0.000	0.005	0.029	2.676	1.904	1.909	1.909	1.929	1.924	1.924
0.015	0.010	0.005	0.005	0.000	0.000	0.029	2.666	1.904	1.904	1.909	1.929	1.924	1.924
0.020	0.010	0.000	0.005	-0.005	0.000	0.029	2.681	1.904	1.904	1.904	1.924	1.924	1.924
0.034	0.015	0.000	0.005	0.000	0.000	0.029	2.666	1.909	1.904	1.909	1.929	1.924	1.924
0.049	-0.005	0.000	0.000	0.005	-0.010	0.029	2.778	1.924	1.904	1.904	1.924	1.924	1.919
0.029	0.000	0.005	0.005	0.005	0.005	0.029	2.666	1.914	1.909	1.904	1.924	1.924	1.924
0.029	0.000	0.000	0.000	0.005	-0.005	0.029	2.793	1.924	1.909	1.904	1.929	1.924	1.924
0.015	0.010	0.000	-0.005	0.005	-0.005	0.029	2.783	1.929	1.919	1.909	1.924	1.924	1.924
0.015	-0.005	0.000	0.000	0.005	-0.005	0.029	2.612	1.914	1.909	1.909	1.924	1.924	1.924
-0.005	-0.005	0.000	0.000	0.005	0.005	0.029	2.661	1.899	1.909	1.909	1.924	1.919	1.929
-0.010	0.000	-0.005	0.000	0.010	-0.005	0.029	2.729	1.909	1.909	1.904	1.929	1.919	1.924
-0.015	-0.005	0.005	0.005	0.000	0.015	0.029	2.759	1.914	1.909	1.904	1.929	1.919	1.924
-0.024	0.000	0.010	-0.005	0.005	-0.005	0.024	2.720	1.914	1.909	1.904	1.924	1.924	1.919
-0.020	0.000	0.005	0.000	0.000	0.005	0.029	2.661	1.909	1.909	1.904	1.924	1.919	1.924
-0.034	0.000	0.015	0.005	-0.005	0.015	0.029	2.627	1.899	1.909	1.909	1.924	1.919	1.924
-0.039	0.005	0.010	0.000	0.000	0.015	0.029	2.656	1.895	1.904	1.909	1.929	1.919	1.924
-0.029	0.000	0.010	0.005	0.000	0.010	0.024	2.676	1.899	1.904	1.904	1.924	1.919	1.924
-0.044	0.000	-0.005	0.005	0.005	0.000	0.029	2.749	1.909	1.899	1.899	1.924	1.919	1.919
-0.039	0.005	-0.005	0.005	0.000	0.000	0.029	2.695	1.909	1.904	1.899	1.924	1.919	1.919
-0.039	0.000	-0.005	0.005	0.000	-0.024	0.029	2.729	1.914	1.904	1.899	1.924	1.919	1.914
-0.034	0.005	-0.005	0.005	-0.020	-0.005	0.029	2.666	1.914	1.909	1.904	1.924	1.914	1.919
-0.029	0.000	-0.005	0.005	-0.029	0.000	0.029	2.700	1.914	1.909	1.904	1.924	1.914	1.919
-0.020	-0.005	-0.005	0.005	-0.005	0.000	0.029	2.695	1.914	1.909	1.904	1.924	1.919	1.919
-0.010	-0.015	0.000	0.005	0.005	-0.005	0.029	2.661	1.909	1.904	1.904	1.924	1.924	1.919
0.000	-0.024	0.000	0.005	0.029	0.000	0.029	2.690	1.914	1.909	1.909	1.924	1.929	1.924
0.015	-0.010	0.005	0.005	0.044	0.005	0.029	2.671	1.919	1.914	1.909	1.924	1.934	1.929
0.020	-0.015	0.000	0.000	0.049	0.000	0.029	2.671	1.914	1.909	1.909	1.924	1.929	1.924
0.029	-0.010	0.000	0.000	0.034	-0.005	0.029	2.676	1.914	1.914	1.909	1.924	1.919	1.919
0.029	-0.005	0.000	0.000	0.000	0.015	0.029	2.705	1.914	1.914	1.909	1.924	1.914	1.924
0.020	0.000	0.000	0.005	-0.010	0.020	0.029	2.676	1.914	1.914	1.909	1.924	1.914	1.924
0.024	0.015	0.005	0.000	-0.034	0.000	0.029	2.681	1.904	1.914	1.909	1.929	1.909	1.914
0.029	0.000	0.000	0.010	-0.049	0.015	0.029	2.686	1.904	1.909	1.909	1.929	1.909	1.914
0.020	0.000	0.000	0.010	-0.034	0.010	0.029	2.671	1.904	1.904	1.904	1.929	1.919	1.914
0.015	0.005	0.005	0.010	-0.010	0.005	0.029	2.710	1.909	1.909	1.909	1.929	1.929	1.919
0.005	0.005	0.005	0.005	0.024	0.005	0.029	2.671	1.904	1.904	1.909	1.929	1.934	1.924
0.015	0.005	0.000	0.000	0.059	-0.020	0.029	2.700	1.904	1.904	1.904	1.929	1.938	1.924
0.015	-0.005	0.000	-0.005	0.073	0.000	0.029	2.676	1.909	1.904	1.904	1.924	1.938	1.934
0.005	-0.005	-0.005	0.000	0.068	0.000	0.029	2.695	1.909	1.909	1.904	1.924	1.929	1.929
0.000	0.010	-0.005	-0.005	0.059	-0.015	0.029	2.676	1.909	1.909	1.904	1.924	1.924	1.924
0.010	0.015	-0.005	0.000	0.039	0.005	0.029	2.671	1.909	1.909	1.909	1.924	1.919	1.924
0.005	0.005	-0.005	0.005	0.015	-0.005	0.029	2.671	1.904	1.904	1.904	1.924	1.909	1.924
-0.005	-0.020	-0.005	0.005	-0.005	0.000	0.029	2.676	1.904	1.899	1.904	1.924	1.904	1.919
0.005	-0.020	-0.005	0.000	-0.039	0.024	0.029	2.686	1.904	1.899	1.899	1.919	1.899	1.919
0.005	-0.015	0.000	0.000	-0.088	-0.005	0.029	2.656	1.904	1.899	1.899	1.919	1.890	1.899
0.005	-0.005	0.000	0.005	-0.098	0.015	0.029	2.773	1.914	1.904	1.899	1.914	1.895	1.909
0.010	0.010	0.005	0.000	-0.063	0.015	0.029	2.651	1.909	1.909	1.909	1.919	1.909	1.904
0.010	0.020	0.015	0.005	-0.039	0.005	0.029	2.793	1.914	1.914	1.909	1.924	1.919	1.904
0.000	0.034	0.020	0.000	-0.024	-0.010	0.029	2.778	1.914	1.914	1.909	1.924	1.919	1.909
-0.005	0.034	0.015	0.005	-0.005	-0.015	0.029	2.734	1.919	1.914	1.909	1.929	1.929	1.914
-0.005	0.029	0.010	0.005	0.005	-0.029	0.029	2.666	1.914	1.914	1.909	1.929	1.929	1.909
0.005	0.024	0.010	0.000	0.015	-0.039	0.029	2.651	1.919	1.914	1.909	1.929	1.929	1.914
0.005	-0.005	-0.005	-0.005	0.000	-0.024	0.029	2.788	1.924	1.904	1.909	1.924	1.924	1.919
0.000	-0.005	0.000	-0.005	-0.005	-0.024	0.029	2.612	1.909	1.909	1.909	1.924	1.919	1.924
-0.005	-0.015	0.005	-0.010	-0.020	-0.005	0.029	2.661	1.904	1.904	1.904	1.924	1.919	1.929
0.000	-0.020	0.000	-0.005	-0.010	0.015	0.029	2.744	1.909	1.909	1.904	1.924	1.924	1.929
0.000	-0.015	-0.005	-0.005	0.015	0.034	0.029	2.725	1.919	1.909	1.904	1.924	1.929	1.934
0.005	-0.015	-0.005	0.000	0.034	0.010	0.029	2.686	1.919	1.909	1.904	1.929	1.934	1.929
-0.005	-0.020	-0.005	0.010	0.044	0.005	0.029	2.744	1.919	1.909	1.909	1.929	1.934	1.929
-0.005	0.000	-0.015	0.020	0.044	0.005	0.029	2.651	1.909	1.914	1.909	1.929	1.929	1.929
-0.005	0.000	-0.005	0.015	0.049	0.015	0.029	2.744	1.914	1.914	1.909	1.929	1.929	1.929
-0.005	0.005	0.000	0.010	0.054	0.000	0.029	2.700	1.914	1.919	1.909	1.929	1.929	1.929
-0.005	-0.010	-0.005	0.000	0.044	0.000	0.029	2.695	1.909	1.909	1.909	1.924	1.924	1.929
0.005	0.000	0.000	-0.005	0.034	0.005	0.024	2.700	1.919	1.914	1.909	1.924	1.919	1.924
0.000	-0.005	0.005	-0.010	0.010	0.010	0.029	2.690	1.909	1.914	1.909	1.924	1.914	1.924
-0.010	0.005	0.005	-0.010	-0.005	0.010	0.029	2.671	1.909	1.914	1.909	1.924	1.909	1.919
0.000	0.015	0.005	0.000	-0.020	0.010	0.029	2.681	1.909	1.914	1.914	1.929	1.909	1.914
0.000	0.015	0.005	0.010	-0.015	0.005	0.029	2.666	1.909	1.914	1.909	1.934	1.919	1.919
0.000	0.020	0.000	0.015	-0.010	0.020	0.029	2.676	1.904	1.914	1.909	1.934	1.924	1.919
-0.005	0.010	0.000	0.020	-0.010	0.005	0.029	2.690	1.909	1.909	1.909	1.934	1.924	1.919
-0.010	0.020	-0.010	0.015	-0.005	0.015	0.029	2.676	1.904	1.909	1.909	1.934	1.924	1.924
-0.005	-0.015	-0.005	0.010	0.000	0.015	0.029	2.676	1.904	1.899	1.904	1.929	1.929	1.924
-0.005	-0.020	-0.005	0.000	0.000	0.005	0.029	2.690	1.904	1.895	1.904	1.924	1.924	1.924
-0.005	-0.020	0.000	-0.005	-0.005	0.005	0.029	2.666	1.904	1.899	1.899	1.919	1.919	1.919
0.005	-0.015	0.005	-0.015	-0.015	0.000	0.029	2.690	1.909	1.904	1.899	1.914	1.914	1.919
0.000	-0.010	-0.005	-0.015	-0.015	0.005	0.029	2.676	1.904	1.904	1.899	1.919	1.914	1.919
0.000	-0.005	0.000	-0.010	-0.020	0.000	0.029	2.695	1.904	1.909	1.904	1.919	1.914	1.914
0.000	-0.015	0.000	-0.005	-0.015	0.005	0.029	2.681	1.904	1.904	1.904	1.919	1.914	1.919
0.005	-0.005	0.010	-0.005	-0.010	-0.005	0.029	2.690	1.909	1.904	1.904	1.924	1.914	1.914
0.005	-0.005	0.005	0.000	-0.005	0.000	0.029	2.690	1.909	1.904	1.899	1.924	1.919	1.914
0.005	0.020	0.005	0.005	-0.010	0.005	0.029	2.700	1.909	1.914	1.909	1.924	1.914	1.919
0.000	0.020	0.010	0.010	0.000	0.005	0.029	2.676	1.909	1.909	1.904	1.924	1.919	1.919
0.000	0.000	0.000	0.010	-0.005	-0.005	0.029	2.671	1.904	1.904	1.904	1.924	1.919	1.919
0.005	0.010	0.000	0.005	-0.005	0.005	0.029	2.686	1.904	1.904	1.904	1.924	1.919	1.919
0.000	0.000	0.000	0.000	0.005	-0.015	0.029	2.661	1.904	1.904	1.899	1.919	1.919	1.909
0.005	0.000	0.005	0.000	0.005	-0.005	0.029	2.778	1.919	1.909	1.904	1.919	1.919	1.919
0.010	-0.005	0.000	-0.005	0.000	0.005	0.029	2.661	1.914	1.909	1.904	1.919	1.919	1.924
0.000	0.010	0.005	0.005	0.000	0.005	0.029	2.651	1.904	1.909	1.909	1.924	1.919	1.919
0.000	0.005	0.000	0.010	0.005	0.000	0.029	2.788	1.919	1.909	1.909	1.929	1.924	1.924
0.010	0.005	0.000	0.005	0.005	-0.024	0.029	2.725	1.924	1.914	1.909	1.924	1.919	1.914
0.000	0.005	0.000	0.000	0.005	0.005	0.029	2.700	1.919	1.914	1.909	1.929	1.924	1.924
0.000	0.000	-0.005	0.000	0.005	0.000	0.029	2.734	1.919	1.914	1.909	1.924	1.924	1.924
-0.005	-0.010	-0.005	0.000	0.005	0.000	0.029	2.754	1.919	1.909	1.909	1.924	1.919	1.924
-0.005	0.000	-0.005	0.000	0.005	-0.005	0.029	2.734	1.919	1.914	1.909	1.929	1.919	1.919
0.000	0.020	0.000	0.000	0.005	-0.005	0.029	2.632	1.909	1.924	1.914	1.924	1.919	1.924
0.000	0.010	0.000	0.000	0.000	0.005	0.029	2.734	1.914	1.914	1.914	1.929	1.919	1.919
0.000	0.010	0.000	0.000	0.005	0.005	0.029	2.720	1.919	1.914	1.914	1.929	1.924	1.924
0.000	0.010	0.000	0.000	0.000	0.005	0.029	2.690	1.914	1.914	1.914	1.929	1.924	1.924
-0.005	0.000	0.000	0.000	0.005	0.005	0.029	2.627	1.919	1.909	1.914	1.934	1.924	1.924
0.000	0.000	-0.005	-0.005	0.005	-0.020	0.029	2.671	1.909	1.909	1.909	1.929	1.924	1.914
-0.005	-0.005	0.005	0.000	0.005	-0.005	0.029	2.749	1.914	1.914	1.909	1.929	1.924	1.924
0.000	0.005	0.000	0.005	0.005	-0.020	0.029	2.686	1.919	1.919	1.914	1.934	1.924	1.924
-0.005	0.015	-0.005	0.000	-0.005	0.005	0.029	2.700	1.914	1.924	1.914	1.929	1.924	1.924
-0.005	0.010	-0.005	0.000	0.000	0.010	0.029	2.666	1.904	1.914	1.914	1.929	1.924	1.929
-0.005	0.000	-0.005	-0.005	0.005	0.015	0.029	2.695	1.914	1.914	1.914	1.934	1.929	1.929
0.000	0.010	0.000	0.000	-0.005	0.005	0.029	2.695	1.919	1.919	1.914	1.929	1.924	1.924
0.000	0.015	0.010	-0.005	-0.005	0.000	0.029	2.676	1.914	1.914	1.919	1.934	1.924	1.924
0.000	-0.010	0.015	0.010	-0.005	0.005	0.029	2.681	1.909	1.909	1.914	1.934	1.929	1.929
-0.005	-0.005	0.010	0.024	-0.005	0.005	0.029	2.695	1.914	1.909	1.914	1.938	1.929	1.924
0.005	-0.020	0.005	0.024	-0.005	0.010	0.029	2.695	1.914	1.904	1.909	1.934	1.929	1.929
0.005	-0.015	0.005	0.010	0.000	0.010	0.029	2.671	1.909	1.909	1.909	1.929	1.929	1.929
0.005	-0.010	0.005	0.000	-0.005	0.010	0.029	2.671	1.904	1.909	1.904	1.924	1.924	1.929
0.005	-0.005	0.000	-0.010	-0.005	0.005	0.029	2.671	1.909	1.909	1.904	1.919	1.924	1.924
0.000	0.000	0.005	-0.010	-0.005	-0.010	0.029	2.676	1.904	1.909	1.904	1.919	1.919	1.919
0.000	0.010	0.000	-0.020	-0.005	-0.010	0.029	2.671	1.909	1.909	1.904	1.919	1.919	1.919
0.000	0.000	0.000	-0.005	-0.005	-0.015	0.029	2.666	1.904	1.909	1.904	1.924	1.919	1.919
-0.005	0.005	0.000	0.000	0.000	-0.010	0.029	2.700	1.909	1.904	1.904	1.929	1.924	1.919
0.000	0.005	0.000	0.015	0.010	0.005	0.029	2.690	1.909	1.909	1.904	1.934	1.924	1.924
-0.010	0.000	-0.005	0.015	0.015	0.000	0.029	2.695	1.909	1.904	1.904	1.929	1.929	1.929
0.000	-0.005	-0.005	0.010	0.010	0.005	0.029	2.671	1.909	1.904	1.904	1.924	1.924	1.929
0.000	-0.010	0.005	0.010	0.005	-0.015	0.029	2.700	1.914	1.909	1.904	1.924	1.924	1.919
0.005	-0.005	0.000	0.010	0.005	0.000	0.029	2.676	1.909	1.904	1.909	1.924	1.919	1.924
0.005	-0.005	0.000	0.005	0.005	0.010	0.029	2.676	1.909	1.909	1.904	1.924	1.919	1.929
-0.005	-0.005	-0.005	0.000	0.005	0.005	0.029	2.681	1.904	1.909	1.904	1.919	1.919	1.924
