0.005	0.010	0.000	0.005	-0.005	0.000	0.029	2.676	2.285	2.051	1.992	1.929	1.924	1.924
0.000	0.000	0.000	0.005	-0.005	0.010	0.024	2.686	2.187	2.090	2.017	1.953	1.929	1.924
0.000	0.000	0.000	0.000	0.000	-0.005	0.029	2.681	2.119	2.100	2.036	1.982	1.943	1.929
0.000	0.010	0.000	0.005	0.010	-0.005	0.029	2.686	2.065	2.095	2.056	2.007	1.958	1.938
0.000	0.000	0.000	-0.005	0.005	0.005	0.029	2.686	2.031	2.075	2.061	2.026	1.978	1.943
0.005	0.000	0.000	0.000	0.000	0.000	0.029	2.681	2.002	2.056	2.056	2.041	1.992	1.958
0.000	-0.005	-0.005	0.000	0.000	0.015	0.029	2.695	1.987	2.036	2.056	2.051	2.007	1.978
-0.005	-0.005	-0.005	0.005	-0.005	0.010	0.029	2.666	1.973	2.021	2.041	2.056	2.017	1.987
-0.005	-0.010	0.000	0.005	-0.010	-0.010	0.029	2.681	1.963	2.002	2.031	2.056	2.026	1.987
0.000	-0.005	0.000	0.000	-0.010	0.010	0.029	2.671	1.958	1.987	2.021	2.051	2.031	2.007
0.000	0.005	0.000	0.000	0.000	0.010	0.029	2.681	1.953	1.982	2.017	2.041	2.036	2.017
0.005	-0.010	0.000	0.000	-0.005	-0.005	0.029	2.686	1.953	1.973	1.997	2.036	2.031	2.017
0.005	0.000	0.005	0.000	-0.005	0.000	0.029	2.651	1.948	1.968	1.992	2.026	2.031	2.021
0.005	0.005	0.005	0.005	-0.005	-0.010	0.029	2.671	1.948	1.963	1.982	2.021	2.026	2.021
0.005	0.000	0.000	0.000	0.000	-0.005	0.029	2.676	1.948	1.958	1.978	2.012	2.026	2.021
0.005	0.005	0.000	0.000	0.024	0.000	0.029	2.681	1.953	1.958	1.968	2.007	2.026	2.026
0.005	-0.010	-0.005	0.000	0.039	-0.010	0.029	2.676	1.953	1.953	1.963	2.002	2.021	2.021
0.000	-0.010	0.005	0.000	0.029	0.010	0.029	2.681	1.953	1.953	1.958	1.997	2.012	2.021
-0.010	-0.005	0.000	0.000	0.000	0.005	0.029	2.676	1.953	1.953	1.958	1.987	1.997	2.017
0.000	0.005	-0.005	0.005	-0.005	0.000	0.024	2.666	1.953	1.958	1.958	1.987	1.992	2.007
0.000	0.005	0.000	0.005	-0.005	0.015	0.029	2.661	1.953	1.958	1.958	1.982	1.987	2.007
-0.005	-0.005	0.000	0.000	0.000	-0.005	0.024	2.676	1.953	1.953	1.953	1.978	1.982	1.992
0.000	0.000	0.000	0.005	-0.005	0.005	0.029	2.686	1.958	1.958	1.958	1.978	1.982	1.992
-0.010	0.005	0.000	0.000	-0.015	0.000	0.029	2.671	1.953	1.953	1.953	1.978	1.978	1.987
-0.010	0.000	0.000	0.000	-0.029	0.005	0.029	2.681	1.953	1.948	1.953	1.973	1.968	1.982
0.000	0.005	-0.005	0.005	-0.010	0.000	0.029	2.666	1.948	1.953	1.953	1.973	1.978	1.982
0.000	0.000	0.000	0.000	0.015	0.005	0.029	2.671	1.948	1.948	1.953	1.973	1.982	1.982
-0.005	-0.005	0.005	0.000	0.024	-0.020	0.029	2.686	1.948	1.948	1.953	1.973	1.978	1.978
-0.010	-0.005	0.005	0.000	-0.010	-0.005	0.029	2.681	1.948	1.943	1.948	1.973	1.968	1.973
0.005	0.005	0.005	0.000	-0.020	0.015	0.029	2.671	1.948	1.948	1.948	1.968	1.963	1.978
0.010	0.000	-0.005	0.005	-0.020	0.010	0.029	2.671	1.948	1.948	1.948	1.968	1.963	1.973
0.000	0.000	0.000	0.000	0.005	0.000	0.029	2.676	1.943	1.948	1.943	1.968	1.973	1.973
0.005	0.005	0.005	0.000	0.034	0.029	0.029	2.676	1.948	1.948	1.948	1.968	1.978	1.978
0.000	0.000	0.005	0.000	0.029	0.024	0.029	2.681	1.943	1.943	1.943	1.968	1.973	1.973
0.005	0.000	0.005	0.005	0.015	-0.020	0.029	2.681	1.943	1.943	1.943	1.963	1.963	1.958
0.005	-0.005	0.000	0.005	0.024	0.000	0.029	2.681	1.948	1.943	1.943	1.968	1.968	1.968
-0.005	-0.010	0.005	-0.005	0.029	-0.010	0.029	2.690	1.943	1.938	1.943	1.963	1.963	1.958
0.005	-0.015	0.000	0.005	0.039	-0.015	0.029	2.690	1.938	1.938	1.938	1.963	1.963	1.963
-0.010	-0.015	-0.005	0.005	0.020	-0.005	0.029	2.695	1.938	1.938	1.938	1.963	1.963	1.963
-0.005	-0.010	0.000	0.000	0.015	0.015	0.029	2.666	1.938	1.943	1.938	1.958	1.958	1.968
-0.005	0.024	-0.005	0.000	0.000	0.015	0.024	2.686	1.943	1.948	1.943	1.958	1.953	1.963
0.000	0.000	-0.005	0.000	-0.010	0.010	0.024	2.681	1.938	1.938	1.938	1.958	1.953	1.958
0.000	0.000	0.000	0.000	-0.020	0.000	0.029	2.686	1.943	1.943	1.938	1.958	1.948	1.953
0.000	0.000	0.000	-0.005	-0.024	0.000	0.024	2.676	1.934	1.938	1.938	1.958	1.948	1.948
0.000	0.000	0.005	0.000	-0.020	-0.010	0.029	2.676	1.934	1.938	1.938	1.958	1.948	1.948
-0.005	0.024	0.005	0.000	-0.020	-0.005	0.029	2.681	1.929	1.943	1.938	1.958	1.953	1.953
0.005	-0.005	0.000	0.000	-0.005	-0.005	0.029	2.695	1.934	1.929	1.938	1.958	1.953	1.953
0.005	-0.015	0.005	0.000	0.005	-0.015	0.029	2.671	1.934	1.929	1.934	1.953	1.958	1.948
0.000	-0.010	0.000	-0.005	0.005	0.000	0.029	2.686	1.934	1.924	1.929	1.953	1.953	1.953
0.000	-0.005	0.000	0.000	-0.005	0.020	0.029	2.686	1.938	1.934	1.929	1.953	1.948	1.958
0.005	0.000	0.000	0.005	-0.020	0.015	0.029	2.686	1.938	1.938	1.929	1.953	1.943	1.953
-0.005	0.020	0.005	0.000	-0.024	-0.010	0.029	2.690	1.938	1.938	1.934	1.948	1.943	1.943
0.010	0.010	-0.005	0.000	-0.020	0.010	0.029	2.676	1.934	1.934	1.934	1.953	1.943	1.948
0.005	0.020	0.000	0.005	-0.020	0.015	0.029	2.681	1.934	1.934	1.934	1.953	1.943	1.953
0.005	0.010	0.005	0.000	-0.020	0.005	0.029	2.690	1.934	1.934	1.934	1.953	1.948	1.948
0.000	0.020	0.000	0.005	0.000	0.005	0.029	2.686	1.934	1.934	1.934	1.953	1.953	1.948
0.005	0.005	-0.005	0.000	0.000	0.000	0.029	2.695	1.934	1.929	1.929	1.948	1.953	1.948
-0.005	0.005	-0.005	0.000	0.015	-0.005	0.029	2.681	1.929	1.929	1.929	1.948	1.953	1.948
-0.005	0.005	0.000	0.000	0.015	0.005	0.029	2.690	1.929	1.929	1.929	1.948	1.948	1.953
0.000	0.005	0.000	0.005	0.020	-0.010	0.029	2.681	1.934	1.934	1.929	1.948	1.948	1.943
-0.005	-0.005	0.000	0.000	0.020	0.005	0.029	2.666	1.924	1.924	1.929	1.943	1.948	1.953
0.005	-0.005	0.005	0.005	0.005	-0.005	0.029	2.681	1.929	1.924	1.929	1.948	1.943	1.948
0.005	-0.005	0.000	0.000	-0.005	0.005	0.029	2.695	1.934	1.924	1.924	1.943	1.938	1.943
0.000	-0.005	0.005	0.000	-0.024	0.000	0.029	2.651	1.924	1.929	1.924	1.943	1.934	1.943
0.000	0.005	0.000	0.000	-0.039	-0.005	0.029	2.666	1.919	1.924	1.924	1.943	1.929	1.934
0.005	0.000	0.000	0.000	-0.054	0.005	0.029	2.676	1.919	1.919	1.924	1.943	1.929	1.938
0.005	0.005	0.000	0.000	-0.034	-0.010	0.029	2.676	1.919	1.919	1.924	1.943	1.934	1.934
0.005	-0.005	0.000	0.005	0.000	-0.005	0.029	2.671	1.914	1.919	1.919	1.943	1.943	1.938
0.000	-0.005	0.000	0.000	0.015	-0.005	0.029	2.681	1.919	1.914	1.919	1.938	1.948	1.938
0.005	-0.005	-0.005	0.005	0.005	0.005	0.024	2.681	1.919	1.914	1.914	1.938	1.938	1.943
-0.005	0.000	0.000	0.000	0.024	0.005	0.029	2.681	1.919	1.919	1.914	1.938	1.948	1.943
0.000	0.005	0.005	0.000	0.039	-0.015	0.029	2.690	1.924	1.919	1.919	1.938	1.943	1.938
0.000	-0.005	-0.005	0.000	0.044	-0.015	0.029	2.681	1.919	1.919	1.914	1.938	1.943	1.938
-0.005	-0.005	-0.005	0.000	0.049	0.000	0.029	2.666	1.919	1.914	1.914	1.934	1.943	1.948
-0.010	0.005	0.000	0.000	0.054	0.010	0.029	2.686	1.924	1.919	1.919	1.934	1.938	1.948
0.000	-0.015	0.000	0.000	0.059	-0.005	0.029	2.671	1.924	1.914	1.914	1.938	1.938	1.943
-0.005	-0.015	0.000	0.000	0.049	0.005	0.029	2.666	1.919	1.914	1.914	1.934	1.938	1.943
0.000	-0.015	0.000	0.000	0.044	0.020	0.029	2.671	1.919	1.914	1.914	1.934	1.934	1.938
-0.005	-0.005	0.005	0.000	0.015	-0.010	0.029	2.690	1.919	1.919	1.914	1.934	1.919	1.929
-0.005	0.000	0.000	0.000	-0.024	0.015	0.029	2.661	1.919	1.919	1.914	1.934	1.914	1.929
0.000	0.000	0.000	0.000	-0.044	0.010	0.029	2.681	1.914	1.914	1.914	1.934	1.909	1.924
0.010	-0.010	0.000	0.005	-0.039	-0.015	0.029	2.676	1.914	1.914	1.914	1.934	1.914	1.914
0.005	0.000	0.000	0.005	-0.024	0.005	0.029	2.671	1.914	1.914	1.914	1.934	1.924	1.924
0.010	0.015	0.000	0.000	-0.005	0.005	0.029	2.676	1.914	1.919	1.914	1.934	1.929	1.924
0.010	0.010	0.000	0.000	0.010	-0.010	0.029	2.686	1.914	1.914	1.914	1.934	1.934	1.924
0.000	0.005	0.005	0.005	0.010	-0.015	0.029	2.666	1.914	1.914	1.909	1.934	1.934	1.924
-0.005	0.010	0.000	0.000	0.010	-0.015	0.029	2.700	1.914	1.914	1.909	1.934	1.929	1.924
0.000	0.010	-0.005	0.000	-0.010	0.005	0.029	2.686	1.914	1.914	1.909	1.934	1.924	1.929
0.000	0.005	0.000	0.005	-0.024	-0.005	0.029	2.686	1.914	1.914	1.914	1.934	1.924	1.924
-0.010	0.005	-0.005	0.000	-0.024	-0.010	0.029	2.686	1.909	1.909	1.909	1.929	1.924	1.924
-0.005	0.000	0.000	0.000	-0.015	0.010	0.029	2.681	1.919	1.914	1.909	1.929	1.929	1.929
0.000	0.005	-0.005	0.000	-0.005	0.005	0.029	2.686	1.914	1.914	1.909	1.929	1.929	1.929
0.010	0.005	0.000	0.000	-0.005	0.010	0.029	2.686	1.919	1.914	1.909	1.929	1.929	1.929
0.010	0.000	0.005	0.000	-0.005	0.005	0.029	2.671	1.914	1.914	1.914	1.929	1.929	1.934
-0.010	0.000	0.005	0.000	0.000	0.000	0.024	2.676	1.904	1.909	1.914	1.929	1.929	1.929
0.000	0.005	0.000	0.000	0.010	0.005	0.029	2.671	1.909	1.909	1.909	1.929	1.929	1.929
-0.005	0.000	0.000	0.005	0.015	0.000	0.029	2.666	1.904	1.904	1.909	1.929	1.929	1.929
0.005	-0.005	0.000	0.000	0.010	0.005	0.029	2.686	1.914	1.904	1.909	1.929	1.924	1.929
0.005	0.000	0.000	0.000	-0.005	-0.005	0.029	2.686	1.909	1.904	1.909	1.929	1.919	1.924
-0.005	-0.005	0.000	0.005	-0.020	0.010	0.029	2.656	1.904	1.904	1.904	1.924	1.914	1.924
0.000	0.020	0.000	0.005	-0.015	0.005	0.029	2.671	1.904	1.909	1.909	1.924	1.919	1.924
0.000	0.015	0.000	0.005	-0.010	0.000	0.029	2.671	1.904	1.909	1.904	1.924	1.919	1.919
-0.005	0.015	0.000	0.000	-0.010	-0.005	0.029	2.710	1.909	1.904	1.904	1.924	1.919	1.919
0.005	0.005	0.000	0.000	-0.010	-0.005	0.029	2.676	1.909	1.904	1.904	1.924	1.919	1.919
0.005	-0.010	-0.005	0.000	-0.005	-0.015	0.029	2.676	1.904	1.899	1.904	1.924	1.919	1.919
-0.005	-0.005	0.000	0.000	0.010	-0.005	0.029	2.676	1.904	1.904	1.904	1.924	1.924	1.924
0.000	0.005	0.000	0.000	0.024	-0.005	0.029	2.686	1.909	1.909	1.904	1.929	1.929	1.924
-0.005	0.005	0.000	0.000	0.034	0.005	0.024	2.686	1.904	1.904	1.904	1.924	1.929	1.929
0.000	0.005	0.000	0.000	0.029	-0.005	0.029	2.681	1.909	1.904	1.904	1.924	1.924	1.924
-0.005	0.000	-0.005	0.000	0.015	0.005	0.029	2.671	1.904	1.904	1.904	1.924	1.919	1.929
0.005	-0.005	0.005	0.000	0.000	-0.010	0.024	2.681	1.909	1.904	1.904	1.924	1.914	1.919
0.005	-0.005	0.005	0.005	-0.024	-0.005	0.024	2.676	1.904	1.904	1.904	1.919	1.909	1.919
0.000	-0.005	0.000	0.005	-0.010	0.005	0.029	2.671	1.904	1.899	1.899	1.919	1.914	1.919
0.005	0.000	0.000	0.000	-0.005	0.015	0.029	2.671	1.904	1.904	1.899	1.919	1.919	1.919
0.005	-0.020	-0.005	0.000	-0.005	0.015	0.024	2.666	1.899	1.895	1.899	1.919	1.914	1.919
0.000	-0.015	0.000	0.000	0.015	0.000	0.029	2.681	1.904	1.899	1.899	1.919	1.919	1.914
0.010	0.005	0.000	0.000	-0.005	-0.010	0.024	2.676	1.899	1.904	1.899	1.919	1.914	1.914
0.000	0.005	0.000	0.000	0.000	0.010	0.029	2.695	1.904	1.899	1.899	1.919	1.914	1.919
-0.005	-0.005	0.000	0.005	0.005	0.005	0.029	2.705	1.899	1.899	1.899	1.919	1.919	1.919
0.000	-0.010	-0.005	0.005	0.024	-0.005	0.029	2.666	1.899	1.899	1.899	1.919	1.919	1.919
0.010	0.005	0.000	0.000	0.029	0.015	0.029	2.681	1.904	1.904	1.899	1.919	1.919	1.919
-0.010	0.005	0.005	0.000	0.020	0.010	0.029	2.686	1.904	1.899	1.899	1.919	1.914	1.919
0.000	0.010	0.000	0.000	0.005	0.005	0.029	2.656	1.904	1.909	1.899	1.919	1.909	1.909
0.000	0.015	0.000	0.000	0.000	0.005	0.029	2.681	1.899	1.904	1.904	1.919	1.909	1.919
-0.010	0.015	0.000	0.000	-0.005	0.005	0.024	2.690	1.904	1.904	1.899	1.919	1.909	1.914
-0.005	-0.005	0.005	0.005	-0.010	-0.005	0.024	2.651	1.899	1.899	1.904	1.919	1.909	1.909
0.000	0.005	0.005	0.000	0.005	-0.024	0.029	2.666	1.899	1.899	1.899	1.919	1.914	1.904
-0.005	0.000	0.005	0.000	0.010	-0.005	0.029	2.676	1.895	1.899	1.899	1.919	1.914	1.914
0.000	0.005	0.000	0.000	0.000	0.000	0.029	2.686	1.899	1.899	1.895	1.919	1.914	1.914
-0.010	0.000	0.005	0.000	0.000	0.000	0.029	2.676	1.895	1.895	1.895	1.914	1.909	1.909
-0.005	0.010	-0.005	0.000	-0.005	0.005	0.029	2.661	1.899	1.899	1.895	1.914	1.909	1.914
0.005	0.010	0.000	0.000	0.000	-0.010	0.029	2.671	1.895	1.895	1.895	1.914	1.909	1.909
0.005	-0.010	0.000	0.000	0.000	-0.010	0.029	2.676	1.899	1.895	1.895	1.914	1.909	1.909
0.005	-0.010	0.000	0.000	-0.015	0.010	0.029	2.681	1.899	1.890	1.890	1.909	1.904	1.909
0.005	-0.020	0.005	0.005	-0.029	0.005	0.029	2.666	1.895	1.890	1.890	1.909	1.904	1.909
0.005	0.000	0.000	0.000	-0.024	0.005	0.029	2.686	1.895	1.895	1.890	1.909	1.904	1.909
0.000	-0.005	0.000	0.000	-0.015	0.000	0.029	2.666	1.895	1.895	1.890	1.909	1.909	1.904
0.005	0.000	0.000	0.000	-0.005	-0.005	0.029	2.681	1.899	1.895	1.895	1.909	1.909	1.909
0.010	0.000	0.000	0.005	0.020	0.005	0.029	2.656	1.895	1.899	1.895	1.914	1.919	1.914
0.000	0.010	-0.005	0.005	0.005	0.010	0.029	2.676	1.895	1.899	1.895	1.914	1.909	1.914
-0.005	0.000	0.005	0.000	0.015	0.015	0.029	2.681	1.899	1.895	1.899	1.914	1.914	1.914
-0.005	0.010	0.000	-0.005	0.034	0.015	0.024	2.666	1.904	1.899	1.895	1.914	1.914	1.914
0.000	0.005	-0.005	0.005	0.015	0.005	0.029	2.666	1.899	1.895	1.895	1.914	1.909	1.909
-0.005	0.005	0.000	0.000	-0.005	-0.010	0.029	2.676	1.899	1.895	1.895	1.909	1.904	1.904
-0.005	-0.005	0.005	0.000	-0.020	-0.005	0.029	2.681	1.895	1.895	1.895	1.909	1.899	1.904
0.005	-0.005	0.000	0.005	-0.020	-0.005	0.029	2.681	1.899	1.895	1.890	1.914	1.904	1.899
-0.010	-0.010	0.010	0.000	-0.005	-0.005	0.029	2.676	1.895	1.890	1.895	1.909	1.904	1.904
0.005	-0.005	0.000	0.005	0.000	0.000	0.029	2.681	1.899	1.899	1.890	1.909	1.909	1.904
0.005	0.000	0.000	0.005	0.000	-0.005	0.029	2.666	1.895	1.899	1.895	1.909	1.909	1.904
0.010	0.010	0.000	-0.005	0.005	-0.005	0.029	2.681	1.895	1.899	1.895	1.909	1.909	1.909
0.005	0.005	0.000	0.000	0.015	0.010	0.029	2.686	1.895	1.895	1.895	1.909	1.909	1.914
0.010	0.005	-0.005	0.000	0.000	0.010	0.029	2.676	1.899	1.895	1.895	1.909	1.904	1.909
0.000	0.015	0.000	0.005	-0.010	-0.010	0.029	2.686	1.895	1.895	1.895	1.909	1.904	1.899
0.005	0.005	0.000	0.000	0.005	0.005	0.029	2.681	1.899	1.895	1.895	1.914	1.909	1.909
0.000	0.010	0.005	0.000	0.000	0.005	0.029	2.686	1.899	1.895	1.895	1.909	1.909	1.909
-0.005	0.010	0.000	0.000	0.005	0.010	0.029	2.671	1.890	1.895	1.895	1.914	1.909	1.909
-0.015	0.010	0.005	0.000	0.010	0.010	0.029	2.676	1.890	1.895	1.895	1.914	1.909	1.909
-0.015	0.000	-0.005	0.000	0.000	0.005	0.029	2.690	1.895	1.890	1.890	1.914	1.909	1.909
-0.005	-0.005	0.000	0.005	-0.005	-0.005	0.029	2.681	1.895	1.890	1.895	1.914	1.904	1.904
0.000	0.000	0.005	0.010	-0.005	-0.015	0.029	2.681	1.899	1.895	1.890	1.914	1.909	1.904
0.000	-0.005	0.000	0.000	0.000	-0.005	0.029	2.671	1.895	1.890	1.890	1.909	1.909	1.904
-0.005	-0.005	0.000	0.000	-0.010	-0.010	0.029	2.676	1.890	1.890	1.890	1.909	1.904	1.904
0.010	-0.005	0.005	0.000	0.005	-0.020	0.029	2.676	1.895	1.890	1.890	1.909	1.909	1.904
-0.005	-0.005	0.000	0.005	0.024	0.000	0.029	2.690	1.895	1.890	1.890	1.909	1.909	1.909
-0.005	-0.005	0.005	0.000	0.054	0.010	0.029	2.681	1.895	1.895	1.895	1.909	1.919	1.914
0.000	-0.005	0.000	0.000	0.063	0.010	0.029	2.705	1.899	1.890	1.890	1.909	1.914	1.919
0.010	-0.005	0.000	0.005	0.054	-0.005	0.029	2.686	1.899	1.890	1.890	1.909	1.909	1.909
0.010	0.005	0.005	0.000	0.015	0.005	0.029	2.676	1.895	1.899	1.890	1.909	1.899	1.909
0.005	0.005	-0.005	0.005	-0.005	-0.005	0.029	2.671	1.895	1.895	1.895	1.904	1.895	1.904
0.000	-0.005	0.005	0.005	-0.024	0.010	0.029	2.681	1.890	1.895	1.890	1.909	1.890	1.904
0.010	0.005	-0.005	0.000	-0.034	-0.005	0.029	2.676	1.895	1.899	1.890	1.909	1.890	1.890
0.000	0.005	0.000	0.005	-0.029	0.000	0.029	2.671	1.885	1.895	1.895	1.909	1.899	1.899
0.000	0.010	0.000	0.010	-0.020	-0.005	0.029	2.671	1.890	1.895	1.890	1.909	1.904	1.899
0.005	0.000	-0.005	0.000	-0.005	0.000	0.029	2.676	1.890	1.890	1.890	1.909	1.909	1.904
0.000	-0.005	0.000	0.000	0.010	0.020	0.029	2.681	1.890	1.890	1.890	1.909	1.909	1.909
0.000	0.010	-0.005	0.000	0.005	0.024	0.029	2.681	1.890	1.890	1.890	1.909	1.909	1.914
-0.005	0.010	0.000	0.000	0.015	0.020	0.029	2.676	1.895	1.890	1.890	1.909	1.909	1.909
0.000	0.005	0.000	0.005	-0.005	-0.005	0.029	2.676	1.895	1.890	1.890	1.909	1.904	1.904
-0.005	-0.005	0.005	0.000	-0.010	0.005	0.029	2.686	1.895	1.885	1.890	1.909	1.899	1.899
-0.005	0.000	0.005	0.000	-0.020	0.005	0.029	2.681	1.890	1.890	1.890	1.909	1.899	1.904
0.000	0.015	0.000	0.005	-0.020	0.000	0.024	2.686	1.895	1.890	1.890	1.909	1.899	1.899
0.010	-0.005	0.005	0.005	-0.020	-0.010	0.029	2.686	1.890	1.890	1.890	1.904	1.899	1.895
0.005	0.000	0.000	0.000	-0.010	0.005	0.029	2.671	1.890	1.885	1.885	1.904	1.904	1.904
0.000	0.010	0.000	0.005	-0.005	0.000	0.029	2.676	1.890	1.890	1.885	1.904	1.904	1.904
-0.005	-0.005	0.000	0.000	0.000	0.000	0.029	2.676	1.890	1.885	1.885	1.904	1.904	1.904
-0.005	0.010	0.000	-0.005	0.015	-0.005	0.024	2.690	1.895	1.890	1.885	1.904	1.909	1.899
0.000	0.015	0.000	0.000	0.000	0.005	0.029	2.676	1.890	1.890	1.885	1.904	1.899	1.904
0.000	0.000	-0.005	0.000	-0.005	0.000	0.029	2.671	1.890	1.890	1.885	1.904	1.899	1.904
0.000	-0.005	0.000	0.000	-0.005	-0.005	0.029	2.666	1.890	1.890	1.885	1.904	1.899	1.904
0.000	-0.010	0.000	0.000	-0.005	0.000	0.029	2.681	1.890	1.885	1.885	1.904	1.899	1.904
0.000	0.000	0.000	0.000	-0.015	-0.010	0.029	2.676	1.890	1.890	1.885	1.909	1.899	1.899
0.000	-0.010	0.005	0.000	0.005	-0.005	0.029	2.671	1.890	1.885	1.890	1.904	1.904	1.899
-0.005	-0.005	0.000	-0.005	0.010	0.010	0.029	2.690	1.890	1.890	1.885	1.904	1.904	1.904
-0.010	0.000	0.000	0.000	0.000	0.000	0.029	2.681	1.890	1.890	1.885	1.904	1.904	1.899
0.005	-0.005	0.005	0.005	0.005	-0.005	0.029	2.754	1.904	1.890	1.890	1.909	1.904	1.904
0.000	0.005	0.000	0.005	0.020	0.000	0.029	2.651	1.895	1.890	1.890	1.904	1.909	1.904
-0.005	-0.010	0.000	0.000	0.020	0.005	0.029	2.676	1.899	1.890	1.885	1.904	1.904	1.904
0.000	-0.010	0.005	0.005	0.005	0.015	0.029	2.705	1.899	1.890	1.890	1.909	1.899	1.904
0.010	-0.005	0.000	0.000	0.005	0.015	0.029	2.695	1.899	1.895	1.890	1.904	1.899	1.904
0.005	-0.005	0.005	0.000	0.010	0.000	0.029	2.676	1.895	1.895	1.890	1.904	1.899	1.899
-0.005	0.005	0.000	0.005	0.000	-0.010	0.029	2.676	1.890	1.895	1.890	1.904	1.899	1.895
0.000	0.020	-0.005	0.000	-0.005	-0.024	0.029	2.671	1.890	1.899	1.895	1.904	1.899	1.895
0.000	0.010	0.000	0.000	0.010	-0.015	0.029	2.686	1.890	1.890	1.890	1.909	1.904	1.895
0.000	0.010	0.000	0.000	0.000	-0.020	0.029	2.676	1.890	1.890	1.890	1.909	1.899	1.895
0.000	0.000	0.000	0.000	-0.005	-0.005	0.029	2.681	1.890	1.885	1.890	1.909	1.899	1.899
-0.005	0.000	0.005	0.000	0.005	-0.010	0.029	2.695	1.890	1.885	1.890	1.909	1.904	1.904
0.000	-0.005	0.000	0.005	0.015	0.005	0.029	2.676	1.890	1.885	1.885	1.909	1.909	1.904
0.000	-0.010	0.000	0.005	0.029	0.015	0.029	2.690	1.895	1.885	1.890	1.909	1.909	1.909
-0.005	-0.015	0.000	0.000	0.015	0.000	0.029	2.681	1.890	1.885	1.885	1.904	1.904	1.904
0.000	-0.015	-0.005	0.000	0.000	0.010	0.029	2.681	1.895	1.885	1.885	1.904	1.899	1.909
0.000	0.005	-0.005	0.005	-0.020	0.005	0.029	2.661	1.890	1.890	1.885	1.904	1.895	1.899
0.000	0.000	0.005	0.000	-0.024	0.010	0.024	2.681	1.890	1.890	1.890	1.904	1.895	1.899
0.005	-0.005	0.000	0.000	-0.029	0.000	0.029	2.686	1.895	1.890	1.890	1.904	1.895	1.895
0.010	0.000	0.005	0.000	-0.015	0.000	0.029	2.681	1.895	1.890	1.890	1.904	1.899	1.895
0.005	0.000	0.000	0.005	0.020	-0.005	0.029	2.681	1.885	1.890	1.885	1.904	1.909	1.895
-0.005	0.010	0.000	0.000	0.015	0.010	0.024	2.676	1.890	1.890	1.885	1.904	1.904	1.904
0.005	0.000	0.000	0.000	0.010	0.010	0.029	2.681	1.890	1.885	1.885	1.904	1.904	1.904
-0.005	0.010	0.005	0.000	0.010	0.010	0.029	2.686	1.890	1.890	1.890	1.904	1.904	1.904
0.000	0.010	0.000	-0.005	-0.005	-0.020	0.029	2.671	1.890	1.885	1.885	1.904	1.895	1.895
0.000	0.000	0.000	0.000	0.005	0.000	0.029	2.671	1.890	1.890	1.890	1.904	1.899	1.904
-0.005	0.010	-0.005	0.000	0.015	0.010	0.024	2.681	1.890	1.890	1.890	1.904	1.904	1.904
0.000	0.005	0.000	0.000	0.015	0.005	0.024	2.700	1.895	1.890	1.885	1.909	1.904	1.904
-0.005	0.010	0.000	0.000	0.020	-0.005	0.029	2.676	1.890	1.890	1.890	1.909	1.899	1.899
-0.005	0.005	0.000	0.000	0.000	0.000	0.024	2.666	1.890	1.890	1.890	1.904	1.899	1.899
-0.010	-0.005	0.000	0.000	-0.005	0.010	0.029	2.686	1.890	1.890	1.890	1.909	1.899	1.904
-0.010	0.000	0.000	0.000	-0.005	0.015	0.029	2.681	1.890	1.890	1.885	1.904	1.899	1.904
-0.005	0.000	0.000	0.000	-0.005	0.000	0.029	2.671	1.890	1.890	1.885	1.904	1.899	1.899
0.005	0.010	0.000	0.005	-0.010	-0.010	0.029	2.671	1.895	1.890	1.890	1.909	1.895	1.895
0.005	0.015	0.000	0.000	-0.005	0.010	0.024	2.681	1.895	1.895	1.890	1.909	1.899	1.904
0.000	0.010	0.000	0.005	0.010	-0.015	0.029	2.676	1.890	1.890	1.890	1.904	1.904	1.895
0.000	0.000	0.005	0.005	0.010	-0.010	0.029	2.686	1.890	1.885	1.890	1.909	1.904	1.899
0.000	0.005	0.000	0.000	0.000	-0.010	0.029	2.671	1.885	1.885	1.885	1.904	1.899	1.899
0.010	0.005	0.005	0.000	-0.005	-0.010	0.029	2.681	1.890	1.885	1.885	1.904	1.899	1.895
0.005	-0.005	0.000	0.000	-0.005	-0.005	0.029	2.671	1.885	1.885	1.885	1.904	1.899	1.899
0.005	-0.005	0.000	0.000	0.000	0.005	0.029	2.695	1.890	1.885	1.885	1.904	1.899	1.899
0.005	-0.005	0.000	0.005	0.000	0.010	0.029	2.686	1.890	1.885	1.885	1.899	1.899	1.904
0.000	0.000	0.000	0.000	-0.010	0.000	0.024	2.676	1.890	1.890	1.885	1.899	1.895	1.899
-0.005	0.010	0.000	0.000	-0.010	0.015	0.029	2.700	1.890	1.890	1.885	1.904	1.899	1.899
0.005	-0.005	0.000	0.000	-0.005	0.010	0.029	2.700	1.895	1.885	1.885	1.904	1.895	1.899
0.000	-0.010	0.000	0.000	-0.015	0.005	0.029	2.666	1.890	1.890	1.885	1.904	1.899	1.899
0.010	0.000	-0.005	0.000	0.000	-0.010	0.029	2.686	1.895	1.890	1.885	1.904	1.904	1.895
0.000	0.000	0.000	0.005	0.015	-0.015	0.029	2.686	1.890	1.890	1.890	1.909	1.904	1.895
0.000	0.010	0.000	0.005	0.024	0.000	0.029	2.671	1.890	1.895	1.890	1.909	1.909	1.904
0.000	0.005	0.000	0.005	0.015	0.000	0.029	2.666	1.890	1.890	1.890	1.904	1.904	1.904
-0.005	0.000	0.000	0.005	0.005	0.010	0.029	2.676	1.885	1.885	1.890	1.904	1.899	1.904
0.005	-0.005	0.000	0.000	-0.010	0.000	0.029	2.690	1.890	1.885	1.885	1.904	1.895	1.899
0.005	0.005	0.000	0.000	-0.015	0.000	0.029	2.671	1.890	1.890	1.885	1.904	1.895	1.895
0.005	-0.015	0.000	0.000	-0.024	-0.024	0.029	2.646	1.885	1.885	1.885	1.904	1.890	1.890
0.005	-0.005	0.000	0.000	-0.024	0.010	0.029	2.651	1.880	1.880	1.880	1.904	1.895	1.899
0.010	-0.010	0.005	0.000	-0.024	0.020	0.029	2.681	1.885	1.885	1.885	1.904	1.895	1.899
0.000	-0.010	0.000	0.000	-0.015	0.024	0.029	2.783	1.895	1.885	1.880	1.899	1.899	1.899
0.000	0.000	0.000	0.000	0.015	0.015	0.029	2.725	1.899	1.890	1.885	1.904	1.904	1.899
0.000	0.005	0.005	0.000	0.034	0.024	0.029	2.646	1.895	1.895	1.890	1.899	1.909	1.909
0.005	0.005	0.000	0.005	0.034	-0.010	0.029	2.729	1.895	1.895	1.890	1.904	1.904	1.899
-0.005	0.005	0.000	0.000	0.020	0.010	0.029	2.642	1.899	1.895	1.890	1.904	1.904	1.904
0.000	0.000	0.000	0.000	0.015	0.000	0.029	2.739	1.904	1.895	1.890	1.904	1.899	1.899
0.005	0.010	0.000	-0.005	0.005	-0.010	0.029	2.725	1.909	1.904	1.895	1.909	1.899	1.895
-0.005	0.005	0.000	0.000	-0.005	-0.010	0.024	2.642	1.895	1.899	1.890	1.909	1.899	1.895
0.000	0.005	0.000	0.000	0.000	-0.034	0.024	2.729	1.899	1.895	1.895	1.909	1.899	1.890
-0.005	-0.005	0.000	-0.005	0.010	-0.010	0.029	2.671	1.895	1.895	1.895	1.909	1.904	1.899
-0.005	-0.005	0.005	0.000	-0.005	-0.015	0.029	2.627	1.899	1.895	1.895	1.909	1.904	1.899
0.005	-0.005	0.005	-0.005	0.010	-0.010	0.024	2.671	1.895	1.890	1.890	1.909	1.904	1.904
0.000	-0.005	0.000	0.000	0.010	0.000	0.029	2.778	1.899	1.890	1.890	1.914	1.904	1.909
0.000	0.000	0.005	0.000	0.020	-0.005	0.029	2.656	1.895	1.895	1.890	1.909	1.909	1.909
0.005	0.000	0.000	0.000	0.034	0.000	0.029	2.681	1.895	1.895	1.890	1.909	1.914	1.909
0.005	0.010	0.005	0.000	0.029	0.005	0.029	2.778	1.904	1.895	1.890	1.914	1.909	1.904
0.000	0.005	0.005	0.000	0.005	-0.015	0.029	2.642	1.899	1.895	1.890	1.909	1.899	1.899
-0.005	0.000	0.000	0.000	0.000	0.015	0.029	2.725	1.899	1.890	1.890	1.914	1.899	1.909
0.005	-0.005	0.000	0.005	-0.020	0.005	0.029	2.715	1.904	1.895	1.890	1.909	1.899	1.899
0.000	0.000	0.000	0.000	-0.005	0.000	0.029	2.656	1.895	1.895	1.895	1.909	1.904	1.904
-0.005	0.010	0.000	0.000	0.015	0.005	0.029	2.725	1.899	1.895	1.895	1.914	1.909	1.904
0.005	0.010	0.000	0.005	0.010	-0.005	0.029	2.715	1.904	1.899	1.895	1.909	1.909	1.904
0.000	0.005	0.005	0.005	0.000	-0.010	0.029	2.671	1.899	1.895	1.895	1.914	1.904	1.899
-0.005	0.005	0.000	0.005	0.015	0.015	0.029	2.646	1.899	1.895	1.895	1.914	1.909	1.914
-0.005	0.000	0.000	0.000	0.005	0.000	0.029	2.690	1.899	1.895	1.895	1.914	1.909	1.904
-0.005	0.000	0.000	0.005	0.005	0.000	0.029	2.715	1.899	1.899	1.895	1.914	1.909	1.904
-0.010	0.005	0.000	0.005	-0.010	0.010	0.029	2.686	1.899	1.899	1.890	1.914	1.904	1.909
0.005	0.005	0.000	0.010	-0.010	-0.005	0.029	2.607	1.890	1.899	1.895	1.914	1.904	1.909
0.000	0.005	0.010	0.005	-0.020	0.015	0.029	2.676	1.890	1.895	1.895	1.914	1.904	1.904
0.000	-0.005	0.000	0.005	-0.005	0.000	0.029	2.676	1.890	1.885	1.890	1.909	1.904	1.904
0.000	0.005	0.005	0.000	0.000	0.005	0.029	2.681	1.890	1.890	1.890	1.909	1.909	1.909
0.005	0.000	0.000	0.000	-0.005	0.010	0.029	2.700	1.895	1.890	1.890	1.909	1.904	1.909
0.005	-0.005	0.005	-0.005	-0.010	0.010	0.029	2.695	1.899	1.890	1.890	1.904	1.904	1.904
0.015	0.000	0.000	0.005	0.010	-0.010	0.029	2.705	1.895	1.895	1.890	1.909	1.909	1.904
0.005	0.005	0.000	0.000	0.005	0.010	0.029	2.666	1.890	1.890	1.890	1.909	1.904	1.909
-0.005	0.005	0.000	0.005	-0.015	0.005	0.029	2.676	1.890	1.890	1.890	1.909	1.899	1.904
-0.005	0.005	-0.005	0.000	-0.015	-0.005	0.029	2.666	1.890	1.890	1.890	1.904	1.899	1.899
0.000	0.000	0.000	0.000	-0.005	0.005	0.029	2.700	1.895	1.890	1.890	1.909	1.904	1.909
0.000	0.000	0.000	0.000	0.010	0.000	0.029	2.690	1.899	1.890	1.890	1.909	1.909	1.909
0.000	0.000	0.000	0.000	0.005	-0.005	0.029	2.681	1.895	1.895	1.890	1.909	1.904	1.904
-0.010	0.005	0.000	0.000	-0.010	-0.005	0.029	2.681	1.895	1.895	1.890	1.909	1.899	1.904
0.000	0.000	0.005	0.000	-0.015	-0.005	0.029	2.671	1.899	1.895	1.890	1.909	1.899	1.899
0.000	-0.005	-0.005	0.000	-0.010	0.020	0.024	2.671	1.895	1.890	1.890	1.909	1.904	1.909
0.000	-0.005	0.000	0.005	-0.015	0.000	0.029	2.666	1.885	1.890	1.890	1.909	1.904	1.904
-0.005	0.000	0.000	0.000	0.000	0.010	0.029	2.705	1.890	1.890	1.890	1.909	1.904	1.904
0.010	0.000	0.005	0.000	-0.005	0.010	0.029	2.676	1.895	1.890	1.890	1.909	1.904	1.904
0.000	0.005	0.010	0.000	-0.010	0.020	0.029	2.671	1.890	1.890	1.890	1.909	1.904	1.909
0.000	-0.010	0.000	0.000	-0.005	0.010	0.029	2.700	1.895	1.885	1.885	1.909	1.904	1.904
-0.005	0.000	0.005	0.000	0.000	-0.015	0.024	2.666	1.890	1.890	1.885	1.909	1.899	1.895
0.000	0.005	0.000	-0.005	-0.005	-0.005	0.024	2.690	1.890	1.890	1.885	1.904	1.899	1.899
0.000	0.000	0.000	0.000	0.005	-0.034	0.029	2.681	1.890	1.890	1.885	1.904	1.904	1.895
0.005	0.000	0.000	-0.005	0.024	0.000	0.029	2.695	1.895	1.890	1.885	1.909	1.909	1.909
0.000	0.005	0.000	0.000	0.015	-0.020	0.024	2.646	1.890	1.890	1.885	1.909	1.904	1.899
0.005	-0.005	0.000	0.005	0.010	0.005	0.029	2.651	1.880	1.885	1.885	1.904	1.899	1.909
-0.005	0.010	0.000	0.000	0.015	-0.010	0.029	2.686	1.885	1.885	1.890	1.904	1.904	1.904
-0.010	0.005	0.000	0.000	0.010	-0.010	0.029	2.778	1.899	1.890	1.885	1.904	1.904	1.899
-0.010	0.000	0.000	0.005	-0.005	0.024	0.029	2.642	1.895	1.890	1.885	1.904	1.899	1.909
-0.005	0.000	0.000	0.000	0.010	0.010	0.029	2.651	1.890	1.885	1.885	1.904	1.904	1.904
0.000	0.000	-0.005	0.000	0.024	0.015	0.029	2.622	1.885	1.885	1.885	1.904	1.904	1.909
-0.010	0.005	0.000	0.005	0.015	0.020	0.029	2.666	1.885	1.890	1.885	1.904	1.904	1.904
0.000	0.015	0.000	0.000	0.010	0.010	0.029	2.651	1.890	1.890	1.885	1.904	1.899	1.899
0.005	0.015	-0.005	0.005	0.000	0.005	0.029	2.729	1.895	1.890	1.885	1.904	1.899	1.899
0.005	0.010	0.000	0.000	-0.020	0.000	0.029	2.666	1.890	1.890	1.885	1.904	1.890	1.895
0.000	0.000	0.000	0.010	0.000	0.000	0.029	2.715	1.890	1.885	1.885	1.904	1.899	1.895
0.005	-0.005	0.005	0.005	0.010	-0.010	0.029	2.690	1.895	1.890	1.885	1.904	1.904	1.895
-0.005	0.005	0.005	0.005	0.000	-0.010	0.029	2.720	1.895	1.890	1.890	1.904	1.899	1.899
0.015	0.000	0.000	0.005	-0.015	0.005	0.029	2.690	1.899	1.890	1.890	1.904	1.895	1.899
0.000	0.005	0.000	0.000	-0.024	0.010	0.029	2.622	1.890	1.895	1.885	1.904	1.895	1.895
0.000	0.000	0.005	-0.005	-0.005	0.010	0.029	2.676	1.890	1.890	1.890	1.904	1.899	1.899
0.000	0.010	-0.005	0.005	0.034	-0.015	0.029	2.676	1.890	1.890	1.890	1.909	1.909	1.899
0.000	0.010	0.000	0.000	0.029	-0.010	0.029	2.671	1.890	1.890	1.890	1.904	1.909	1.904
-0.005	0.010	-0.005	0.000	0.000	0.005	0.029	2.671	1.885	1.890	1.885	1.904	1.895	1.904
0.000	0.010	-0.005	0.000	-0.010	0.005	0.029	2.705	1.895	1.895	1.890	1.909	1.895	1.899
0.000	-0.005	0.000	0.000	-0.005	0.000	0.029	2.705	1.890	1.890	1.890	1.904	1.899	1.899
0.005	0.000	0.000	0.000	0.000	0.000	0.029	2.676	1.895	1.890	1.890	1.904	1.899	1.899
0.005	-0.005	0.005	0.000	-0.010	0.005	0.024	2.695	1.895	1.890	1.890	1.909	1.899	1.899
0.000	0.010	0.000	0.000	0.015	0.000	0.029	2.695	1.895	1.895	1.890	1.909	1.909	1.904
0.005	0.005	0.000	0.005	0.044	0.000	0.024	2.700	1.895	1.895	1.890	1.909	1.914	1.904
0.000	0.005	0.000	0.000	0.024	-0.005	0.029	2.671	1.890	1.895	1.890	1.904	1.904	1.904
0.015	-0.005	0.005	0.000	0.005	0.000	0.029	2.686	1.895	1.895	1.890	1.904	1.899	1.904
0.000	-0.005	0.005	0.000	-0.010	-0.029	0.029	2.700	1.895	1.890	1.890	1.909	1.895	1.895
0.005	0.000	0.005	0.015	-0.015	-0.010	0.029	2.671	1.890	1.890	1.890	1.909	1.899	1.899
0.005	0.000	0.005	0.005	-0.015	-0.005	0.024	2.671	1.890	1.885	1.890	1.904	1.899	1.904
0.000	0.000	0.005	0.000	-0.010	0.010	0.024	2.681	1.890	1.885	1.885	1.909	1.899	1.904
0.000	-0.005	0.000	0.005	-0.005	0.015	0.029	2.666	1.890	1.890	1.885	1.904	1.904	1.904
0.000	-0.005	-0.005	0.000	-0.010	0.010	0.029	2.695	1.890	1.885	1.885	1.909	1.899	1.899
-0.005	-0.010	0.000	0.000	-0.015	-0.005	0.029	2.676	1.890	1.885	1.885	1.904	1.899	1.899
0.000	-0.005	0.000	0.000	-0.020	-0.010	0.029	2.695	1.895	1.890	1.885	1.904	1.899	1.895
0.000	0.000	0.000	0.000	-0.020	-0.024	0.029	2.666	1.890	1.890	1.885	1.904	1.895	1.890
-0.010	0.000	0.000	0.000	-0.044	-0.005	0.029	2.705	1.890	1.890	1.885	1.904	1.890	1.895
-0.005	0.000	0.000	0.000	-0.049	-0.005	0.029	2.690	1.895	1.895	1.890	1.909	1.895	1.895
-0.005	0.010	0.000	0.000	0.000	0.000	0.024	2.690	1.895	1.895	1.890	1.909	1.909	1.904
-0.005	0.000	0.005	0.000	0.024	-0.015	0.029	2.642	1.885	1.890	1.890	1.909	1.919	1.899
0.000	-0.015	-0.005	0.000	0.044	0.010	0.029	2.651	1.885	1.880	1.885	1.909	1.919	1.914
0.005	-0.010	0.000	0.000	0.063	0.015	0.029	2.681	1.890	1.885	1.885	1.904	1.919	1.914
-0.005	-0.015	0.005	0.000	0.034	-0.005	0.029	2.773	1.899	1.885	1.885	1.904	1.904	1.904
0.010	0.000	0.005	0.000	0.010	-0.015	0.029	2.725	1.895	1.890	1.890	1.904	1.895	1.899
0.005	-0.010	0.005	0.000	0.000	0.010	0.029	2.715	1.895	1.890	1.885	1.904	1.895	1.904
0.010	0.005	0.005	0.000	0.010	0.000	0.029	2.725	1.904	1.895	1.890	1.904	1.899	1.899
0.000	0.000	0.005	0.000	0.039	0.010	0.029	2.651	1.895	1.895	1.890	1.904	1.909	1.904
0.000	0.010	-0.005	0.000	0.034	0.000	0.029	2.642	1.890	1.899	1.890	1.904	1.904	1.899
0.010	0.015	0.000	0.005	0.020	0.015	0.029	2.617	1.895	1.899	1.890	1.909	1.904	1.904
0.000	0.015	0.000	0.005	0.015	0.015	0.029	2.671	1.895	1.895	1.895	1.909	1.899	1.904
0.000	0.010	-0.005	0.000	-0.005	0.010	0.029	2.642	1.890	1.895	1.890	1.909	1.895	1.904
0.000	0.005	-0.005	0.010	-0.015	0.000	0.029	2.681	1.890	1.890	1.890	1.909	1.895	1.895
0.000	0.000	0.000	0.000	-0.015	0.005	0.029	2.720	1.895	1.890	1.890	1.909	1.899	1.895
0.005	0.005	-0.005	0.005	-0.015	-0.010	0.029	2.671	1.895	1.890	1.890	1.909	1.895	1.890
0.000	0.000	0.005	0.000	-0.010	-0.010	0.029	2.739	1.904	1.895	1.890	1.909	1.899	1.895
0.000	0.005	0.005	0.005	-0.010	0.000	0.029	2.671	1.895	1.895	1.890	1.909	1.904	1.904
0.005	0.000	0.000	0.000	-0.005	-0.005	0.029	2.666	1.890	1.890	1.890	1.909	1.904	1.904
0.005	0.010	0.000	0.000	-0.005	0.000	0.029	2.671	1.895	1.895	1.890	1.909	1.904	1.904
0.000	0.000	0.000	0.000	0.000	0.015	0.029	2.666	1.890	1.890	1.890	1.909	1.904	1.904
0.010	0.005	0.000	0.000	0.000	0.005	0.029	2.690	1.890	1.890	1.890	1.909	1.904	1.904
0.005	0.000	0.000	0.000	0.000	0.000	0.029	2.695	1.890	1.885	1.890	1.909	1.904	1.899
0.010	0.010	0.005	0.000	-0.005	0.000	0.029	2.666	1.895	1.895	1.890	1.904	1.904	1.899
0.000	0.005	0.000	0.000	0.000	-0.005	0.029	2.681	1.890	1.890	1.890	1.909	1.904	1.899
0.000	0.010	0.000	0.000	0.005	0.010	0.029	2.705	1.890	1.890	1.885	1.909	1.904	1.904
0.005	0.005	0.005	0.010	-0.005	0.010	0.029	2.695	1.890	1.890	1.885	1.909	1.904	1.904
-0.005	0.015	0.000	0.000	0.005	0.000	0.029	2.681	1.895	1.890	1.890	1.904	1.904	1.904
-0.010	0.000	0.000	0.005	0.015	-0.020	0.029	2.671	1.885	1.890	1.885	1.904	1.904	1.895
0.000	-0.010	0.000	0.000	0.015	-0.005	0.029	2.686	1.895	1.885	1.885	1.904	1.904	1.904
-0.005	0.005	0.005	0.000	0.015	0.010	0.024	2.676	1.895	1.890	1.885	1.909	1.904	1.909
-0.005	0.000	0.000	0.000	0.005	0.010	0.029	2.676	1.890	1.890	1.890	1.904	1.899	1.909
-0.010	0.000	0.000	0.005	0.000	0.010	0.029	2.676	1.895	1.890	1.890	1.909	1.899	1.904
0.000	-0.005	0.000	0.000	-0.005	0.020	0.029	2.700	1.895	1.890	1.890	1.909	1.899	1.904
0.010	-0.015	0.000	0.000	-0.015	0.005	0.029	2.681	1.899	1.890	1.890	1.904	1.895	1.899
0.000	-0.015	0.005	0.000	-0.010	0.000	0.029	2.676	1.895	1.890	1.885	1.904	1.899	1.895
0.005	-0.010	-0.005	0.005	-0.020	-0.024	0.029	2.690	1.895	1.890	1.890	1.904	1.895	1.895
0.005	0.000	0.000	0.000	-0.024	-0.005	0.029	2.690	1.895	1.895	1.890	1.909	1.895	1.895
0.005	-0.015	0.000	0.000	-0.015	-0.020	0.029	2.700	1.890	1.890	1.890	1.904	1.899	1.895
0.005	-0.010	0.005	0.000	0.010	-0.010	0.029	2.681	1.890	1.890	1.890	1.904	1.909	1.899
0.000	-0.005	0.000	0.000	0.029	-0.005	0.029	2.681	1.885	1.890	1.890	1.904	1.909	1.904
0.010	-0.005	0.005	0.000	0.015	0.005	0.029	2.646	1.885	1.890	1.885	1.904	1.904	1.904
0.000	0.000	0.000	0.000	-0.005	0.005	0.029	2.646	1.885	1.890	1.885	1.904	1.899	1.904
-0.010	0.005	0.000	0.000	0.000	0.010	0.029	2.686	1.890	1.890	1.885	1.904	1.904	1.904
-0.015	0.005	0.000	0.000	-0.005	-0.005	0.029	2.695	1.899	1.890	1.885	1.904	1.899	1.899
0.000	0.015	0.000	0.000	-0.024	0.005	0.029	2.734	1.904	1.895	1.890	1.904	1.895	1.899
0.000	0.010	0.000	0.000	-0.024	-0.015	0.029	2.622	1.895	1.899	1.890	1.904	1.899	1.895
0.000	0.010	0.000	0.000	0.015	-0.005	0.029	2.627	1.890	1.890	1.895	1.909	1.909	1.904
-0.005	0.005	0.000	0.000	0.020	0.010	0.029	2.739	1.885	1.890	1.890	1.909	1.909	1.904
0.000	0.015	0.000	0.000	0.010	0.000	0.029	2.632	1.895	1.890	1.890	1.909	1.904	1.904
0.000	0.020	0.000	0.005	0.005	0.005	0.029	2.622	1.890	1.895	1.890	1.909	1.904	1.909
0.005	0.020	0.000	0.000	0.015	0.010	0.029	2.676	1.890	1.890	1.890	1.909	1.909	1.909
0.000	-0.005	0.005	0.005	0.020	0.005	0.029	2.739	1.895	1.885	1.890	1.909	1.909	1.904
0.000	-0.010	0.000	0.000	0.024	-0.005	0.029	2.690	1.890	1.885	1.885	1.909	1.909	1.904
0.000	-0.005	0.000	0.005	0.024	0.010	0.029	2.705	1.895	1.890	1.885	1.904	1.904	1.909
-0.005	-0.005	0.005	0.005	0.015	-0.005	0.029	2.695	1.895	1.890	1.890	1.909	1.899	1.899
0.000	0.000	0.000	0.000	0.005	0.024	0.029	2.715	1.885	1.890	1.885	1.904	1.899	1.904
0.010	-0.005	0.000	0.000	-0.015	0.005	0.029	2.671	1.890	1.885	1.885	1.904	1.895	1.895
0.000	0.000	0.005	0.000	-0.010	0.010	0.029	2.676	1.885	1.885	1.885	1.904	1.895	1.899
0.005	-0.005	0.005	0.000	-0.005	0.005	0.029	2.676	1.890	1.885	1.885	1.904	1.899	1.899
0.000	-0.020	0.010	0.000	-0.020	0.005	0.029	2.661	1.880	1.880	1.885	1.899	1.895	1.895
0.000	-0.005	-0.005	0.000	-0.020	-0.005	0.029	2.671	1.885	1.880	1.880	1.904	1.895	1.895
-0.005	-0.010	0.000	0.005	-0.010	0.000	0.029	2.710	1.895	1.890	1.880	1.904	1.899	1.899
-0.005	0.005	-0.005	0.005	0.020	-0.010	0.029	2.676	1.890	1.890	1.885	1.904	1.904	1.899
0.000	-0.010	0.000	0.005	0.029	0.005	0.029	2.695	1.895	1.890	1.885	1.904	1.909	1.904
0.005	0.000	-0.005	0.000	0.029	0.005	0.029	2.666	1.890	1.890	1.885	1.899	1.904	1.909
0.000	0.005	0.000	0.005	0.024	0.005	0.029	2.700	1.895	1.890	1.890	1.904	1.899	1.904
-0.005	0.005	0.000	0.000	0.000	0.005	0.029	2.676	1.895	1.895	1.890	1.904	1.895	1.899
0.000	0.010	0.000	0.000	-0.020	0.000	0.029	2.686	1.895	1.895	1.890	1.904	1.890	1.899
0.000	-0.005	0.005	0.000	-0.024	-0.005	0.029	2.671	1.885	1.890	1.890	1.904	1.890	1.895
-0.005	-0.005	0.005	0.005	-0.015	-0.015	0.029	2.681	1.890	1.885	1.890	1.909	1.899	1.890
-0.010	0.000	0.000	0.000	-0.010	-0.024	0.029	2.671	1.885	1.885	1.885	1.904	1.899	1.895
0.000	-0.005	0.005	0.000	-0.005	0.005	0.029	2.676	1.885	1.885	1.885	1.904	1.899	1.899
0.000	0.029	0.005	0.000	0.005	-0.005	0.029	2.661	1.885	1.895	1.885	1.909	1.904	1.899
0.000	0.020	0.000	0.000	0.005	0.005	0.029	2.666	1.880	1.890	1.885	1.904	1.904	1.904
0.005	0.020	0.000	0.005	0.010	0.005	0.029	2.671	1.880	1.885	1.885	1.904	1.904	1.904
0.005	0.000	0.000	0.005	0.010	-0.005	0.029	2.705	1.890	1.880	1.880	1.904	1.904	1.895
0.010	0.005	0.005	0.005	0.000	-0.005	0.029	2.676	1.890	1.885	1.885	1.904	1.899	1.899
0.005	0.005	0.000	0.000	-0.005	0.005	0.029	2.695	1.890	1.885	1.880	1.899	1.895	1.904
0.000	0.010	-0.005	0.000	-0.005	-0.015	0.029	2.690	1.890	1.885	1.885	1.899	1.895	1.895
0.000	-0.005	0.000	0.000	0.000	0.000	0.029	2.666	1.890	1.880	1.880	1.904	1.899	1.899
0.005	0.000	0.000	-0.005	0.000	-0.005	0.024	2.637	1.885	1.880	1.880	1.899	1.899	1.899
0.005	0.000	0.000	-0.005	0.005	-0.005	0.029	2.656	1.885	1.885	1.885	1.899	1.899	1.899
0.000	0.005	0.000	0.000	0.005	0.010	0.029	2.681	1.890	1.885	1.885	1.904	1.899	1.904
0.005	-0.015	0.000	0.000	0.010	0.005	0.029	2.764	1.895	1.885	1.880	1.904	1.904	1.899
-0.005	-0.005	0.000	0.010	0.010	-0.005	0.029	2.700	1.895	1.885	1.885	1.904	1.899	1.899
-0.005	-0.020	0.000	0.000	0.015	-0.024	0.029	2.627	1.890	1.885	1.885	1.899	1.899	1.895
0.000	-0.010	0.005	0.000	0.010	0.000	0.029	2.622	1.885	1.885	1.880	1.904	1.899	1.899
0.000	0.010	0.010	0.000	0.000	-0.020	0.029	2.637	1.875	1.890	1.880	1.904	1.895	1.895
0.010	0.010	0.005	0.000	0.000	-0.005	0.029	2.627	1.880	1.885	1.885	1.899	1.895	1.895
-0.005	0.005	0.005	0.000	-0.010	-0.005	0.029	2.622	1.870	1.880	1.880	1.899	1.890	1.899
0.005	0.005	0.000	0.005	-0.005	0.010	0.029	2.676	1.880	1.875	1.880	1.899	1.895	1.899
0.005	0.010	0.000	0.000	-0.015	0.010	0.029	2.637	1.875	1.880	1.880	1.895	1.890	1.895
0.005	0.010	0.005	0.005	-0.020	0.000	0.029	2.690	1.880	1.880	1.880	1.899	1.890	1.895
0.000	0.005	0.005	0.000	-0.024	0.024	0.029	2.715	1.890	1.880	1.880	1.899	1.890	1.895
0.005	0.010	0.000	0.000	-0.020	0.015	0.029	2.676	1.890	1.880	1.880	1.899	1.895	1.895
0.000	0.000	0.005	-0.005	0.015	0.015	0.029	2.710	1.890	1.880	1.880	1.895	1.904	1.899
0.005	0.005	0.000	0.000	0.010	0.005	0.029	2.676	1.890	1.890	1.880	1.895	1.899	1.895
-0.005	0.005	0.000	0.000	-0.005	0.000	0.029	2.676	1.885	1.885	1.880	1.895	1.895	1.895
-0.005	-0.005	-0.005	0.000	0.000	-0.020	0.029	2.666	1.885	1.880	1.880	1.899	1.890	1.885
0.005	0.005	0.000	0.005	-0.005	-0.010	0.029	2.671	1.885	1.885	1.885	1.899	1.895	1.890
0.005	0.005	-0.005	0.000	0.010	-0.010	0.029	2.681	1.890	1.885	1.885	1.899	1.899	1.895
0.000	-0.010	-0.005	0.005	0.015	-0.015	0.029	2.690	1.885	1.885	1.885	1.899	1.895	1.895
0.010	-0.005	0.000	0.005	0.015	-0.005	0.029	2.671	1.890	1.880	1.880	1.899	1.899	1.899
0.010	-0.005	0.005	0.000	0.020	0.015	0.029	2.686	1.890	1.885	1.885	1.899	1.899	1.899
0.000	0.005	0.000	0.000	0.005	0.020	0.029	2.690	1.890	1.890	1.885	1.899	1.895	1.899
-0.005	-0.020	0.005	0.005	0.005	0.015	0.029	2.686	1.890	1.880	1.880	1.899	1.895	1.895
0.005	0.000	0.000	0.000	0.000	0.000	0.029	2.676	1.890	1.890	1.880	1.899	1.895	1.890
0.015	-0.005	-0.005	0.000	0.005	0.010	0.029	2.671	1.885	1.885	1.880	1.899	1.895	1.895
0.015	-0.010	0.005	0.000	0.010	0.005	0.029	2.681	1.890	1.885	1.885	1.899	1.895	1.895
0.000	-0.010	0.005	0.005	-0.005	-0.005	0.029	2.671	1.885	1.885	1.885	1.899	1.890	1.890
0.005	0.000	0.000	0.005	-0.015	-0.005	0.029	2.671	1.885	1.885	1.885	1.904	1.890	1.890
0.000	0.005	0.000	0.005	-0.015	-0.020	0.029	2.671	1.885	1.890	1.880	1.904	1.890	1.890
0.000	0.000	-0.005	0.005	-0.005	-0.005	0.029	2.661	1.885	1.890	1.880	1.899	1.899	1.895
-0.005	0.010	-0.005	0.005	0.034	0.000	0.029	2.681	1.885	1.890	1.885	1.904	1.909	1.899
0.000	0.005	0.000	0.000	0.044	0.005	0.029	2.676	1.885	1.890	1.885	1.904	1.909	1.904
-0.005	0.005	0.005	0.005	-0.005	0.020	0.029	2.700	1.885	1.885	1.885	1.899	1.890	1.904
0.000	0.005	0.005	0.010	-0.020	0.010	0.024	2.676	1.890	1.885	1.885	1.904	1.890	1.895
0.005	0.000	0.000	0.000	-0.005	0.000	0.024	2.700	1.890	1.885	1.885	1.899	1.895	1.895
0.000	-0.010	0.000	0.005	0.015	-0.005	0.024	2.690	1.885	1.885	1.880	1.899	1.904	1.895
0.000	-0.005	0.000	0.000	0.034	-0.005	0.024	2.661	1.885	1.885	1.885	1.899	1.904	1.895
0.000	0.015	0.005	0.000	0.020	0.010	0.024	2.651	1.880	1.885	1.885	1.899	1.899	1.904
0.000	0.000	0.000	0.000	0.015	0.000	0.029	2.651	1.880	1.880	1.880	1.899	1.895	1.895
0.005	0.000	0.005	0.005	0.015	0.010	0.024	2.695	1.885	1.880	1.880	1.899	1.899	1.899
0.020	-0.010	0.000	0.000	0.015	0.005	0.029	2.646	1.885	1.880	1.880	1.899	1.895	1.895
0.000	0.015	0.000	0.005	-0.005	0.000	0.029	2.642	1.875	1.885	1.880	1.899	1.890	1.895
0.000	0.015	-0.005	0.000	-0.010	-0.005	0.024	2.749	1.875	1.880	1.880	1.899	1.890	1.895
0.000	0.015	0.000	0.000	-0.010	0.010	0.029	2.632	1.875	1.880	1.880	1.899	1.890	1.895
-0.005	0.010	0.000	0.000	-0.015	0.015	0.024	2.759	1.885	1.880	1.880	1.899	1.890	1.895
-0.010	0.005	0.000	0.000	-0.020	0.010	0.029	2.627	1.880	1.880	1.875	1.899	1.890	1.890
-0.005	0.010	0.000	0.000	-0.010	-0.010	0.024	2.749	1.890	1.885	1.875	1.899	1.895	1.885
0.000	0.015	-0.005	0.000	-0.020	0.005	0.029	2.676	1.890	1.885	1.880	1.899	1.895	1.895
-0.010	0.010	0.000	0.000	-0.020	-0.015	0.029	2.700	1.890	1.885	1.880	1.899	1.890	1.890
-0.010	0.000	-0.005	0.000	-0.024	0.000	0.029	2.676	1.890	1.885	1.880	1.899	1.895	1.890
-0.005	-0.005	0.005	0.000	-0.005	-0.005	0.029	2.720	1.895	1.885	1.880	1.899	1.895	1.895
-0.005	-0.010	0.000	0.005	0.000	0.005	0.029	2.671	1.890	1.885	1.880	1.899	1.899	1.895
0.000	-0.005	0.005	0.000	0.010	0.010	0.029	2.612	1.885	1.885	1.885	1.904	1.899	1.899
-0.005	-0.005	0.000	0.000	0.029	0.000	0.029	2.690	1.885	1.885	1.880	1.899	1.904	1.899
0.000	-0.015	0.005	0.000	0.020	-0.005	0.029	2.676	1.885	1.880	1.880	1.899	1.895	1.895
0.000	-0.029	0.005	0.005	0.024	-0.005	0.029	2.681	1.885	1.880	1.880	1.899	1.899	1.895
0.010	-0.024	0.005	0.005	0.005	-0.005	0.029	2.676	1.885	1.880	1.880	1.899	1.890	1.895
0.010	-0.020	0.000	0.000	-0.005	0.010	0.029	2.686	1.885	1.885	1.875	1.895	1.890	1.899
0.010	0.000	0.000	0.000	0.000	0.015	0.029	2.695	1.890	1.895	1.880	1.899	1.890	1.895
0.010	0.015	0.000	0.000	0.000	0.015	0.029	2.681	1.890	1.890	1.885	1.899	1.895	1.895
0.005	0.015	0.000	0.000	-0.005	0.005	0.024	2.681	1.890	1.890	1.885	1.899	1.895	1.890
0.005	0.010	0.000	0.000	-0.005	0.005	0.029	2.690	1.890	1.890	1.885	1.899	1.890	1.890
0.000	0.000	0.000	0.005	-0.020	0.005	0.029	2.710	1.895	1.885	1.885	1.904	1.890	1.890
-0.005	0.010	0.000	0.000	0.005	0.005	0.029	2.676	1.890	1.890	1.885	1.904	1.899	1.895
-0.005	0.015	-0.005	0.000	0.020	0.000	0.029	2.686	1.890	1.890	1.885	1.904	1.904	1.895
-0.005	0.010	0.000	0.005	0.005	-0.029	0.029	2.671	1.890	1.890	1.890	1.904	1.899	1.885
0.000	-0.005	0.000	0.000	-0.010	-0.010	0.029	2.671	1.885	1.885	1.885	1.904	1.895	1.895
0.000	-0.005	0.000	0.000	-0.005	0.010	0.029	2.686	1.885	1.880	1.885	1.904	1.899	1.899
-0.005	-0.005	0.005	0.000	0.005	0.020	0.029	2.666	1.885	1.880	1.885	1.904	1.904	1.899
0.000	-0.010	0.000	0.000	0.015	0.020	0.029	2.671	1.890	1.880	1.885	1.904	1.904	1.904
0.000	0.005	0.000	0.000	0.000	0.005	0.029	2.676	1.890	1.885	1.880	1.904	1.899	1.899
0.005	0.000	0.000	-0.005	0.005	0.005	0.029	2.661	1.880	1.880	1.880	1.899	1.899	1.899
0.010	0.000	0.005	-0.005	0.000	0.005	0.029	2.700	1.890	1.885	1.880	1.899	1.895	1.895
-0.005	0.000	0.005	0.000	-0.010	-0.010	0.029	2.705	1.890	1.885	1.880	1.899	1.890	1.890
0.005	0.000	0.005	0.000	-0.020	0.000	0.029	2.700	1.890	1.885	1.880	1.899	1.890	1.895
0.010	0.000	0.000	0.000	-0.024	-0.010	0.029	2.681	1.890	1.885	1.880	1.899	1.890	1.890
0.005	-0.010	0.005	0.000	0.005	-0.005	0.029	2.681	1.885	1.885	1.880	1.899	1.899	1.895
0.005	-0.005	0.000	0.000	0.024	-0.010	0.029	2.651	1.880	1.885	1.880	1.899	1.899	1.895
-0.005	0.000	0.000	0.005	0.005	-0.020	0.029	2.651	1.880	1.885	1.880	1.899	1.895	1.895
0.005	-0.005	-0.005	-0.005	0.010	-0.005	0.029	2.690	1.885	1.880	1.880	1.899	1.899	1.899
0.000	0.010	0.000	0.000	0.010	-0.010	0.029	2.642	1.895	1.885	1.880	1.899	1.899	1.899
0.000	0.000	0.000	0.000	-0.015	-0.034	0.029	2.637	1.890	1.885	1.885	1.899	1.890	1.885
-0.005	0.005	0.000	0.000	-0.005	-0.020	0.029	2.661	1.885	1.885	1.880	1.904	1.895	1.890
-0.005	0.000	-0.005	0.000	-0.005	-0.010	0.029	2.622	1.880	1.880	1.880	1.899	1.895	1.895
0.000	0.005	0.000	0.000	-0.034	0.010	0.029	2.744	1.890	1.885	1.885	1.899	1.890	1.899
-0.005	0.000	0.010	0.000	-0.015	0.020	0.029	2.622	1.880	1.885	1.885	1.904	1.895	1.899
0.010	0.015	0.005	0.005	0.010	0.000	0.029	2.739	1.890	1.890	1.885	1.904	1.904	1.895
-0.005	0.000	0.000	0.000	0.020	0.005	0.024	2.666	1.880	1.885	1.885	1.899	1.904	1.899
0.010	-0.005	0.005	0.000	0.005	0.010	0.029	2.720	1.890	1.885	1.880	1.899	1.895	1.899
0.000	0.000	0.000	0.000	0.015	0.005	0.029	2.676	1.890	1.890	1.880	1.899	1.899	1.899
0.010	0.015	0.005	0.000	0.029	0.010	0.029	2.725	1.895	1.890	1.885	1.899	1.904	1.904
0.010	0.000	0.000	0.000	0.024	0.010	0.029	2.676	1.895	1.885	1.885	1.904	1.899	1.899
-0.005	-0.005	-0.005	-0.005	0.015	0.005	0.029	2.729	1.899	1.885	1.880	1.899	1.895	1.899
0.000	-0.010	0.005	0.000	0.034	0.015	0.029	2.695	1.899	1.890	1.885	1.899	1.904	1.904
0.000	-0.010	-0.005	0.000	0.029	0.015	0.029	2.676	1.895	1.890	1.885	1.899	1.895	1.904
0.000	-0.005	0.000	0.000	0.000	0.015	0.029	2.681	1.895	1.890	1.885	1.904	1.890	1.895
-0.005	0.005	0.000	0.000	-0.010	0.015	0.029	2.695	1.890	1.895	1.890	1.904	1.890	1.895
-0.005	0.015	0.000	0.000	-0.015	0.010	0.029	2.705	1.895	1.895	1.890	1.904	1.890	1.895
-0.005	0.000	0.000	0.005	-0.015	0.010	0.029	2.695	1.890	1.890	1.890	1.909	1.899	1.895
0.005	0.005	-0.005	0.000	0.015	-0.005	0.029	2.671	1.890	1.890	1.890	1.904	1.904	1.890
0.000	-0.005	0.000	0.005	0.015	0.005	0.029	2.671	1.890	1.885	1.890	1.909	1.904	1.899
0.000	0.005	0.000	0.000	0.000	-0.015	0.029	2.661	1.885	1.885	1.890	1.904	1.899	1.895
0.005	0.010	-0.005	0.000	-0.005	0.000	0.029	2.671	1.885	1.890	1.885	1.904	1.899	1.899
0.005	0.000	0.005	0.005	-0.010	0.000	0.029	2.671	1.885	1.885	1.890	1.904	1.899	1.899
0.005	0.010	0.005	0.000	-0.010	0.005	0.029	2.690	1.890	1.890	1.885	1.904	1.899	1.899
0.000	-0.005	0.005	0.000	-0.010	0.000	0.029	2.676	1.890	1.885	1.880	1.904	1.899	1.895
0.010	0.005	0.005	0.000	-0.005	-0.015	0.029	2.676	1.885	1.885	1.885	1.904	1.899	1.895
0.000	-0.005	-0.005	0.010	-0.005	-0.010	0.029	2.671	1.880	1.880	1.880	1.904	1.899	1.895
0.005	0.000	-0.005	0.005	-0.005	-0.005	0.029	2.666	1.885	1.880	1.885	1.899	1.899	1.899
0.000	-0.005	0.000	0.000	-0.015	0.015	0.029	2.681	1.885	1.885	1.880	1.899	1.899	1.904
0.005	-0.005	0.000	0.005	-0.010	-0.005	0.029	2.661	1.885	1.880	1.880	1.899	1.895	1.895
0.010	0.000	-0.005	-0.005	0.000	-0.024	0.029	2.676	1.890	1.885	1.880	1.899	1.899	1.890
0.000	0.000	0.000	0.010	-0.005	0.010	0.029	2.695	1.885	1.885	1.880	1.899	1.899	1.904
0.000	0.005	0.000	0.000	-0.010	0.015	0.024	2.681	1.885	1.885	1.880	1.899	1.895	1.899
0.000	0.005	0.000	0.000	-0.005	0.005	0.029	2.700	1.885	1.885	1.885	1.899	1.895	1.899
0.010	0.005	0.000	0.000	0.005	-0.005	0.029	2.681	1.890	1.890	1.885	1.899	1.895	1.895
-0.010	-0.005	0.000	-0.005	-0.005	0.000	0.024	2.690	1.885	1.885	1.880	1.899	1.895	1.895
-0.005	-0.005	0.000	0.000	-0.010	-0.010	0.029	2.788	1.895	1.885	1.880	1.899	1.895	1.890
-0.005	-0.015	0.000	-0.005	-0.005	0.000	0.029	2.642	1.885	1.880	1.885	1.899	1.895	1.895
-0.005	-0.005	0.000	0.000	-0.005	0.010	0.029	2.700	1.890	1.885	1.885	1.904	1.899	1.899
-0.005	-0.010	0.005	0.000	0.000	0.010	0.029	2.700	1.899	1.885	1.885	1.904	1.899	1.899
0.005	0.005	0.005	0.000	-0.010	0.005	0.029	2.725	1.904	1.895	1.885	1.904	1.895	1.895
0.005	0.000	0.000	0.000	-0.005	0.000	0.029	2.734	1.899	1.895	1.890	1.899	1.895	1.895
0.000	0.000	-0.005	0.005	0.024	-0.015	0.029	2.710	1.899	1.895	1.890	1.904	1.904	1.890
-0.005	0.000	0.005	0.000	0.044	-0.010	0.029	2.661	1.895	1.895	1.890	1.909	1.909	1.899
-0.005	0.010	0.000	0.000	0.034	-0.005	0.024	2.632	1.885	1.895	1.890	1.909	1.904	1.899
0.005	0.000	0.000	0.000	0.024	0.005	0.029	2.729	1.895	1.895	1.890	1.909	1.904	1.904
0.005	0.000	0.000	0.000	0.000	-0.005	0.029	2.642	1.890	1.890	1.890	1.904	1.895	1.899
0.000	0.010	0.000	0.000	0.005	-0.015	0.029	2.637	1.885	1.890	1.890	1.909	1.899	1.899
0.010	0.024	0.005	0.000	0.005	0.000	0.029	2.690	1.890	1.895	1.890	1.909	1.899	1.899
0.000	0.024	0.000	0.005	0.010	0.000	0.029	2.710	1.885	1.895	1.890	1.909	1.899	1.899
-0.005	0.015	0.005	0.000	-0.005	0.000	0.029	2.695	1.890	1.890	1.890	1.904	1.899	1.899
0.000	0.010	0.000	0.005	-0.010	0.000	0.029	2.710	1.885	1.885	1.890	1.909	1.899	1.904
0.000	0.000	0.000	0.000	-0.005	0.020	0.029	2.681	1.885	1.880	1.890	1.904	1.899	1.904
0.000	0.005	0.000	0.005	-0.020	0.000	0.029	2.671	1.885	1.885	1.885	1.904	1.895	1.899
0.000	0.005	0.000	0.005	-0.010	0.015	0.029	2.666	1.885	1.885	1.885	1.904	1.899	1.904
-0.015	-0.005	0.005	0.005	-0.005	0.020	0.029	2.681	1.885	1.885	1.880	1.904	1.904	1.899
0.000	-0.010	0.005	0.000	-0.005	0.010	0.029	2.690	1.890	1.880	1.880	1.899	1.899	1.899
0.005	0.000	0.000	0.000	0.015	-0.010	0.029	2.700	1.890	1.885	1.880	1.904	1.904	1.899
0.000	0.005	0.005	0.000	0.029	0.015	0.029	2.690	1.890	1.890	1.880	1.904	1.904	1.899
0.005	-0.005	0.005	0.005	0.029	0.000	0.029	2.700	1.895	1.885	1.885	1.904	1.899	1.899
0.010	0.000	0.005	0.000	0.020	0.020	0.029	2.705	1.895	1.885	1.885	1.899	1.899	1.904
0.005	0.015	0.000	0.005	0.010	0.010	0.029	2.695	1.895	1.895	1.885	1.899	1.895	1.899
0.000	-0.020	0.005	0.000	-0.010	0.005	0.029	2.676	1.890	1.885	1.880	1.899	1.890	1.895
0.000	-0.015	0.005	0.000	-0.010	-0.005	0.029	2.681	1.890	1.885	1.885	1.899	1.895	1.890
0.005	0.005	0.005	0.000	-0.010	-0.005	0.029	2.671	1.890	1.895	1.885	1.904	1.890	1.890
0.000	0.015	0.000	0.005	-0.005	-0.005	0.029	2.671	1.885	1.895	1.890	1.904	1.895	1.890
-0.005	0.005	-0.005	-0.005	-0.005	-0.020	0.029	2.681	1.885	1.890	1.885	1.904	1.899	1.890
-0.010	0.005	-0.005	0.000	-0.005	-0.005	0.029	2.666	1.885	1.890	1.885	1.904	1.899	1.895
0.000	0.005	0.000	0.000	-0.010	0.005	0.029	2.700	1.890	1.885	1.885	1.909	1.899	1.899
-0.005	-0.020	0.005	0.000	-0.015	0.005	0.029	2.671	1.885	1.880	1.880	1.904	1.899	1.895
0.005	-0.010	0.000	0.000	-0.015	0.000	0.029	2.671	1.885	1.885	1.885	1.904	1.899	1.899
-0.005	-0.005	0.005	0.000	-0.005	-0.005	0.029	2.661	1.885	1.885	1.885	1.904	1.899	1.895
0.000	-0.005	0.010	0.000	0.000	0.000	0.029	2.666	1.885	1.885	1.885	1.904	1.899	1.899
-0.005	0.005	0.005	0.000	0.005	0.005	0.029	2.700	1.880	1.885	1.880	1.904	1.904	1.899
-0.005	-0.015	0.010	0.005	-0.005	0.005	0.029	2.686	1.885	1.880	1.880	1.899	1.899	1.899
-0.005	-0.010	0.000	0.000	-0.005	0.000	0.029	2.686	1.890	1.885	1.880	1.899	1.895	1.895
0.000	0.010	0.000	-0.005	-0.005	0.010	0.029	2.646	1.885	1.885	1.880	1.899	1.895	1.899
0.005	0.000	-0.005	0.005	0.015	0.015	0.029	2.651	1.885	1.880	1.880	1.899	1.899	1.904
0.000	0.005	0.000	0.000	0.020	-0.015	0.029	2.686	1.885	1.885	1.880	1.899	1.899	1.890
0.000	0.010	0.000	0.000	0.010	0.010	0.029	2.646	1.899	1.890	1.880	1.899	1.895	1.899
0.000	0.024	-0.005	0.005	0.010	0.010	0.029	2.632	1.895	1.895	1.885	1.899	1.895	1.899
0.005	0.010	-0.005	0.000	0.000	0.005	0.029	2.661	1.890	1.890	1.885	1.899	1.895	1.895
0.000	-0.005	-0.005	0.000	0.000	-0.024	0.029	2.632	1.885	1.885	1.885	1.899	1.895	1.885
-0.005	-0.005	0.000	0.000	0.000	0.005	0.029	2.744	1.890	1.885	1.885	1.904	1.895	1.899
-0.005	0.005	0.000	0.005	0.000	0.000	0.029	2.632	1.885	1.890	1.885	1.904	1.895	1.899
0.005	0.005	-0.005	0.000	-0.005	-0.005	0.029	2.612	1.880	1.885	1.885	1.904	1.895	1.895
-0.005	0.005	-0.005	0.000	-0.010	-0.015	0.029	2.666	1.880	1.885	1.885	1.899	1.895	1.890
0.000	0.005	0.000	0.000	-0.010	-0.020	0.029	2.637	1.880	1.880	1.885	1.904	1.895	1.890
-0.005	0.005	0.005	0.000	-0.010	-0.029	0.024	2.695	1.880	1.875	1.880	1.904	1.899	1.890
0.000	-0.010	0.000	0.000	0.020	0.010	0.029	2.715	1.890	1.880	1.880	1.899	1.904	1.904
0.005	0.005	0.005	0.005	0.020	0.010	0.029	2.656	1.890	1.890	1.885	1.899	1.904	1.904
0.005	0.010	0.005	0.005	0.020	0.005	0.029	2.622	1.880	1.885	1.880	1.899	1.899	1.899
0.000	0.000	0.005	0.000	0.010	0.020	0.024	2.676	1.880	1.880	1.880	1.899	1.899	1.904
0.015	0.000	0.005	0.000	0.005	0.015	0.024	2.676	1.885	1.880	1.880	1.899	1.895	1.899
0.000	-0.005	0.000	0.005	0.000	0.005	0.029	2.666	1.880	1.875	1.875	1.895	1.895	1.895
0.000	0.000	0.000	0.005	0.000	-0.010	0.029	2.676	1.885	1.880	1.880	1.899	1.890	1.890
0.000	-0.005	0.000	0.000	0.000	-0.005	0.029	2.695	1.885	1.880	1.880	1.899	1.895	1.895
0.000	0.000	0.005	0.000	-0.005	-0.005	0.029	2.705	1.885	1.880	1.880	1.895	1.890	1.890
0.000	0.000	0.000	0.000	-0.005	-0.005	0.029	2.676	1.890	1.885	1.880	1.899	1.895	1.890
-0.005	0.000	0.000	0.000	0.000	0.005	0.029	2.676	1.880	1.885	1.880	1.895	1.895	1.895
0.000	0.010	-0.005	0.000	0.005	0.010	0.029	2.676	1.890	1.885	1.880	1.899	1.895	1.899
-0.010	0.000	0.000	0.000	0.010	0.010	0.029	2.705	1.890	1.885	1.885	1.899	1.895	1.895
0.000	0.010	0.000	0.000	0.015	0.015	0.029	2.671	1.890	1.885	1.885	1.899	1.895	1.899
-0.010	0.000	0.005	0.000	0.005	0.010	0.029	2.671	1.885	1.880	1.885	1.904	1.895	1.895
0.005	0.000	0.010	0.000	0.005	0.000	0.024	2.676	1.890	1.885	1.885	1.899	1.895	1.890
0.005	-0.005	0.010	0.005	-0.005	0.010	0.029	2.671	1.885	1.880	1.880	1.899	1.895	1.895
0.005	0.005	0.000	0.000	0.000	-0.015	0.029	2.671	1.885	1.885	1.885	1.899	1.890	1.890
0.000	-0.005	0.000	0.000	-0.005	0.015	0.029	2.676	1.885	1.880	1.880	1.899	1.890	1.899
0.005	0.000	0.000	0.000	0.000	0.005	0.029	2.681	1.885	1.885	1.880	1.899	1.895	1.895
0.010	0.005	0.000	0.000	0.000	0.015	0.029	2.666	1.885	1.885	1.880	1.899	1.895	1.899
0.005	-0.005	0.000	0.000	0.005	-0.015	0.024	2.681	1.885	1.880	1.880	1.899	1.895	1.885
0.005	-0.010	0.000	0.005	0.005	-0.005	0.029	2.686	1.885	1.880	1.880	1.895	1.895	1.890
0.000	0.000	0.005	0.005	0.000	0.005	0.029	2.681	1.885	1.880	1.880	1.899	1.895	1.899
-0.010	0.005	0.000	0.005	-0.005	0.005	0.024	2.695	1.885	1.885	1.880	1.899	1.890	1.895
-0.005	0.000	0.000	0.005	0.000	0.005	0.029	2.686	1.885	1.880	1.880	1.899	1.895	1.895
0.000	0.005	0.000	0.000	0.010	0.005	0.029	2.690	1.890	1.885	1.885	1.899	1.895	1.895
-0.005	0.005	0.000	0.005	0.005	-0.005	0.029	2.637	1.880	1.885	1.885	1.899	1.895	1.895
0.000	0.005	0.005	0.000	-0.005	0.005	0.029	2.656	1.885	1.885	1.880	1.899	1.895	1.895
-0.005	0.000	0.000	0.000	-0.005	0.000	0.029	2.686	1.885	1.880	1.880	1.899	1.895	1.895
0.005	0.015	0.005	0.005	-0.005	0.000	0.029	2.646	1.904	1.890	1.885	1.904	1.895	1.895
0.005	0.005	0.000	0.005	0.000	-0.010	0.029	2.627	1.890	1.890	1.880	1.899	1.895	1.895
-0.005	0.000	0.000	0.000	0.005	0.000	0.029	2.642	1.880	1.880	1.885	1.899	1.895	1.895
0.000	-0.005	0.000	0.005	0.005	-0.005	0.029	2.612	1.875	1.880	1.885	1.899	1.895	1.895
0.015	-0.005	0.000	0.000	0.000	0.000	0.029	2.725	1.885	1.880	1.880	1.899	1.895	1.895
0.010	-0.010	0.000	0.005	0.000	-0.005	0.024	2.612	1.875	1.880	1.880	1.899	1.895	1.895
0.015	-0.005	0.005	0.000	0.000	0.005	0.029	2.729	1.890	1.880	1.880	1.899	1.895	1.899
0.000	-0.005	0.000	0.000	0.000	-0.005	0.029	2.666	1.880	1.880	1.880	1.895	1.895	1.895
0.005	0.000	0.005	0.000	0.000	-0.010	0.029	2.627	1.880	1.880	1.880	1.895	1.890	1.890
-0.005	0.005	0.005	0.005	-0.005	0.015	0.024	2.695	1.880	1.880	1.880	1.895	1.895	1.895
0.000	0.000	-0.005	0.000	0.000	-0.005	0.029	2.720	1.890	1.880	1.880	1.895	1.895	1.890
0.000	-0.005	0.000	0.005	-0.005	0.010	0.024	2.686	1.890	1.885	1.880	1.899	1.890	1.895
0.000	0.000	0.000	0.000	0.005	0.000	0.024	2.739	1.890	1.880	1.880	1.899	1.895	1.895
0.010	0.005	0.000	0.000	-0.015	-0.010	0.029	2.705	1.890	1.890	1.880	1.899	1.890	1.890
-0.010	0.010	0.000	0.005	-0.015	0.005	0.029	2.671	1.885	1.890	1.880	1.899	1.890	1.895
0.000	0.005	0.000	0.000	-0.005	0.000	0.029	2.666	1.885	1.885	1.885	1.899	1.895	1.895
-0.005	0.005	0.000	0.000	-0.005	0.005	0.029	2.661	1.885	1.885	1.885	1.899	1.895	1.895
-0.005	0.000	0.000	0.000	0.010	0.005	0.029	2.676	1.885	1.880	1.880	1.899	1.899	1.895
0.000	-0.005	0.005	0.000	0.015	0.005	0.029	2.710	1.890	1.880	1.880	1.899	1.899	1.895
-0.005	0.005	0.000	0.000	0.020	0.005	0.029	2.681	1.890	1.885	1.880	1.899	1.899	1.899
0.010	-0.005	0.005	0.005	0.024	0.000	0.029	2.666	1.890	1.885	1.880	1.899	1.899	1.899
0.000	0.000	0.010	-0.005	0.015	-0.005	0.029	2.671	1.885	1.885	1.880	1.899	1.895	1.890
0.010	0.005	0.010	0.000	0.015	-0.005	0.029	2.695	1.890	1.885	1.880	1.899	1.895	1.895
0.000	0.000	0.005	0.000	0.024	0.005	0.029	2.681	1.885	1.885	1.880	1.899	1.895	1.895
0.005	0.000	0.005	0.005	0.005	0.010	0.029	2.705	1.890	1.885	1.880	1.899	1.890	1.895
-0.005	-0.005	0.000	0.000	0.000	0.010	0.029	2.676	1.885	1.885	1.880	1.899	1.890	1.890
0.005	0.000	-0.005	0.000	0.000	-0.015	0.029	2.686	1.890	1.885	1.880	1.899	1.890	1.885
0.000	0.000	-0.005	0.000	0.010	-0.010	0.029	2.681	1.880	1.885	1.880	1.899	1.895	1.890
0.000	0.005	0.000	0.000	0.010	0.010	0.029	2.686	1.885	1.885	1.880	1.899	1.895	1.899
-0.010	0.000	-0.005	-0.005	0.010	0.005	0.029	2.681	1.885	1.885	1.880	1.899	1.895	1.895
-0.015	0.000	0.000	0.000	0.000	0.005	0.029	2.681	1.885	1.885	1.885	1.899	1.890	1.895
0.000	0.000	0.000	0.000	-0.005	0.005	0.029	2.671	1.890	1.885	1.880	1.904	1.890	1.895
0.005	0.015	0.005	0.000	-0.010	0.000	0.029	2.705	1.890	1.890	1.885	1.899	1.895	1.895
0.000	0.005	0.005	0.000	-0.010	-0.005	0.029	2.671	1.890	1.890	1.885	1.899	1.895	1.890
0.005	0.000	0.000	0.000	-0.010	0.015	0.024	2.700	1.890	1.885	1.885	1.904	1.895	1.895
0.000	-0.005	0.000	0.005	-0.020	-0.005	0.029	2.690	1.890	1.885	1.880	1.904	1.895	1.890
0.005	-0.010	0.005	-0.005	-0.005	0.005	0.029	2.666	1.885	1.880	1.880	1.899	1.899	1.899
0.005	0.000	0.000	0.000	-0.005	0.010	0.024	2.632	1.880	1.885	1.880	1.899	1.895	1.895
0.005	0.005	0.000	0.000	0.000	0.000	0.024	2.656	1.880	1.885	1.880	1.899	1.895	1.895
0.005	-0.005	0.000	0.000	-0.005	0.010	0.024	2.686	1.880	1.880	1.880	1.899	1.895	1.895
0.000	0.005	0.000	0.000	0.000	0.005	0.029	2.778	1.890	1.880	1.880	1.899	1.895	1.895
0.000	0.005	0.005	0.000	0.000	-0.005	0.024	2.729	1.895	1.885	1.880	1.899	1.895	1.890
-0.005	0.005	0.005	0.005	0.000	0.000	0.029	2.656	1.885	1.885	1.880	1.899	1.895	1.895
0.010	0.010	-0.005	0.000	0.000	-0.005	0.029	2.622	1.880	1.890	1.880	1.899	1.895	1.895
0.005	0.010	-0.005	0.000	0.000	-0.005	0.029	2.656	1.880	1.885	1.880	1.899	1.895	1.895
0.005	0.000	0.005	-0.005	0.000	0.000	0.029	2.705	1.890	1.880	1.885	1.899	1.895	1.895
0.000	0.000	0.005	0.000	0.005	-0.015	0.029	2.744	1.895	1.885	1.885	1.904	1.895	1.895
-0.005	0.015	0.000	0.000	0.000	0.005	0.029	2.676	1.890	1.890	1.885	1.899	1.895	1.899
-0.005	-0.015	0.000	0.005	0.000	0.005	0.029	2.725	1.895	1.885	1.885	1.899	1.895	1.899
0.005	-0.010	0.000	0.005	0.000	0.005	0.029	2.695	1.895	1.885	1.885	1.899	1.899	1.899
0.000	-0.005	0.000	0.000	0.000	0.005	0.029	2.720	1.899	1.890	1.885	1.899	1.895	1.895
0.000	0.000	0.000	0.005	0.010	0.005	0.029	2.695	1.895	1.890	1.885	1.904	1.899	1.899
0.000	0.000	0.000	0.010	0.005	0.005	0.029	2.642	1.885	1.890	1.885	1.904	1.899	1.899
0.000	0.000	0.005	0.000	0.005	0.005	0.024	2.690	1.885	1.890	1.885	1.904	1.899	1.899
0.000	0.000	0.005	0.000	0.005	-0.005	0.029	2.681	1.890	1.890	1.885	1.904	1.899	1.895
-0.005	0.010	0.005	0.000	0.005	-0.010	0.029	2.676	1.885	1.890	1.885	1.904	1.895	1.895
0.005	0.005	0.005	0.005	0.000	-0.005	0.029	2.705	1.890	1.885	1.890	1.904	1.899	1.895
0.010	0.010	0.005	0.005	0.005	0.000	0.029	2.695	1.895	1.890	1.885	1.909	1.899	1.895
0.000	0.000	0.005	0.005	0.000	0.010	0.029	2.700	1.895	1.885	1.885	1.904	1.899	1.904
0.000	0.010	0.000	0.000	-0.005	0.005	0.029	2.676	1.890	1.890	1.885	1.904	1.895	1.899
-0.005	-0.005	0.000	0.000	-0.005	0.000	0.029	2.700	1.890	1.885	1.885	1.904	1.899	1.899
0.000	0.005	0.000	0.000	0.010	0.005	0.029	2.695	1.895	1.890	1.885	1.904	1.899	1.899
-0.005	0.000	0.000	0.000	0.000	0.010	0.029	2.710	1.895	1.890	1.885	1.904	1.899	1.899
0.005	0.010	-0.005	0.000	0.000	0.000	0.029	2.671	1.890	1.890	1.890	1.904	1.899	1.895
-0.005	-0.005	-0.005	0.000	0.005	0.005	0.029	2.690	1.890	1.890	1.885	1.904	1.899	1.899
0.000	-0.005	-0.005	0.000	0.005	-0.020	0.029	2.676	1.895	1.890	1.885	1.904	1.895	1.895
-0.015	0.000	0.000	0.000	0.005	0.010	0.029	2.681	1.885	1.890	1.890	1.904	1.899	1.899
0.000	0.000	0.005	0.000	0.000	0.005	0.029	2.681	1.890	1.890	1.890	1.904	1.899	1.899
-0.005	0.000	0.005	0.000	0.000	0.005	0.029	2.671	1.885	1.890	1.885	1.904	1.899	1.899
-0.005	0.000	0.000	0.005	-0.005	-0.005	0.029	2.676	1.885	1.885	1.885	1.904	1.899	1.895
-0.005	-0.010	0.005	0.005	0.000	-0.015	0.029	2.666	1.885	1.885	1.880	1.904	1.899	1.895
0.005	0.005	0.005	0.000	0.000	0.010	0.029	2.676	1.890	1.890	1.885	1.904	1.899	1.899
0.015	0.000	0.010	0.000	0.005	0.010	0.029	2.695	1.890	1.890	1.885	1.904	1.904	1.899
0.010	0.000	0.005	0.000	0.000	0.005	0.029	2.686	1.890	1.890	1.885	1.904	1.899	1.899
0.010	-0.005	0.000	0.000	0.000	0.000	0.029	2.695	1.890	1.890	1.885	1.899	1.899	1.895
0.029	-0.005	-0.005	0.000	0.000	0.000	0.029	2.676	1.895	1.890	1.885	1.899	1.899	1.899
0.034	0.000	-0.010	0.000	-0.005	-0.010	0.029	2.690	1.895	1.890	1.885	1.904	1.895	1.890
0.024	0.000	0.000	0.000	0.005	-0.024	0.029	2.637	1.885	1.890	1.890	1.904	1.899	1.890
0.000	0.005	0.000	0.000	0.005	0.000	0.029	2.656	1.880	1.890	1.890	1.904	1.899	1.899
-0.010	0.010	0.005	0.000	0.005	0.005	0.029	2.690	1.875	1.885	1.890	1.904	1.899	1.899
-0.015	0.005	0.000	0.005	0.000	0.000	0.029	2.651	1.875	1.880	1.885	1.904	1.899	1.899
-0.020	0.000	-0.005	0.005	-0.005	0.005	0.024	2.642	1.875	1.880	1.880	1.904	1.899	1.899
-0.024	-0.005	-0.010	0.000	0.000	0.000	0.029	2.705	1.875	1.875	1.880	1.899	1.899	1.899
-0.020	0.005	0.000	0.005	0.000	-0.005	0.024	2.627	1.875	1.875	1.880	1.899	1.899	1.899
-0.005	0.005	0.000	0.000	0.000	0.005	0.029	2.725	1.885	1.875	1.880	1.899	1.899	1.899
0.005	0.010	0.000	0.000	0.005	-0.010	0.029	2.632	1.890	1.880	1.880	1.899	1.895	1.895
0.015	0.000	0.000	0.000	0.005	0.010	0.029	2.729	1.904	1.885	1.880	1.899	1.895	1.899
0.039	0.000	0.000	0.005	0.000	-0.005	0.024	2.681	1.904	1.890	1.880	1.899	1.895	1.890
0.034	-0.005	0.010	0.005	0.000	-0.010	0.029	2.744	1.904	1.895	1.885	1.899	1.895	1.890
0.068	0.005	0.000	0.005	0.000	-0.005	0.029	2.695	1.909	1.899	1.885	1.899	1.895	1.890
0.034	-0.005	0.005	0.005	0.000	0.000	0.029	2.705	1.895	1.895	1.890	1.899	1.895	1.899
0.000	0.000	0.000	0.005	-0.005	0.010	0.029	2.700	1.875	1.890	1.890	1.904	1.895	1.899
-0.039	0.005	0.000	-0.005	0.005	0.010	0.024	2.734	1.875	1.880	1.885	1.899	1.895	1.899
-0.068	0.005	0.005	-0.005	-0.005	0.010	0.029	2.681	1.875	1.880	1.880	1.899	1.899	1.899
-0.078	-0.005	0.005	-0.005	0.005	0.000	0.024	2.681	1.875	1.875	1.880	1.899	1.895	1.895
-0.078	0.000	0.000	0.000	0.005	0.005	0.029	2.666	1.875	1.875	1.880	1.899	1.895	1.895
-0.049	0.000	0.005	0.000	0.005	-0.005	0.029	2.681	1.890	1.885	1.880	1.899	1.899	1.895
-0.034	-0.005	0.000	0.000	0.000	-0.005	0.029	2.705	1.895	1.885	1.880	1.899	1.895	1.895
-0.015	0.000	0.005	0.000	-0.005	0.005	0.029	2.700	1.899	1.890	1.885	1.899	1.895	1.895
-0.015	-0.005	0.000	0.005	0.000	-0.005	0.029	2.671	1.895	1.890	1.885	1.899	1.895	1.895
-0.005	0.005	0.000	0.005	-0.005	0.000	0.029	2.676	1.899	1.895	1.885	1.899	1.895	1.895
0.005	0.005	0.000	0.000	0.005	0.010	0.029	2.695	1.904	1.899	1.890	1.904	1.899	1.899
0.015	0.010	0.005	0.005	0.000	0.005	0.029	2.681	1.899	1.899	1.890	1.904	1.899	1.895
0.034	0.010	0.000	0.000	0.000	0.000	0.029	2.676	1.895	1.895	1.890	1.904	1.899	1.895
0.024	-0.005	0.000	-0.005	0.005	0.015	0.029	2.671	1.895	1.890	1.890	1.904	1.899	1.899
0.020	-0.010	0.000	-0.005	0.000	0.010	0.029	2.666	1.885	1.890	1.890	1.904	1.899	1.895
0.029	0.005	0.000	0.000	0.005	0.000	0.029	2.671	1.890	1.890	1.890	1.909	1.899	1.895
0.015	-0.005	0.005	0.005	0.000	-0.010	0.029	2.676	1.875	1.885	1.890	1.909	1.899	1.895
0.039	-0.020	0.005	0.005	-0.005	0.005	0.029	2.661	1.885	1.880	1.890	1.904	1.899	1.904
0.044	-0.015	0.005	0.015	-0.005	0.010	0.029	2.695	1.895	1.885	1.890	1.909	1.899	1.899
0.034	-0.005	0.005	0.010	0.000	0.000	0.029	2.671	1.885	1.890	1.885	1.904	1.904	1.899
0.020	0.000	0.000	0.000	0.000	0.000	0.024	2.676	1.880	1.885	1.885	1.904	1.899	1.899
-0.005	0.010	-0.005	-0.005	0.000	0.005	0.029	2.695	1.890	1.890	1.880	1.899	1.899	1.899
-0.020	0.000	0.000	-0.005	0.000	0.000	0.024	2.666	1.880	1.885	1.885	1.899	1.899	1.895
-0.029	0.010	-0.005	-0.005	0.000	0.000	0.024	2.700	1.880	1.885	1.885	1.899	1.899	1.904
-0.029	0.010	0.000	0.000	0.000	0.000	0.029	2.695	1.885	1.885	1.880	1.904	1.899	1.899
-0.020	0.010	0.000	0.000	0.000	0.005	0.029	2.681	1.890	1.885	1.885	1.904	1.899	1.904
-0.005	0.005	0.010	0.005	0.000	0.005	0.029	2.651	1.895	1.890	1.885	1.904	1.899	1.899
0.005	0.010	0.005	0.010	0.005	0.005	0.029	2.646	1.890	1.890	1.885	1.904	1.899	1.904
0.015	0.015	0.005	0.005	0.000	0.005	0.029	2.681	1.890	1.895	1.885	1.904	1.899	1.899
0.010	0.015	0.000	0.000	-0.005	-0.005	0.029	2.637	1.890	1.885	1.885	1.899	1.899	1.895
0.005	0.015	-0.005	0.005	-0.005	-0.005	0.029	2.632	1.875	1.885	1.885	1.899	1.895	1.895
0.015	0.000	-0.005	0.005	-0.005	0.010	0.029	2.637	1.875	1.880	1.885	1.899	1.899	1.904
0.020	-0.010	0.000	0.000	0.000	0.010	0.029	2.607	1.875	1.875	1.880	1.899	1.895	1.899
0.000	-0.005	0.005	-0.005	0.000	-0.005	0.029	2.729	1.880	1.875	1.880	1.899	1.895	1.890
-0.010	0.005	0.005	-0.010	0.005	0.000	0.029	2.632	1.875	1.875	1.875	1.895	1.895	1.895
-0.005	-0.005	0.005	-0.005	0.005	-0.005	0.029	2.632	1.875	1.875	1.875	1.895	1.895	1.890
-0.005	0.005	0.010	0.000	0.000	0.010	0.024	2.676	1.875	1.875	1.875	1.895	1.895	1.899
-0.010	-0.005	0.000	0.010	0.005	0.000	0.029	2.656	1.875	1.875	1.875	1.899	1.895	1.895
0.020	0.000	0.000	0.010	0.005	0.000	0.029	2.690	1.895	1.880	1.875	1.895	1.895	1.895
0.039	0.005	-0.005	0.010	0.015	-0.005	0.024	2.725	1.899	1.885	1.875	1.895	1.895	1.895
0.029	0.000	-0.005	0.005	0.010	-0.015	0.029	2.690	1.895	1.885	1.875	1.895	1.895	1.890
0.010	-0.010	-0.010	0.005	0.010	-0.005	0.029	2.729	1.895	1.885	1.880	1.895	1.890	1.895
0.005	-0.005	-0.005	0.010	0.010	0.000	0.029	2.661	1.890	1.890	1.880	1.899	1.895	1.895
-0.015	0.000	0.005	0.000	0.010	0.000	0.029	2.676	1.885	1.885	1.885	1.899	1.890	1.895
-0.020	0.000	0.005	0.005	0.005	-0.005	0.029	2.671	1.880	1.885	1.880	1.899	1.890	1.890
-0.020	-0.005	0.000	0.000	0.010	-0.010	0.029	2.690	1.880	1.880	1.880	1.899	1.890	1.890
-0.020	0.005	0.000	0.000	0.005	0.000	0.029	2.695	1.885	1.885	1.880	1.895	1.890	1.890
-0.010	0.005	0.000	-0.010	0.005	-0.005	0.029	2.695	1.885	1.885	1.880	1.895	1.890	1.890
0.005	0.000	-0.005	-0.010	0.010	-0.005	0.029	2.671	1.890	1.885	1.880	1.895	1.890	1.890
0.020	-0.005	0.000	-0.010	0.010	-0.010	0.029	2.695	1.895	1.885	1.880	1.899	1.890	1.890
0.020	0.000	0.010	-0.005	0.010	-0.005	0.029	2.686	1.895	1.890	1.885	1.899	1.890	1.890
0.015	0.005	0.005	-0.005	0.010	0.000	0.024	2.705	1.895	1.890	1.885	1.904	1.890	1.890
0.005	0.010	0.000	0.000	0.010	0.000	0.029	2.666	1.885	1.890	1.885	1.904	1.895	1.895
-0.005	-0.005	-0.005	0.005	0.010	-0.010	0.024	2.666	1.880	1.885	1.885	1.904	1.895	1.890
-0.005	0.000	0.000	0.015	0.005	0.005	0.029	2.705	1.890	1.885	1.885	1.904	1.899	1.899
-0.010	0.000	-0.005	0.010	0.005	0.000	0.029	2.671	1.885	1.885	1.885	1.904	1.895	1.895
-0.020	0.005	0.005	0.005	0.005	-0.005	0.029	2.676	1.885	1.885	1.885	1.904	1.895	1.890
-0.020	0.005	-0.005	0.010	-0.005	0.005	0.029	2.676	1.885	1.885	1.880	1.904	1.895	1.895
-0.015	0.000	-0.005	0.005	0.000	0.010	0.029	2.671	1.885	1.885	1.880	1.899	1.899	1.904
-0.015	0.010	-0.005	0.010	-0.010	-0.010	0.029	2.661	1.885	1.885	1.885	1.899	1.895	1.895
-0.005	0.024	0.000	0.005	-0.005	-0.005	0.029	2.676	1.890	1.890	1.885	1.899	1.895	1.895
0.000	0.005	0.005	0.000	-0.005	0.015	0.029	2.700	1.890	1.880	1.885	1.899	1.895	1.904
0.015	0.010	0.000	0.000	-0.005	0.015	0.029	2.666	1.895	1.890	1.885	1.899	1.895	1.899
0.010	0.010	0.000	-0.005	0.000	0.010	0.029	2.681	1.890	1.885	1.880	1.899	1.899	1.899
0.015	0.000	0.000	0.000	-0.005	0.000	0.029	2.681	1.890	1.885	1.880	1.899	1.895	1.895
0.015	-0.005	0.010	0.000	-0.010	0.005	0.029	2.700	1.890	1.885	1.885	1.899	1.895	1.895
0.005	0.005	0.000	0.000	-0.005	0.005	0.024	2.783	1.899	1.890	1.885	1.904	1.895	1.890
0.020	-0.005	0.000	0.000	-0.010	-0.005	0.029	2.646	1.890	1.885	1.885	1.904	1.895	1.890
0.010	-0.015	0.005	0.005	-0.005	0.000	0.029	2.700	1.890	1.885	1.885	1.904	1.895	1.895
0.010	-0.005	0.005	-0.005	-0.010	0.010	0.024	2.646	1.904	1.890	1.885	1.904	1.895	1.895
0.024	0.000	-0.005	-0.005	-0.010	-0.005	0.029	2.646	1.899	1.895	1.885	1.904	1.895	1.890
0.024	-0.005	-0.005	0.005	-0.010	-0.015	0.024	2.734	1.899	1.895	1.890	1.904	1.899	1.895
0.015	0.000	0.000	0.005	-0.010	0.024	0.029	2.617	1.890	1.899	1.890	1.909	1.904	1.904
0.054	-0.015	0.000	0.005	-0.010	0.015	0.029	2.720	1.895	1.890	1.890	1.909	1.899	1.899
0.044	-0.005	-0.005	0.010	-0.005	0.000	0.029	2.622	1.880	1.890	1.890	1.909	1.904	1.899
0.010	-0.005	-0.005	0.000	0.000	0.010	0.029	2.720	1.880	1.885	1.890	1.909	1.904	1.904
0.015	0.000	0.000	-0.005	-0.005	0.010	0.029	2.642	1.880	1.885	1.885	1.904	1.904	1.904
-0.020	0.000	0.005	-0.005	0.000	0.005	0.029	2.646	1.875	1.880	1.890	1.904	1.904	1.904
-0.029	0.005	0.010	-0.010	0.000	0.005	0.029	2.690	1.875	1.880	1.885	1.904	1.899	1.899
-0.049	-0.015	0.005	-0.005	0.000	0.005	0.029	2.729	1.875	1.875	1.880	1.899	1.899	1.899
-0.073	0.005	0.000	0.000	0.000	0.000	0.024	2.700	1.875	1.875	1.875	1.904	1.899	1.895
-0.073	0.000	0.000	0.000	-0.005	-0.005	0.029	2.749	1.885	1.880	1.875	1.899	1.899	1.895
-0.073	0.005	0.000	0.000	0.005	0.010	0.029	2.681	1.880	1.875	1.875	1.899	1.899	1.899
-0.044	0.000	0.005	0.005	0.005	0.010	0.024	2.681	1.890	1.885	1.875	1.899	1.899	1.899
-0.020	-0.005	0.000	0.010	-0.005	0.005	0.024	2.661	1.895	1.885	1.880	1.895	1.895	1.899
0.000	0.005	0.000	0.005	0.000	-0.015	0.029	2.676	1.904	1.895	1.885	1.899	1.895	1.890
0.059	0.000	0.005	0.000	-0.005	-0.020	0.024	2.710	1.919	1.899	1.885	1.899	1.895	1.890
0.073	0.010	0.000	0.005	0.005	0.010	0.029	2.690	1.914	1.904	1.890	1.904	1.899	1.904
0.063	0.000	0.000	0.000	0.005	-0.005	0.029	2.681	1.904	1.899	1.895	1.904	1.895	1.899
0.034	-0.005	0.000	0.000	0.005	0.000	0.029	2.700	1.895	1.899	1.895	1.904	1.899	1.899
0.034	0.010	0.000	0.000	0.005	0.010	0.029	2.690	1.895	1.904	1.895	1.909	1.899	1.904
0.020	0.005	0.005	0.000	0.000	-0.005	0.029	2.695	1.885	1.895	1.895	1.909	1.904	1.895
-0.024	0.000	0.000	0.005	0.005	0.000	0.029	2.676	1.875	1.890	1.895	1.914	1.904	1.899
-0.059	0.010	0.000	0.005	0.000	-0.010	0.029	2.686	1.870	1.885	1.890	1.914	1.904	1.895
-0.068	0.010	0.000	0.010	0.005	0.005	0.029	2.681	1.870	1.880	1.890	1.909	1.909	1.909
-0.063	0.015	-0.005	0.005	0.005	-0.010	0.029	2.695	1.880	1.880	1.885	1.909	1.904	1.895
-0.059	0.005	0.000	0.005	0.000	0.000	0.029	2.676	1.880	1.880	1.880	1.904	1.904	1.904
-0.039	0.005	0.000	0.005	0.005	-0.010	0.029	2.676	1.885	1.880	1.885	1.904	1.899	1.899
-0.024	0.000	0.005	-0.005	0.005	0.010	0.029	2.690	1.890	1.885	1.880	1.899	1.899	1.904
0.000	0.000	0.010	-0.005	0.010	0.000	0.029	2.671	1.899	1.885	1.885	1.899	1.899	1.899
0.024	-0.010	0.005	0.000	0.000	0.000	0.029	2.671	1.899	1.890	1.885	1.899	1.899	1.904
0.029	0.000	-0.005	0.005	0.005	0.005	0.029	2.671	1.895	1.890	1.885	1.904	1.895	1.904
0.029	-0.005	0.005	0.010	0.005	0.010	0.029	2.695	1.899	1.895	1.885	1.904	1.899	1.899
0.024	0.000	-0.005	0.005	0.005	0.005	0.029	2.700	1.895	1.895	1.885	1.904	1.899	1.899
0.029	0.005	0.000	0.000	0.010	0.000	0.024	2.690	1.899	1.895	1.890	1.904	1.899	1.899
0.024	0.000	0.005	0.005	0.000	-0.015	0.029	2.686	1.895	1.895	1.890	1.909	1.899	1.895
0.015	-0.005	0.000	0.000	0.000	0.010	0.024	2.646	1.885	1.890	1.890	1.904	1.899	1.904
0.015	-0.010	0.000	0.000	0.005	-0.005	0.029	2.656	1.885	1.890	1.890	1.904	1.904	1.899
0.015	-0.005	0.005	-0.005	0.005	-0.024	0.029	2.690	1.890	1.890	1.890	1.904	1.899	1.895
0.024	0.000	0.005	0.000	0.000	-0.005	0.024	2.646	1.895	1.895	1.890	1.904	1.899	1.904
0.010	-0.005	0.005	0.000	0.000	0.010	0.024	2.642	1.890	1.890	1.890	1.909	1.904	1.904
0.015	0.000	0.000	0.000	0.000	-0.005	0.029	2.646	1.895	1.890	1.885	1.904	1.904	1.899
0.010	0.010	0.000	0.000	0.005	0.005	0.029	2.720	1.899	1.890	1.890	1.909	1.904	1.904
0.015	0.000	-0.005	0.005	0.005	0.000	0.029	2.710	1.899	1.890	1.890	1.909	1.904	1.904
0.015	0.000	0.005	0.005	0.000	-0.005	0.029	2.622	1.890	1.895	1.890	1.909	1.899	1.899
0.010	-0.010	0.005	0.000	0.005	0.005	0.029	2.632	1.880	1.885	1.885	1.909	1.904	1.904
0.020	-0.005	0.000	0.000	0.005	-0.024	0.029	2.676	1.885	1.885	1.885	1.904	1.899	1.895
0.010	-0.005	0.000	0.005	0.000	0.010	0.029	2.622	1.875	1.885	1.885	1.904	1.899	1.909
0.010	0.005	0.000	0.010	0.000	0.005	0.029	2.686	1.880	1.885	1.885	1.904	1.899	1.904
0.020	0.005	0.000	0.000	0.000	-0.005	0.029	2.725	1.895	1.885	1.885	1.904	1.899	1.895
0.024	0.000	0.005	0.000	-0.005	0.005	0.029	2.808	1.895	1.890	1.885	1.904	1.899	1.904
0.000	0.005	-0.005	0.005	0.005	0.010	0.029	2.734	1.895	1.885	1.885	1.904	1.899	1.904
-0.015	-0.005	-0.005	0.000	0.005	-0.005	0.029	2.676	1.885	1.885	1.885	1.899	1.899	1.899
-0.020	-0.010	0.000	-0.005	0.000	0.005	0.029	2.681	1.885	1.885	1.885	1.899	1.899	1.904
-0.020	0.000	-0.005	-0.005	0.000	0.010	0.029	2.671	1.885	1.890	1.885	1.899	1.899	1.904
-0.039	0.010	0.000	-0.005	0.000	-0.010	0.029	2.700	1.885	1.890	1.885	1.904	1.895	1.895
-0.039	-0.005	0.000	0.000	0.000	0.000	0.029	2.671	1.880	1.885	1.885	1.904	1.899	1.899
-0.024	-0.005	0.000	-0.005	0.005	0.010	0.029	2.695	1.890	1.885	1.885	1.899	1.899	1.899
-0.020	0.000	0.000	0.005	0.005	0.000	0.029	2.666	1.890	1.890	1.885	1.904	1.899	1.899
-0.005	-0.005	0.005	0.010	0.005	0.010	0.029	2.686	1.895	1.890	1.885	1.904	1.899	1.899
0.000	-0.005	0.000	0.005	0.000	0.005	0.029	2.656	1.895	1.890	1.885	1.904	1.899	1.895
0.015	0.010	0.005	0.000	-0.005	0.010	0.029	2.671	1.895	1.895	1.890	1.899	1.899	1.899
0.015	0.020	0.005	-0.005	0.000	0.005	0.029	2.676	1.890	1.899	1.890	1.904	1.899	1.899
0.015	0.024	0.005	0.000	0.000	-0.010	0.029	2.690	1.895	1.895	1.890	1.904	1.899	1.895
0.015	0.010	-0.005	0.005	0.000	0.005	0.029	2.695	1.890	1.890	1.890	1.909	1.899	1.899
0.010	0.005	0.000	0.005	-0.005	-0.005	0.029	2.676	1.890	1.890	1.890	1.904	1.899	1.895
0.005	0.005	-0.005	0.005	0.000	0.005	0.029	2.671	1.885	1.890	1.890	1.904	1.904	1.899
0.005	0.005	0.000	0.005	0.000	0.000	0.029	2.676	1.890	1.890	1.890	1.904	1.904	1.899
0.005	0.005	0.000	0.005	0.000	0.000	0.029	2.671	1.890	1.885	1.885	1.909	1.904	1.899
0.020	0.000	0.000	0.015	0.000	0.000	0.029	2.666	1.890	1.890	1.890	1.909	1.899	1.904
0.029	0.005	0.000	0.010	-0.005	0.005	0.029	2.671	1.895	1.890	1.890	1.909	1.904	1.904
0.024	-0.005	0.000	0.010	0.000	-0.010	0.029	2.695	1.895	1.890	1.890	1.909	1.904	1.895
0.005	-0.005	0.000	0.005	0.005	-0.005	0.029	2.695	1.890	1.885	1.885	1.904	1.904	1.904
-0.005	-0.005	0.000	0.005	0.000	0.005	0.029	2.690	1.885	1.885	1.885	1.904	1.904	1.904
-0.020	-0.015	-0.005	0.005	-0.005	0.005	0.029	2.676	1.885	1.880	1.880	1.904	1.899	1.899
-0.024	-0.005	0.005	0.005	0.000	0.010	0.029	2.671	1.885	1.885	1.885	1.904	1.899	1.904
-0.024	-0.005	0.005	0.000	-0.005	0.015	0.029	2.642	1.880	1.885	1.885	1.904	1.899	1.904
-0.015	0.000	0.000	0.005	0.005	0.000	0.029	2.646	1.880	1.885	1.885	1.899	1.899	1.899
-0.005	0.000	0.005	0.000	0.000	-0.005	0.029	2.671	1.890	1.885	1.880	1.899	1.899	1.895
0.000	0.005	0.010	0.000	0.005	0.000	0.029	2.637	1.904	1.890	1.885	1.904	1.899	1.899
0.005	-0.010	0.000	-0.010	0.005	-0.029	0.029	2.729	1.909	1.885	1.880	1.899	1.895	1.890
0.010	0.005	0.005	-0.015	0.000	0.010	0.029	2.661	1.899	1.895	1.885	1.899	1.895	1.899
0.015	0.000	0.000	-0.010	0.005	-0.005	0.029	2.612	1.890	1.895	1.885	1.899	1.895	1.899
0.010	0.005	0.000	-0.010	0.000	-0.020	0.029	2.725	1.895	1.895	1.890	1.904	1.895	1.895
0.010	0.000	0.005	0.000	0.005	0.010	0.029	2.627	1.885	1.890	1.895	1.909	1.899	1.904
0.005	0.010	0.005	0.005	0.005	0.015	0.029	2.661	1.885	1.890	1.890	1.909	1.904	1.904
0.015	0.005	0.000	0.005	0.000	0.015	0.029	2.686	1.895	1.890	1.890	1.909	1.904	1.904
0.005	-0.005	0.005	0.005	0.000	-0.005	0.029	2.617	1.880	1.885	1.885	1.909	1.904	1.899
0.005	-0.005	0.000	0.005	0.000	0.010	0.029	2.686	1.880	1.885	1.885	1.909	1.904	1.904
-0.005	0.000	-0.005	0.000	0.000	-0.005	0.029	2.705	1.885	1.880	1.885	1.904	1.904	1.904
-0.005	-0.015	-0.005	0.005	0.000	0.010	0.029	2.798	1.880	1.880	1.880	1.904	1.904	1.904
-0.010	-0.010	-0.005	0.005	-0.005	0.010	0.029	2.622	1.880	1.880	1.880	1.904	1.899	1.899
-0.005	-0.005	0.005	0.000	-0.005	-0.010	0.029	2.700	1.885	1.880	1.880	1.899	1.899	1.895
-0.005	-0.005	0.010	0.000	-0.005	-0.015	0.029	2.666	1.885	1.880	1.880	1.899	1.899	1.895
-0.005	-0.005	0.010	0.000	0.000	0.010	0.029	2.676	1.885	1.885	1.880	1.899	1.899	1.899
-0.005	0.010	0.005	0.010	0.000	-0.020	0.029	2.695	1.890	1.885	1.880	1.904	1.899	1.895
-0.005	0.005	0.005	0.010	0.000	0.010	0.029	2.676	1.885	1.885	1.880	1.904	1.899	1.904
-0.010	0.010	0.005	0.010	0.005	0.010	0.029	2.705	1.890	1.885	1.885	1.904	1.899	1.899
-0.005	0.000	0.000	0.010	0.005	0.010	0.029	2.681	1.890	1.885	1.880	1.904	1.899	1.899
-0.005	0.005	0.000	0.010	0.010	-0.005	0.029	2.690	1.890	1.890	1.880	1.899	1.899	1.895
0.005	0.005	0.000	0.000	0.010	0.005	0.029	2.671	1.895	1.890	1.885	1.899	1.899	1.899
0.000	-0.015	0.005	-0.010	0.000	0.000	0.029	2.681	1.890	1.880	1.885	1.895	1.895	1.895
0.000	0.005	0.005	-0.010	-0.005	-0.010	0.029	2.676	1.890	1.890	1.885	1.895	1.895	1.895
0.010	0.010	0.000	-0.010	0.000	-0.020	0.029	2.700	1.895	1.895	1.885	1.899	1.895	1.890
0.010	0.005	0.000	-0.005	0.000	0.010	0.029	2.671	1.890	1.890	1.890	1.904	1.899	1.899
0.010	-0.015	0.000	-0.005	0.000	0.010	0.029	2.671	1.890	1.885	1.885	1.904	1.899	1.899
0.005	-0.015	0.000	-0.005	0.000	-0.005	0.029	2.681	1.890	1.885	1.885	1.904	1.895	1.895
0.005	-0.005	0.000	0.005	-0.005	0.005	0.029	2.671	1.885	1.885	1.885	1.909	1.899	1.899
0.010	-0.005	0.005	0.005	-0.005	0.010	0.029	2.690	1.890	1.890	1.885	1.904	1.899	1.899
0.005	-0.005	0.005	0.010	0.005	0.000	0.029	2.666	1.885	1.885	1.885	1.909	1.899	1.899
0.005	0.000	0.005	0.005	-0.005	-0.005	0.029	2.671	1.885	1.890	1.885	1.904	1.899	1.899
0.000	0.000	0.005	0.000	0.000	-0.005	0.024	2.705	1.885	1.885	1.885	1.904	1.895	1.895
0.005	0.000	0.005	0.005	-0.005	0.010	0.029	2.676	1.885	1.880	1.885	1.904	1.899	1.899
0.005	-0.005	0.005	0.010	-0.005	0.010	0.024	2.700	1.890	1.885	1.885	1.904	1.899	1.899
0.000	0.020	0.000	0.010	-0.010	-0.005	0.029	2.686	1.890	1.895	1.885	1.904	1.899	1.895
-0.005	0.015	0.000	0.005	-0.005	-0.010	0.024	2.671	1.885	1.890	1.885	1.899	1.899	1.899
0.000	0.010	0.000	0.000	0.000	0.010	0.029	2.642	1.880	1.885	1.885	1.904	1.899	1.899
0.020	0.005	0.000	0.005	0.005	0.020	0.029	2.646	1.890	1.890	1.885	1.904	1.899	1.904
0.024	0.010	-0.005	0.000	0.000	0.015	0.029	2.686	1.895	1.885	1.885	1.904	1.899	1.899
0.073	0.000	-0.005	0.000	0.010	-0.005	0.029	2.778	1.919	1.895	1.890	1.904	1.899	1.899
0.093	0.010	0.000	-0.005	0.005	0.005	0.024	2.671	1.924	1.899	1.890	1.904	1.899	1.899
0.107	0.000	-0.005	0.000	0.000	-0.015	0.029	2.651	1.914	1.904	1.895	1.909	1.899	1.895
0.059	0.000	0.000	0.000	-0.005	0.000	0.029	2.637	1.890	1.899	1.895	1.909	1.899	1.899
0.015	0.000	0.000	0.005	0.000	0.005	0.029	2.642	1.870	1.890	1.895	1.909	1.899	1.904
-0.020	-0.005	0.005	0.005	0.005	0.005	0.024	2.651	1.860	1.880	1.890	1.909	1.904	1.899
-0.063	0.000	0.000	0.005	0.005	0.015	0.029	2.651	1.855	1.875	1.880	1.909	1.904	1.904
-0.103	0.000	0.000	0.010	0.005	0.005	0.029	2.676	1.855	1.865	1.880	1.909	1.904	1.899
-0.122	-0.005	0.000	0.000	0.010	-0.005	0.024	2.744	1.865	1.860	1.870	1.899	1.899	1.899
-0.117	-0.005	0.000	0.000	0.005	0.010	0.029	2.686	1.870	1.865	1.870	1.895	1.899	1.904
-0.107	0.000	0.010	-0.005	0.000	-0.005	0.029	2.720	1.885	1.870	1.870	1.890	1.890	1.899
-0.103	-0.005	0.000	-0.010	-0.005	0.005	0.029	2.671	1.885	1.870	1.870	1.890	1.890	1.895
-0.073	0.000	0.000	-0.005	0.000	0.000	0.029	2.725	1.899	1.875	1.870	1.890	1.890	1.895
-0.059	0.005	0.005	0.000	0.000	-0.010	0.029	2.661	1.904	1.890	1.875	1.890	1.890	1.890
-0.039	0.015	-0.005	0.000	0.000	0.000	0.024	2.676	1.909	1.895	1.880	1.895	1.890	1.895
-0.015	0.005	0.005	0.000	0.005	0.005	0.029	2.671	1.909	1.895	1.885	1.895	1.890	1.890
0.015	0.005	-0.005	0.005	0.010	-0.015	0.029	2.671	1.909	1.899	1.885	1.899	1.890	1.890
0.020	0.000	0.000	0.000	0.000	-0.005	0.029	2.710	1.909	1.904	1.890	1.904	1.890	1.890
0.015	0.010	0.000	0.000	-0.010	-0.005	0.029	2.700	1.899	1.904	1.895	1.904	1.895	1.895
0.005	0.000	0.000	0.000	-0.010	-0.005	0.029	2.666	1.895	1.899	1.895	1.904	1.895	1.895
0.015	0.000	0.000	-0.005	-0.010	-0.020	0.029	2.700	1.899	1.895	1.895	1.909	1.895	1.890
0.020	-0.029	0.000	0.000	-0.010	-0.010	0.024	2.666	1.890	1.890	1.890	1.909	1.899	1.895
0.044	-0.020	0.000	-0.005	-0.010	0.010	0.029	2.671	1.895	1.890	1.890	1.909	1.904	1.904
0.039	-0.010	0.005	0.000	-0.010	0.005	0.029	2.671	1.895	1.895	1.895	1.909	1.904	1.899
0.049	-0.015	0.005	0.005	-0.005	0.000	0.029	2.690	1.895	1.895	1.890	1.909	1.904	1.899
0.039	-0.010	0.005	0.005	0.005	-0.005	0.029	2.676	1.890	1.890	1.890	1.914	1.909	1.899
0.054	0.005	0.000	0.000	0.020	0.010	0.029	2.661	1.895	1.895	1.890	1.909	1.909	1.909
0.049	0.010	0.000	0.000	0.029	0.005	0.029	2.671	1.890	1.899	1.895	1.909	1.914	1.909
0.049	0.005	0.005	0.000	0.034	-0.010	0.029	2.671	1.885	1.890	1.895	1.909	1.909	1.909
0.039	0.005	0.000	0.000	0.024	0.005	0.029	2.700	1.885	1.890	1.890	1.909	1.904	1.909
0.029	0.010	0.000	-0.005	0.015	-0.005	0.029	2.705	1.890	1.890	1.890	1.909	1.904	1.904
0.034	0.000	0.000	-0.005	0.005	0.005	0.029	2.671	1.890	1.890	1.890	1.909	1.899	1.904
0.015	0.010	-0.005	0.000	0.005	-0.024	0.029	2.700	1.890	1.890	1.890	1.909	1.899	1.899
0.015	0.000	0.000	0.000	0.005	0.010	0.024	2.686	1.890	1.890	1.885	1.909	1.904	1.904
0.005	0.000	-0.005	0.005	0.000	0.010	0.029	2.700	1.895	1.885	1.890	1.909	1.899	1.909
0.005	0.000	-0.005	0.005	0.000	0.005	0.029	2.686	1.895	1.890	1.885	1.909	1.904	1.904
-0.005	0.005	-0.005	0.005	-0.005	0.005	0.029	2.686	1.890	1.890	1.890	1.909	1.899	1.899
-0.005	0.024	0.000	0.005	0.000	0.000	0.029	2.646	1.885	1.895	1.890	1.909	1.904	1.904
-0.005	0.015	-0.005	0.005	0.005	0.000	0.024	2.651	1.885	1.885	1.885	1.909	1.904	1.904
-0.005	0.015	0.000	0.005	0.020	0.000	0.029	2.690	1.890	1.885	1.885	1.904	1.909	1.904
0.000	0.010	-0.005	0.005	0.020	-0.005	0.029	2.646	1.904	1.890	1.890	1.904	1.904	1.904
0.000	-0.010	0.005	0.005	0.005	-0.005	0.024	2.642	1.895	1.885	1.885	1.904	1.899	1.904
0.010	-0.010	0.005	0.005	-0.005	0.005	0.029	2.646	1.890	1.885	1.885	1.904	1.899	1.904
0.020	-0.005	0.005	0.005	-0.015	-0.015	0.029	2.715	1.880	1.885	1.885	1.904	1.895	1.895
0.015	0.005	0.000	0.005	-0.015	0.005	0.024	2.720	1.885	1.885	1.885	1.904	1.899	1.899
0.015	0.005	0.000	0.000	-0.010	0.010	0.029	2.637	1.890	1.885	1.885	1.904	1.899	1.899
0.010	0.000	0.000	0.000	-0.010	0.005	0.029	2.715	1.890	1.885	1.880	1.899	1.899	1.899
-0.005	0.000	0.000	0.000	-0.010	0.005	0.024	2.681	1.885	1.885	1.885	1.904	1.899	1.899
-0.020	0.000	0.000	0.000	-0.020	-0.010	0.029	2.725	1.885	1.885	1.880	1.899	1.895	1.895
-0.029	0.000	0.005	0.000	-0.020	0.005	0.029	2.700	1.890	1.885	1.885	1.899	1.895	1.899
-0.029	0.000	-0.005	0.000	-0.020	0.000	0.029	2.729	1.895	1.885	1.885	1.899	1.895	1.895
-0.029	0.005	0.000	0.000	-0.010	-0.020	0.029	2.666	1.885	1.890	1.885	1.899	1.899	1.895
-0.024	0.005	0.000	0.000	0.000	-0.005	0.029	2.651	1.885	1.885	1.885	1.904	1.904	1.899
-0.020	0.000	0.000	0.005	-0.010	-0.015	0.029	2.690	1.890	1.885	1.885	1.904	1.899	1.899
-0.024	0.015	0.000	0.010	-0.010	0.005	0.029	2.676	1.890	1.890	1.890	1.904	1.899	1.899
-0.024	0.005	-0.005	0.005	0.000	-0.005	0.029	2.661	1.890	1.885	1.885	1.904	1.904	1.899
-0.010	-0.005	0.000	0.005	-0.010	0.000	0.029	2.666	1.890	1.885	1.885	1.904	1.899	1.899
-0.010	-0.010	0.005	0.005	-0.015	0.005	0.029	2.690	1.890	1.885	1.880	1.899	1.899	1.899
-0.010	-0.010	0.005	0.005	-0.010	0.000	0.029	2.690	1.890	1.885	1.885	1.904	1.899	1.899
-0.015	-0.005	0.005	0.000	-0.015	-0.005	0.029	2.676	1.890	1.885	1.885	1.899	1.895	1.895
0.005	0.005	0.000	0.000	-0.015	0.015	0.029	2.695	1.895	1.895	1.885	1.899	1.899	1.899
0.020	0.000	0.010	0.005	0.005	0.000	0.029	2.686	1.899	1.895	1.890	1.904	1.904	1.899
0.015	0.005	0.000	-0.005	0.049	0.010	0.024	2.676	1.895	1.890	1.885	1.904	1.914	1.904
0.020	0.000	0.005	-0.005	0.098	0.005	0.029	2.666	1.890	1.895	1.890	1.904	1.924	1.914
0.015	-0.005	0.000	0.000	0.073	0.005	0.029	2.705	1.895	1.890	1.890	1.909	1.909	1.904
0.010	0.000	0.000	0.000	0.029	0.020	0.024	2.686	1.895	1.895	1.885	1.904	1.895	1.909
0.015	-0.005	-0.005	0.005	0.000	0.005	0.024	2.671	1.890	1.890	1.890	1.904	1.890	1.904
0.015	-0.005	0.005	-0.005	-0.005	0.000	0.029	2.686	1.895	1.895	1.890	1.904	1.895	1.895
0.005	0.000	-0.005	0.005	0.005	0.000	0.029	2.666	1.890	1.895	1.890	1.904	1.899	1.895
0.005	0.005	0.000	0.005	0.034	-0.005	0.029	2.700	1.890	1.895	1.890	1.909	1.904	1.899
0.010	0.015	0.000	0.000	0.049	-0.005	0.029	2.681	1.899	1.895	1.890	1.909	1.909	1.904
0.005	0.000	-0.005	0.000	0.044	-0.015	0.029	2.671	1.890	1.890	1.890	1.909	1.904	1.904
0.005	0.005	0.000	0.000	0.024	0.010	0.029	2.705	1.895	1.895	1.890	1.909	1.899	1.904
0.020	-0.005	0.000	0.005	-0.005	0.000	0.029	2.686	1.895	1.890	1.890	1.904	1.890	1.899
0.010	0.005	0.000	0.000	-0.020	0.000	0.029	2.705	1.895	1.895	1.890	1.909	1.890	1.899
0.010	0.000	0.005	0.000	-0.024	0.005	0.029	2.681	1.895	1.890	1.890	1.909	1.895	1.899
0.010	0.010	0.005	0.000	-0.034	0.005	0.029	2.686	1.890	1.890	1.890	1.909	1.895	1.895
0.000	0.005	0.005	0.000	-0.039	0.000	0.029	2.642	1.885	1.885	1.890	1.904	1.895	1.895
0.005	0.005	0.000	0.005	-0.024	0.000	0.029	2.651	1.885	1.885	1.885	1.909	1.899	1.895
0.005	0.000	0.000	0.005	-0.034	-0.005	0.029	2.681	1.885	1.880	1.885	1.904	1.899	1.895
0.005	0.000	0.000	0.000	-0.029	-0.005	0.029	2.773	1.895	1.885	1.885	1.904	1.899	1.895
0.005	-0.005	0.005	0.005	-0.029	-0.005	0.029	2.637	1.899	1.890	1.885	1.904	1.899	1.895
-0.005	-0.005	0.005	0.000	-0.024	-0.020	0.024	2.632	1.890	1.890	1.885	1.904	1.899	1.895
0.005	0.000	0.000	0.000	-0.020	-0.005	0.024	2.632	1.885	1.890	1.885	1.904	1.899	1.899
-0.010	-0.010	0.000	0.000	-0.010	-0.005	0.029	2.651	1.875	1.885	1.885	1.904	1.904	1.904
-0.005	-0.010	0.000	0.000	-0.010	0.000	0.029	2.661	1.895	1.885	1.885	1.904	1.904	1.904
0.000	-0.010	0.005	0.005	-0.010	0.010	0.029	2.729	1.899	1.890	1.885	1.904	1.904	1.904
0.000	0.000	0.000	0.000	0.000	0.000	0.029	2.676	1.895	1.890	1.885	1.904	1.904	1.904
0.000	-0.005	0.000	0.000	0.020	0.005	0.029	2.637	1.890	1.890	1.890	1.904	1.909	1.909
-0.005	0.000	-0.005	0.000	0.039	-0.005	0.029	2.690	1.890	1.890	1.885	1.904	1.909	1.909
-0.005	0.020	0.000	0.000	0.044	0.005	0.029	2.720	1.899	1.899	1.890	1.904	1.909	1.909
-0.005	0.005	0.005	0.000	0.034	0.010	0.029	2.661	1.895	1.895	1.890	1.904	1.904	1.904
0.000	0.005	0.000	0.000	0.015	-0.005	0.029	2.617	1.885	1.890	1.890	1.904	1.899	1.904
-0.010	0.000	0.000	0.000	-0.010	0.015	0.029	2.690	1.885	1.885	1.885	1.904	1.895	1.904
0.000	0.005	0.005	0.005	-0.024	0.010	0.029	2.676	1.890	1.890	1.885	1.904	1.890	1.899
0.010	-0.005	0.010	0.000	-0.024	0.000	0.029	2.671	1.890	1.885	1.890	1.904	1.890	1.895
0.000	0.000	0.000	0.005	-0.020	0.000	0.029	2.710	1.885	1.885	1.885	1.904	1.895	1.895
-0.005	0.000	0.005	0.000	-0.020	0.000	0.029	2.710	1.895	1.890	1.885	1.904	1.899	1.895
0.000	0.005	0.000	0.000	-0.020	0.005	0.029	2.700	1.895	1.890	1.885	1.904	1.899	1.899
-0.005	0.010	0.005	0.005	-0.005	0.005	0.029	2.676	1.890	1.890	1.885	1.904	1.904	1.899
0.000	0.010	0.000	0.005	0.020	0.005	0.029	2.686	1.890	1.890	1.885	1.904	1.909	1.899
-0.005	0.005	-0.005	0.005	0.034	-0.015	0.029	2.695	1.890	1.890	1.890	1.904	1.909	1.899
-0.005	0.000	0.000	0.000	0.044	0.000	0.024	2.681	1.890	1.890	1.885	1.904	1.909	1.909
0.010	0.000	0.005	0.005	0.020	-0.005	0.024	2.676	1.890	1.890	1.890	1.904	1.904	1.904
-0.005	0.000	-0.005	0.005	0.010	-0.005	0.029	2.671	1.890	1.885	1.885	1.904	1.899	1.904
-0.005	0.000	0.000	0.000	0.005	0.000	0.029	2.686	1.890	1.890	1.885	1.904	1.899	1.899
0.005	0.000	0.000	0.000	0.000	0.005	0.029	2.666	1.890	1.890	1.885	1.904	1.895	1.904
-0.005	0.005	0.000	-0.005	0.000	-0.005	0.029	2.671	1.885	1.885	1.885	1.904	1.895	1.899
0.005	0.005	0.000	-0.005	-0.005	0.000	0.029	2.671	1.890	1.890	1.885	1.899	1.895	1.899
0.000	0.005	0.000	0.000	-0.005	-0.005	0.029	2.666	1.885	1.885	1.885	1.904	1.895	1.895
0.000	0.000	0.000	0.000	-0.005	-0.005	0.029	2.686	1.890	1.880	1.885	1.904	1.895	1.899
-0.005	0.000	0.000	0.000	0.000	-0.005	0.029	2.671	1.885	1.880	1.880	1.904	1.895	1.895
0.005	-0.005	0.005	0.000	-0.005	0.010	0.029	2.705	1.895	1.885	1.885	1.904	1.899	1.895
0.005	-0.010	0.000	0.000	0.000	0.005	0.029	2.690	1.890	1.885	1.880	1.899	1.899	1.899
0.000	0.005	0.000	0.005	0.000	0.010	0.029	2.710	1.895	1.890	1.885	1.904	1.899	1.899
0.015	0.015	0.000	0.005	-0.005	0.010	0.029	2.690	1.895	1.895	1.890	1.904	1.899	1.899
-0.005	0.005	0.000	0.005	0.000	-0.015	0.029	2.686	1.890	1.890	1.890	1.904	1.899	1.895
-0.005	0.010	-0.005	0.005	0.000	-0.010	0.029	2.788	1.899	1.895	1.890	1.904	1.899	1.899
-0.005	0.005	0.000	0.005	0.000	0.015	0.029	2.651	1.895	1.890	1.890	1.909	1.899	1.904
0.000	0.000	0.000	0.000	0.000	0.010	0.029	2.700	1.895	1.895	1.890	1.904	1.899	1.904
0.000	-0.010	-0.005	-0.005	0.000	0.010	0.029	2.642	1.904	1.890	1.890	1.904	1.899	1.904
0.000	0.015	0.005	-0.005	0.000	0.000	0.029	2.725	1.909	1.899	1.890	1.904	1.904	1.899
-0.005	0.005	0.005	-0.005	0.000	0.000	0.029	2.710	1.909	1.899	1.895	1.909	1.899	1.899
0.000	0.000	0.005	-0.010	0.000	0.005	0.029	2.720	1.904	1.899	1.895	1.909	1.904	1.899
-0.005	-0.005	0.000	-0.005	0.000	0.000	0.029	2.754	1.904	1.895	1.895	1.909	1.904	1.899
-0.005	-0.005	0.005	0.000	0.000	-0.005	0.024	2.622	1.890	1.895	1.895	1.914	1.904	1.899
0.000	-0.005	0.005	0.000	0.005	-0.010	0.029	2.627	1.880	1.895	1.895	1.914	1.909	1.899
0.005	0.005	0.000	0.005	0.000	0.000	0.029	2.656	1.880	1.890	1.890	1.909	1.904	1.904
0.010	-0.010	0.000	0.000	-0.005	0.005	0.029	2.617	1.875	1.885	1.890	1.909	1.904	1.904
0.005	0.005	0.000	0.005	-0.005	-0.005	0.029	2.705	1.885	1.890	1.890	1.909	1.904	1.904
0.005	0.000	0.005	0.000	-0.005	-0.010	0.029	2.632	1.880	1.880	1.890	1.909	1.904	1.899
0.005	0.000	0.005	0.005	-0.005	0.005	0.024	2.671	1.880	1.880	1.885	1.909	1.904	1.904
0.000	0.000	0.000	0.005	-0.010	0.015	0.029	2.720	1.895	1.885	1.885	1.909	1.904	1.909
-0.005	-0.005	0.000	0.005	-0.005	0.015	0.029	2.700	1.895	1.885	1.880	1.904	1.904	1.904
0.000	0.005	0.005	0.005	0.000	0.005	0.029	2.681	1.895	1.895	1.885	1.904	1.904	1.904
-0.010	0.005	0.000	0.005	0.005	0.000	0.029	2.671	1.890	1.890	1.885	1.904	1.904	1.899
0.000	0.000	0.005	0.000	0.005	-0.010	0.029	2.705	1.895	1.890	1.885	1.904	1.904	1.899
-0.010	-0.010	-0.005	0.000	0.005	-0.005	0.024	2.700	1.895	1.890	1.885	1.904	1.904	1.904
0.000	-0.005	0.005	0.005	0.020	0.000	0.029	2.710	1.895	1.895	1.890	1.904	1.904	1.904
0.010	-0.005	-0.005	0.000	0.044	0.000	0.029	2.671	1.895	1.890	1.885	1.904	1.914	1.909
0.005	-0.005	0.000	0.000	0.024	-0.005	0.029	2.676	1.895	1.890	1.890	1.904	1.899	1.904
0.000	-0.005	0.000	0.000	0.000	0.000	0.029	2.695	1.895	1.895	1.890	1.904	1.895	1.899
0.005	0.010	0.005	0.005	-0.039	0.005	0.029	2.710	1.895	1.895	1.890	1.904	1.885	1.895
0.000	0.000	0.005	0.005	-0.049	0.000	0.029	2.666	1.890	1.895	1.885	1.904	1.885	1.895
0.000	-0.005	0.005	0.000	-0.054	0.000	0.029	2.671	1.890	1.890	1.890	1.904	1.890	1.890
0.000	0.010	0.000	0.000	-0.044	0.000	0.029	2.690	1.895	1.890	1.885	1.904	1.895	1.895
0.005	0.000	0.000	0.005	-0.029	0.010	0.029	2.695	1.895	1.890	1.885	1.909	1.904	1.895
0.005	0.005	0.000	0.005	-0.020	0.005	0.029	2.676	1.890	1.895	1.890	1.909	1.904	1.899
-0.005	-0.005	0.005	0.010	-0.005	-0.015	0.029	2.671	1.890	1.890	1.890	1.909	1.909	1.895
0.000	-0.010	0.005	0.005	0.020	0.005	0.029	2.671	1.890	1.885	1.885	1.909	1.914	1.909
0.005	-0.010	0.005	0.000	0.029	0.005	0.029	2.671	1.890	1.890	1.890	1.909	1.909	1.909
0.000	0.005	0.005	0.000	0.034	0.000	0.029	2.676	1.885	1.890	1.890	1.904	1.909	1.909
-0.005	0.005	0.005	0.000	0.024	0.000	0.029	2.666	1.890	1.890	1.890	1.909	1.904	1.909
-0.010	0.015	-0.005	0.005	0.024	0.000	0.029	2.681	1.890	1.890	1.890	1.904	1.909	1.909
-0.005	0.015	0.005	0.000	0.098	-0.005	0.029	2.700	1.895	1.895	1.890	1.909	1.929	1.914
0.000	0.000	0.000	0.000	0.166	0.005	0.029	2.686	1.895	1.890	1.890	1.909	1.938	1.924
-0.005	0.000	0.000	0.000	0.186	0.005	0.029	2.686	1.895	1.890	1.890	1.909	1.929	1.924
0.000	-0.024	0.005	0.005	0.112	-0.005	0.029	2.642	1.890	1.885	1.885	1.909	1.904	1.914
-0.005	-0.010	0.000	0.000	0.049	0.005	0.029	2.651	1.885	1.890	1.885	1.904	1.885	1.909
0.005	-0.005	0.005	0.000	-0.010	0.020	0.029	2.695	1.895	1.890	1.885	1.904	1.875	1.899
0.005	0.005	0.005	0.005	-0.039	0.010	0.029	2.769	1.904	1.895	1.885	1.904	1.875	1.890
0.000	0.010	0.000	0.000	-0.068	0.005	0.024	2.632	1.914	1.899	1.890	1.904	1.870	1.885
0.010	0.005	-0.005	0.005	-0.063	-0.015	0.029	2.612	1.895	1.895	1.890	1.904	1.880	1.875
0.005	0.010	-0.005	0.005	-0.078	0.005	0.029	2.622	1.885	1.895	1.890	1.904	1.885	1.885
-0.005	0.000	0.000	0.010	-0.073	-0.010	0.029	2.739	1.880	1.890	1.890	1.904	1.890	1.880
-0.005	-0.005	0.000	0.005	-0.059	0.000	0.029	2.646	1.880	1.885	1.890	1.904	1.895	1.890
0.000	0.005	-0.005	0.005	-0.049	0.005	0.029	2.646	1.880	1.885	1.890	1.909	1.904	1.895
-0.005	0.005	0.000	0.005	-0.024	0.000	0.024	2.681	1.880	1.885	1.885	1.909	1.909	1.895
-0.005	-0.005	0.000	0.000	-0.005	-0.010	0.029	2.637	1.880	1.880	1.885	1.904	1.909	1.899
0.005	0.000	0.000	-0.005	-0.005	0.005	0.029	2.700	1.890	1.885	1.880	1.904	1.909	1.909
0.005	-0.005	0.000	-0.005	-0.020	0.005	0.029	2.729	1.875	1.880	1.885	1.899	1.904	1.904
0.000	-0.005	0.000	-0.005	-0.029	-0.024	0.029	2.637	1.875	1.880	1.880	1.899	1.895	1.895
-0.005	-0.005	0.000	-0.005	-0.024	0.000	0.029	2.651	1.880	1.875	1.880	1.899	1.899	1.899
0.010	-0.005	0.000	0.000	-0.015	-0.020	0.029	2.690	1.885	1.880	1.880	1.899	1.899	1.895
0.000	0.000	0.000	0.000	-0.010	-0.005	0.029	2.676	1.885	1.880	1.880	1.899	1.899	1.904
0.015	0.015	0.000	-0.005	-0.010	-0.020	0.029	2.666	1.885	1.885	1.880	1.899	1.895	1.895
0.000	0.015	-0.005	0.005	-0.005	0.010	0.029	2.676	1.885	1.880	1.880	1.899	1.899	1.909
0.005	0.020	0.000	0.005	-0.010	0.020	0.029	2.676	1.890	1.890	1.880	1.899	1.895	1.904
0.000	0.000	0.005	0.005	-0.010	0.015	0.029	2.695	1.890	1.880	1.880	1.899	1.895	1.899
0.010	-0.005	0.000	0.010	-0.005	0.005	0.024	2.681	1.890	1.885	1.880	1.899	1.895	1.899
0.010	0.005	0.005	0.005	0.000	0.005	0.029	2.705	1.895	1.885	1.880	1.899	1.899	1.899
0.000	0.005	0.000	0.000	0.005	0.010	0.029	2.676	1.890	1.885	1.880	1.899	1.899	1.899
0.005	-0.005	0.000	0.000	0.015	0.005	0.029	2.681	1.890	1.885	1.880	1.899	1.899	1.899
0.005	-0.005	0.005	0.000	0.015	0.005	0.029	2.676	1.890	1.885	1.885	1.899	1.899	1.899
0.000	0.000	-0.005	0.000	0.015	0.005	0.029	2.690	1.890	1.890	1.880	1.899	1.899	1.899
0.005	0.000	0.000	0.000	0.005	-0.005	0.029	2.681	1.890	1.890	1.885	1.899	1.899	1.895
-0.005	-0.005	0.000	0.005	0.015	-0.020	0.029	2.666	1.885	1.885	1.885	1.904	1.899	1.895
0.000	-0.010	0.000	0.005	0.010	0.000	0.029	2.671	1.885	1.885	1.885	1.904	1.899	1.899
-0.005	0.005	0.005	0.005	0.010	-0.005	0.029	2.676	1.885	1.885	1.885	1.904	1.899	1.899
0.005	0.015	0.005	0.005	0.015	0.010	0.029	2.671	1.890	1.890	1.885	1.904	1.899	1.899
0.010	-0.005	0.000	0.000	0.010	-0.020	0.029	2.686	1.890	1.885	1.880	1.899	1.899	1.890
0.000	0.005	0.005	-0.005	0.005	0.010	0.029	2.676	1.885	1.890	1.885	1.899	1.895	1.899
0.000	0.005	0.000	-0.005	0.000	0.010	0.029	2.695	1.890	1.890	1.880	1.899	1.895	1.899
0.015	0.005	0.000	0.000	0.005	-0.015	0.029	2.676	1.890	1.890	1.880	1.899	1.895	1.890
0.005	0.000	0.000	0.000	-0.005	0.000	0.029	2.700	1.890	1.885	1.885	1.904	1.895	1.895
0.000	0.005	0.005	0.005	0.005	-0.010	0.024	2.690	1.890	1.885	1.885	1.904	1.899	1.895
0.000	0.000	0.000	0.010	0.000	0.005	0.029	2.690	1.890	1.885	1.880	1.904	1.899	1.899
0.000	0.000	0.000	0.005	0.005	0.010	0.029	2.646	1.885	1.885	1.885	1.904	1.899	1.899
0.000	0.000	0.000	0.000	0.005	0.005	0.029	2.651	1.885	1.885	1.885	1.899	1.895	1.895
-0.005	0.010	0.005	-0.005	0.005	0.010	0.029	2.690	1.885	1.890	1.885	1.899	1.899	1.899
-0.005	-0.005	0.005	0.000	0.005	-0.005	0.029	2.744	1.899	1.885	1.885	1.904	1.899	1.895
0.005	-0.020	0.000	0.000	0.000	0.010	0.024	2.632	1.890	1.880	1.885	1.899	1.899	1.899
0.000	-0.020	0.000	0.005	0.005	0.005	0.024	2.656	1.890	1.885	1.885	1.904	1.899	1.899
-0.005	0.010	0.005	0.005	0.000	0.010	0.024	2.729	1.895	1.895	1.885	1.904	1.899	1.899
0.000	0.005	0.000	0.005	0.000	-0.024	0.029	2.754	1.890	1.890	1.885	1.899	1.895	1.890
-0.005	-0.005	0.005	0.005	0.000	0.020	0.029	2.642	1.890	1.885	1.885	1.904	1.899	1.904
0.005	-0.020	0.005	0.015	0.000	-0.005	0.029	2.656	1.885	1.885	1.885	1.904	1.899	1.899
0.000	-0.020	0.000	0.015	0.000	0.005	0.029	2.676	1.885	1.880	1.885	1.904	1.899	1.899
0.005	-0.015	0.000	0.010	0.000	0.020	0.024	2.661	1.890	1.885	1.880	1.899	1.899	1.899
0.005	-0.010	0.005	0.005	-0.005	0.015	0.024	2.695	1.890	1.885	1.880	1.899	1.895	1.895
0.000	-0.015	0.005	0.000	-0.020	-0.010	0.029	2.642	1.885	1.880	1.885	1.899	1.890	1.890
0.010	-0.010	0.000	-0.005	-0.024	0.005	0.029	2.783	1.899	1.885	1.885	1.899	1.890	1.895
0.000	-0.005	0.000	-0.005	-0.024	-0.010	0.029	2.651	1.890	1.890	1.885	1.899	1.890	1.885
0.005	-0.005	0.005	-0.005	-0.020	0.005	0.029	2.681	1.880	1.890	1.885	1.899	1.895	1.895
-0.010	0.000	0.000	0.000	-0.015	0.010	0.029	2.676	1.880	1.885	1.885	1.899	1.899	1.899
-0.005	0.015	0.000	0.005	-0.005	0.010	0.029	2.686	1.890	1.890	1.885	1.904	1.899	1.899
-0.005	0.005	0.000	0.005	-0.015	0.010	0.029	2.705	1.895	1.890	1.885	1.904	1.899	1.899
0.005	0.010	-0.005	0.005	-0.005	-0.005	0.024	2.681	1.890	1.885	1.885	1.904	1.899	1.895
0.000	-0.010	0.000	0.000	0.000	0.010	0.029	2.710	1.895	1.885	1.885	1.904	1.904	1.899
-0.005	-0.010	0.000	0.000	0.015	-0.010	0.029	2.671	1.890	1.885	1.885	1.904	1.904	1.899
0.000	0.005	0.000	-0.005	0.034	-0.005	0.029	2.690	1.890	1.890	1.890	1.904	1.909	1.899
0.000	0.015	-0.005	-0.005	0.034	-0.020	0.029	2.681	1.895	1.895	1.890	1.904	1.904	1.899
0.010	0.010	0.005	-0.005	0.024	-0.015	0.029	2.681	1.890	1.890	1.890	1.904	1.904	1.899
-0.005	-0.005	0.005	0.005	0.049	0.005	0.029	2.681	1.890	1.885	1.890	1.909	1.909	1.909
0.000	0.015	0.000	0.000	0.093	0.000	0.029	2.700	1.895	1.890	1.890	1.909	1.919	1.914
0.005	0.000	0.000	0.000	0.078	0.010	0.024	2.705	1.895	1.890	1.885	1.909	1.909	1.909
0.000	0.005	0.010	-0.005	0.034	0.005	0.029	2.681	1.895	1.890	1.890	1.904	1.895	1.904
0.005	0.010	0.000	0.000	-0.020	0.024	0.029	2.676	1.890	1.890	1.890	1.904	1.885	1.904
0.000	0.005	0.005	0.005	-0.024	0.020	0.029	2.690	1.895	1.890	1.890	1.909	1.890	1.895
0.005	0.005	0.010	0.005	-0.020	0.005	0.029	2.695	1.890	1.890	1.890	1.904	1.895	1.890
-0.005	-0.005	0.000	0.000	-0.034	-0.020	0.029	2.686	1.890	1.890	1.880	1.904	1.890	1.885
-0.010	0.000	0.000	-0.005	-0.063	0.000	0.029	2.676	1.890	1.890	1.885	1.904	1.885	1.890
0.005	0.000	-0.005	-0.005	-0.083	0.005	0.029	2.700	1.890	1.890	1.885	1.899	1.880	1.885
-0.005	0.005	0.000	-0.015	-0.059	-0.005	0.029	2.705	1.890	1.890	1.885	1.899	1.895	1.890
-0.005	0.015	0.000	-0.015	-0.024	-0.010	0.029	2.695	1.890	1.895	1.890	1.904	1.904	1.895
-0.005	0.015	0.000	-0.010	0.020	0.000	0.029	2.705	1.895	1.890	1.890	1.904	1.914	1.904
0.005	0.015	-0.005	0.005	0.024	0.005	0.029	2.676	1.890	1.890	1.890	1.909	1.914	1.904
0.005	0.015	-0.005	0.010	0.020	-0.015	0.029	2.646	1.885	1.890	1.890	1.914	1.909	1.904
0.005	0.010	0.000	0.024	0.000	-0.010	0.029	2.651	1.885	1.885	1.890	1.914	1.904	1.904
-0.005	0.010	0.000	0.024	-0.020	0.005	0.024	2.690	1.885	1.885	1.885	1.909	1.899	1.904
0.005	0.000	0.005	0.024	-0.024	-0.015	0.029	2.637	1.895	1.885	1.885	1.909	1.899	1.899
0.005	0.005	0.005	0.020	0.005	-0.015	0.029	2.651	1.890	1.890	1.885	1.909	1.909	1.899
0.000	0.000	0.005	0.015	0.015	0.010	0.029	2.637	1.895	1.885	1.885	1.904	1.909	1.909
-0.005	-0.010	0.005	0.010	0.015	0.010	0.029	2.705	1.895	1.885	1.885	1.899	1.909	1.909
0.005	0.005	0.005	0.000	0.068	0.000	0.024	2.734	1.899	1.890	1.885	1.904	1.919	1.909
0.005	0.015	0.000	-0.005	0.112	-0.020	0.029	2.637	1.890	1.895	1.885	1.904	1.924	1.909
0.005	0.015	0.005	-0.005	0.156	0.010	0.024	2.720	1.895	1.895	1.890	1.904	1.934	1.924
0.005	0.000	0.000	-0.010	0.186	0.005	0.029	2.666	1.895	1.890	1.890	1.904	1.929	1.924
0.005	0.000	0.000	-0.010	0.156	0.010	0.029	2.671	1.895	1.890	1.890	1.904	1.909	1.924
0.005	0.000	0.000	-0.005	0.112	0.010	0.029	2.700	1.895	1.890	1.890	1.904	1.895	1.919
-0.005	0.000	-0.005	0.000	0.029	0.020	0.029	2.729	1.899	1.895	1.885	1.904	1.875	1.904
-0.010	0.000	0.000	-0.005	-0.039	0.024	0.029	2.695	1.899	1.895	1.890	1.899	1.865	1.895
0.000	-0.010	0.005	-0.005	-0.088	0.020	0.029	2.720	1.904	1.895	1.890	1.904	1.860	1.885
-0.005	0.000	0.005	-0.005	-0.117	-0.005	0.029	2.686	1.899	1.899	1.890	1.904	1.865	1.870
-0.010	0.010	0.000	-0.005	-0.137	0.005	0.029	2.686	1.899	1.899	1.890	1.909	1.870	1.875
-0.005	0.020	0.000	0.000	-0.117	-0.005	0.029	2.671	1.890	1.899	1.895	1.909	1.885	1.875
0.005	0.015	0.000	0.000	-0.088	-0.024	0.024	2.705	1.890	1.895	1.895	1.914	1.895	1.875
0.005	-0.005	-0.005	0.005	-0.059	0.000	0.029	2.666	1.885	1.890	1.890	1.914	1.909	1.890
0.000	0.005	-0.005	0.000	-0.029	-0.020	0.024	2.705	1.890	1.885	1.890	1.909	1.914	1.890
0.010	-0.005	0.000	0.005	-0.015	-0.015	0.029	2.676	1.890	1.885	1.885	1.909	1.914	1.904
0.005	-0.005	0.000	0.010	-0.010	0.005	0.029	2.705	1.885	1.885	1.885	1.909	1.914	1.909
0.000	-0.010	0.005	0.000	-0.010	0.000	0.029	2.705	1.895	1.885	1.885	1.909	1.909	1.909
0.010	0.000	0.005	0.005	-0.015	0.000	0.029	2.676	1.895	1.890	1.885	1.904	1.904	1.909
0.005	0.000	0.000	-0.005	-0.020	0.000	0.029	2.671	1.890	1.890	1.890	1.904	1.899	1.904
0.000	0.000	0.000	-0.010	-0.029	-0.010	0.029	2.700	1.895	1.885	1.890	1.904	1.895	1.899
-0.005	0.005	0.005	-0.005	-0.034	-0.010	0.029	2.715	1.895	1.890	1.890	1.909	1.899	1.895
0.000	-0.015	0.000	0.010	-0.029	0.000	0.024	2.681	1.895	1.890	1.890	1.909	1.904	1.904
0.005	-0.005	0.000	0.024	-0.020	-0.010	0.029	2.681	1.895	1.890	1.885	1.914	1.909	1.904
0.000	0.000	-0.005	0.010	-0.010	0.015	0.029	2.671	1.890	1.890	1.890	1.909	1.909	1.909
0.005	-0.005	-0.005	0.005	0.005	0.010	0.029	2.671	1.890	1.890	1.890	1.904	1.909	1.909
0.000	0.000	-0.005	-0.005	0.010	-0.015	0.029	2.681	1.895	1.890	1.885	1.904	1.909	1.904
0.000	0.005	0.000	-0.010	0.020	0.005	0.029	2.666	1.890	1.890	1.890	1.904	1.909	1.909
0.005	-0.005	-0.005	-0.010	0.029	0.005	0.029	2.700	1.895	1.890	1.885	1.904	1.909	1.904
-0.005	0.005	0.005	-0.005	0.029	-0.015	0.029	2.676	1.890	1.890	1.890	1.904	1.904	1.899
0.000	0.000	0.005	0.005	0.029	0.010	0.029	2.700	1.895	1.890	1.890	1.909	1.904	1.909
0.000	0.005	0.010	0.000	0.020	0.005	0.029	2.690	1.895	1.890	1.890	1.909	1.904	1.904
0.005	0.010	0.000	0.005	0.010	-0.015	0.029	2.681	1.895	1.890	1.885	1.909	1.899	1.899
0.010	0.005	0.005	0.010	-0.005	-0.005	0.029	2.642	1.890	1.890	1.885	1.904	1.895	1.899
0.010	0.005	0.005	0.005	-0.005	0.000	0.029	2.661	1.890	1.890	1.890	1.904	1.895	1.899
0.015	0.010	0.000	0.000	-0.005	0.010	0.029	2.695	1.890	1.890	1.885	1.904	1.899	1.904
0.010	0.010	0.000	0.005	-0.005	0.005	0.029	2.646	1.880	1.890	1.890	1.904	1.899	1.899
0.005	0.029	0.000	0.010	0.000	0.015	0.029	2.729	1.890	1.895	1.890	1.904	1.899	1.904
-0.015	0.015	-0.005	0.005	0.000	0.015	0.029	2.666	1.885	1.885	1.885	1.909	1.899	1.899
-0.020	0.010	-0.005	0.005	0.005	0.010	0.029	2.715	1.890	1.885	1.885	1.904	1.904	1.904
-0.010	0.005	0.000	0.005	0.000	0.000	0.029	2.725	1.895	1.885	1.885	1.904	1.899	1.895
-0.005	0.015	0.005	0.000	0.000	0.010	0.029	2.651	1.899	1.890	1.890	1.904	1.899	1.904
-0.005	0.005	0.005	0.010	0.000	-0.010	0.024	2.642	1.890	1.890	1.890	1.909	1.904	1.899
-0.010	-0.010	0.005	0.010	0.005	0.015	0.029	2.676	1.885	1.885	1.885	1.904	1.904	1.904
-0.005	-0.010	0.005	0.005	0.000	0.005	0.029	2.744	1.899	1.885	1.885	1.904	1.904	1.899
-0.005	-0.010	0.000	-0.005	0.005	0.010	0.029	2.695	1.895	1.890	1.885	1.899	1.899	1.904
0.005	0.010	0.000	0.000	0.010	0.000	0.029	2.720	1.899	1.899	1.890	1.904	1.899	1.899
0.010	-0.005	0.005	-0.010	0.005	0.005	0.029	2.681	1.895	1.890	1.890	1.899	1.899	1.895
0.000	-0.005	0.005	-0.010	0.005	0.005	0.024	2.656	1.890	1.890	1.890	1.899	1.899	1.899
0.000	-0.010	0.000	-0.005	0.000	0.000	0.029	2.710	1.895	1.890	1.885	1.904	1.899	1.895
0.000	0.000	0.005	-0.005	0.005	0.005	0.024	2.686	1.890	1.895	1.890	1.904	1.899	1.899
0.000	0.000	0.005	-0.005	0.005	0.000	0.029	2.681	1.890	1.890	1.885	1.909	1.899	1.899
0.000	-0.010	0.000	0.010	0.005	-0.005	0.029	2.666	1.890	1.885	1.890	1.909	1.899	1.895
0.000	-0.005	0.000	0.005	0.010	0.000	0.029	2.700	1.895	1.890	1.885	1.909	1.899	1.899
0.020	0.000	-0.005	0.000	-0.005	-0.005	0.029	2.695	1.899	1.895	1.890	1.904	1.899	1.895
0.015	0.005	-0.005	0.000	0.000	-0.010	0.029	2.666	1.890	1.895	1.890	1.904	1.899	1.899
0.010	0.005	0.000	0.000	0.000	0.005	0.024	2.705	1.895	1.895	1.890	1.904	1.899	1.899
0.015	-0.005	0.005	-0.010	0.000	0.000	0.029	2.671	1.895	1.890	1.895	1.904	1.899	1.899
0.020	-0.005	0.005	-0.010	0.000	-0.005	0.029	2.686	1.895	1.890	1.890	1.909	1.904	1.899
0.015	0.000	0.005	0.000	0.005	-0.005	0.029	2.681	1.890	1.890	1.890	1.909	1.904	1.899
-0.005	-0.005	0.000	0.000	0.005	0.010	0.029	2.666	1.880	1.890	1.890	1.909	1.904	1.909
-0.015	-0.015	0.000	0.010	0.005	0.000	0.029	2.676	1.880	1.880	1.885	1.909	1.904	1.904
-0.024	-0.015	0.000	0.015	0.005	0.010	0.029	2.676	1.880	1.875	1.885	1.909	1.904	1.904
-0.020	-0.005	0.000	0.020	0.005	0.000	0.029	2.671	1.880	1.880	1.885	1.904	1.904	1.904
-0.015	0.010	0.005	0.010	0.005	0.010	0.029	2.681	1.890	1.890	1.885	1.904	1.904	1.904
-0.010	0.005	0.000	0.015	0.005	0.005	0.024	2.671	1.890	1.885	1.885	1.904	1.904	1.904
-0.005	0.000	0.000	0.015	0.005	-0.020	0.029	2.671	1.890	1.885	1.880	1.904	1.899	1.895
0.000	0.000	0.005	0.015	0.010	0.010	0.029	2.676	1.890	1.885	1.880	1.904	1.904	1.909
0.010	0.005	0.005	0.015	0.000	0.015	0.029	2.695	1.895	1.890	1.885	1.904	1.899	1.904
0.010	0.005	0.005	0.005	0.000	0.005	0.029	2.671	1.895	1.890	1.885	1.899	1.899	1.899
0.015	0.005	0.010	-0.010	0.005	0.005	0.029	2.705	1.899	1.890	1.885	1.899	1.899	1.899
0.005	0.005	0.010	-0.010	0.005	0.000	0.029	2.690	1.895	1.895	1.885	1.899	1.895	1.899
0.000	0.005	0.000	-0.015	0.000	0.000	0.029	2.705	1.895	1.890	1.885	1.899	1.895	1.899
-0.020	0.000	0.000	-0.005	0.010	0.000	0.029	2.642	1.885	1.890	1.885	1.904	1.899	1.899
-0.010	0.000	0.000	-0.015	0.000	-0.015	0.029	2.656	1.885	1.885	1.890	1.904	1.895	1.890
-0.020	0.005	0.005	-0.005	0.005	0.000	0.029	2.695	1.885	1.885	1.885	1.904	1.899	1.895
0.000	0.010	0.000	-0.005	0.005	0.000	0.029	2.642	1.904	1.895	1.890	1.904	1.899	1.899
-0.010	0.015	0.000	-0.010	0.000	0.015	0.029	2.642	1.895	1.890	1.890	1.904	1.899	1.899
0.000	0.000	0.000	-0.005	0.000	-0.015	0.029	2.646	1.899	1.890	1.890	1.904	1.899	1.895
0.000	0.000	-0.005	0.005	0.005	0.005	0.029	2.617	1.885	1.890	1.885	1.909	1.899	1.899
0.005	0.000	0.000	0.010	0.005	0.005	0.029	2.720	1.880	1.885	1.885	1.909	1.904	1.904
0.020	-0.005	0.000	0.005	0.005	0.020	0.029	2.632	1.885	1.885	1.885	1.909	1.904	1.904
0.010	-0.010	0.000	0.005	0.005	0.015	0.029	2.622	1.875	1.880	1.880	1.904	1.899	1.899
0.000	-0.010	0.005	-0.005	0.005	-0.005	0.029	2.671	1.875	1.880	1.880	1.899	1.899	1.895
0.000	0.005	0.005	0.000	0.000	-0.005	0.029	2.686	1.875	1.880	1.885	1.899	1.895	1.899
0.000	-0.005	0.005	0.005	0.000	0.005	0.029	2.695	1.880	1.875	1.885	1.899	1.895	1.899
0.010	0.000	0.005	0.010	-0.005	0.010	0.029	2.720	1.895	1.880	1.880	1.904	1.899	1.899
0.005	-0.010	0.000	0.010	-0.010	-0.020	0.029	2.671	1.890	1.880	1.875	1.899	1.895	1.890
-0.005	0.000	0.000	0.010	-0.010	0.005	0.029	2.739	1.895	1.885	1.880	1.904	1.895	1.899
-0.005	0.000	-0.005	0.005	-0.010	0.000	0.024	2.700	1.895	1.885	1.880	1.899	1.899	1.899
-0.005	0.020	-0.005	-0.005	-0.005	0.000	0.029	2.681	1.895	1.895	1.880	1.899	1.899	1.895
0.000	0.029	-0.005	-0.005	0.005	-0.005	0.029	2.686	1.895	1.895	1.885	1.899	1.899	1.899
-0.005	0.000	-0.005	0.000	0.015	-0.010	0.029	2.700	1.890	1.890	1.885	1.904	1.899	1.895
-0.010	-0.010	0.000	0.005	0.020	-0.005	0.029	2.671	1.890	1.890	1.885	1.904	1.899	1.899
-0.005	-0.010	0.005	0.005	0.015	-0.020	0.029	2.695	1.890	1.885	1.885	1.904	1.899	1.899
0.005	0.015	0.005	0.005	0.010	0.015	0.029	2.676	1.895	1.895	1.890	1.904	1.899	1.904
0.005	0.010	0.000	0.000	0.000	-0.005	0.029	2.690	1.890	1.895	1.890	1.904	1.895	1.899
-0.005	0.005	0.000	0.000	-0.024	0.010	0.029	2.690	1.890	1.890	1.890	1.904	1.890	1.899
0.005	0.005	0.000	0.000	-0.029	0.010	0.029	2.666	1.890	1.890	1.890	1.904	1.890	1.895
0.005	-0.005	0.000	0.000	-0.020	0.020	0.029	2.671	1.885	1.885	1.885	1.904	1.895	1.899
-0.005	0.000	0.005	0.000	0.010	0.020	0.029	2.666	1.885	1.885	1.885	1.904	1.904	1.904
-0.005	0.005	0.005	0.000	0.034	0.005	0.029	2.676	1.890	1.885	1.885	1.904	1.909	1.899
-0.005	-0.005	0.005	-0.005	0.059	0.015	0.029	2.671	1.885	1.880	1.885	1.904	1.914	1.904
0.005	0.000	0.000	0.000	0.073	0.015	0.029	2.681	1.890	1.885	1.885	1.904	1.914	1.909
0.005	0.005	0.000	0.000	0.068	-0.015	0.024	2.686	1.895	1.890	1.885	1.904	1.904	1.904
0.010	0.005	0.000	0.000	0.054	-0.010	0.029	2.705	1.899	1.890	1.885	1.904	1.904	1.904
0.005	0.005	-0.005	0.005	0.029	-0.015	0.029	2.681	1.895	1.890	1.885	1.904	1.895	1.895
0.010	0.000	0.000	0.000	0.005	-0.005	0.024	2.686	1.895	1.890	1.890	1.904	1.890	1.899
-0.005	0.005	0.000	-0.005	-0.015	-0.005	0.029	2.710	1.895	1.890	1.890	1.904	1.885	1.895
0.000	0.005	-0.015	-0.005	-0.029	-0.010	0.029	2.676	1.890	1.890	1.880	1.904	1.885	1.890
0.000	0.005	-0.005	0.000	-0.034	-0.029	0.024	2.700	1.890	1.890	1.885	1.904	1.890	1.885
0.000	0.005	0.000	-0.005	-0.024	-0.005	0.029	2.690	1.895	1.890	1.890	1.904	1.895	1.890
0.005	-0.005	0.005	0.005	-0.020	-0.005	0.029	2.676	1.890	1.890	1.890	1.909	1.899	1.899
0.000	0.000	0.010	0.005	-0.020	0.015	0.024	2.788	1.899	1.890	1.890	1.909	1.899	1.904
0.005	0.000	0.005	0.005	-0.010	0.000	0.029	2.651	1.890	1.890	1.890	1.909	1.904	1.899
-0.005	0.000	0.000	0.000	-0.005	0.000	0.029	2.700	1.895	1.890	1.885	1.904	1.904	1.899
0.000	0.005	0.010	0.010	-0.010	-0.005	0.029	2.637	1.890	1.890	1.890	1.909	1.904	1.899
0.000	0.000	0.010	0.000	-0.005	0.005	0.029	2.729	1.895	1.890	1.890	1.904	1.904	1.904
0.005	-0.010	0.000	-0.005	-0.005	-0.015	0.029	2.734	1.899	1.890	1.885	1.904	1.904	1.899
0.015	-0.010	0.010	-0.010	0.000	0.005	0.029	2.637	1.895	1.890	1.890	1.904	1.904	1.904
0.015	0.000	0.010	-0.005	0.005	0.005	0.029	2.744	1.899	1.899	1.890	1.909	1.904	1.904
0.010	0.010	0.005	-0.005	0.005	0.000	0.029	2.632	1.895	1.899	1.890	1.909	1.904	1.904
0.000	0.005	0.005	0.005	0.000	-0.029	0.029	2.725	1.890	1.895	1.895	1.909	1.899	1.895
-0.005	0.010	-0.010	0.005	0.000	-0.015	0.029	2.656	1.890	1.895	1.890	1.914	1.904	1.899
0.000	-0.015	0.000	0.010	-0.010	0.005	0.029	2.739	1.899	1.890	1.890	1.909	1.904	1.909
0.039	-0.010	0.005	0.015	-0.020	0.015	0.029	2.690	1.909	1.895	1.890	1.914	1.899	1.909
0.059	-0.005	-0.005	0.015	-0.029	0.010	0.029	2.725	1.919	1.904	1.890	1.909	1.899	1.904
0.083	0.000	-0.005	0.010	-0.029	-0.005	0.029	2.686	1.914	1.909	1.895	1.909	1.899	1.899
0.044	-0.005	0.000	0.000	-0.034	0.005	0.029	2.637	1.890	1.899	1.899	1.909	1.904	1.904
0.005	0.000	0.000	0.005	-0.024	0.015	0.029	2.695	1.880	1.895	1.899	1.909	1.904	1.909
-0.034	0.024	0.000	0.000	-0.005	0.020	0.029	2.681	1.875	1.890	1.895	1.909	1.914	1.909
-0.063	0.015	0.000	-0.005	0.015	0.010	0.029	2.671	1.870	1.880	1.890	1.909	1.914	1.909
-0.068	0.005	0.005	-0.010	0.044	0.010	0.029	2.681	1.870	1.875	1.885	1.909	1.919	1.909
-0.044	0.000	0.005	-0.010	0.059	-0.010	0.029	2.715	1.885	1.875	1.880	1.904	1.919	1.909
-0.049	0.015	0.000	-0.005	0.063	-0.005	0.029	2.686	1.885	1.885	1.880	1.904	1.914	1.909
-0.034	0.000	0.010	0.000	0.059	0.000	0.024	2.681	1.890	1.880	1.880	1.904	1.909	1.909
-0.044	0.005	0.000	0.005	0.044	0.005	0.029	2.690	1.895	1.885	1.880	1.904	1.904	1.909
-0.034	0.010	-0.005	0.010	0.029	0.000	0.029	2.676	1.899	1.890	1.880	1.904	1.895	1.904
-0.029	-0.015	-0.005	0.015	0.010	0.005	0.029	2.695	1.899	1.885	1.880	1.904	1.895	1.904
-0.034	0.000	-0.005	0.010	-0.005	0.000	0.029	2.671	1.895	1.895	1.885	1.899	1.890	1.895
-0.020	-0.005	0.000	0.010	-0.024	0.005	0.029	2.695	1.899	1.895	1.890	1.899	1.890	1.899
-0.010	0.000	0.000	0.010	-0.034	0.000	0.029	2.695	1.904	1.899	1.890	1.904	1.890	1.895
-0.005	0.000	-0.005	0.000	-0.029	0.000	0.029	2.676	1.895	1.899	1.890	1.904	1.890	1.895
-0.005	-0.005	0.000	0.005	-0.029	0.005	0.029	2.671	1.890	1.895	1.890	1.904	1.895	1.895
-0.010	-0.005	0.000	0.005	-0.024	-0.005	0.029	2.666	1.890	1.895	1.890	1.909	1.899	1.895
-0.010	-0.005	0.000	0.000	-0.015	0.015	0.029	2.690	1.890	1.890	1.890	1.904	1.904	1.899
0.000	0.005	-0.005	0.000	-0.010	-0.005	0.029	2.656	1.890	1.895	1.890	1.904	1.904	1.895
0.005	0.005	0.000	0.000	-0.005	-0.010	0.029	2.666	1.885	1.890	1.895	1.904	1.904	1.895
0.015	0.000	0.000	-0.010	0.005	0.010	0.029	2.676	1.890	1.890	1.890	1.904	1.904	1.904
0.039	-0.005	0.010	-0.005	0.000	-0.015	0.029	2.690	1.899	1.890	1.890	1.909	1.904	1.895
0.088	-0.005	0.005	-0.005	-0.005	0.015	0.024	2.700	1.914	1.895	1.890	1.904	1.904	1.909
0.073	0.005	0.000	-0.005	0.000	0.000	0.029	2.686	1.904	1.899	1.890	1.909	1.904	1.904
0.049	0.000	0.010	0.000	0.000	0.010	0.029	2.686	1.895	1.895	1.895	1.909	1.904	1.904
0.034	0.010	0.000	0.000	0.000	0.000	0.024	2.651	1.885	1.895	1.890	1.909	1.904	1.899
0.024	0.000	-0.005	0.000	0.000	0.005	0.024	2.651	1.880	1.885	1.890	1.909	1.904	1.904
0.005	0.000	-0.005	0.000	0.000	0.010	0.024	2.695	1.880	1.885	1.885	1.909	1.904	1.904
-0.005	0.005	-0.005	0.005	0.005	0.000	0.024	2.651	1.880	1.885	1.890	1.909	1.909	1.904
-0.005	0.010	-0.005	0.005	0.000	0.005	0.029	2.646	1.880	1.885	1.885	1.909	1.904	1.904
0.024	0.005	0.005	0.005	0.005	-0.020	0.029	2.759	1.890	1.885	1.885	1.909	1.904	1.899
0.049	0.005	0.000	0.005	0.005	0.005	0.029	2.725	1.904	1.890	1.890	1.904	1.909	1.909
0.034	-0.005	0.005	0.010	0.000	0.000	0.029	2.734	1.899	1.890	1.890	1.909	1.904	1.904
0.020	0.005	0.010	0.005	0.005	0.000	0.029	2.627	1.885	1.890	1.890	1.904	1.904	1.909
-0.010	0.005	0.005	0.000	0.010	-0.005	0.029	2.622	1.875	1.885	1.885	1.904	1.904	1.899
-0.039	0.000	-0.010	-0.005	0.005	0.005	0.029	2.666	1.870	1.880	1.880	1.899	1.904	1.904
-0.073	-0.010	0.000	-0.010	0.005	-0.005	0.029	2.666	1.870	1.870	1.880	1.899	1.895	1.899
-0.068	-0.020	0.010	0.000	0.000	0.010	0.029	2.700	1.880	1.875	1.875	1.899	1.895	1.904
-0.059	-0.010	0.010	0.010	0.005	-0.005	0.029	2.710	1.885	1.875	1.880	1.899	1.899	1.899
-0.039	0.000	0.005	0.010	0.000	-0.024	0.029	2.700	1.895	1.885	1.880	1.899	1.895	1.890
-0.015	0.010	-0.005	0.010	0.000	-0.010	0.029	2.749	1.904	1.890	1.880	1.899	1.895	1.899
0.005	0.005	0.005	0.005	0.000	-0.010	0.029	2.676	1.909	1.895	1.885	1.899	1.895	1.895
0.010	0.000	0.000	-0.005	0.000	-0.024	0.029	2.671	1.904	1.895	1.890	1.899	1.895	1.895
0.005	0.005	0.000	-0.015	-0.005	-0.024	0.029	2.681	1.904	1.899	1.890	1.899	1.895	1.890
0.020	0.005	0.000	-0.024	0.000	-0.015	0.029	2.671	1.904	1.899	1.890	1.899	1.895	1.895
0.024	0.005	0.000	-0.015	-0.005	0.010	0.029	2.676	1.904	1.899	1.895	1.909	1.895	1.899
0.020	-0.005	-0.005	0.010	0.000	0.010	0.029	2.700	1.899	1.899	1.890	1.914	1.899	1.904
0.015	0.005	-0.010	0.010	0.000	0.005	0.029	2.671	1.899	1.899	1.895	1.914	1.904	1.904
0.020	0.010	-0.010	0.010	0.005	0.000	0.029	2.700	1.899	1.899	1.895	1.914	1.904	1.899
0.029	0.000	0.000	0.005	0.005	0.010	0.029	2.666	1.899	1.899	1.899	1.914	1.909	1.904
0.059	0.005	0.000	0.005	0.005	-0.015	0.029	2.681	1.899	1.899	1.899	1.914	1.904	1.899
0.044	-0.005	0.000	0.010	-0.005	0.015	0.029	2.666	1.890	1.895	1.895	1.914	1.909	1.909
0.034	-0.005	0.000	0.015	0.005	0.010	0.029	2.690	1.890	1.890	1.895	1.914	1.909	1.909
0.010	-0.015	0.005	0.015	0.000	0.015	0.029	2.671	1.880	1.885	1.890	1.914	1.909	1.909
-0.020	0.000	0.010	0.010	0.000	0.005	0.029	2.671	1.875	1.885	1.890	1.909	1.909	1.904
-0.024	0.005	0.010	0.005	0.000	0.005	0.029	2.676	1.880	1.880	1.890	1.909	1.904	1.904
-0.034	0.010	0.005	0.005	0.005	0.005	0.024	2.681	1.880	1.885	1.885	1.909	1.909	1.904
-0.029	0.010	0.000	0.005	0.005	0.005	0.029	2.676	1.880	1.880	1.885	1.904	1.904	1.909
-0.029	0.005	0.015	0.000	-0.005	-0.020	0.029	2.671	1.885	1.880	1.880	1.904	1.904	1.895
-0.024	0.010	0.010	-0.005	-0.005	0.000	0.029	2.671	1.890	1.890	1.885	1.899	1.899	1.899
-0.010	0.005	0.000	-0.005	-0.005	0.015	0.029	2.695	1.895	1.885	1.880	1.899	1.899	1.909
0.000	-0.005	0.000	-0.005	-0.005	0.015	0.029	2.705	1.899	1.885	1.880	1.899	1.899	1.904
0.000	0.000	0.000	-0.010	0.000	0.020	0.029	2.705	1.904	1.895	1.885	1.899	1.899	1.904
0.015	0.010	-0.010	-0.005	-0.005	0.005	0.029	2.686	1.904	1.899	1.885	1.904	1.895	1.899
0.010	0.005	-0.015	0.000	0.005	0.000	0.029	2.686	1.899	1.899	1.890	1.904	1.899	1.899
0.015	-0.005	0.000	0.005	0.010	-0.005	0.029	2.656	1.895	1.895	1.890	1.909	1.899	1.895
0.049	-0.010	-0.010	0.000	0.000	-0.010	0.024	2.666	1.904	1.895	1.890	1.909	1.899	1.895
0.044	-0.010	-0.010	0.000	0.000	0.005	0.029	2.686	1.899	1.895	1.890	1.904	1.899	1.899
0.020	0.015	-0.005	-0.010	0.000	0.005	0.024	2.637	1.885	1.899	1.890	1.904	1.899	1.899
0.020	-0.005	0.005	-0.010	0.000	0.010	0.024	2.646	1.880	1.890	1.895	1.904	1.899	1.899
0.000	-0.010	0.010	-0.005	0.000	0.000	0.029	2.690	1.875	1.880	1.890	1.904	1.904	1.899
-0.015	-0.010	0.020	0.000	0.000	0.000	0.029	2.710	1.880	1.880	1.890	1.909	1.904	1.899
-0.020	0.010	0.015	0.005	0.010	0.000	0.029	2.749	1.885	1.885	1.885	1.909	1.904	1.899
-0.020	0.010	0.010	0.005	0.005	-0.005	0.029	2.627	1.880	1.880	1.885	1.909	1.904	1.904
-0.015	0.000	0.015	0.010	0.000	0.010	0.024	2.637	1.880	1.885	1.885	1.909	1.904	1.904
-0.015	0.015	0.005	0.010	0.000	0.005	0.029	2.686	1.885	1.885	1.880	1.904	1.904	1.904
0.029	0.000	0.005	0.010	0.000	0.000	0.024	2.720	1.904	1.885	1.880	1.904	1.899	1.899
0.049	0.005	0.005	0.010	0.000	0.000	0.024	2.700	1.909	1.895	1.885	1.904	1.904	1.899
0.044	-0.005	-0.005	0.005	-0.005	0.000	0.024	2.710	1.909	1.895	1.885	1.899	1.899	1.899
0.039	0.000	-0.010	0.000	0.000	-0.005	0.024	2.695	1.904	1.895	1.885	1.899	1.899	1.899
0.020	-0.005	0.000	-0.005	0.000	0.000	0.024	2.627	1.890	1.890	1.890	1.899	1.899	1.904
-0.005	-0.005	-0.005	-0.005	0.005	0.000	0.029	2.695	1.880	1.890	1.890	1.904	1.899	1.899
-0.039	0.024	-0.010	-0.005	0.010	-0.015	0.024	2.676	1.875	1.890	1.890	1.904	1.899	1.895
-0.063	0.020	-0.010	-0.005	0.010	-0.010	0.029	2.671	1.875	1.885	1.885	1.904	1.899	1.899
-0.044	0.020	-0.005	-0.005	0.010	0.010	0.029	2.690	1.880	1.880	1.885	1.904	1.899	1.904
-0.034	0.005	-0.010	-0.005	0.015	0.000	0.029	2.666	1.880	1.880	1.885	1.899	1.899	1.899
-0.039	0.010	0.005	-0.005	0.000	0.015	0.029	2.700	1.885	1.880	1.885	1.904	1.899	1.904
-0.039	0.010	0.010	0.005	0.005	-0.005	0.029	2.671	1.885	1.880	1.885	1.904	1.895	1.895
-0.039	-0.005	0.005	0.010	0.000	0.020	0.029	2.690	1.890	1.880	1.880	1.899	1.895	1.899
0.005	0.010	0.010	0.010	0.005	0.015	0.029	2.666	1.899	1.890	1.885	1.904	1.899	1.899
0.020	0.005	-0.010	0.010	0.000	0.005	0.029	2.681	1.899	1.890	1.880	1.899	1.895	1.899
0.010	0.000	0.005	0.005	0.000	0.005	0.029	2.671	1.895	1.890	1.885	1.904	1.899	1.895
-0.010	0.000	0.010	0.005	-0.005	0.005	0.029	2.690	1.885	1.890	1.885	1.899	1.895	1.895
-0.015	-0.010	0.005	-0.005	0.000	0.005	0.029	2.705	1.885	1.885	1.885	1.899	1.895	1.895
-0.005	-0.005	0.005	-0.010	-0.005	0.000	0.029	2.676	1.895	1.890	1.885	1.899	1.895	1.895
-0.005	-0.015	0.000	-0.005	0.000	-0.005	0.029	2.681	1.890	1.890	1.885	1.899	1.895	1.895
0.005	-0.010	-0.005	-0.010	0.005	-0.010	0.029	2.681	1.890	1.890	1.885	1.899	1.895	1.895
0.015	-0.010	-0.005	-0.005	-0.005	0.005	0.029	2.661	1.890	1.890	1.885	1.904	1.899	1.899
0.005	-0.005	-0.005	0.000	-0.005	0.010	0.029	2.671	1.885	1.890	1.885	1.904	1.895	1.899
0.020	0.000	0.000	-0.010	0.005	-0.005	0.029	2.676	1.895	1.890	1.885	1.904	1.899	1.890
0.024	0.010	0.000	0.005	0.010	0.010	0.029	2.700	1.895	1.895	1.890	1.904	1.899	1.899
0.020	0.010	0.000	0.010	0.005	0.000	0.029	2.705	1.895	1.895	1.890	1.909	1.899	1.895
0.020	0.005	0.000	0.015	-0.005	-0.005	0.029	2.686	1.890	1.895	1.890	1.904	1.899	1.899
0.010	0.015	0.005	0.010	0.000	0.005	0.029	2.695	1.890	1.890	1.890	1.909	1.904	1.899
0.010	0.005	0.005	0.000	0.005	0.005	0.029	2.656	1.885	1.885	1.885	1.904	1.899	1.899
0.020	0.000	0.005	-0.010	0.000	0.000	0.029	2.642	1.885	1.890	1.885	1.899	1.899	1.899
0.015	-0.005	0.005	-0.029	0.010	-0.015	0.029	2.651	1.880	1.885	1.885	1.895	1.899	1.895
