0.000	0.000	0.000	0.000	-0.005	-0.024	0.029	1.758	2.051	1.572	1.465	1.313	1.333	1.304
-0.005	0.010	-0.005	0.000	-0.005	-0.005	0.024	1.777	1.841	1.655	1.519	1.372	1.343	1.318
0.000	0.000	0.000	0.000	-0.005	0.005	0.024	1.782	1.685	1.670	1.558	1.426	1.362	1.333
0.000	0.005	0.000	0.000	0.000	0.010	0.029	1.792	1.577	1.646	1.587	1.475	1.392	1.353
0.005	0.000	0.005	0.000	-0.005	0.000	0.024	1.777	1.499	1.611	1.592	1.514	1.421	1.367
0.005	-0.005	0.000	-0.005	-0.005	0.005	0.024	1.777	1.436	1.562	1.587	1.538	1.455	1.392
-0.005	-0.005	0.000	0.000	-0.005	0.005	0.024	1.758	1.401	1.523	1.567	1.553	1.479	1.416
0.005	-0.005	0.000	0.000	0.005	0.000	0.024	1.797	1.372	1.479	1.548	1.558	1.504	1.436
0.000	-0.005	0.000	0.000	0.015	0.005	0.029	1.753	1.357	1.450	1.523	1.558	1.523	1.460
0.000	0.005	-0.005	-0.005	0.015	-0.015	0.029	1.782	1.348	1.421	1.499	1.543	1.523	1.475
0.000	-0.005	0.000	0.000	-0.005	-0.010	0.029	1.753	1.338	1.401	1.470	1.533	1.523	1.489
-0.005	-0.005	0.005	0.000	-0.005	-0.015	0.029	1.797	1.333	1.382	1.450	1.514	1.519	1.494
-0.010	-0.005	0.000	0.000	0.000	-0.005	0.029	1.763	1.328	1.367	1.421	1.494	1.514	1.499
-0.005	-0.005	-0.005	-0.005	0.000	-0.010	0.024	1.792	1.333	1.362	1.401	1.475	1.499	1.499
-0.005	-0.005	-0.005	0.000	0.000	0.005	0.024	1.729	1.333	1.353	1.387	1.455	1.489	1.499
0.000	-0.005	0.000	-0.005	-0.005	0.005	0.024	1.743	1.323	1.348	1.382	1.440	1.470	1.494
0.005	0.010	-0.005	0.005	-0.005	-0.005	0.029	1.797	1.333	1.343	1.367	1.426	1.460	1.484
-0.005	0.015	0.000	0.000	-0.010	0.005	0.029	1.782	1.333	1.348	1.362	1.416	1.440	1.475
0.000	0.005	0.000	-0.005	-0.005	0.000	0.024	1.797	1.338	1.338	1.353	1.401	1.431	1.460
0.005	0.000	0.000	-0.005	-0.005	-0.005	0.029	1.787	1.333	1.338	1.353	1.392	1.421	1.450
-0.005	0.000	-0.005	0.000	0.000	-0.010	0.024	1.768	1.328	1.333	1.348	1.387	1.411	1.440
-0.005	-0.005	-0.005	-0.005	-0.005	-0.010	0.024	1.777	1.323	1.328	1.343	1.377	1.401	1.431
0.000	0.000	0.000	-0.005	0.000	0.015	0.024	1.763	1.328	1.333	1.338	1.377	1.396	1.421
0.005	0.000	0.000	0.000	0.005	0.000	0.029	1.782	1.323	1.328	1.338	1.367	1.387	1.411
0.005	0.000	0.000	-0.005	0.005	0.005	0.029	1.807	1.333	1.328	1.333	1.362	1.377	1.406
-0.005	-0.005	-0.005	-0.005	0.000	0.005	0.029	1.821	1.338	1.328	1.333	1.362	1.372	1.392
-0.005	-0.005	-0.005	0.000	-0.005	0.000	0.024	1.787	1.328	1.328	1.333	1.357	1.362	1.382
0.000	-0.010	0.005	0.000	-0.005	0.000	0.024	1.792	1.323	1.328	1.333	1.353	1.362	1.377
0.005	-0.010	0.000	0.000	-0.005	-0.020	0.024	1.768	1.318	1.328	1.328	1.353	1.357	1.367
-0.005	0.000	0.000	0.000	-0.010	0.005	0.024	1.763	1.299	1.323	1.323	1.353	1.353	1.367
-0.005	0.000	-0.005	0.000	0.000	0.000	0.029	1.787	1.294	1.318	1.318	1.348	1.353	1.362
-0.005	-0.005	0.000	0.000	0.000	0.005	0.029	1.787	1.294	1.304	1.318	1.343	1.348	1.357
-0.005	-0.010	0.000	0.000	-0.005	0.005	0.029	1.768	1.294	1.304	1.313	1.343	1.343	1.353
-0.005	-0.010	-0.005	-0.005	0.000	-0.005	0.029	1.777	1.294	1.299	1.309	1.338	1.343	1.343
0.005	-0.010	0.000	0.000	0.005	-0.005	0.024	1.738	1.294	1.299	1.304	1.333	1.343	1.348
0.000	-0.005	0.000	0.000	0.010	0.000	0.024	1.777	1.289	1.294	1.304	1.328	1.338	1.343
0.000	0.000	0.000	0.000	0.010	-0.005	0.024	1.777	1.289	1.299	1.304	1.328	1.333	1.343
0.000	0.005	0.000	0.000	0.010	0.005	0.024	1.758	1.284	1.294	1.299	1.323	1.328	1.343
0.000	0.000	0.000	-0.005	0.000	0.005	0.024	1.787	1.284	1.289	1.294	1.323	1.323	1.333
0.000	-0.005	0.000	0.005	-0.010	0.005	0.029	1.772	1.274	1.284	1.294	1.318	1.318	1.333
-0.005	0.000	0.000	0.000	-0.015	0.005	0.024	1.782	1.274	1.284	1.289	1.318	1.318	1.323
0.000	-0.005	0.000	0.000	-0.010	-0.005	0.024	1.768	1.274	1.279	1.289	1.313	1.313	1.323
-0.005	-0.005	0.000	0.000	-0.005	-0.010	0.029	1.763	1.270	1.274	1.284	1.309	1.313	1.318
0.000	-0.005	0.000	0.000	0.000	0.005	0.029	1.763	1.265	1.274	1.284	1.309	1.313	1.318
-0.005	0.000	0.000	-0.005	0.000	0.000	0.024	1.802	1.265	1.270	1.279	1.304	1.309	1.309
0.000	0.005	0.005	0.000	-0.005	0.005	0.029	1.772	1.260	1.270	1.279	1.299	1.309	1.313
0.010	0.005	0.000	0.000	-0.005	0.005	0.024	1.782	1.265	1.265	1.270	1.299	1.304	1.309
0.000	0.015	-0.005	-0.005	0.000	0.010	0.029	1.748	1.250	1.265	1.270	1.294	1.299	1.309
-0.005	-0.015	-0.005	0.000	-0.005	0.000	0.029	1.802	1.255	1.255	1.265	1.289	1.294	1.299
-0.005	-0.005	-0.005	0.005	-0.005	-0.015	0.029	1.768	1.245	1.255	1.260	1.289	1.289	1.294
0.000	-0.005	0.000	-0.005	-0.005	-0.005	0.029	1.792	1.250	1.255	1.260	1.284	1.289	1.294
-0.005	-0.005	-0.010	0.000	0.005	0.000	0.024	1.763	1.245	1.250	1.255	1.279	1.284	1.294
-0.005	-0.010	0.000	0.000	0.000	0.005	0.024	1.768	1.245	1.250	1.255	1.279	1.284	1.294
0.000	-0.020	-0.005	0.000	0.000	0.000	0.024	1.782	1.245	1.245	1.250	1.279	1.279	1.289
-0.005	-0.010	0.000	0.000	-0.005	-0.005	0.024	1.763	1.235	1.245	1.250	1.274	1.279	1.284
0.000	-0.010	0.000	0.000	0.005	0.000	0.024	1.797	1.240	1.245	1.250	1.274	1.274	1.284
0.000	0.000	0.000	0.000	-0.005	-0.015	0.024	1.763	1.240	1.245	1.250	1.270	1.270	1.274
0.005	0.000	0.000	0.000	-0.005	0.005	0.029	1.797	1.240	1.240	1.245	1.270	1.270	1.279
0.000	0.005	0.000	0.000	-0.005	0.000	0.024	1.787	1.240	1.245	1.245	1.270	1.270	1.270
0.005	0.000	0.000	0.000	0.000	0.005	0.024	1.807	1.240	1.240	1.245	1.270	1.270	1.274
-0.005	-0.005	0.000	-0.005	0.005	0.005	0.024	1.748	1.230	1.235	1.240	1.265	1.270	1.274
-0.005	0.015	-0.005	0.000	0.005	-0.010	0.024	1.782	1.226	1.240	1.235	1.265	1.265	1.265
-0.005	0.010	-0.005	-0.005	0.005	0.000	0.029	1.797	1.226	1.230	1.235	1.260	1.265	1.270
-0.010	0.005	0.000	0.000	0.000	0.000	0.029	1.797	1.226	1.230	1.230	1.255	1.260	1.265
-0.005	0.010	0.000	0.000	-0.005	0.005	0.024	1.797	1.230	1.230	1.230	1.255	1.255	1.260
0.005	0.010	-0.005	-0.005	0.000	0.000	0.024	1.768	1.226	1.230	1.230	1.250	1.255	1.260
0.000	0.005	0.000	0.000	0.000	0.005	0.024	1.743	1.221	1.226	1.230	1.250	1.255	1.255
0.000	0.000	0.005	0.000	0.000	-0.015	0.024	1.758	1.240	1.226	1.230	1.245	1.250	1.250
-0.005	0.000	0.000	0.000	0.000	-0.015	0.024	1.792	1.226	1.226	1.226	1.245	1.245	1.250
0.005	0.000	0.000	0.000	0.000	-0.005	0.024	1.787	1.226	1.226	1.226	1.245	1.245	1.250
0.010	-0.005	0.000	0.000	-0.005	0.000	0.024	1.733	1.216	1.221	1.226	1.245	1.245	1.250
0.000	-0.020	-0.005	-0.005	0.000	-0.024	0.029	1.782	1.211	1.216	1.221	1.245	1.245	1.245
-0.005	-0.005	-0.005	-0.005	-0.005	-0.005	0.029	1.797	1.211	1.216	1.221	1.245	1.240	1.245
0.005	0.000	-0.005	-0.005	0.000	0.000	0.029	1.782	1.211	1.216	1.221	1.245	1.240	1.245
-0.005	-0.005	-0.005	0.005	-0.005	0.005	0.029	1.768	1.206	1.211	1.216	1.240	1.240	1.245
0.000	-0.005	-0.005	0.000	-0.005	0.005	0.024	1.733	1.206	1.211	1.216	1.240	1.240	1.245
0.000	0.005	-0.005	0.000	-0.005	0.005	0.029	1.748	1.201	1.211	1.216	1.235	1.235	1.245
-0.005	0.000	0.000	0.000	0.000	0.000	0.029	1.772	1.196	1.206	1.211	1.235	1.235	1.240
0.005	0.000	-0.005	0.000	-0.005	0.000	0.029	1.777	1.201	1.206	1.211	1.230	1.230	1.235
0.000	0.000	0.000	-0.005	-0.005	-0.005	0.029	1.816	1.201	1.206	1.206	1.230	1.230	1.235
-0.010	-0.005	0.005	0.000	-0.005	0.005	0.024	1.772	1.201	1.201	1.206	1.230	1.230	1.235
0.000	-0.005	0.000	-0.005	-0.010	0.000	0.024	1.748	1.196	1.201	1.206	1.226	1.226	1.230
0.000	0.029	0.000	-0.005	0.005	0.005	0.024	1.787	1.191	1.206	1.201	1.226	1.226	1.230
0.000	0.015	-0.005	0.000	0.010	0.000	0.029	1.792	1.187	1.196	1.201	1.226	1.226	1.226
0.000	0.005	0.000	0.000	0.005	-0.010	0.024	1.763	1.191	1.191	1.201	1.221	1.221	1.226
0.005	-0.010	-0.005	0.000	0.005	0.000	0.029	1.787	1.191	1.187	1.196	1.221	1.221	1.226
-0.005	0.000	0.000	0.000	0.005	0.005	0.029	1.797	1.191	1.191	1.191	1.216	1.221	1.226
0.000	0.000	0.000	0.000	0.005	0.000	0.029	1.782	1.196	1.191	1.196	1.216	1.216	1.221
0.005	-0.005	0.000	0.000	0.000	0.005	0.029	1.729	1.191	1.191	1.191	1.216	1.216	1.221
-0.010	0.005	0.010	-0.005	0.000	0.000	0.024	1.802	1.191	1.191	1.196	1.216	1.216	1.216
-0.005	-0.005	0.000	-0.005	0.010	-0.020	0.024	1.797	1.191	1.187	1.191	1.216	1.211	1.211
-0.005	-0.010	0.000	0.000	0.000	0.000	0.029	1.763	1.187	1.191	1.187	1.211	1.211	1.211
0.000	-0.005	-0.005	-0.005	0.000	0.000	0.024	1.787	1.191	1.187	1.187	1.211	1.211	1.211
-0.005	0.000	0.000	0.000	-0.005	0.000	0.029	1.738	1.187	1.191	1.187	1.211	1.211	1.211
0.000	-0.005	-0.005	0.000	0.000	-0.020	0.024	1.777	1.182	1.187	1.187	1.211	1.206	1.206
-0.005	-0.005	-0.005	0.000	0.000	0.000	0.029	1.782	1.182	1.182	1.182	1.211	1.206	1.211
-0.005	-0.005	0.000	0.005	0.000	0.010	0.029	1.772	1.177	1.177	1.187	1.211	1.206	1.216
-0.005	-0.015	-0.010	-0.005	0.000	-0.020	0.024	1.807	1.177	1.177	1.182	1.201	1.201	1.206
-0.005	0.000	-0.005	0.000	-0.005	0.010	0.024	1.782	1.177	1.182	1.177	1.201	1.201	1.211
-0.005	0.005	0.000	0.000	0.000	0.010	0.024	1.748	1.172	1.182	1.182	1.201	1.201	1.206
0.000	0.010	-0.005	0.000	-0.005	-0.015	0.029	1.748	1.172	1.182	1.182	1.201	1.196	1.196
0.005	-0.015	0.000	0.005	-0.005	0.000	0.029	1.763	1.167	1.167	1.177	1.196	1.196	1.201
0.005	-0.010	0.000	-0.005	0.000	0.000	0.029	1.807	1.172	1.172	1.177	1.196	1.196	1.201
0.000	0.000	-0.005	0.005	-0.005	0.000	0.024	1.738	1.167	1.172	1.172	1.196	1.196	1.201
-0.005	0.005	0.000	0.000	-0.005	0.005	0.024	1.797	1.172	1.172	1.177	1.191	1.191	1.191
0.000	0.005	-0.005	0.000	0.000	0.000	0.029	1.729	1.162	1.172	1.177	1.191	1.191	1.196
0.000	0.000	0.000	0.005	-0.005	0.000	0.029	1.709	1.162	1.167	1.172	1.196	1.191	1.196
-0.005	0.000	0.000	0.000	0.000	0.005	0.024	1.743	1.162	1.162	1.172	1.191	1.191	1.196
0.000	-0.015	0.000	0.000	-0.005	-0.010	0.024	1.753	1.162	1.162	1.167	1.191	1.191	1.187
-0.005	-0.005	-0.005	-0.005	-0.005	0.005	0.024	1.777	1.162	1.162	1.167	1.187	1.187	1.191
0.000	0.000	0.000	-0.005	-0.005	0.000	0.024	1.782	1.162	1.167	1.167	1.187	1.187	1.187
0.000	0.005	0.000	0.000	0.005	0.005	0.024	1.792	1.162	1.162	1.162	1.187	1.187	1.187
0.005	-0.005	0.000	0.000	0.005	0.000	0.024	1.758	1.162	1.162	1.162	1.187	1.187	1.187
0.010	0.000	-0.005	0.000	0.005	0.005	0.024	1.758	1.157	1.157	1.162	1.182	1.182	1.191
-0.005	-0.005	0.000	0.000	0.000	0.000	0.029	1.812	1.167	1.157	1.162	1.182	1.182	1.182
-0.005	-0.010	0.000	0.000	-0.005	0.010	0.029	1.753	1.157	1.157	1.162	1.182	1.177	1.187
0.000	-0.005	0.000	-0.005	0.000	0.005	0.029	1.763	1.157	1.157	1.157	1.177	1.177	1.182
0.000	0.005	0.005	0.000	-0.005	-0.005	0.024	1.748	1.152	1.157	1.157	1.177	1.177	1.177
0.000	0.005	0.000	-0.005	-0.005	0.005	0.024	1.792	1.157	1.157	1.157	1.177	1.172	1.177
-0.005	0.005	0.000	0.000	0.000	0.000	0.024	1.782	1.157	1.157	1.157	1.177	1.172	1.177
0.005	0.005	0.000	-0.005	0.000	0.000	0.024	1.802	1.162	1.162	1.157	1.177	1.177	1.177
0.000	-0.005	0.000	0.000	0.000	0.000	0.024	1.763	1.152	1.157	1.157	1.177	1.177	1.177
0.000	0.000	0.000	-0.005	0.005	-0.005	0.029	1.768	1.157	1.157	1.157	1.177	1.177	1.172
-0.005	0.010	0.000	-0.005	0.000	0.000	0.029	1.792	1.157	1.157	1.157	1.177	1.172	1.172
0.000	0.000	0.000	-0.005	-0.010	-0.015	0.029	1.758	1.152	1.152	1.157	1.177	1.172	1.172
-0.010	0.005	0.000	-0.005	-0.010	-0.005	0.024	1.753	1.147	1.152	1.157	1.177	1.172	1.172
0.000	0.005	-0.005	0.000	0.000	-0.005	0.029	1.797	1.147	1.152	1.152	1.177	1.172	1.172
-0.010	0.010	0.005	-0.005	0.000	-0.010	0.029	1.802	1.157	1.152	1.152	1.177	1.177	1.167
0.000	-0.005	-0.005	0.000	0.000	0.000	0.024	1.777	1.147	1.147	1.152	1.172	1.172	1.172
0.000	-0.005	0.000	0.000	-0.005	-0.005	0.029	1.748	1.147	1.147	1.147	1.172	1.172	1.167
-0.010	0.000	0.000	0.005	0.005	0.000	0.024	1.792	1.147	1.147	1.147	1.172	1.172	1.172
-0.005	-0.010	0.000	0.000	0.000	-0.005	0.029	1.782	1.152	1.143	1.147	1.167	1.167	1.172
0.000	0.000	0.000	0.000	0.000	0.005	0.024	1.792	1.152	1.147	1.143	1.167	1.167	1.172
-0.005	0.005	-0.005	-0.005	0.005	0.005	0.024	1.777	1.147	1.152	1.147	1.167	1.167	1.172
0.000	0.000	0.000	0.000	0.000	0.005	0.029	1.797	1.152	1.152	1.147	1.167	1.162	1.167
-0.010	0.005	-0.005	0.000	-0.005	-0.005	0.024	1.758	1.147	1.152	1.147	1.167	1.162	1.162
0.000	0.000	0.000	0.000	0.000	0.005	0.029	1.758	1.143	1.147	1.147	1.167	1.167	1.162
-0.010	-0.005	0.000	0.000	-0.005	-0.024	0.029	1.743	1.143	1.147	1.147	1.167	1.162	1.157
0.005	0.000	0.005	0.000	-0.005	-0.005	0.024	1.787	1.143	1.147	1.152	1.167	1.162	1.162
-0.005	-0.005	-0.005	0.000	0.000	0.005	0.029	1.772	1.143	1.143	1.147	1.167	1.162	1.167
0.005	-0.005	0.000	0.000	0.000	0.000	0.024	1.758	1.143	1.143	1.147	1.167	1.162	1.167
0.000	0.000	0.000	0.000	0.000	-0.005	0.029	1.787	1.133	1.143	1.147	1.167	1.162	1.162
-0.010	-0.005	0.000	0.000	0.000	-0.005	0.024	1.807	1.138	1.138	1.143	1.167	1.162	1.162
0.005	0.010	-0.005	-0.005	0.005	-0.024	0.029	1.772	1.138	1.143	1.143	1.162	1.162	1.152
-0.005	0.005	0.000	0.000	0.000	0.000	0.029	1.758	1.138	1.143	1.143	1.162	1.162	1.162
0.000	0.005	0.000	0.000	0.005	0.010	0.029	1.777	1.147	1.138	1.143	1.162	1.157	1.167
-0.005	0.005	-0.005	0.000	0.000	0.010	0.029	1.777	1.143	1.143	1.143	1.162	1.157	1.162
-0.005	0.005	-0.005	0.000	0.005	-0.005	0.029	1.807	1.147	1.143	1.138	1.162	1.157	1.157
-0.005	0.005	0.000	-0.005	0.000	0.000	0.024	1.792	1.143	1.138	1.143	1.157	1.152	1.157
0.000	-0.005	0.005	0.000	0.005	0.005	0.024	1.733	1.143	1.138	1.138	1.162	1.157	1.157
0.000	-0.005	0.005	0.000	0.005	0.000	0.029	1.797	1.133	1.138	1.138	1.157	1.157	1.157
0.005	-0.005	0.000	0.000	0.000	0.005	0.024	1.772	1.128	1.133	1.138	1.157	1.152	1.157
0.000	-0.010	0.000	0.000	-0.005	0.000	0.024	1.772	1.128	1.133	1.133	1.157	1.152	1.152
0.000	0.000	-0.005	0.005	-0.005	0.005	0.024	1.792	1.133	1.133	1.133	1.157	1.152	1.152
0.000	-0.005	-0.005	0.000	-0.005	0.010	0.029	1.777	1.138	1.133	1.133	1.152	1.152	1.152
-0.005	-0.005	0.000	0.000	-0.005	0.000	0.029	1.763	1.138	1.133	1.133	1.152	1.152	1.152
0.000	0.000	-0.005	-0.005	0.000	0.000	0.024	1.772	1.133	1.133	1.133	1.157	1.152	1.147
0.005	0.000	-0.005	-0.005	-0.005	0.000	0.024	1.763	1.133	1.133	1.133	1.152	1.152	1.152
-0.005	-0.005	0.000	0.000	0.000	0.010	0.024	1.729	1.133	1.133	1.133	1.152	1.152	1.152
-0.005	-0.005	-0.005	0.000	0.000	0.000	0.024	1.797	1.133	1.128	1.133	1.152	1.147	1.147
0.000	-0.005	0.000	-0.005	-0.005	0.000	0.024	1.719	1.133	1.128	1.128	1.152	1.147	1.147
0.000	0.000	0.000	-0.005	0.000	0.005	0.029	1.782	1.133	1.133	1.128	1.152	1.147	1.147
0.000	0.000	0.000	0.000	0.000	-0.015	0.024	1.777	1.133	1.133	1.133	1.152	1.147	1.143
0.000	0.000	0.000	0.000	-0.005	0.000	0.029	1.763	1.128	1.128	1.128	1.147	1.147	1.147
0.000	-0.020	0.000	0.005	0.000	0.005	0.024	1.807	1.133	1.123	1.128	1.152	1.147	1.147
-0.005	-0.020	0.000	0.005	0.000	-0.010	0.024	1.797	1.133	1.123	1.128	1.147	1.143	1.147
-0.005	-0.015	0.000	0.000	-0.005	-0.005	0.029	1.714	1.123	1.128	1.128	1.147	1.143	1.143
-0.005	0.000	0.000	0.000	0.000	0.010	0.024	1.787	1.128	1.128	1.128	1.147	1.143	1.147
0.000	-0.005	-0.005	0.005	0.000	0.000	0.029	1.724	1.123	1.128	1.128	1.147	1.143	1.143
0.010	0.000	0.000	-0.005	0.000	-0.024	0.024	1.802	1.133	1.128	1.128	1.147	1.143	1.138
-0.005	0.000	0.000	-0.005	-0.005	0.000	0.024	1.743	1.123	1.128	1.128	1.147	1.143	1.147
0.010	0.000	0.000	0.000	0.000	-0.010	0.024	1.797	1.133	1.128	1.128	1.147	1.143	1.143
0.005	0.000	0.000	0.005	-0.005	-0.015	0.024	1.772	1.128	1.128	1.123	1.147	1.143	1.138
0.000	0.000	0.000	-0.005	-0.005	0.010	0.024	1.787	1.128	1.128	1.128	1.147	1.143	1.147
-0.005	0.000	0.000	-0.005	0.005	0.005	0.024	1.782	1.128	1.128	1.128	1.147	1.143	1.143
-0.005	0.020	0.000	-0.005	-0.005	0.000	0.024	1.787	1.133	1.133	1.128	1.147	1.143	1.143
0.000	0.005	0.000	0.000	0.000	0.000	0.029	1.792	1.133	1.128	1.128	1.147	1.143	1.143
-0.005	-0.005	0.000	0.005	0.000	-0.010	0.029	1.763	1.128	1.128	1.128	1.147	1.143	1.143
-0.010	0.010	0.000	-0.005	-0.005	-0.005	0.024	1.777	1.128	1.133	1.128	1.143	1.143	1.143
0.000	0.000	0.000	-0.005	-0.005	0.010	0.024	1.748	1.123	1.123	1.123	1.143	1.138	1.143
0.005	-0.005	0.000	-0.005	0.000	0.010	0.024	1.802	1.128	1.123	1.123	1.143	1.143	1.143
0.000	-0.005	0.000	-0.005	0.000	-0.010	0.024	1.792	1.123	1.123	1.123	1.143	1.138	1.138
-0.005	-0.015	0.000	0.000	0.005	0.000	0.024	1.768	1.123	1.123	1.123	1.143	1.138	1.138
-0.005	-0.005	0.000	0.000	-0.005	0.000	0.024	1.763	1.123	1.123	1.123	1.143	1.138	1.138
0.000	0.000	0.000	-0.005	-0.005	-0.005	0.024	1.797	1.123	1.123	1.123	1.143	1.138	1.138
0.000	0.005	-0.005	0.000	0.000	-0.005	0.029	1.758	1.123	1.123	1.123	1.143	1.138	1.138
-0.005	0.010	-0.005	0.000	0.005	-0.005	0.024	1.772	1.123	1.123	1.123	1.143	1.138	1.138
0.000	0.005	-0.005	-0.005	0.000	0.000	0.029	1.787	1.123	1.123	1.118	1.143	1.138	1.138
0.000	0.005	0.000	-0.005	-0.005	-0.005	0.029	1.782	1.123	1.128	1.123	1.143	1.138	1.133
0.005	0.000	-0.005	0.000	-0.005	-0.005	0.024	1.777	1.123	1.123	1.123	1.143	1.138	1.138
-0.005	0.000	-0.005	0.000	0.000	-0.005	0.024	1.753	1.113	1.123	1.123	1.143	1.138	1.138
0.000	0.000	-0.005	0.000	-0.005	-0.005	0.024	1.782	1.123	1.118	1.123	1.143	1.133	1.133
0.005	0.005	0.000	0.000	0.005	0.010	0.024	1.753	1.118	1.123	1.123	1.143	1.143	1.143
-0.005	0.000	0.000	0.000	0.005	0.010	0.029	1.787	1.123	1.118	1.123	1.143	1.138	1.143
-0.005	-0.005	0.000	0.000	0.000	0.005	0.029	1.743	1.123	1.118	1.118	1.143	1.138	1.138
0.000	0.000	0.000	0.000	0.005	0.000	0.024	1.787	1.123	1.113	1.118	1.138	1.138	1.138
-0.010	-0.005	-0.005	0.005	0.000	0.000	0.029	1.743	1.113	1.118	1.113	1.138	1.133	1.133
-0.005	0.005	0.000	0.000	0.005	-0.020	0.029	1.782	1.118	1.118	1.118	1.138	1.133	1.128
-0.005	0.000	0.000	0.000	0.000	0.000	0.029	1.753	1.118	1.118	1.113	1.133	1.133	1.138
0.005	0.000	0.000	0.000	-0.005	0.005	0.029	1.782	1.118	1.113	1.113	1.138	1.128	1.133
0.000	0.005	0.000	-0.005	-0.005	-0.010	0.029	1.763	1.118	1.118	1.113	1.133	1.133	1.128
-0.005	0.000	0.000	-0.005	-0.005	0.010	0.029	1.782	1.118	1.113	1.113	1.133	1.128	1.133
-0.005	-0.005	0.000	-0.005	0.000	-0.005	0.024	1.758	1.118	1.113	1.113	1.133	1.133	1.128
0.005	0.000	-0.005	0.000	-0.005	0.000	0.024	1.758	1.113	1.113	1.113	1.133	1.128	1.133
0.000	-0.010	0.000	-0.005	-0.005	0.010	0.024	1.792	1.118	1.113	1.113	1.133	1.128	1.133
0.005	-0.020	-0.005	0.000	0.000	-0.005	0.024	1.772	1.118	1.113	1.113	1.133	1.133	1.128
-0.005	-0.010	0.000	0.000	-0.010	0.000	0.029	1.802	1.118	1.118	1.113	1.133	1.128	1.133
0.005	0.005	0.000	-0.005	-0.005	-0.010	0.029	1.782	1.123	1.118	1.118	1.133	1.128	1.128
-0.005	0.005	0.000	0.000	-0.005	0.000	0.029	1.768	1.123	1.123	1.118	1.133	1.128	1.128
0.005	0.024	0.000	0.000	0.000	0.000	0.029	1.777	1.123	1.128	1.118	1.138	1.133	1.133
0.000	0.000	0.000	0.000	0.000	0.000	0.029	1.748	1.113	1.118	1.118	1.133	1.133	1.128
-0.005	0.000	0.000	0.000	0.005	0.000	0.024	1.812	1.118	1.118	1.118	1.138	1.133	1.133
0.000	0.000	0.000	0.000	-0.005	0.000	0.024	1.787	1.118	1.113	1.118	1.133	1.128	1.128
0.000	-0.005	0.000	0.000	-0.010	0.005	0.024	1.792	1.113	1.113	1.113	1.133	1.133	1.128
-0.005	-0.005	-0.005	0.000	0.005	0.005	0.024	1.782	1.108	1.108	1.108	1.133	1.133	1.128
0.000	-0.005	0.000	0.005	-0.005	-0.010	0.024	1.787	1.108	1.108	1.113	1.133	1.128	1.123
-0.005	-0.015	-0.005	0.000	0.000	-0.005	0.024	1.748	1.108	1.108	1.108	1.128	1.128	1.128
-0.005	0.000	-0.005	0.000	0.000	-0.020	0.029	1.802	1.113	1.108	1.108	1.128	1.128	1.123
0.000	0.005	-0.010	0.005	0.000	0.005	0.029	1.738	1.113	1.113	1.108	1.128	1.128	1.133
0.000	0.000	-0.010	0.000	-0.005	-0.010	0.024	1.758	1.118	1.113	1.108	1.128	1.128	1.123
0.010	-0.010	-0.005	0.000	0.000	0.005	0.029	1.724	1.108	1.113	1.108	1.128	1.128	1.128
0.005	0.000	-0.005	0.005	-0.005	0.000	0.024	1.699	1.104	1.113	1.108	1.128	1.128	1.128
-0.005	0.005	-0.005	0.005	0.000	-0.024	0.024	1.733	1.099	1.108	1.113	1.128	1.128	1.118
-0.005	0.005	0.000	0.000	-0.005	0.005	0.024	1.802	1.108	1.108	1.113	1.128	1.128	1.128
0.005	0.000	0.000	0.000	-0.005	0.005	0.029	1.768	1.113	1.108	1.113	1.128	1.123	1.128
-0.005	0.015	0.000	-0.005	0.000	0.000	0.029	1.782	1.133	1.113	1.113	1.133	1.128	1.128
0.000	0.005	0.005	-0.005	-0.005	0.000	0.029	1.694	1.118	1.113	1.108	1.128	1.128	1.123
0.005	-0.005	-0.005	-0.005	0.005	0.000	0.029	1.719	1.108	1.113	1.108	1.128	1.128	1.128
0.000	-0.005	-0.005	-0.005	0.000	0.005	0.024	1.758	1.108	1.108	1.108	1.128	1.123	1.123
-0.010	-0.015	-0.005	0.000	0.000	0.005	0.029	1.797	1.113	1.108	1.108	1.128	1.123	1.128
0.000	-0.015	0.000	-0.005	0.000	0.005	0.024	1.787	1.113	1.104	1.104	1.128	1.123	1.123
0.000	0.000	0.000	0.000	0.000	-0.010	0.024	1.743	1.108	1.113	1.108	1.128	1.123	1.118
0.000	-0.020	0.000	0.000	0.005	0.000	0.024	1.802	1.113	1.108	1.108	1.128	1.123	1.123
-0.005	-0.010	0.000	-0.005	0.010	-0.010	0.029	1.753	1.104	1.108	1.108	1.123	1.123	1.118
-0.005	0.000	0.000	-0.005	0.010	-0.005	0.029	1.792	1.108	1.108	1.104	1.128	1.123	1.123
0.005	-0.005	0.000	-0.005	0.015	-0.029	0.029	1.719	1.108	1.108	1.104	1.128	1.123	1.118
0.005	0.000	0.000	-0.005	0.015	-0.005	0.029	1.782	1.113	1.113	1.108	1.128	1.123	1.123
-0.005	-0.005	-0.005	0.000	0.005	-0.010	0.029	1.768	1.108	1.108	1.108	1.128	1.123	1.118
0.005	-0.005	0.000	0.000	0.010	0.000	0.029	1.792	1.113	1.108	1.108	1.128	1.123	1.118
0.000	0.000	0.000	0.005	0.005	-0.005	0.024	1.748	1.108	1.113	1.108	1.128	1.123	1.123
-0.005	0.020	-0.005	0.000	0.010	0.005	0.024	1.812	1.113	1.118	1.108	1.128	1.123	1.123
-0.005	0.015	0.000	0.000	0.010	0.005	0.029	1.733	1.108	1.118	1.108	1.128	1.128	1.123
-0.010	0.015	0.000	0.000	0.005	-0.005	0.024	1.797	1.108	1.108	1.113	1.128	1.123	1.123
0.000	0.015	0.000	-0.005	0.005	0.000	0.029	1.782	1.113	1.108	1.108	1.128	1.123	1.123
-0.005	0.010	0.000	0.000	0.005	0.000	0.029	1.768	1.108	1.108	1.108	1.128	1.123	1.123
-0.005	0.005	0.000	0.005	0.005	-0.005	0.024	1.738	1.108	1.108	1.108	1.128	1.123	1.123
0.005	-0.005	0.000	0.000	0.005	-0.005	0.024	1.772	1.104	1.104	1.108	1.128	1.123	1.123
0.000	-0.005	0.000	0.000	0.005	-0.010	0.029	1.748	1.113	1.104	1.104	1.128	1.123	1.118
-0.010	0.000	-0.005	0.005	0.000	0.000	0.029	1.787	1.108	1.108	1.108	1.123	1.123	1.123
-0.005	0.010	-0.005	0.000	0.000	-0.005	0.024	1.763	1.113	1.108	1.104	1.123	1.118	1.118
0.000	0.005	-0.005	0.000	0.000	-0.024	0.024	1.792	1.113	1.108	1.104	1.123	1.118	1.118
-0.010	0.000	-0.005	-0.005	-0.005	0.005	0.029	1.792	1.113	1.108	1.104	1.123	1.118	1.123
0.000	-0.005	0.000	0.000	-0.010	0.000	0.029	1.738	1.108	1.108	1.108	1.123	1.118	1.118
-0.005	-0.010	-0.005	0.000	-0.005	-0.005	0.024	1.792	1.113	1.104	1.104	1.123	1.118	1.118
-0.005	-0.010	-0.005	0.000	-0.005	0.010	0.024	1.743	1.104	1.108	1.104	1.123	1.118	1.123
0.000	-0.005	0.000	0.000	-0.015	0.000	0.029	1.782	1.108	1.108	1.108	1.123	1.118	1.118
0.000	0.000	0.000	0.000	-0.010	0.000	0.029	1.797	1.118	1.113	1.108	1.128	1.118	1.118
-0.005	-0.010	-0.005	0.000	-0.005	-0.005	0.029	1.777	1.118	1.108	1.108	1.128	1.123	1.113
0.000	0.005	0.000	0.000	-0.005	-0.005	0.029	1.787	1.118	1.113	1.108	1.123	1.123	1.118
0.000	0.000	-0.005	0.000	-0.010	0.010	0.024	1.743	1.108	1.113	1.108	1.128	1.123	1.123
0.000	-0.005	-0.005	0.000	-0.010	0.010	0.024	1.797	1.113	1.113	1.113	1.128	1.123	1.123
0.005	-0.010	0.000	0.000	-0.015	-0.005	0.029	1.768	1.108	1.108	1.113	1.123	1.123	1.118
0.000	0.000	-0.005	-0.005	0.000	0.000	0.024	1.792	1.104	1.108	1.108	1.123	1.123	1.118
-0.005	0.000	0.000	-0.005	-0.005	-0.005	0.024	1.792	1.108	1.104	1.108	1.128	1.123	1.123
-0.005	-0.005	0.005	0.000	-0.010	0.000	0.029	1.768	1.113	1.108	1.104	1.128	1.118	1.123
-0.005	-0.005	0.000	-0.005	-0.010	0.010	0.029	1.807	1.113	1.108	1.108	1.128	1.123	1.123
0.005	-0.010	0.000	-0.005	-0.015	-0.005	0.029	1.772	1.108	1.108	1.104	1.123	1.118	1.118
-0.005	-0.005	0.000	-0.005	-0.010	0.010	0.024	1.772	1.108	1.108	1.108	1.123	1.118	1.123
0.000	-0.005	0.000	-0.005	0.000	0.010	0.024	1.782	1.113	1.108	1.108	1.123	1.123	1.123
0.000	-0.005	-0.005	-0.005	-0.010	-0.010	0.024	1.792	1.113	1.108	1.104	1.123	1.118	1.118
0.000	-0.010	-0.005	0.000	-0.010	-0.015	0.024	1.763	1.108	1.108	1.108	1.123	1.118	1.118
0.000	-0.010	0.000	-0.005	-0.015	0.005	0.024	1.753	1.104	1.108	1.108	1.123	1.118	1.118
-0.005	0.005	0.000	-0.010	-0.005	0.005	0.024	1.797	1.113	1.113	1.108	1.128	1.123	1.118
-0.005	-0.005	0.000	0.000	-0.005	0.005	0.029	1.792	1.108	1.108	1.108	1.128	1.123	1.118
0.000	-0.005	0.000	-0.005	-0.005	0.000	0.029	1.748	1.108	1.108	1.108	1.128	1.123	1.118
0.000	0.000	-0.005	0.000	-0.005	-0.015	0.024	1.777	1.108	1.108	1.108	1.128	1.123	1.113
0.000	0.005	0.000	0.000	-0.005	-0.005	0.024	1.768	1.113	1.113	1.108	1.128	1.128	1.123
0.000	0.000	0.000	0.000	0.000	0.005	0.029	1.763	1.108	1.108	1.108	1.128	1.123	1.123
0.005	0.000	0.000	0.000	0.000	0.005	0.029	1.772	1.104	1.108	1.108	1.123	1.123	1.123
0.000	-0.005	0.000	0.000	0.000	-0.005	0.024	1.758	1.099	1.104	1.104	1.128	1.123	1.118
0.005	0.005	0.000	0.005	0.000	-0.005	0.024	1.782	1.108	1.108	1.104	1.123	1.118	1.118
0.000	-0.005	0.000	0.000	0.005	-0.015	0.024	1.797	1.108	1.104	1.104	1.123	1.123	1.118
-0.005	0.010	-0.005	0.000	0.005	0.000	0.024	1.787	1.108	1.104	1.104	1.123	1.118	1.123
0.000	0.000	0.000	0.000	0.000	0.005	0.024	1.748	1.104	1.104	1.104	1.123	1.118	1.123
-0.005	0.000	0.000	0.000	0.005	0.000	0.029	1.792	1.108	1.104	1.104	1.123	1.123	1.123
0.000	0.000	-0.005	0.005	0.005	-0.005	0.029	1.768	1.108	1.099	1.104	1.123	1.118	1.118
0.005	0.000	-0.005	0.005	-0.005	0.005	0.024	1.782	1.113	1.108	1.099	1.123	1.118	1.118
0.000	-0.005	-0.005	0.005	0.000	-0.010	0.029	1.777	1.108	1.104	1.104	1.123	1.118	1.113
0.005	-0.020	-0.005	0.005	0.000	0.000	0.024	1.777	1.113	1.104	1.108	1.123	1.118	1.123
0.000	-0.015	0.005	0.000	0.000	-0.005	0.029	1.777	1.113	1.108	1.108	1.123	1.123	1.118
0.000	0.015	0.000	0.000	0.000	0.000	0.024	1.792	1.113	1.118	1.108	1.123	1.123	1.118
0.000	0.000	0.005	-0.005	0.000	-0.029	0.029	1.797	1.118	1.108	1.108	1.123	1.118	1.108
0.000	0.005	-0.005	0.000	0.010	0.005	0.024	1.802	1.113	1.113	1.108	1.128	1.123	1.123
-0.010	0.010	-0.005	0.000	0.000	0.005	0.029	1.738	1.104	1.113	1.108	1.128	1.118	1.123
-0.005	0.000	-0.005	0.000	0.005	0.010	0.024	1.792	1.108	1.108	1.108	1.128	1.118	1.123
-0.005	0.005	0.000	0.000	0.000	0.000	0.024	1.792	1.108	1.108	1.108	1.128	1.123	1.118
-0.010	0.010	-0.005	0.000	-0.010	-0.005	0.024	1.743	1.104	1.104	1.108	1.123	1.118	1.118
0.000	0.010	0.000	0.000	0.000	-0.005	0.029	1.812	1.108	1.108	1.108	1.123	1.123	1.118
0.000	0.000	0.000	0.000	0.000	0.000	0.024	1.816	1.113	1.104	1.104	1.123	1.118	1.118
0.000	0.000	0.000	-0.005	0.000	-0.010	0.029	1.782	1.113	1.104	1.104	1.123	1.118	1.113
-0.005	-0.010	0.000	0.000	0.005	0.000	0.024	1.719	1.099	1.099	1.104	1.123	1.118	1.118
0.005	0.000	0.000	-0.005	0.005	0.010	0.029	1.768	1.104	1.104	1.104	1.123	1.123	1.123
0.000	0.000	0.005	-0.005	0.000	-0.015	0.029	1.758	1.099	1.099	1.104	1.123	1.118	1.113
-0.005	0.000	-0.005	0.000	-0.005	0.005	0.029	1.763	1.099	1.104	1.104	1.123	1.118	1.118
0.000	-0.005	0.000	0.000	0.005	0.005	0.024	1.743	1.099	1.099	1.099	1.123	1.118	1.123
-0.005	-0.005	-0.005	0.000	0.000	-0.010	0.029	1.792	1.104	1.099	1.099	1.118	1.118	1.118
0.000	-0.010	0.000	0.000	0.000	-0.010	0.024	1.748	1.104	1.099	1.104	1.118	1.118	1.118
0.015	-0.005	0.000	0.000	0.000	0.010	0.024	1.797	1.099	1.099	1.099	1.118	1.118	1.123
0.005	0.000	-0.005	0.000	0.000	0.005	0.024	1.797	1.099	1.099	1.099	1.118	1.118	1.118
0.005	-0.005	0.005	0.000	-0.005	0.000	0.024	1.787	1.099	1.099	1.099	1.118	1.118	1.118
-0.005	0.000	0.000	-0.005	-0.005	0.000	0.024	1.807	1.099	1.099	1.099	1.118	1.113	1.118
-0.005	-0.005	-0.005	0.000	0.005	0.000	0.029	1.777	1.104	1.094	1.099	1.118	1.113	1.113
-0.010	-0.005	-0.005	-0.005	0.000	0.005	0.024	1.797	1.104	1.099	1.094	1.113	1.113	1.113
-0.005	-0.005	-0.005	-0.005	0.005	0.010	0.024	1.768	1.104	1.099	1.094	1.113	1.113	1.113
0.000	0.000	-0.005	0.000	-0.005	0.010	0.029	1.782	1.108	1.104	1.099	1.118	1.113	1.113
-0.005	-0.010	0.000	0.000	0.005	-0.005	0.029	1.733	1.104	1.099	1.099	1.113	1.113	1.108
-0.005	-0.015	-0.005	0.000	0.000	0.000	0.029	1.777	1.104	1.099	1.094	1.118	1.108	1.108
-0.005	-0.010	-0.005	0.000	0.005	0.000	0.024	1.782	1.099	1.104	1.099	1.113	1.108	1.108
-0.005	-0.005	0.000	0.000	0.000	0.000	0.024	1.802	1.108	1.104	1.099	1.118	1.113	1.108
0.000	-0.005	-0.005	0.000	-0.005	-0.005	0.029	1.763	1.099	1.104	1.099	1.113	1.113	1.108
-0.005	-0.005	0.000	0.000	0.000	-0.015	0.029	1.787	1.104	1.104	1.104	1.113	1.113	1.104
-0.005	0.000	0.000	0.000	0.000	0.000	0.024	1.812	1.108	1.104	1.099	1.118	1.113	1.108
0.010	-0.005	0.000	0.000	-0.005	-0.005	0.029	1.782	1.108	1.104	1.104	1.118	1.113	1.108
-0.005	0.010	0.000	-0.005	0.005	0.005	0.024	1.792	1.108	1.108	1.104	1.118	1.113	1.113
0.000	0.020	0.000	0.000	-0.005	-0.020	0.024	1.733	1.104	1.113	1.108	1.123	1.113	1.108
0.005	0.010	0.000	0.000	0.000	-0.005	0.029	1.797	1.104	1.108	1.104	1.123	1.118	1.113
0.000	0.010	0.000	0.000	0.000	0.000	0.029	1.758	1.104	1.104	1.108	1.123	1.113	1.113
-0.005	0.000	0.000	0.000	0.000	0.000	0.024	1.738	1.099	1.099	1.104	1.123	1.118	1.118
-0.005	0.000	-0.005	0.000	0.005	0.000	0.024	1.782	1.099	1.099	1.104	1.118	1.118	1.118
0.000	0.005	0.000	0.000	0.000	-0.005	0.024	1.797	1.108	1.104	1.099	1.123	1.118	1.113
0.000	0.010	0.000	-0.005	0.005	0.005	0.029	1.787	1.104	1.099	1.099	1.118	1.118	1.118
-0.005	0.005	-0.005	0.000	0.005	0.010	0.029	1.797	1.108	1.099	1.104	1.118	1.118	1.118
-0.010	-0.010	0.000	0.005	0.000	-0.010	0.024	1.763	1.104	1.099	1.099	1.118	1.113	1.108
0.000	-0.005	0.000	-0.005	0.000	0.000	0.024	1.797	1.108	1.099	1.099	1.118	1.113	1.113
0.000	-0.005	0.000	-0.005	0.005	-0.010	0.024	1.738	1.104	1.104	1.099	1.118	1.113	1.108
0.000	0.000	-0.005	0.000	-0.005	0.005	0.024	1.797	1.108	1.104	1.099	1.118	1.113	1.113
-0.005	-0.005	-0.005	0.000	-0.005	0.005	0.024	1.787	1.108	1.104	1.099	1.118	1.113	1.118
-0.005	0.000	-0.005	0.005	-0.005	-0.010	0.029	1.724	1.104	1.108	1.104	1.118	1.113	1.113
0.000	-0.005	-0.005	0.000	0.000	0.000	0.029	1.777	1.108	1.104	1.104	1.118	1.113	1.113
0.000	-0.005	-0.005	0.000	-0.005	0.000	0.029	1.792	1.113	1.104	1.104	1.118	1.113	1.113
-0.005	-0.005	0.000	0.000	-0.005	-0.005	0.024	1.802	1.113	1.108	1.104	1.123	1.113	1.113
0.005	-0.005	-0.005	0.000	0.000	0.000	0.029	1.787	1.113	1.108	1.104	1.123	1.118	1.113
0.000	0.010	0.000	0.000	0.000	-0.024	0.029	1.797	1.108	1.113	1.108	1.123	1.118	1.108
0.000	-0.005	0.000	0.000	0.000	0.005	0.024	1.733	1.099	1.104	1.108	1.123	1.118	1.118
-0.005	-0.010	0.000	0.000	0.000	0.000	0.024	1.714	1.094	1.104	1.104	1.123	1.118	1.113
-0.005	-0.005	0.000	-0.005	0.005	-0.005	0.024	1.763	1.094	1.099	1.099	1.123	1.118	1.113
0.000	-0.005	0.000	-0.005	0.005	-0.020	0.024	1.787	1.099	1.094	1.104	1.118	1.118	1.108
-0.005	0.000	-0.005	0.000	0.000	0.000	0.029	1.758	1.094	1.099	1.099	1.118	1.118	1.113
0.000	0.000	0.000	0.000	-0.005	0.010	0.029	1.782	1.104	1.099	1.104	1.118	1.113	1.118
0.000	-0.005	0.005	-0.005	-0.005	-0.005	0.029	1.777	1.104	1.094	1.099	1.118	1.113	1.113
0.005	0.000	0.000	0.000	-0.005	-0.015	0.024	1.787	1.104	1.099	1.099	1.118	1.113	1.113
0.000	-0.005	0.000	-0.005	0.000	0.005	0.024	1.812	1.108	1.099	1.099	1.118	1.113	1.118
-0.005	-0.005	0.005	0.000	-0.005	0.005	0.024	1.743	1.104	1.104	1.099	1.118	1.118	1.113
0.005	-0.005	0.000	-0.005	0.000	0.010	0.024	1.821	1.113	1.104	1.099	1.118	1.113	1.113
0.000	0.000	-0.005	-0.005	0.000	0.000	0.029	1.763	1.104	1.104	1.099	1.118	1.113	1.113
0.005	-0.005	0.000	0.000	-0.005	0.010	0.024	1.743	1.108	1.104	1.099	1.118	1.113	1.113
0.000	-0.005	-0.005	0.000	0.000	0.005	0.024	1.787	1.104	1.099	1.104	1.118	1.113	1.113
0.010	0.000	0.000	-0.005	0.000	0.005	0.024	1.802	1.104	1.104	1.104	1.118	1.113	1.118
0.005	0.000	-0.005	0.000	0.005	-0.005	0.029	1.782	1.108	1.104	1.104	1.118	1.118	1.113
0.000	0.000	-0.005	0.000	0.000	-0.005	0.024	1.758	1.104	1.104	1.104	1.123	1.113	1.113
-0.010	0.000	-0.005	0.000	0.005	0.005	0.024	1.772	1.104	1.104	1.104	1.123	1.118	1.118
0.005	0.000	0.005	0.000	0.005	0.005	0.029	1.743	1.104	1.104	1.104	1.123	1.118	1.118
-0.010	-0.005	0.000	0.000	0.005	-0.020	0.024	1.797	1.104	1.099	1.104	1.118	1.118	1.113
-0.005	0.000	0.000	0.000	-0.005	0.000	0.029	1.724	1.104	1.099	1.099	1.118	1.113	1.113
0.000	-0.005	-0.005	0.000	0.000	0.005	0.024	1.797	1.108	1.104	1.099	1.118	1.113	1.113
-0.005	0.005	0.000	-0.005	-0.005	0.000	0.029	1.704	1.099	1.104	1.099	1.113	1.113	1.113
0.000	0.005	0.000	0.000	0.000	0.010	0.024	1.797	1.104	1.099	1.099	1.118	1.113	1.113
0.005	0.005	0.000	0.000	0.000	-0.005	0.029	1.768	1.099	1.099	1.099	1.118	1.113	1.108
0.000	0.000	0.000	0.000	0.000	0.005	0.029	1.777	1.099	1.099	1.099	1.118	1.113	1.113
0.000	-0.005	-0.005	0.000	0.000	0.000	0.029	1.753	1.094	1.099	1.099	1.118	1.113	1.113
-0.005	0.000	0.000	0.000	0.000	-0.005	0.029	1.753	1.094	1.099	1.099	1.118	1.113	1.113
-0.005	0.000	0.005	0.000	0.000	-0.024	0.024	1.802	1.104	1.099	1.099	1.118	1.113	1.104
0.000	0.000	0.005	0.000	-0.005	0.005	0.024	1.733	1.099	1.099	1.099	1.118	1.113	1.118
0.000	-0.005	0.000	0.000	-0.005	-0.005	0.029	1.787	1.104	1.099	1.099	1.118	1.113	1.108
-0.005	0.005	0.000	0.000	-0.005	0.000	0.024	1.763	1.099	1.104	1.104	1.118	1.113	1.113
0.005	0.000	0.000	0.000	0.000	0.005	0.024	1.787	1.108	1.104	1.099	1.118	1.113	1.113
0.000	0.005	0.000	-0.005	-0.005	0.000	0.024	1.787	1.108	1.104	1.099	1.118	1.113	1.113
0.000	-0.005	0.000	0.000	0.000	0.000	0.024	1.772	1.099	1.099	1.099	1.118	1.113	1.113
0.000	-0.015	0.000	-0.005	0.000	0.000	0.024	1.768	1.099	1.094	1.099	1.113	1.113	1.113
-0.010	-0.015	-0.005	0.000	0.000	-0.015	0.024	1.782	1.104	1.099	1.099	1.118	1.113	1.104
-0.010	-0.010	-0.005	-0.005	0.000	0.000	0.024	1.772	1.104	1.099	1.094	1.113	1.113	1.113
0.005	-0.005	-0.005	0.000	0.000	0.005	0.029	1.802	1.108	1.099	1.094	1.113	1.113	1.113
0.000	0.000	0.000	-0.005	0.000	0.005	0.024	1.772	1.108	1.104	1.099	1.118	1.113	1.108
-0.005	0.010	0.000	0.000	0.000	0.005	0.029	1.738	1.104	1.108	1.099	1.118	1.113	1.108
0.005	0.015	0.000	0.005	0.000	-0.005	0.024	1.787	1.104	1.108	1.104	1.118	1.113	1.108
-0.005	0.010	-0.005	0.000	0.000	0.005	0.029	1.753	1.099	1.099	1.104	1.118	1.113	1.113
0.005	-0.005	-0.005	0.000	0.000	-0.005	0.029	1.758	1.108	1.099	1.099	1.118	1.113	1.108
0.010	-0.005	0.000	0.000	0.000	-0.010	0.024	1.792	1.123	1.108	1.104	1.118	1.113	1.108
0.000	0.015	-0.010	0.000	0.000	0.000	0.024	1.787	1.123	1.113	1.104	1.118	1.113	1.108
-0.005	0.010	0.005	-0.005	0.000	0.000	0.024	1.782	1.113	1.113	1.108	1.123	1.118	1.113
0.000	-0.005	0.000	0.000	-0.005	0.005	0.024	1.772	1.113	1.108	1.104	1.123	1.118	1.113
-0.010	0.005	0.000	0.000	-0.010	0.000	0.024	1.792	1.108	1.108	1.108	1.123	1.118	1.113
-0.010	0.005	0.000	0.000	-0.005	-0.029	0.024	1.719	1.104	1.108	1.108	1.128	1.118	1.108
0.005	0.000	0.000	0.000	0.000	-0.010	0.029	1.787	1.104	1.104	1.108	1.123	1.118	1.113
0.010	0.000	0.000	0.005	0.000	0.000	0.029	1.733	1.104	1.104	1.104	1.123	1.123	1.118
0.010	-0.005	-0.005	0.000	0.000	0.005	0.024	1.787	1.099	1.099	1.108	1.123	1.118	1.118
0.015	-0.015	0.000	0.000	0.000	0.010	0.024	1.724	1.104	1.099	1.104	1.123	1.123	1.118
0.010	0.000	-0.005	0.000	0.000	-0.005	0.029	1.797	1.104	1.104	1.099	1.123	1.118	1.118
0.015	0.005	-0.005	-0.005	0.000	0.010	0.024	1.792	1.108	1.108	1.104	1.123	1.118	1.118
0.000	0.005	0.000	0.000	0.000	0.005	0.029	1.758	1.104	1.104	1.104	1.118	1.118	1.118
0.005	0.005	-0.005	0.000	0.000	0.000	0.029	1.792	1.099	1.099	1.104	1.118	1.118	1.118
-0.005	0.000	0.000	0.000	0.000	-0.020	0.029	1.777	1.094	1.099	1.099	1.123	1.113	1.108
0.005	0.005	-0.005	0.000	0.000	0.005	0.024	1.787	1.099	1.099	1.099	1.118	1.118	1.118
-0.020	0.015	0.000	0.000	-0.005	-0.005	0.029	1.792	1.099	1.104	1.099	1.118	1.113	1.108
-0.015	-0.005	0.000	0.000	0.000	0.000	0.024	1.782	1.099	1.094	1.099	1.118	1.113	1.118
-0.015	-0.010	0.000	0.000	-0.005	0.005	0.024	1.733	1.099	1.099	1.094	1.118	1.118	1.118
-0.005	-0.005	-0.005	0.000	0.000	0.005	0.024	1.787	1.108	1.099	1.099	1.118	1.113	1.118
-0.010	-0.010	0.000	0.000	-0.005	-0.005	0.024	1.753	1.104	1.099	1.099	1.118	1.113	1.108
0.000	0.005	-0.005	-0.005	0.000	0.000	0.024	1.797	1.108	1.108	1.099	1.118	1.113	1.113
0.010	0.000	0.000	0.000	0.000	0.000	0.029	1.792	1.113	1.108	1.104	1.118	1.118	1.118
-0.005	-0.005	-0.005	-0.005	0.000	-0.020	0.024	1.772	1.108	1.104	1.104	1.118	1.113	1.113
0.010	-0.005	0.000	0.000	0.000	0.000	0.029	1.763	1.108	1.108	1.104	1.123	1.113	1.113
0.010	0.000	0.000	0.000	0.005	0.000	0.029	1.787	1.108	1.104	1.104	1.118	1.113	1.118
0.010	-0.010	0.000	-0.005	-0.005	0.005	0.029	1.782	1.108	1.104	1.104	1.123	1.113	1.113
0.005	-0.010	0.000	-0.005	0.000	0.000	0.024	1.802	1.108	1.104	1.104	1.123	1.113	1.113
-0.005	0.000	0.000	0.000	-0.005	0.000	0.024	1.787	1.079	1.099	1.099	1.118	1.113	1.113
-0.010	-0.005	0.000	0.000	0.000	-0.024	0.024	1.777	1.079	1.089	1.099	1.118	1.113	1.108
-0.024	-0.005	0.005	0.000	0.000	0.005	0.024	1.797	1.084	1.089	1.099	1.113	1.113	1.118
-0.024	0.005	0.005	-0.005	-0.005	-0.005	0.024	1.743	1.089	1.089	1.094	1.113	1.113	1.108
-0.015	0.000	-0.005	-0.005	-0.005	-0.010	0.029	1.743	1.099	1.089	1.094	1.113	1.113	1.108
-0.005	0.005	0.000	0.000	0.000	0.000	0.029	1.748	1.104	1.094	1.089	1.113	1.113	1.113
-0.010	-0.005	-0.005	0.000	-0.005	0.010	0.029	1.787	1.108	1.094	1.094	1.113	1.108	1.113
0.000	-0.010	0.005	0.000	-0.005	-0.005	0.029	1.787	1.118	1.099	1.099	1.113	1.108	1.113
0.020	0.000	-0.005	0.000	0.000	0.000	0.024	1.802	1.118	1.104	1.099	1.113	1.113	1.113
0.024	0.000	-0.005	-0.005	0.000	-0.005	0.024	1.787	1.123	1.113	1.104	1.113	1.108	1.108
0.020	0.000	-0.005	0.000	-0.005	0.005	0.024	1.758	1.113	1.113	1.104	1.118	1.113	1.108
0.024	-0.010	-0.005	0.000	0.000	0.000	0.024	1.768	1.108	1.108	1.104	1.118	1.113	1.113
0.015	-0.020	0.000	0.000	0.005	-0.005	0.029	1.758	1.094	1.104	1.104	1.118	1.113	1.108
0.015	-0.005	0.000	0.000	0.005	0.000	0.029	1.797	1.099	1.104	1.104	1.123	1.113	1.113
-0.010	0.005	-0.005	-0.005	0.000	-0.005	0.029	1.802	1.094	1.099	1.104	1.123	1.113	1.108
-0.034	0.000	-0.005	-0.005	0.005	-0.005	0.029	1.792	1.089	1.094	1.099	1.118	1.113	1.113
-0.024	0.000	-0.005	0.000	0.005	0.000	0.024	1.758	1.094	1.094	1.099	1.118	1.113	1.113
-0.010	0.005	0.000	-0.005	0.000	0.000	0.029	1.777	1.099	1.094	1.094	1.118	1.113	1.108
0.005	0.000	0.000	0.000	0.000	0.000	0.024	1.797	1.108	1.099	1.099	1.118	1.113	1.108
-0.005	0.005	0.000	0.000	-0.005	0.000	0.024	1.738	1.108	1.104	1.099	1.118	1.113	1.108
0.010	0.010	-0.005	0.000	0.000	-0.005	0.024	1.753	1.108	1.104	1.099	1.118	1.113	1.113
0.005	-0.005	0.000	0.000	-0.005	0.010	0.029	1.758	1.104	1.104	1.099	1.118	1.113	1.113
0.005	0.005	-0.005	-0.005	0.000	-0.010	0.024	1.787	1.104	1.104	1.099	1.118	1.113	1.108
-0.005	0.000	-0.005	0.000	0.000	0.005	0.029	1.738	1.094	1.099	1.099	1.118	1.118	1.113
-0.015	0.000	-0.010	0.000	-0.005	0.000	0.029	1.782	1.089	1.094	1.099	1.118	1.113	1.113
-0.010	0.005	0.000	0.000	0.000	0.000	0.029	1.768	1.099	1.099	1.099	1.118	1.113	1.113
-0.005	-0.010	-0.005	0.000	0.000	0.000	0.029	1.777	1.099	1.094	1.099	1.118	1.113	1.113
-0.015	0.000	0.000	-0.005	-0.005	-0.005	0.029	1.792	1.104	1.099	1.099	1.118	1.108	1.113
-0.005	0.015	-0.005	0.000	0.000	0.000	0.024	1.797	1.104	1.104	1.099	1.113	1.113	1.113
-0.005	-0.020	0.005	0.000	0.000	-0.010	0.024	1.787	1.104	1.094	1.099	1.118	1.113	1.108
-0.015	-0.024	0.000	0.000	0.005	0.000	0.024	1.782	1.104	1.094	1.094	1.118	1.113	1.113
-0.010	0.005	0.005	-0.005	-0.005	0.005	0.024	1.772	1.108	1.108	1.099	1.113	1.113	1.108
-0.010	0.015	0.005	-0.005	0.000	0.005	0.024	1.787	1.108	1.104	1.099	1.118	1.113	1.113
-0.005	0.000	0.000	0.000	-0.005	-0.005	0.024	1.768	1.104	1.104	1.099	1.118	1.108	1.108
0.000	0.005	0.000	-0.005	-0.005	0.000	0.029	1.797	1.108	1.104	1.099	1.118	1.108	1.108
0.005	0.005	0.000	0.000	-0.005	-0.020	0.029	1.768	1.108	1.108	1.099	1.118	1.108	1.108
0.000	0.005	0.000	0.000	-0.005	0.010	0.024	1.787	1.108	1.108	1.099	1.118	1.113	1.113
0.005	0.010	-0.005	0.010	0.000	0.005	0.029	1.758	1.099	1.108	1.104	1.123	1.113	1.113
0.000	0.005	0.000	-0.005	0.000	0.000	0.024	1.772	1.104	1.104	1.104	1.118	1.113	1.113
0.000	0.005	0.000	0.000	0.000	-0.010	0.029	1.807	1.108	1.104	1.104	1.118	1.113	1.113
0.000	-0.005	-0.005	-0.005	0.000	0.000	0.024	1.753	1.104	1.104	1.099	1.118	1.118	1.113
0.005	0.000	-0.005	0.000	0.000	-0.020	0.024	1.768	1.108	1.104	1.099	1.118	1.118	1.108
-0.005	-0.005	-0.005	-0.005	0.000	0.000	0.024	1.753	1.104	1.104	1.104	1.123	1.118	1.113
-0.005	0.005	-0.005	-0.005	-0.005	-0.005	0.029	1.787	1.108	1.104	1.104	1.123	1.113	1.113
0.000	0.000	-0.005	0.000	-0.005	-0.010	0.029	1.758	1.104	1.104	1.104	1.123	1.113	1.113
0.005	0.005	0.000	0.000	-0.005	-0.020	0.029	1.777	1.104	1.104	1.104	1.123	1.113	1.108
-0.005	0.000	-0.005	0.000	0.000	0.015	0.024	1.802	1.104	1.099	1.104	1.123	1.118	1.118
0.005	-0.005	0.000	0.000	0.000	0.005	0.024	1.704	1.094	1.099	1.104	1.118	1.118	1.118
0.005	-0.010	0.000	0.000	0.005	0.000	0.024	1.777	1.094	1.099	1.099	1.118	1.118	1.118
0.005	-0.005	0.000	0.000	0.000	-0.010	0.024	1.797	1.099	1.099	1.099	1.118	1.113	1.113
0.005	-0.010	-0.005	0.000	0.005	-0.020	0.024	1.797	1.099	1.094	1.094	1.118	1.113	1.113
-0.010	-0.020	0.000	0.000	-0.005	0.010	0.024	1.782	1.094	1.094	1.094	1.118	1.113	1.118
0.005	-0.015	-0.005	0.000	0.000	0.005	0.029	1.792	1.104	1.099	1.094	1.113	1.113	1.118
-0.015	-0.005	0.005	-0.005	-0.005	0.005	0.029	1.782	1.099	1.099	1.094	1.113	1.113	1.113
-0.015	0.000	0.000	0.000	0.005	-0.005	0.029	1.787	1.104	1.099	1.099	1.113	1.113	1.113
-0.005	0.015	-0.005	0.000	0.000	0.005	0.029	1.768	1.104	1.104	1.099	1.118	1.108	1.113
-0.010	0.015	-0.005	0.000	-0.005	0.005	0.024	1.768	1.099	1.104	1.104	1.113	1.108	1.113
-0.005	0.010	-0.005	-0.005	-0.005	0.000	0.029	1.807	1.108	1.104	1.099	1.118	1.113	1.108
-0.005	0.010	-0.005	0.000	0.000	0.000	0.024	1.772	1.108	1.104	1.099	1.118	1.113	1.113
-0.005	0.010	0.000	0.005	0.000	0.005	0.024	1.768	1.108	1.104	1.104	1.118	1.113	1.113
0.010	0.010	-0.005	0.000	0.000	-0.010	0.024	1.787	1.108	1.104	1.104	1.118	1.113	1.108
0.010	0.005	0.000	0.000	-0.005	0.005	0.024	1.802	1.113	1.104	1.104	1.118	1.113	1.113
0.005	0.000	-0.005	-0.005	0.000	-0.005	0.024	1.787	1.113	1.104	1.104	1.118	1.113	1.108
0.010	0.005	0.000	0.005	0.000	0.000	0.024	1.787	1.113	1.104	1.108	1.123	1.113	1.113
0.010	-0.010	0.000	0.000	0.000	0.000	0.029	1.748	1.104	1.104	1.099	1.118	1.113	1.113
0.000	-0.010	0.000	0.000	0.005	0.010	0.029	1.797	1.104	1.099	1.104	1.118	1.113	1.118
0.005	-0.010	-0.005	0.000	0.000	-0.005	0.029	1.792	1.108	1.104	1.099	1.118	1.113	1.108
0.000	-0.005	0.000	0.005	0.000	0.000	0.029	1.738	1.099	1.104	1.104	1.118	1.118	1.113
-0.005	-0.005	0.000	0.000	0.000	0.005	0.024	1.797	1.099	1.099	1.104	1.118	1.113	1.113
0.000	-0.005	0.000	0.000	0.005	0.005	0.024	1.772	1.099	1.099	1.104	1.118	1.113	1.113
0.005	0.000	0.005	-0.005	-0.005	0.000	0.024	1.782	1.108	1.104	1.099	1.118	1.113	1.108
-0.005	0.000	0.005	0.000	-0.005	-0.010	0.024	1.763	1.099	1.104	1.104	1.118	1.113	1.113
-0.005	0.005	0.000	0.000	-0.005	-0.015	0.024	1.792	1.099	1.104	1.104	1.123	1.113	1.108
0.000	0.005	-0.005	-0.005	0.000	-0.010	0.024	1.807	1.108	1.104	1.104	1.118	1.113	1.113
-0.005	0.000	-0.005	0.000	0.000	0.010	0.024	1.802	1.108	1.104	1.104	1.123	1.113	1.118
-0.005	0.005	-0.005	0.000	-0.005	0.000	0.024	1.792	1.108	1.104	1.104	1.123	1.113	1.118
0.005	0.000	0.000	0.000	0.000	0.000	0.029	1.787	1.113	1.108	1.104	1.123	1.118	1.113
0.005	0.005	-0.005	0.005	0.000	0.000	0.029	1.792	1.113	1.108	1.104	1.123	1.118	1.118
-0.005	0.000	0.000	0.000	0.000	-0.005	0.029	1.724	1.108	1.108	1.104	1.123	1.118	1.113
0.000	-0.005	0.005	0.000	0.000	-0.005	0.024	1.733	1.104	1.104	1.104	1.123	1.118	1.113
0.005	-0.005	0.000	0.000	-0.005	0.005	0.024	1.772	1.104	1.104	1.104	1.123	1.118	1.118
0.000	0.000	0.000	0.000	0.000	-0.010	0.029	1.792	1.104	1.104	1.104	1.123	1.118	1.113
0.000	-0.005	-0.005	0.000	0.005	0.000	0.029	1.753	1.099	1.104	1.104	1.118	1.118	1.118
-0.005	0.000	0.005	0.000	0.000	-0.005	0.029	1.787	1.104	1.104	1.104	1.123	1.118	1.113
-0.005	-0.015	0.000	0.000	0.005	-0.005	0.029	1.792	1.104	1.094	1.099	1.123	1.113	1.113
-0.010	-0.015	0.000	-0.005	0.000	0.000	0.029	1.787	1.099	1.094	1.099	1.118	1.113	1.118
-0.005	-0.024	-0.005	0.000	0.000	0.000	0.024	1.782	1.104	1.094	1.099	1.118	1.113	1.118
-0.005	-0.010	0.000	-0.005	0.000	0.005	0.024	1.753	1.099	1.104	1.099	1.118	1.113	1.118
-0.005	0.005	-0.005	0.000	-0.005	0.010	0.024	1.792	1.104	1.104	1.099	1.118	1.113	1.113
-0.005	0.000	0.000	0.000	-0.005	0.005	0.024	1.787	1.108	1.104	1.104	1.118	1.113	1.113
-0.005	0.000	0.005	-0.005	-0.005	0.000	0.024	1.782	1.108	1.104	1.104	1.118	1.113	1.113
0.000	0.000	-0.005	-0.005	0.000	0.005	0.024	1.797	1.108	1.104	1.104	1.118	1.113	1.113
-0.005	-0.005	0.000	-0.005	0.000	0.000	0.024	1.753	1.079	1.099	1.099	1.123	1.113	1.108
0.000	0.000	-0.005	-0.005	0.000	0.000	0.024	1.782	1.089	1.094	1.099	1.118	1.113	1.108
0.000	0.005	0.000	0.000	-0.010	-0.020	0.024	1.807	1.094	1.099	1.099	1.123	1.113	1.108
0.000	0.000	-0.005	0.000	0.005	0.005	0.029	1.797	1.099	1.094	1.099	1.118	1.113	1.113
0.005	0.005	0.000	0.000	0.000	0.000	0.029	1.768	1.099	1.094	1.094	1.118	1.118	1.113
0.000	0.000	0.000	0.000	0.000	0.000	0.029	1.729	1.099	1.099	1.099	1.113	1.113	1.113
0.005	0.010	0.000	0.000	-0.010	-0.024	0.029	1.768	1.099	1.099	1.099	1.113	1.108	1.108
-0.010	0.005	0.000	0.000	-0.015	0.000	0.024	1.787	1.099	1.094	1.099	1.118	1.108	1.113
0.000	0.005	0.005	0.000	-0.005	-0.010	0.029	1.724	1.104	1.094	1.094	1.118	1.113	1.108
-0.005	-0.005	0.000	-0.005	0.000	-0.020	0.024	1.797	1.104	1.094	1.094	1.113	1.113	1.104
-0.005	-0.005	-0.005	0.000	0.005	0.005	0.024	1.777	1.104	1.094	1.094	1.113	1.113	1.113
-0.010	0.000	0.005	0.000	0.000	0.015	0.029	1.802	1.104	1.099	1.099	1.113	1.108	1.113
0.000	-0.005	0.000	0.000	0.000	0.005	0.024	1.758	1.099	1.099	1.094	1.113	1.108	1.108
0.000	0.010	0.000	0.000	0.000	0.005	0.024	1.797	1.099	1.104	1.099	1.113	1.113	1.113
-0.005	0.010	0.000	0.000	0.000	0.000	0.024	1.772	1.099	1.099	1.099	1.118	1.113	1.108
0.010	0.000	-0.005	0.000	0.000	0.000	0.024	1.743	1.099	1.099	1.099	1.118	1.108	1.108
0.005	0.015	0.000	-0.005	-0.005	-0.005	0.029	1.758	1.099	1.099	1.099	1.118	1.108	1.108
0.000	0.005	0.000	0.000	-0.005	-0.005	0.029	1.782	1.104	1.099	1.099	1.118	1.108	1.113
0.000	-0.005	-0.005	0.000	-0.005	-0.010	0.024	1.743	1.099	1.094	1.099	1.118	1.113	1.108
0.000	0.000	0.000	-0.005	0.005	-0.010	0.024	1.787	1.099	1.099	1.099	1.118	1.113	1.108
0.000	-0.005	0.005	0.000	-0.005	0.015	0.024	1.787	1.099	1.099	1.099	1.118	1.113	1.118
0.000	0.000	0.005	0.000	0.000	0.010	0.029	1.777	1.108	1.099	1.094	1.118	1.113	1.113
0.000	-0.005	-0.005	0.005	0.005	0.010	0.029	1.792	1.104	1.099	1.094	1.118	1.113	1.113
-0.005	-0.005	0.000	-0.005	0.010	0.010	0.024	1.792	1.108	1.099	1.094	1.113	1.113	1.113
0.005	-0.010	-0.005	0.005	0.015	-0.005	0.024	1.787	1.104	1.099	1.094	1.113	1.113	1.108
-0.005	-0.010	-0.005	0.000	0.005	0.005	0.024	1.753	1.104	1.099	1.094	1.113	1.108	1.113
0.005	-0.010	-0.005	0.000	0.005	0.005	0.029	1.772	1.104	1.099	1.099	1.113	1.108	1.108
-0.005	0.000	0.000	-0.005	0.000	-0.005	0.029	1.787	1.104	1.104	1.099	1.113	1.108	1.108
0.000	0.005	-0.005	0.000	0.000	0.005	0.029	1.753	1.104	1.104	1.099	1.113	1.108	1.108
-0.005	0.000	0.000	-0.005	0.000	-0.024	0.024	1.777	1.099	1.099	1.099	1.113	1.108	1.104
-0.005	-0.005	0.005	0.000	-0.005	0.010	0.024	1.743	1.128	1.108	1.104	1.118	1.113	1.113
0.000	0.000	0.000	0.000	0.000	-0.010	0.029	1.763	1.118	1.108	1.104	1.123	1.113	1.104
-0.005	0.000	0.000	-0.005	-0.005	0.000	0.029	1.797	1.113	1.113	1.108	1.123	1.113	1.113
0.000	0.010	-0.005	-0.005	-0.005	0.005	0.029	1.797	1.118	1.113	1.108	1.123	1.113	1.113
0.000	0.000	0.000	0.000	0.005	0.000	0.029	1.768	1.123	1.113	1.108	1.123	1.118	1.113
-0.010	-0.005	0.000	0.000	0.005	0.005	0.024	1.787	1.118	1.113	1.108	1.128	1.118	1.113
0.000	-0.005	-0.005	0.000	0.000	0.000	0.024	1.777	1.128	1.113	1.108	1.123	1.123	1.113
-0.005	-0.005	0.000	0.000	0.000	-0.024	0.024	1.768	1.123	1.118	1.113	1.128	1.118	1.108
-0.005	-0.005	0.000	0.005	-0.005	0.010	0.029	1.753	1.113	1.118	1.113	1.128	1.118	1.118
0.000	-0.005	0.000	-0.005	0.005	-0.015	0.024	1.758	1.108	1.113	1.113	1.128	1.123	1.113
-0.010	-0.005	0.000	-0.005	0.000	0.000	0.024	1.797	1.099	1.108	1.108	1.128	1.118	1.118
0.000	-0.005	0.005	0.000	-0.005	-0.005	0.029	1.768	1.108	1.108	1.108	1.128	1.123	1.118
0.000	-0.010	0.000	0.000	0.000	0.005	0.024	1.768	1.104	1.104	1.108	1.128	1.123	1.118
-0.005	0.000	-0.005	0.000	-0.005	0.000	0.029	1.797	1.104	1.104	1.108	1.128	1.123	1.118
0.000	-0.005	0.005	-0.005	-0.005	0.000	0.024	1.753	1.104	1.104	1.108	1.128	1.123	1.118
0.005	-0.010	-0.005	0.000	-0.005	0.000	0.029	1.777	1.104	1.104	1.104	1.123	1.118	1.118
-0.005	0.000	0.000	0.000	-0.005	0.010	0.024	1.758	1.104	1.108	1.108	1.128	1.123	1.123
0.005	-0.010	-0.005	0.000	0.000	-0.005	0.024	1.787	1.108	1.104	1.104	1.128	1.118	1.113
0.010	-0.005	-0.005	0.000	0.000	0.000	0.029	1.782	1.104	1.104	1.104	1.123	1.123	1.118
-0.010	-0.015	0.000	0.000	-0.005	0.000	0.029	1.797	1.108	1.099	1.104	1.123	1.123	1.118
-0.005	0.005	0.000	0.000	0.000	-0.010	0.024	1.768	1.104	1.108	1.108	1.123	1.123	1.123
-0.034	0.000	0.000	0.000	0.000	-0.015	0.029	1.777	1.104	1.104	1.104	1.123	1.123	1.113
-0.039	0.010	-0.005	0.000	0.000	0.000	0.029	1.782	1.099	1.104	1.104	1.123	1.118	1.123
-0.015	-0.005	-0.005	-0.005	0.000	0.000	0.024	1.748	1.104	1.104	1.099	1.123	1.123	1.123
-0.010	0.005	0.000	0.000	0.000	-0.015	0.029	1.787	1.113	1.104	1.104	1.123	1.118	1.113
0.020	0.005	0.000	-0.005	0.005	0.000	0.029	1.738	1.108	1.108	1.104	1.123	1.118	1.123
0.029	0.000	-0.005	-0.005	0.000	0.005	0.024	1.763	1.113	1.108	1.104	1.118	1.118	1.123
0.044	0.005	-0.005	0.000	-0.005	-0.010	0.029	1.772	1.113	1.108	1.104	1.123	1.113	1.113
0.029	0.005	0.005	0.000	0.000	-0.005	0.029	1.777	1.108	1.108	1.104	1.123	1.118	1.118
0.020	-0.005	0.000	0.000	0.000	0.000	0.024	1.792	1.104	1.104	1.104	1.123	1.118	1.118
0.015	0.005	0.000	-0.005	0.000	0.000	0.024	1.797	1.108	1.104	1.104	1.123	1.118	1.118
0.005	0.015	0.000	0.000	0.000	0.005	0.029	1.758	1.104	1.108	1.104	1.123	1.118	1.118
0.005	0.015	-0.005	0.000	0.005	0.000	0.029	1.797	1.108	1.108	1.104	1.123	1.118	1.118
0.005	0.010	-0.005	0.000	-0.005	0.000	0.029	1.753	1.099	1.104	1.104	1.123	1.118	1.118
0.000	0.000	0.000	-0.005	0.000	0.005	0.029	1.792	1.104	1.104	1.104	1.123	1.118	1.113
0.005	0.005	-0.005	0.000	0.000	-0.005	0.024	1.792	1.104	1.104	1.104	1.123	1.118	1.113
-0.005	0.000	0.000	0.000	-0.005	0.000	0.024	1.797	1.104	1.099	1.104	1.123	1.118	1.113
-0.005	-0.005	0.000	0.000	0.000	-0.015	0.024	1.772	1.104	1.099	1.104	1.123	1.118	1.113
-0.020	0.000	0.005	-0.005	0.000	-0.015	0.024	1.792	1.108	1.104	1.104	1.123	1.118	1.113
-0.024	-0.005	0.005	-0.005	-0.005	0.000	0.024	1.758	1.099	1.104	1.104	1.118	1.118	1.118
-0.029	-0.005	0.000	-0.005	0.005	0.000	0.024	1.733	1.099	1.099	1.104	1.118	1.118	1.118
-0.029	-0.005	0.005	0.005	0.000	0.010	0.029	1.777	1.099	1.099	1.099	1.123	1.118	1.118
-0.029	-0.005	-0.005	-0.005	0.000	0.000	0.029	1.738	1.104	1.094	1.099	1.118	1.113	1.118
-0.015	-0.005	-0.005	-0.005	0.000	0.005	0.029	1.792	1.108	1.099	1.099	1.118	1.113	1.118
-0.029	-0.005	-0.005	-0.005	0.000	-0.020	0.029	1.763	1.099	1.099	1.099	1.118	1.113	1.108
-0.005	-0.005	0.005	0.000	0.000	-0.010	0.024	1.787	1.108	1.099	1.099	1.118	1.113	1.113
0.000	-0.005	0.000	0.000	0.000	0.005	0.024	1.797	1.108	1.104	1.099	1.118	1.113	1.118
0.005	-0.010	0.000	0.000	0.000	0.000	0.024	1.802	1.118	1.104	1.099	1.118	1.113	1.108
0.044	-0.005	-0.005	0.000	-0.005	-0.005	0.024	1.782	1.123	1.113	1.104	1.113	1.113	1.113
0.044	-0.005	0.000	0.000	0.000	0.010	0.024	1.792	1.113	1.108	1.104	1.118	1.113	1.118
0.049	-0.005	-0.005	0.000	0.000	-0.015	0.029	1.787	1.138	1.118	1.108	1.118	1.113	1.113
0.034	-0.015	0.005	0.005	-0.010	0.010	0.029	1.777	1.128	1.118	1.113	1.123	1.118	1.118
0.020	-0.020	-0.005	0.000	-0.005	0.010	0.029	1.748	1.118	1.113	1.113	1.128	1.118	1.118
0.015	-0.010	-0.005	0.000	-0.005	0.005	0.029	1.782	1.113	1.118	1.113	1.128	1.118	1.113
0.000	-0.005	-0.005	0.000	0.000	0.000	0.029	1.802	1.113	1.118	1.113	1.128	1.123	1.113
0.000	0.000	-0.005	-0.005	0.000	0.000	0.024	1.782	1.113	1.118	1.113	1.128	1.123	1.118
-0.005	0.005	0.000	0.005	0.005	0.000	0.024	1.748	1.099	1.113	1.113	1.133	1.123	1.118
-0.024	0.000	0.000	0.000	0.000	0.000	0.024	1.787	1.099	1.104	1.108	1.128	1.123	1.118
-0.034	0.000	0.000	0.000	0.005	-0.015	0.024	1.792	1.099	1.104	1.108	1.128	1.123	1.118
-0.039	0.005	0.000	-0.005	0.005	0.005	0.029	1.772	1.094	1.104	1.108	1.128	1.123	1.123
-0.024	0.005	-0.005	0.000	0.005	0.000	0.024	1.792	1.104	1.104	1.104	1.128	1.123	1.123
-0.020	0.010	0.000	0.000	0.000	0.005	0.024	1.768	1.108	1.104	1.104	1.128	1.123	1.123
-0.005	-0.005	-0.005	0.000	0.000	-0.005	0.024	1.772	1.108	1.099	1.104	1.123	1.118	1.118
-0.020	-0.005	0.000	0.000	0.005	0.000	0.024	1.763	1.099	1.099	1.099	1.123	1.118	1.118
-0.020	0.000	-0.005	0.005	0.000	-0.015	0.024	1.763	1.104	1.104	1.099	1.123	1.118	1.118
-0.020	0.000	0.000	0.000	-0.005	-0.015	0.029	1.777	1.104	1.104	1.099	1.118	1.118	1.118
-0.029	-0.005	0.000	0.000	-0.005	0.005	0.024	1.787	1.104	1.099	1.104	1.118	1.118	1.123
-0.034	0.000	0.000	0.000	-0.005	-0.005	0.024	1.797	1.108	1.108	1.104	1.123	1.113	1.113
-0.020	0.005	-0.005	0.000	-0.005	0.000	0.024	1.763	1.108	1.104	1.104	1.123	1.118	1.118
0.000	0.000	0.000	0.000	-0.005	0.005	0.029	1.777	1.108	1.108	1.104	1.123	1.118	1.118
0.010	0.005	0.000	-0.005	-0.005	0.005	0.024	1.787	1.113	1.108	1.108	1.123	1.118	1.118
0.029	0.000	0.000	0.000	-0.005	0.000	0.029	1.787	1.123	1.113	1.108	1.123	1.118	1.118
0.039	0.005	0.000	-0.005	0.000	0.000	0.029	1.787	1.123	1.113	1.108	1.123	1.118	1.118
0.049	0.005	0.000	-0.005	0.000	-0.005	0.029	1.748	1.113	1.113	1.108	1.123	1.118	1.118
0.029	0.010	0.005	-0.010	0.000	0.005	0.024	1.807	1.108	1.113	1.113	1.123	1.118	1.113
0.010	0.005	0.005	-0.005	0.000	-0.015	0.029	1.738	1.099	1.108	1.108	1.128	1.118	1.113
0.024	0.005	-0.005	0.000	-0.005	-0.015	0.029	1.733	1.099	1.104	1.108	1.128	1.118	1.113
0.039	-0.005	0.005	0.010	0.000	0.010	0.024	1.763	1.104	1.104	1.104	1.128	1.118	1.123
0.034	-0.005	0.000	0.010	0.000	0.005	0.024	1.797	1.123	1.104	1.104	1.128	1.123	1.123
0.024	-0.010	0.000	0.010	0.000	0.005	0.024	1.787	1.113	1.104	1.104	1.128	1.123	1.123
0.024	0.000	0.000	0.010	0.000	0.005	0.024	1.792	1.113	1.108	1.104	1.123	1.118	1.118
0.000	0.000	-0.005	0.010	-0.005	0.000	0.029	1.758	1.104	1.108	1.104	1.123	1.118	1.118
-0.015	-0.005	0.000	0.005	-0.005	0.000	0.029	1.733	1.099	1.099	1.104	1.123	1.118	1.118
-0.010	-0.015	0.000	0.000	-0.005	0.005	0.029	1.792	1.104	1.099	1.104	1.123	1.118	1.123
-0.005	0.000	0.005	0.005	-0.005	0.000	0.029	1.768	1.104	1.104	1.104	1.123	1.118	1.118
-0.024	-0.005	0.005	0.000	-0.005	0.010	0.024	1.758	1.099	1.104	1.104	1.118	1.123	1.118
-0.024	-0.005	-0.005	-0.005	-0.005	-0.015	0.029	1.758	1.099	1.099	1.099	1.118	1.118	1.113
-0.029	-0.005	-0.005	-0.005	-0.005	0.005	0.024	1.792	1.104	1.099	1.099	1.118	1.113	1.118
-0.024	0.000	-0.005	-0.005	-0.005	-0.020	0.024	1.753	1.099	1.099	1.099	1.118	1.118	1.113
-0.015	-0.010	0.000	-0.005	-0.005	0.000	0.029	1.743	1.099	1.099	1.099	1.118	1.113	1.113
-0.010	-0.005	0.000	-0.005	0.000	0.000	0.024	1.782	1.108	1.099	1.099	1.118	1.113	1.113
-0.029	-0.005	-0.005	-0.005	-0.005	-0.005	0.029	1.802	1.104	1.099	1.099	1.118	1.113	1.113
-0.049	-0.005	-0.005	0.000	0.005	-0.015	0.029	1.748	1.099	1.094	1.099	1.118	1.113	1.108
-0.034	0.010	0.000	-0.005	0.000	0.005	0.029	1.792	1.104	1.099	1.099	1.118	1.113	1.118
-0.029	0.000	0.000	0.000	0.005	0.005	0.024	1.777	1.108	1.099	1.094	1.118	1.113	1.113
0.000	-0.005	0.000	0.000	0.000	0.000	0.024	1.758	1.108	1.104	1.099	1.118	1.113	1.113
0.010	0.000	0.005	-0.005	0.000	0.005	0.029	1.738	1.108	1.108	1.099	1.118	1.113	1.113
0.024	0.005	0.000	0.000	0.000	-0.015	0.029	1.792	1.113	1.108	1.104	1.118	1.113	1.108
0.020	-0.005	0.005	-0.005	0.000	-0.010	0.029	1.768	1.108	1.104	1.104	1.118	1.113	1.108
0.024	0.000	0.000	0.000	0.005	0.000	0.024	1.782	1.104	1.104	1.104	1.118	1.113	1.113
0.005	-0.005	0.000	0.000	-0.010	-0.005	0.024	1.782	1.104	1.099	1.104	1.118	1.113	1.113
0.015	-0.020	0.000	0.000	0.000	-0.005	0.024	1.743	1.099	1.099	1.104	1.118	1.118	1.113
0.000	0.005	-0.005	-0.005	0.000	0.005	0.029	1.777	1.104	1.104	1.099	1.118	1.118	1.118
0.000	-0.010	0.000	0.000	0.000	-0.005	0.029	1.753	1.099	1.099	1.099	1.118	1.118	1.113
0.000	0.010	0.000	0.000	0.000	-0.024	0.024	1.792	1.104	1.104	1.104	1.123	1.113	1.108
-0.010	0.005	0.000	0.005	0.000	0.005	0.029	1.768	1.108	1.104	1.099	1.123	1.118	1.118
-0.010	-0.005	-0.005	0.000	0.000	-0.005	0.029	1.797	1.099	1.099	1.099	1.118	1.113	1.113
-0.005	-0.005	-0.005	-0.005	-0.010	0.010	0.029	1.777	1.099	1.104	1.099	1.118	1.113	1.113
0.005	0.005	-0.005	-0.005	-0.005	-0.005	0.024	1.777	1.104	1.099	1.099	1.118	1.113	1.113
-0.005	0.005	0.000	-0.005	-0.010	0.005	0.024	1.743	1.099	1.099	1.099	1.118	1.113	1.113
-0.010	-0.005	0.000	-0.010	0.000	0.005	0.024	1.787	1.099	1.094	1.099	1.118	1.113	1.113
-0.005	0.000	0.000	-0.005	0.000	-0.005	0.024	1.743	1.099	1.099	1.099	1.118	1.113	1.113
0.000	0.000	-0.005	-0.010	0.010	0.005	0.024	1.782	1.104	1.099	1.099	1.113	1.113	1.113
0.000	0.000	-0.005	0.000	0.005	0.000	0.029	1.748	1.099	1.099	1.099	1.118	1.113	1.113
-0.029	0.005	0.000	0.000	0.005	0.000	0.029	1.816	1.099	1.099	1.099	1.118	1.113	1.113
-0.015	0.000	-0.005	0.005	-0.005	-0.010	0.029	1.748	1.099	1.099	1.099	1.118	1.113	1.113
-0.020	-0.010	-0.010	0.010	-0.005	0.005	0.029	1.772	1.094	1.094	1.094	1.118	1.113	1.118
-0.034	-0.005	-0.005	0.005	0.000	-0.015	0.024	1.763	1.094	1.099	1.099	1.118	1.113	1.108
-0.039	-0.005	0.000	0.000	0.000	-0.020	0.024	1.777	1.099	1.099	1.094	1.113	1.113	1.108
-0.015	-0.005	0.000	0.000	-0.005	-0.005	0.029	1.777	1.104	1.094	1.094	1.118	1.113	1.113
0.000	0.000	-0.005	0.000	0.000	0.005	0.029	1.763	1.094	1.104	1.099	1.118	1.113	1.113
0.020	-0.005	0.000	0.000	0.000	0.005	0.024	1.782	1.104	1.099	1.099	1.113	1.113	1.113
0.034	-0.005	0.005	0.000	0.000	0.000	0.024	1.792	1.113	1.104	1.099	1.118	1.113	1.113
0.049	-0.005	0.000	0.000	0.005	-0.020	0.024	1.787	1.113	1.104	1.099	1.118	1.113	1.108
0.063	-0.005	0.005	-0.005	0.005	0.000	0.029	1.768	1.113	1.108	1.104	1.118	1.113	1.113
0.049	-0.005	0.005	-0.005	0.000	0.000	0.029	1.763	1.104	1.108	1.104	1.118	1.113	1.113
0.039	-0.005	0.000	-0.005	0.000	-0.005	0.029	1.768	1.099	1.104	1.104	1.118	1.113	1.108
0.024	0.005	0.000	0.000	0.000	0.005	0.024	1.777	1.099	1.104	1.104	1.118	1.113	1.113
0.010	-0.020	0.000	0.000	0.005	-0.010	0.024	1.748	1.094	1.094	1.099	1.118	1.113	1.108
-0.010	-0.015	0.000	0.000	-0.010	0.005	0.029	1.812	1.094	1.094	1.094	1.118	1.113	1.113
-0.020	-0.005	-0.005	0.005	0.005	0.000	0.029	1.792	1.084	1.089	1.094	1.118	1.113	1.113
-0.059	-0.005	0.005	0.005	-0.005	-0.005	0.029	1.719	1.069	1.089	1.094	1.113	1.113	1.113
-0.029	0.005	0.005	0.000	0.000	0.010	0.024	1.782	1.089	1.089	1.089	1.113	1.108	1.113
-0.005	-0.005	0.005	-0.015	-0.005	-0.005	0.029	1.792	1.104	1.094	1.089	1.108	1.108	1.108
0.010	-0.005	0.000	-0.005	0.000	-0.005	0.024	1.772	1.108	1.099	1.094	1.113	1.108	1.108
0.034	0.015	-0.005	-0.005	0.000	0.010	0.024	1.792	1.123	1.108	1.094	1.113	1.108	1.113
0.039	0.010	-0.005	0.000	-0.005	-0.005	0.029	1.772	1.118	1.108	1.099	1.113	1.108	1.108
0.029	0.000	0.005	0.000	0.000	0.010	0.029	1.787	1.113	1.108	1.104	1.118	1.113	1.108
0.020	0.005	-0.005	0.000	0.000	0.005	0.029	1.763	1.108	1.108	1.104	1.118	1.113	1.108
0.010	0.000	0.000	-0.005	-0.005	-0.005	0.024	1.768	1.099	1.104	1.104	1.118	1.113	1.104
-0.029	0.000	0.000	0.000	-0.005	0.000	0.024	1.768	1.084	1.094	1.104	1.118	1.113	1.108
-0.039	0.000	-0.005	0.000	0.000	0.005	0.024	1.792	1.089	1.094	1.099	1.118	1.113	1.108
-0.044	0.000	0.000	0.000	-0.005	0.010	0.029	1.797	1.094	1.094	1.094	1.118	1.113	1.108
-0.029	0.000	0.000	0.000	0.000	-0.015	0.024	1.729	1.094	1.094	1.094	1.113	1.113	1.108
-0.024	0.010	0.000	0.000	0.000	0.005	0.024	1.797	1.099	1.094	1.094	1.113	1.113	1.108
-0.020	0.010	-0.005	0.000	0.000	0.010	0.029	1.743	1.099	1.099	1.094	1.113	1.113	1.113
-0.015	-0.005	0.000	0.000	-0.010	0.005	0.024	1.763	1.104	1.094	1.094	1.113	1.108	1.108
0.000	0.005	0.000	0.005	-0.005	0.000	0.024	1.777	1.108	1.099	1.099	1.113	1.108	1.108
0.010	0.005	0.000	0.000	-0.010	0.000	0.024	1.753	1.108	1.099	1.094	1.113	1.113	1.108
0.010	-0.005	0.000	-0.005	0.000	-0.015	0.024	1.812	1.108	1.099	1.094	1.113	1.113	1.104
0.010	-0.005	-0.005	-0.005	0.015	0.000	0.024	1.797	1.108	1.099	1.099	1.113	1.113	1.108
0.005	0.000	0.000	-0.005	0.005	-0.005	0.024	1.748	1.104	1.104	1.099	1.113	1.113	1.108
0.000	0.010	0.000	-0.005	0.005	0.005	0.024	1.772	1.104	1.104	1.104	1.118	1.108	1.113
-0.005	0.010	0.005	-0.005	-0.005	0.005	0.029	1.733	1.099	1.104	1.104	1.118	1.113	1.113
-0.024	0.000	0.000	0.000	-0.005	-0.015	0.029	1.758	1.094	1.099	1.099	1.118	1.108	1.108
-0.010	0.000	-0.005	0.005	0.005	0.005	0.029	1.777	1.099	1.099	1.099	1.118	1.113	1.113
-0.015	0.000	0.000	0.005	0.000	-0.010	0.024	1.758	1.099	1.099	1.094	1.118	1.113	1.108
-0.020	-0.010	0.000	0.000	0.000	0.005	0.024	1.777	1.099	1.094	1.094	1.118	1.113	1.113
-0.029	0.000	0.000	0.000	0.000	0.015	0.029	1.777	1.099	1.099	1.094	1.118	1.113	1.113
0.005	-0.024	0.000	0.000	-0.005	0.010	0.029	1.719	1.094	1.089	1.094	1.113	1.113	1.113
0.005	-0.024	0.000	0.000	0.000	0.000	0.024	1.772	1.099	1.094	1.094	1.113	1.108	1.108
0.010	-0.010	0.000	0.000	0.005	0.005	0.024	1.763	1.099	1.099	1.094	1.113	1.113	1.108
0.020	-0.005	0.000	-0.005	0.005	0.000	0.024	1.841	1.104	1.099	1.094	1.113	1.108	1.108
0.029	-0.005	-0.005	-0.005	0.000	-0.005	0.029	1.782	1.108	1.099	1.094	1.113	1.108	1.104
0.024	-0.005	0.005	-0.005	-0.005	-0.029	0.029	1.753	1.108	1.099	1.099	1.113	1.104	1.104
0.020	0.000	0.000	-0.005	0.000	-0.005	0.029	1.777	1.104	1.104	1.099	1.113	1.108	1.108
0.015	0.000	0.000	-0.005	-0.005	-0.005	0.024	1.787	1.104	1.104	1.099	1.118	1.108	1.108
0.005	-0.005	-0.005	0.000	0.000	0.005	0.029	1.797	1.099	1.099	1.099	1.118	1.108	1.108
0.000	0.000	0.000	0.005	-0.010	0.005	0.029	1.758	1.099	1.099	1.099	1.118	1.108	1.108
-0.010	0.000	-0.005	-0.005	-0.005	0.005	0.029	1.787	1.094	1.099	1.099	1.113	1.113	1.113
-0.015	0.000	-0.005	0.005	0.000	-0.015	0.024	1.763	1.094	1.099	1.099	1.118	1.113	1.108
-0.010	0.005	0.000	0.000	0.000	0.000	0.024	1.802	1.104	1.099	1.099	1.118	1.113	1.113
-0.005	0.000	0.000	0.000	0.010	0.000	0.024	1.797	1.108	1.099	1.099	1.118	1.118	1.113
-0.015	0.000	0.000	-0.005	0.000	-0.005	0.024	1.782	1.104	1.099	1.099	1.118	1.113	1.108
-0.005	0.005	0.000	-0.005	-0.005	0.000	0.024	1.738	1.099	1.099	1.099	1.113	1.108	1.108
-0.010	-0.005	0.005	-0.005	0.005	-0.024	0.029	1.787	1.099	1.099	1.099	1.113	1.113	1.104
-0.005	-0.005	-0.005	0.000	0.000	0.000	0.029	1.777	1.099	1.094	1.094	1.113	1.113	1.113
-0.020	-0.010	0.000	0.000	0.000	-0.010	0.029	1.802	1.094	1.089	1.094	1.113	1.108	1.108
0.000	-0.010	0.000	0.000	-0.005	0.015	0.029	1.782	1.104	1.094	1.094	1.113	1.108	1.118
-0.005	0.000	0.000	-0.005	-0.005	0.010	0.029	1.812	1.108	1.099	1.094	1.113	1.108	1.108
-0.005	-0.005	-0.005	-0.005	0.000	0.005	0.024	1.782	1.108	1.099	1.094	1.113	1.108	1.108
-0.010	0.000	0.000	-0.005	0.000	-0.010	0.024	1.758	1.104	1.104	1.099	1.113	1.104	1.104
-0.005	0.000	-0.005	-0.005	0.005	0.005	0.024	1.782	1.108	1.104	1.099	1.113	1.108	1.113
0.005	-0.005	-0.005	0.000	0.000	-0.005	0.029	1.772	1.108	1.104	1.099	1.113	1.108	1.108
-0.010	0.005	0.000	0.000	0.000	0.010	0.029	1.758	1.104	1.108	1.099	1.118	1.113	1.113
-0.029	-0.005	0.000	-0.005	-0.005	-0.005	0.029	1.807	1.104	1.104	1.099	1.118	1.108	1.108
-0.020	0.010	-0.005	0.005	0.000	0.010	0.029	1.792	1.104	1.108	1.104	1.118	1.113	1.113
0.000	0.010	0.000	0.000	-0.005	-0.010	0.029	1.792	1.104	1.108	1.104	1.123	1.108	1.104
0.010	0.000	0.000	0.000	-0.010	0.005	0.029	1.782	1.104	1.099	1.104	1.118	1.108	1.113
-0.010	-0.005	-0.005	0.000	-0.020	0.010	0.024	1.768	1.099	1.099	1.099	1.118	1.113	1.113
0.005	-0.010	0.000	0.000	-0.010	0.000	0.029	1.816	1.108	1.099	1.099	1.118	1.113	1.108
0.015	-0.015	-0.005	0.000	-0.005	0.000	0.024	1.772	1.099	1.099	1.099	1.118	1.113	1.113
0.015	0.005	0.000	-0.005	0.005	0.005	0.024	1.792	1.108	1.104	1.099	1.118	1.118	1.113
0.015	0.000	0.000	-0.005	0.010	-0.005	0.024	1.797	1.108	1.104	1.104	1.118	1.118	1.113
0.015	0.000	0.000	0.000	0.010	-0.010	0.029	1.758	1.104	1.104	1.099	1.118	1.118	1.108
-0.005	-0.005	0.000	0.000	0.005	-0.015	0.029	1.792	1.099	1.099	1.099	1.118	1.113	1.104
0.005	-0.010	0.000	0.000	0.010	-0.005	0.029	1.768	1.104	1.099	1.099	1.118	1.118	1.113
0.029	-0.005	0.000	0.000	0.015	-0.010	0.024	1.743	1.108	1.099	1.099	1.118	1.118	1.113
0.034	0.000	-0.005	0.000	0.005	-0.005	0.029	1.758	1.079	1.099	1.099	1.118	1.113	1.113
0.034	-0.005	0.000	0.000	-0.005	-0.005	0.024	1.797	1.089	1.094	1.094	1.118	1.108	1.113
0.015	-0.005	0.000	0.000	-0.005	-0.010	0.024	1.792	1.094	1.094	1.094	1.118	1.113	1.108
0.020	0.000	0.000	0.000	-0.005	0.005	0.029	1.758	1.094	1.094	1.094	1.113	1.113	1.113
-0.005	-0.005	0.005	0.000	-0.005	0.000	0.024	1.802	1.089	1.089	1.094	1.113	1.113	1.113
-0.005	-0.010	-0.005	0.005	-0.005	-0.005	0.024	1.758	1.089	1.089	1.094	1.113	1.113	1.108
-0.015	0.000	-0.005	0.000	0.000	-0.020	0.024	1.777	1.089	1.094	1.089	1.113	1.113	1.104
-0.020	-0.010	-0.005	-0.005	0.000	0.005	0.029	1.802	1.094	1.089	1.089	1.108	1.108	1.113
-0.015	-0.005	0.005	-0.005	-0.010	0.000	0.029	1.777	1.099	1.094	1.089	1.108	1.108	1.108
-0.010	0.000	-0.005	-0.005	0.000	0.005	0.029	1.777	1.104	1.094	1.094	1.108	1.108	1.113
-0.010	-0.005	-0.005	0.000	0.000	0.010	0.029	1.763	1.104	1.094	1.089	1.108	1.108	1.108
0.005	-0.005	0.000	0.000	-0.005	-0.010	0.024	1.802	1.108	1.099	1.094	1.108	1.104	1.104
-0.005	-0.010	0.000	0.000	-0.005	0.010	0.029	1.792	1.089	1.094	1.094	1.113	1.108	1.108
-0.005	0.000	0.000	0.005	-0.005	0.005	0.024	1.768	1.089	1.094	1.094	1.108	1.108	1.108
0.000	0.005	-0.005	0.000	0.000	0.000	0.024	1.787	1.094	1.094	1.099	1.108	1.104	1.104
0.005	0.000	0.000	0.000	-0.005	0.005	0.024	1.782	1.099	1.094	1.094	1.113	1.104	1.104
0.000	0.005	0.000	-0.005	0.000	0.000	0.024	1.782	1.099	1.094	1.094	1.108	1.104	1.104
0.000	0.000	0.000	0.000	-0.005	-0.005	0.029	1.704	1.089	1.094	1.094	1.113	1.108	1.108
-0.015	0.000	-0.005	-0.005	0.005	0.000	0.029	1.782	1.084	1.089	1.094	1.113	1.108	1.108
-0.005	0.000	0.000	0.000	-0.005	0.000	0.029	1.724	1.089	1.089	1.094	1.113	1.108	1.108
-0.005	0.000	0.000	-0.005	-0.005	0.000	0.024	1.792	1.094	1.089	1.089	1.113	1.108	1.104
0.000	0.010	0.000	0.005	-0.005	-0.005	0.024	1.768	1.099	1.094	1.094	1.113	1.108	1.108
0.000	0.010	-0.005	0.005	0.005	0.000	0.029	1.729	1.094	1.094	1.094	1.113	1.108	1.104
0.005	0.015	-0.005	-0.005	0.000	0.000	0.029	1.797	1.099	1.094	1.094	1.108	1.108	1.108
0.010	0.005	-0.005	0.000	-0.005	-0.010	0.029	1.792	1.099	1.094	1.094	1.108	1.104	1.104
-0.005	0.000	0.005	0.000	-0.005	-0.020	0.029	1.733	1.099	1.094	1.094	1.113	1.108	1.099
-0.005	0.000	0.000	0.005	-0.005	-0.005	0.024	1.787	1.099	1.094	1.094	1.113	1.108	1.104
-0.010	0.000	0.000	0.000	-0.005	-0.005	0.024	1.748	1.094	1.094	1.089	1.108	1.108	1.104
-0.010	-0.005	-0.005	0.005	0.000	0.005	0.024	1.782	1.099	1.089	1.094	1.113	1.104	1.108
-0.005	-0.015	-0.005	0.000	-0.005	0.010	0.024	1.724	1.094	1.089	1.089	1.108	1.108	1.108
0.000	-0.024	0.000	-0.005	0.000	0.010	0.024	1.802	1.099	1.089	1.089	1.108	1.104	1.108
-0.005	-0.015	0.000	0.000	-0.005	0.005	0.029	1.743	1.094	1.094	1.089	1.108	1.104	1.104
-0.010	0.000	0.000	0.005	0.005	-0.005	0.029	1.772	1.094	1.094	1.089	1.113	1.108	1.104
0.000	-0.005	0.000	0.000	0.000	0.005	0.029	1.763	1.094	1.094	1.094	1.108	1.108	1.104
-0.005	-0.005	-0.005	-0.005	-0.005	0.015	0.024	1.748	1.094	1.094	1.094	1.108	1.104	1.108
-0.005	-0.010	0.005	-0.010	-0.010	0.000	0.024	1.763	1.094	1.094	1.094	1.108	1.104	1.099
0.000	0.000	0.000	-0.010	0.000	-0.005	0.024	1.763	1.094	1.094	1.094	1.108	1.108	1.099
-0.015	0.005	0.000	-0.005	0.005	-0.005	0.024	1.797	1.099	1.094	1.094	1.108	1.108	1.104
-0.005	0.000	-0.005	-0.005	0.000	-0.005	0.024	1.758	1.099	1.099	1.094	1.108	1.108	1.104
0.005	0.000	-0.005	0.000	-0.005	-0.020	0.024	1.763	1.099	1.099	1.094	1.113	1.104	1.099
0.005	0.020	0.000	0.000	0.000	0.000	0.029	1.816	1.104	1.104	1.099	1.113	1.108	1.104
0.000	-0.005	0.000	0.000	0.000	-0.005	0.029	1.772	1.099	1.094	1.094	1.113	1.108	1.108
-0.010	-0.010	0.000	0.000	0.010	0.000	0.029	1.748	1.094	1.089	1.094	1.113	1.108	1.108
0.005	-0.015	-0.005	0.000	0.010	-0.015	0.024	1.763	1.094	1.094	1.094	1.113	1.108	1.108
0.000	-0.005	0.000	0.005	0.010	0.000	0.029	1.748	1.094	1.094	1.094	1.113	1.108	1.108
-0.005	-0.005	0.000	0.005	0.000	0.010	0.024	1.763	1.094	1.094	1.094	1.113	1.108	1.108
0.005	-0.010	0.000	0.010	-0.005	0.005	0.024	1.733	1.099	1.094	1.089	1.113	1.108	1.104
0.005	-0.005	0.000	0.005	0.000	-0.005	0.024	1.743	1.094	1.094	1.094	1.108	1.108	1.108
0.015	-0.005	0.000	0.005	-0.005	0.000	0.029	1.821	1.094	1.094	1.094	1.108	1.104	1.108
0.010	0.005	0.000	0.000	-0.005	-0.005	0.024	1.777	1.104	1.099	1.094	1.113	1.104	1.104
-0.005	-0.010	0.000	0.000	0.000	0.010	0.024	1.792	1.099	1.094	1.094	1.113	1.108	1.108
-0.005	-0.005	-0.005	0.005	0.000	-0.010	0.024	1.768	1.099	1.094	1.089	1.113	1.108	1.099
-0.005	0.010	0.000	0.000	0.000	0.010	0.029	1.738	1.104	1.104	1.094	1.108	1.108	1.108
0.000	0.005	-0.005	0.000	-0.010	0.000	0.029	1.802	1.104	1.099	1.094	1.113	1.108	1.108
-0.005	0.005	0.000	0.000	-0.010	0.005	0.029	1.733	1.104	1.099	1.099	1.113	1.104	1.108
0.000	0.000	0.000	0.000	-0.005	-0.005	0.029	1.772	1.099	1.094	1.099	1.113	1.108	1.108
-0.005	0.000	0.005	-0.005	-0.005	0.010	0.024	1.753	1.099	1.094	1.099	1.113	1.108	1.108
0.000	0.000	0.000	0.000	-0.010	0.010	0.024	1.753	1.099	1.099	1.094	1.113	1.108	1.108
0.000	0.005	0.000	-0.005	-0.005	0.005	0.024	1.797	1.099	1.099	1.099	1.113	1.113	1.108
0.015	0.005	-0.005	0.000	0.000	0.000	0.029	1.738	1.094	1.099	1.099	1.113	1.108	1.108
0.005	0.010	0.000	0.000	0.000	-0.010	0.029	1.812	1.104	1.094	1.099	1.118	1.108	1.104
0.010	0.010	0.000	-0.005	0.000	-0.005	0.029	1.694	1.089	1.094	1.094	1.113	1.108	1.108
0.000	0.024	-0.005	-0.005	0.005	-0.010	0.029	1.763	1.089	1.099	1.094	1.113	1.108	1.108
0.015	0.005	-0.005	-0.010	-0.015	0.000	0.029	1.772	1.094	1.089	1.094	1.108	1.104	1.108
0.005	-0.010	-0.005	-0.010	-0.015	0.015	0.029	1.797	1.094	1.084	1.089	1.108	1.104	1.108
-0.010	-0.010	0.000	-0.005	-0.015	0.005	0.024	1.758	1.094	1.089	1.089	1.108	1.104	1.104
0.005	-0.010	-0.005	-0.005	-0.010	0.005	0.024	1.792	1.094	1.089	1.084	1.108	1.104	1.104
0.000	-0.010	-0.005	0.000	-0.010	-0.005	0.024	1.777	1.094	1.089	1.089	1.108	1.104	1.104
-0.005	-0.015	0.000	-0.005	0.005	-0.005	0.029	1.733	1.094	1.089	1.089	1.108	1.113	1.104
-0.010	-0.005	0.000	0.005	0.044	0.000	0.029	1.797	1.094	1.094	1.094	1.113	1.123	1.108
-0.010	0.000	-0.005	0.005	0.039	0.000	0.029	1.777	1.099	1.099	1.094	1.108	1.113	1.113
-0.005	0.010	0.000	-0.005	0.020	0.000	0.029	1.807	1.108	1.099	1.094	1.113	1.108	1.108
-0.010	0.010	-0.005	-0.005	0.020	0.000	0.029	1.758	1.104	1.099	1.094	1.108	1.108	1.108
-0.005	0.010	0.000	0.000	0.015	-0.020	0.029	1.782	1.108	1.104	1.099	1.113	1.104	1.104
0.000	-0.005	0.000	0.000	0.005	-0.015	0.029	1.782	1.104	1.099	1.099	1.113	1.104	1.104
-0.005	-0.005	-0.005	0.000	-0.005	-0.005	0.029	1.777	1.099	1.099	1.099	1.113	1.104	1.104
-0.005	0.000	0.000	0.000	0.000	-0.005	0.024	1.763	1.094	1.094	1.099	1.113	1.104	1.104
0.000	-0.010	0.005	0.000	-0.005	-0.005	0.024	1.787	1.099	1.094	1.099	1.113	1.104	1.104
0.000	-0.005	0.000	-0.005	-0.010	0.005	0.029	1.777	1.099	1.099	1.094	1.113	1.108	1.108
-0.005	-0.015	-0.005	0.000	-0.005	-0.005	0.024	1.738	1.094	1.094	1.094	1.113	1.104	1.104
0.000	-0.005	0.000	0.000	-0.005	0.005	0.029	1.768	1.118	1.099	1.094	1.113	1.104	1.104
-0.005	-0.005	0.000	-0.005	-0.015	0.010	0.029	1.797	1.108	1.104	1.099	1.113	1.108	1.104
-0.005	0.005	-0.005	0.000	-0.020	-0.005	0.024	1.768	1.133	1.108	1.099	1.113	1.108	1.104
0.000	-0.005	0.000	0.000	-0.015	-0.010	0.029	1.743	1.113	1.108	1.104	1.118	1.108	1.104
0.000	-0.010	-0.005	0.005	-0.005	-0.024	0.024	1.753	1.108	1.108	1.104	1.118	1.108	1.099
-0.010	-0.010	-0.005	-0.005	0.000	0.015	0.029	1.797	1.108	1.104	1.104	1.118	1.113	1.113
0.005	-0.005	-0.005	-0.005	0.005	0.010	0.029	1.743	1.104	1.108	1.104	1.123	1.113	1.113
0.005	0.005	0.000	0.000	0.000	0.005	0.024	1.787	1.104	1.108	1.104	1.123	1.113	1.113
0.005	0.000	0.000	-0.005	-0.010	0.000	0.024	1.802	1.118	1.113	1.108	1.123	1.113	1.108
-0.005	-0.005	0.000	0.000	-0.020	-0.005	0.024	1.802	1.118	1.108	1.108	1.123	1.113	1.108
-0.005	-0.005	-0.005	0.000	-0.020	-0.010	0.029	1.782	1.108	1.108	1.104	1.123	1.113	1.108
-0.005	0.005	-0.005	0.000	-0.015	0.000	0.029	1.748	1.104	1.113	1.108	1.123	1.118	1.113
-0.005	0.005	0.000	0.000	-0.024	-0.005	0.029	1.709	1.104	1.108	1.108	1.123	1.118	1.113
-0.010	0.000	-0.005	0.000	-0.034	-0.010	0.029	1.792	1.104	1.104	1.108	1.128	1.113	1.108
0.000	0.010	-0.005	0.000	-0.039	0.000	0.024	1.797	1.108	1.104	1.108	1.128	1.113	1.113
0.000	-0.005	0.000	0.000	-0.020	-0.015	0.029	1.797	1.099	1.099	1.104	1.123	1.123	1.108
-0.005	-0.015	0.000	0.005	-0.024	-0.024	0.029	1.758	1.099	1.099	1.104	1.123	1.118	1.108
0.000	-0.010	0.000	-0.005	-0.059	-0.015	0.024	1.797	1.104	1.099	1.099	1.123	1.108	1.108
0.010	-0.010	0.000	0.000	-0.029	-0.005	0.024	1.743	1.099	1.104	1.099	1.118	1.123	1.118
-0.005	-0.005	0.000	-0.005	0.059	0.020	0.024	1.797	1.099	1.099	1.099	1.123	1.147	1.133
0.000	-0.005	-0.005	0.000	0.146	0.024	0.029	1.724	1.099	1.104	1.099	1.123	1.162	1.143
-0.005	-0.005	0.000	0.000	0.142	0.020	0.029	1.797	1.108	1.099	1.099	1.123	1.147	1.143
-0.010	0.005	-0.005	0.005	0.098	0.024	0.029	1.772	1.108	1.104	1.104	1.118	1.128	1.138
0.000	-0.020	-0.005	0.000	0.059	0.020	0.029	1.792	1.113	1.094	1.099	1.118	1.113	1.133
-0.005	-0.020	-0.005	0.000	0.015	0.010	0.024	1.753	1.104	1.104	1.099	1.113	1.099	1.113
-0.005	-0.005	0.000	0.000	-0.020	0.000	0.029	1.797	1.108	1.108	1.099	1.118	1.094	1.108
0.005	-0.010	-0.005	0.000	-0.044	0.005	0.029	1.738	1.104	1.104	1.104	1.118	1.094	1.104
0.000	0.000	0.000	0.000	-0.044	-0.010	0.024	1.807	1.108	1.104	1.104	1.118	1.099	1.099
0.000	-0.005	0.000	0.000	-0.034	-0.005	0.024	1.777	1.099	1.104	1.104	1.118	1.108	1.104
0.000	0.000	0.000	0.000	-0.010	0.000	0.024	1.797	1.113	1.104	1.104	1.118	1.113	1.108
0.005	0.000	0.000	0.000	0.005	-0.005	0.029	1.768	1.104	1.104	1.104	1.123	1.118	1.108
0.000	0.000	0.005	-0.005	0.015	-0.015	0.029	1.768	1.104	1.104	1.099	1.123	1.118	1.108
0.000	0.005	0.000	0.000	-0.005	-0.010	0.024	1.763	1.099	1.104	1.104	1.123	1.113	1.113
-0.010	0.015	0.000	0.000	-0.015	-0.010	0.029	1.802	1.104	1.104	1.099	1.123	1.108	1.108
0.005	0.020	-0.005	0.000	-0.020	-0.010	0.024	1.729	1.099	1.108	1.104	1.118	1.113	1.113
0.000	0.010	0.000	0.000	-0.010	-0.020	0.024	1.758	1.104	1.099	1.099	1.118	1.113	1.108
-0.005	0.010	0.000	-0.005	-0.010	-0.020	0.024	1.772	1.099	1.104	1.099	1.118	1.113	1.108
0.000	0.010	0.000	0.000	-0.015	0.005	0.024	1.768	1.104	1.099	1.099	1.118	1.113	1.118
0.005	0.000	-0.005	0.000	-0.010	0.005	0.024	1.733	1.104	1.099	1.099	1.118	1.118	1.118
-0.005	-0.010	0.000	0.000	-0.005	-0.020	0.024	1.743	1.099	1.094	1.094	1.118	1.113	1.108
0.005	-0.010	-0.005	0.000	-0.010	0.000	0.024	1.685	1.099	1.099	1.094	1.118	1.113	1.118
-0.005	0.005	-0.005	0.000	-0.010	0.005	0.024	1.768	1.094	1.099	1.099	1.118	1.113	1.118
0.000	0.000	0.005	0.005	-0.020	-0.005	0.029	1.758	1.099	1.099	1.099	1.118	1.113	1.113
-0.005	0.000	-0.005	0.005	-0.015	-0.029	0.029	1.807	1.104	1.099	1.094	1.118	1.113	1.108
-0.010	0.015	0.000	0.005	-0.010	0.010	0.024	1.763	1.104	1.104	1.099	1.118	1.118	1.113
0.005	0.000	0.000	0.005	-0.010	0.010	0.029	1.719	1.104	1.099	1.099	1.118	1.113	1.118
0.005	-0.005	-0.005	0.000	-0.005	-0.005	0.024	1.777	1.099	1.099	1.099	1.113	1.113	1.113
-0.005	-0.005	-0.005	-0.005	-0.010	0.000	0.029	1.787	1.099	1.094	1.099	1.113	1.108	1.108
-0.010	-0.005	0.000	0.000	-0.010	0.015	0.029	1.812	1.104	1.094	1.099	1.113	1.113	1.113
-0.005	-0.005	0.000	0.000	0.000	0.005	0.029	1.772	1.104	1.099	1.099	1.113	1.113	1.113
0.000	0.000	0.000	-0.005	0.005	0.010	0.024	1.772	1.104	1.099	1.094	1.113	1.113	1.113
-0.005	-0.005	0.000	0.000	0.015	-0.010	0.029	1.758	1.099	1.099	1.099	1.113	1.113	1.108
-0.005	0.000	0.000	-0.005	0.029	0.005	0.024	1.777	1.108	1.099	1.099	1.113	1.118	1.113
0.000	0.000	-0.005	-0.005	0.034	-0.005	0.029	1.787	1.108	1.099	1.099	1.113	1.118	1.113
-0.005	0.000	0.000	-0.005	0.029	0.005	0.029	1.792	1.108	1.099	1.099	1.113	1.113	1.113
0.005	0.000	0.000	0.000	0.010	0.005	0.029	1.729	1.104	1.104	1.099	1.113	1.108	1.113
0.000	-0.010	-0.005	-0.005	0.000	-0.020	0.029	1.792	1.104	1.099	1.099	1.113	1.104	1.104
-0.005	0.000	-0.005	0.000	-0.015	0.010	0.024	1.753	1.104	1.104	1.099	1.118	1.104	1.108
0.000	0.000	0.005	-0.005	-0.015	0.015	0.029	1.797	1.108	1.104	1.104	1.118	1.108	1.113
-0.020	-0.010	0.000	0.000	-0.020	0.005	0.024	1.772	1.099	1.104	1.099	1.118	1.108	1.108
-0.029	-0.005	0.000	0.000	-0.015	0.000	0.024	1.782	1.099	1.099	1.099	1.118	1.113	1.104
-0.005	0.000	-0.005	0.000	-0.010	-0.005	0.024	1.777	1.099	1.104	1.099	1.118	1.113	1.108
-0.005	-0.015	0.005	-0.005	-0.005	-0.024	0.024	1.777	1.104	1.099	1.099	1.118	1.113	1.104
0.000	-0.020	-0.005	0.000	-0.005	-0.015	0.029	1.797	1.104	1.099	1.099	1.118	1.113	1.108
0.010	-0.010	0.000	0.000	-0.005	0.000	0.024	1.787	1.108	1.104	1.099	1.113	1.113	1.113
0.020	-0.005	0.000	0.000	0.000	0.000	0.024	1.753	1.104	1.104	1.099	1.118	1.113	1.113
0.020	-0.005	-0.005	0.005	0.000	0.000	0.029	1.758	1.099	1.104	1.099	1.118	1.113	1.113
0.020	-0.005	-0.005	0.000	-0.005	0.000	0.029	1.797	1.099	1.099	1.099	1.113	1.113	1.113
0.010	-0.005	0.000	0.005	-0.005	0.000	0.024	1.768	1.099	1.099	1.099	1.123	1.113	1.113
0.005	-0.010	0.000	0.000	-0.005	0.000	0.029	1.748	1.094	1.094	1.099	1.118	1.113	1.113
-0.015	-0.005	-0.005	-0.005	0.000	-0.005	0.024	1.729	1.084	1.094	1.094	1.113	1.113	1.113
-0.010	0.000	0.000	-0.005	0.000	-0.024	0.024	1.772	1.094	1.094	1.099	1.113	1.113	1.108
-0.010	0.010	-0.005	-0.005	-0.005	-0.010	0.029	1.748	1.094	1.094	1.099	1.113	1.113	1.113
-0.005	0.010	0.005	-0.010	0.000	-0.005	0.024	1.797	1.104	1.094	1.094	1.113	1.113	1.113
0.005	0.020	-0.005	-0.005	0.000	0.005	0.029	1.777	1.104	1.104	1.099	1.113	1.113	1.113
0.015	0.015	-0.005	0.000	0.000	-0.010	0.029	1.777	1.108	1.099	1.094	1.118	1.113	1.108
0.015	0.005	0.000	0.005	0.000	0.005	0.024	1.792	1.113	1.099	1.099	1.118	1.108	1.113
0.020	0.005	0.000	0.005	0.000	0.005	0.029	1.802	1.113	1.104	1.099	1.118	1.113	1.113
0.010	-0.005	0.005	0.005	0.005	0.005	0.029	1.743	1.099	1.099	1.104	1.118	1.118	1.113
0.005	-0.005	0.000	0.010	0.000	0.000	0.024	1.738	1.099	1.099	1.099	1.118	1.113	1.113
-0.010	-0.005	0.000	0.005	0.000	0.000	0.024	1.807	1.094	1.094	1.099	1.113	1.113	1.113
-0.010	-0.010	0.000	0.005	-0.005	-0.010	0.024	1.782	1.099	1.094	1.094	1.113	1.108	1.108
-0.015	0.000	0.000	-0.005	0.000	-0.015	0.024	1.777	1.104	1.099	1.094	1.113	1.113	1.108
-0.010	-0.005	0.000	0.000	0.000	0.010	0.029	1.733	1.094	1.099	1.094	1.113	1.113	1.113
-0.015	-0.010	0.000	-0.005	0.005	0.000	0.029	1.753	1.094	1.094	1.094	1.113	1.108	1.108
-0.020	-0.005	0.000	0.000	0.005	0.000	0.024	1.777	1.094	1.094	1.094	1.113	1.108	1.108
-0.005	0.000	-0.005	-0.005	-0.005	-0.005	0.029	1.763	1.094	1.094	1.094	1.113	1.104	1.108
0.000	-0.005	-0.005	-0.005	0.000	0.005	0.029	1.792	1.099	1.094	1.094	1.113	1.108	1.108
0.000	-0.005	0.000	0.000	0.000	0.000	0.024	1.807	1.099	1.099	1.094	1.113	1.108	1.108
-0.005	0.000	0.000	0.000	0.005	0.010	0.024	1.782	1.104	1.099	1.094	1.113	1.113	1.113
0.000	0.000	-0.005	0.000	0.005	0.010	0.024	1.748	1.099	1.099	1.094	1.113	1.108	1.108
-0.010	-0.005	0.000	-0.005	-0.005	0.000	0.024	1.812	1.108	1.099	1.094	1.113	1.108	1.108
-0.005	-0.010	0.000	-0.005	0.000	-0.005	0.029	1.768	1.108	1.099	1.094	1.113	1.108	1.108
0.000	0.000	-0.005	0.000	-0.005	-0.005	0.029	1.753	1.104	1.104	1.099	1.113	1.108	1.104
0.000	0.000	-0.005	0.000	-0.024	-0.015	0.024	1.792	1.104	1.099	1.099	1.113	1.104	1.104
-0.005	0.000	0.000	-0.005	-0.020	-0.005	0.029	1.812	1.104	1.104	1.099	1.118	1.108	1.099
0.005	-0.005	-0.005	0.000	-0.020	0.000	0.029	1.777	1.104	1.104	1.104	1.118	1.108	1.108
-0.005	0.000	0.005	0.000	-0.005	0.000	0.024	1.753	1.094	1.099	1.099	1.118	1.113	1.104
0.005	-0.005	0.000	-0.005	0.005	-0.005	0.029	1.787	1.099	1.094	1.099	1.118	1.113	1.108
0.000	-0.005	0.005	-0.005	0.000	-0.020	0.029	1.787	1.099	1.094	1.099	1.113	1.113	1.108
-0.010	-0.005	0.000	-0.005	-0.015	0.000	0.024	1.807	1.099	1.099	1.094	1.118	1.108	1.108
0.000	-0.005	0.000	0.000	0.010	0.000	0.024	1.709	1.094	1.094	1.094	1.118	1.118	1.113
-0.005	0.000	-0.005	-0.005	0.015	0.000	0.029	1.787	1.099	1.099	1.094	1.118	1.113	1.113
-0.005	0.005	0.000	-0.005	0.020	-0.020	0.029	1.792	1.104	1.099	1.094	1.118	1.113	1.108
0.005	0.000	0.000	-0.005	-0.005	0.010	0.029	1.748	1.104	1.099	1.094	1.113	1.108	1.113
0.005	0.000	-0.005	-0.005	-0.020	0.005	0.024	1.792	1.104	1.099	1.099	1.113	1.104	1.113
0.000	0.000	0.005	-0.005	0.005	0.034	0.029	1.738	1.099	1.099	1.099	1.118	1.113	1.118
0.005	-0.005	0.000	0.000	0.029	0.015	0.029	1.748	1.104	1.099	1.099	1.118	1.118	1.118
-0.005	0.000	0.000	0.000	0.000	0.029	0.029	1.792	1.099	1.104	1.099	1.118	1.113	1.113
-0.015	0.000	-0.005	0.005	-0.024	0.010	0.029	1.792	1.099	1.104	1.099	1.113	1.104	1.108
-0.005	0.000	-0.005	0.005	-0.024	0.015	0.024	1.753	1.099	1.104	1.099	1.118	1.108	1.108
-0.005	0.000	-0.005	0.000	-0.005	0.015	0.024	1.797	1.104	1.104	1.099	1.123	1.113	1.108
0.000	0.010	0.000	0.005	0.034	0.000	0.029	1.748	1.099	1.104	1.099	1.118	1.128	1.108
0.005	-0.020	0.000	0.000	0.068	0.015	0.024	1.738	1.094	1.094	1.094	1.118	1.133	1.123
0.005	-0.010	0.000	0.005	0.083	0.000	0.024	1.797	1.104	1.099	1.094	1.118	1.128	1.118
0.010	-0.005	-0.005	0.005	0.059	-0.005	0.029	1.758	1.094	1.099	1.099	1.118	1.113	1.118
0.010	-0.005	0.000	0.000	0.020	-0.010	0.029	1.768	1.099	1.099	1.094	1.113	1.104	1.113
0.005	-0.005	-0.005	0.005	-0.005	0.005	0.024	1.753	1.094	1.094	1.094	1.113	1.099	1.108
0.010	0.010	-0.005	0.010	-0.020	-0.005	0.024	1.768	1.094	1.099	1.094	1.113	1.099	1.099
-0.010	0.005	0.000	0.000	-0.034	0.000	0.029	1.797	1.094	1.094	1.094	1.113	1.099	1.104
0.000	0.000	0.000	0.000	-0.044	0.000	0.029	1.753	1.094	1.094	1.094	1.113	1.094	1.099
-0.005	0.000	0.000	0.000	-0.049	0.000	0.029	1.797	1.094	1.089	1.094	1.113	1.099	1.104
-0.005	0.005	-0.005	-0.005	-0.034	-0.005	0.029	1.777	1.094	1.094	1.094	1.108	1.104	1.099
-0.005	0.000	-0.005	-0.005	-0.029	-0.005	0.024	1.782	1.094	1.094	1.094	1.113	1.104	1.099
-0.005	0.000	0.000	0.000	-0.024	-0.005	0.029	1.807	1.099	1.094	1.094	1.113	1.108	1.104
-0.010	0.010	0.000	0.000	-0.010	-0.005	0.029	1.777	1.099	1.099	1.094	1.113	1.113	1.104
0.005	0.005	0.000	-0.005	0.005	-0.005	0.029	1.782	1.104	1.099	1.094	1.113	1.113	1.108
0.005	-0.005	0.000	0.000	-0.010	-0.005	0.024	1.753	1.099	1.094	1.099	1.113	1.108	1.108
0.015	0.005	0.000	0.000	-0.029	-0.005	0.029	1.758	1.099	1.099	1.094	1.113	1.104	1.104
0.000	0.000	0.000	-0.005	-0.024	-0.010	0.029	1.758	1.094	1.099	1.099	1.113	1.104	1.104
0.000	0.020	0.000	0.000	-0.024	-0.015	0.024	1.777	1.099	1.099	1.099	1.113	1.108	1.104
0.005	0.010	0.000	0.000	-0.039	-0.029	0.029	1.787	1.099	1.099	1.099	1.113	1.104	1.099
0.015	-0.005	0.000	-0.005	-0.010	-0.044	0.024	1.792	1.104	1.094	1.094	1.113	1.113	1.094
0.010	0.000	0.000	-0.005	0.005	-0.010	0.024	1.787	1.099	1.094	1.094	1.113	1.113	1.113
0.015	0.000	-0.005	0.000	0.029	-0.010	0.029	1.797	1.099	1.094	1.094	1.113	1.123	1.113
0.020	0.000	-0.005	0.000	0.034	-0.020	0.024	1.787	1.099	1.094	1.094	1.113	1.118	1.113
0.024	-0.005	0.000	0.000	0.010	0.010	0.024	1.738	1.094	1.094	1.094	1.113	1.108	1.118
0.020	-0.010	-0.005	0.005	0.005	0.020	0.029	1.724	1.089	1.094	1.094	1.113	1.113	1.123
0.000	-0.005	0.000	-0.005	0.093	0.024	0.024	1.792	1.094	1.089	1.094	1.113	1.133	1.128
-0.005	-0.010	0.005	0.000	0.186	0.005	0.029	1.802	1.094	1.094	1.094	1.113	1.152	1.133
-0.005	0.000	0.000	-0.005	0.161	0.015	0.024	1.782	1.104	1.094	1.094	1.113	1.128	1.128
-0.010	0.005	-0.005	-0.005	0.088	0.005	0.024	1.792	1.104	1.099	1.094	1.113	1.104	1.118
-0.024	0.000	0.000	0.000	0.034	-0.005	0.024	1.802	1.108	1.099	1.094	1.113	1.094	1.108
-0.020	0.000	0.000	0.000	0.010	-0.015	0.029	1.802	1.108	1.099	1.099	1.113	1.089	1.104
-0.020	0.005	0.000	-0.005	0.024	0.010	0.024	1.792	1.108	1.104	1.099	1.113	1.099	1.104
-0.015	0.005	0.000	0.000	0.010	-0.005	0.029	1.763	1.104	1.104	1.099	1.113	1.099	1.099
-0.024	0.005	0.000	0.000	-0.029	-0.010	0.029	1.719	1.094	1.099	1.099	1.113	1.094	1.094
-0.039	-0.005	0.000	0.000	-0.049	0.010	0.029	1.777	1.089	1.094	1.094	1.113	1.094	1.099
-0.039	-0.015	-0.010	0.005	-0.044	-0.010	0.029	1.743	1.084	1.089	1.094	1.108	1.094	1.094
-0.049	-0.005	0.000	0.000	-0.039	0.000	0.024	1.802	1.089	1.089	1.094	1.113	1.099	1.094
-0.054	-0.005	-0.005	0.005	-0.039	0.005	0.024	1.733	1.084	1.089	1.089	1.113	1.104	1.099
-0.034	-0.010	0.000	0.000	-0.044	-0.020	0.024	1.743	1.089	1.089	1.089	1.108	1.099	1.089
-0.005	-0.010	0.000	0.000	-0.049	0.010	0.024	1.753	1.094	1.089	1.089	1.108	1.099	1.099
0.024	-0.005	0.000	0.000	-0.049	0.010	0.024	1.807	1.113	1.094	1.089	1.108	1.104	1.099
0.049	0.000	0.000	0.000	-0.049	-0.005	0.029	1.812	1.118	1.104	1.094	1.108	1.104	1.099
0.073	0.005	0.000	-0.005	-0.039	0.005	0.029	1.768	1.118	1.113	1.099	1.108	1.108	1.099
0.078	-0.005	0.000	-0.005	-0.034	0.005	0.029	1.768	1.113	1.108	1.104	1.113	1.108	1.104
0.078	0.000	-0.005	-0.005	-0.029	0.000	0.029	1.758	1.108	1.108	1.104	1.113	1.113	1.104
0.068	0.000	-0.005	-0.005	-0.020	-0.024	0.029	1.787	1.099	1.104	1.104	1.118	1.113	1.099
0.015	0.000	-0.005	-0.005	-0.020	0.000	0.029	1.763	1.089	1.099	1.104	1.118	1.113	1.108
0.000	0.000	0.000	0.000	-0.015	0.005	0.029	1.787	1.089	1.094	1.099	1.118	1.113	1.113
-0.005	-0.010	0.000	0.000	-0.020	-0.005	0.029	1.758	1.094	1.089	1.094	1.118	1.113	1.108
-0.020	-0.005	0.000	0.000	-0.010	0.010	0.029	1.758	1.079	1.089	1.094	1.118	1.113	1.113
-0.005	-0.005	0.000	-0.005	-0.015	0.015	0.029	1.787	1.084	1.089	1.089	1.113	1.113	1.113
0.000	-0.005	0.005	0.000	-0.010	0.015	0.029	1.748	1.089	1.089	1.094	1.118	1.113	1.113
-0.024	-0.005	0.000	0.000	-0.010	0.005	0.029	1.792	1.089	1.089	1.089	1.113	1.108	1.113
-0.024	-0.005	-0.005	-0.005	-0.005	-0.015	0.024	1.743	1.089	1.084	1.084	1.108	1.108	1.104
-0.015	0.000	0.000	-0.005	-0.005	0.010	0.024	1.807	1.099	1.089	1.089	1.108	1.108	1.113
-0.010	0.000	0.000	-0.005	-0.005	0.010	0.024	1.787	1.099	1.094	1.089	1.108	1.108	1.108
-0.015	-0.015	0.000	0.000	0.000	0.000	0.029	1.807	1.104	1.089	1.089	1.108	1.108	1.104
-0.029	0.005	0.000	-0.005	-0.005	0.005	0.029	1.748	1.094	1.099	1.089	1.108	1.108	1.108
-0.015	0.015	0.000	-0.005	-0.005	0.000	0.029	1.738	1.094	1.104	1.094	1.108	1.104	1.108
-0.020	0.020	-0.010	-0.005	-0.005	0.005	0.024	1.733	1.094	1.099	1.094	1.108	1.104	1.104
-0.015	0.015	0.000	-0.005	-0.005	-0.005	0.029	1.792	1.099	1.099	1.094	1.108	1.104	1.104
-0.024	0.005	-0.005	-0.010	0.000	-0.005	0.024	1.797	1.099	1.094	1.094	1.108	1.104	1.104
-0.010	0.000	-0.005	-0.005	0.000	-0.005	0.024	1.743	1.099	1.094	1.094	1.113	1.108	1.104
-0.015	0.000	0.000	0.005	0.010	0.000	0.024	1.792	1.099	1.094	1.099	1.113	1.108	1.108
-0.015	0.000	0.000	0.000	0.010	0.000	0.024	1.729	1.094	1.094	1.094	1.113	1.113	1.108
0.005	0.000	0.000	0.005	0.010	0.000	0.024	1.782	1.104	1.099	1.099	1.113	1.108	1.108
0.005	0.000	0.000	0.000	0.005	0.005	0.029	1.768	1.099	1.099	1.094	1.113	1.108	1.108
-0.005	-0.005	0.000	0.005	0.010	-0.005	0.029	1.724	1.089	1.094	1.094	1.113	1.108	1.108
-0.020	0.000	0.000	0.005	0.010	-0.005	0.029	1.807	1.094	1.094	1.094	1.113	1.108	1.104
-0.015	0.000	0.000	0.000	0.000	-0.010	0.029	1.768	1.099	1.094	1.094	1.108	1.108	1.104
-0.020	0.000	0.000	0.000	0.000	-0.015	0.024	1.792	1.099	1.094	1.094	1.113	1.104	1.104
0.010	-0.010	0.000	0.000	0.005	-0.015	0.029	1.709	1.099	1.094	1.089	1.108	1.108	1.104
0.000	-0.005	-0.005	-0.005	0.010	0.005	0.024	1.797	1.099	1.094	1.094	1.108	1.108	1.108
0.005	0.000	0.000	0.000	0.000	0.000	0.024	1.782	1.099	1.099	1.094	1.108	1.104	1.108
0.010	0.000	-0.005	-0.010	0.000	0.000	0.024	1.787	1.094	1.094	1.094	1.108	1.104	1.104
0.020	-0.005	-0.005	-0.005	0.000	-0.010	0.029	1.738	1.094	1.094	1.094	1.108	1.104	1.104
0.015	-0.005	-0.005	-0.010	0.010	0.000	0.029	1.802	1.099	1.094	1.094	1.108	1.108	1.108
0.020	-0.005	-0.005	0.000	0.005	-0.024	0.029	1.758	1.099	1.099	1.094	1.108	1.104	1.099
0.020	-0.005	-0.005	0.000	0.000	-0.015	0.029	1.792	1.104	1.099	1.094	1.113	1.104	1.108
0.015	0.005	0.000	0.010	0.010	0.010	0.029	1.768	1.099	1.099	1.099	1.118	1.113	1.113
0.010	0.000	0.000	0.000	0.005	0.010	0.024	1.792	1.104	1.099	1.099	1.113	1.108	1.108
0.000	-0.010	-0.005	0.005	0.005	-0.015	0.029	1.763	1.094	1.094	1.099	1.113	1.108	1.104
0.000	-0.015	0.000	0.005	-0.005	0.010	0.029	1.797	1.099	1.094	1.099	1.113	1.108	1.113
-0.005	-0.005	0.000	0.000	-0.015	-0.024	0.029	1.758	1.094	1.099	1.094	1.113	1.104	1.104
-0.015	0.005	0.005	0.000	-0.010	0.015	0.024	1.768	1.089	1.099	1.094	1.113	1.108	1.113
-0.015	0.000	0.000	0.005	-0.015	0.005	0.024	1.792	1.094	1.089	1.094	1.113	1.108	1.108
-0.039	-0.010	-0.005	0.000	-0.005	0.015	0.024	1.763	1.084	1.089	1.089	1.113	1.108	1.108
-0.112	-0.010	0.000	-0.005	0.005	-0.005	0.029	1.763	1.069	1.079	1.084	1.108	1.108	1.104
-0.117	-0.005	0.000	-0.005	0.005	0.000	0.024	1.797	1.079	1.079	1.084	1.108	1.104	1.108
-0.063	0.005	0.000	-0.010	0.005	-0.010	0.029	1.743	1.099	1.089	1.084	1.104	1.104	1.104
-0.015	0.000	0.000	-0.005	0.005	0.000	0.029	1.782	1.113	1.094	1.089	1.108	1.104	1.108
0.044	0.005	0.000	-0.005	0.010	-0.015	0.029	1.797	1.128	1.108	1.089	1.108	1.104	1.104
0.083	0.005	-0.005	0.000	0.015	-0.005	0.029	1.772	1.133	1.113	1.094	1.108	1.108	1.108
0.093	0.000	-0.005	0.010	0.024	0.000	0.029	1.753	1.128	1.118	1.099	1.118	1.113	1.108
0.107	0.000	-0.005	0.020	0.024	0.000	0.024	1.748	1.123	1.123	1.104	1.123	1.113	1.104
0.098	-0.005	0.000	0.020	0.015	0.005	0.024	1.802	1.118	1.113	1.108	1.123	1.108	1.108
0.073	-0.005	-0.005	0.010	0.000	0.000	0.024	1.782	1.108	1.108	1.108	1.118	1.108	1.108
0.039	-0.005	0.000	0.000	0.000	0.010	0.024	1.797	1.099	1.108	1.108	1.123	1.113	1.113
0.005	-0.005	-0.005	-0.005	-0.024	0.000	0.024	1.758	1.084	1.099	1.104	1.118	1.104	1.108
-0.010	0.005	-0.005	-0.010	-0.059	0.010	0.024	1.733	1.084	1.094	1.104	1.118	1.099	1.104
-0.034	-0.005	0.005	-0.010	-0.073	0.010	0.029	1.787	1.084	1.089	1.099	1.118	1.099	1.104
-0.034	-0.005	-0.005	-0.010	-0.024	0.000	0.029	1.787	1.084	1.089	1.094	1.118	1.113	1.104
-0.103	0.000	0.000	-0.010	0.000	-0.010	0.029	1.802	1.069	1.079	1.089	1.118	1.118	1.104
-0.156	-0.005	-0.005	-0.005	0.015	0.005	0.024	1.748	1.064	1.074	1.084	1.113	1.123	1.118
-0.093	0.000	0.005	-0.005	0.029	0.005	0.024	1.758	1.094	1.079	1.084	1.108	1.123	1.113
-0.049	-0.010	0.000	0.000	0.088	0.005	0.024	1.802	1.113	1.089	1.084	1.113	1.133	1.118
0.005	-0.005	-0.005	0.010	0.083	-0.005	0.024	1.777	1.123	1.099	1.089	1.113	1.123	1.118
0.063	-0.005	0.000	0.005	0.078	0.010	0.024	1.743	1.138	1.113	1.094	1.108	1.123	1.123
0.093	-0.005	-0.005	0.005	0.073	-0.020	0.024	1.777	1.133	1.118	1.099	1.113	1.113	1.108
0.093	0.005	0.000	0.000	0.034	0.000	0.029	1.777	1.128	1.123	1.108	1.113	1.099	1.113
0.078	0.015	0.000	-0.005	0.015	0.015	0.029	1.758	1.113	1.123	1.108	1.118	1.099	1.113
0.059	0.000	-0.005	0.000	-0.015	0.010	0.024	1.738	1.099	1.113	1.108	1.118	1.094	1.104
0.044	0.000	-0.005	-0.010	-0.044	0.000	0.024	1.758	1.094	1.108	1.108	1.118	1.094	1.099
0.020	0.000	-0.005	-0.020	-0.073	-0.015	0.029	1.787	1.089	1.099	1.108	1.118	1.089	1.094
-0.020	0.000	0.000	-0.029	-0.088	-0.024	0.029	1.812	1.079	1.094	1.104	1.113	1.094	1.089
-0.049	0.005	0.000	-0.024	-0.068	-0.034	0.024	1.792	1.079	1.089	1.099	1.118	1.099	1.089
-0.132	-0.010	0.000	-0.015	-0.044	-0.034	0.024	1.777	1.060	1.074	1.094	1.118	1.113	1.094
-0.146	-0.005	0.000	-0.010	-0.015	-0.020	0.024	1.748	1.060	1.069	1.089	1.113	1.123	1.108
-0.122	-0.010	0.000	-0.015	-0.010	0.000	0.029	1.738	1.074	1.069	1.079	1.108	1.118	1.113
-0.063	0.000	-0.005	0.000	-0.010	0.000	0.024	1.792	1.099	1.079	1.084	1.113	1.113	1.113
0.000	-0.005	0.000	0.015	-0.020	-0.024	0.029	1.748	1.118	1.094	1.084	1.113	1.108	1.108
0.044	0.000	0.000	0.010	-0.015	-0.024	0.029	1.797	1.128	1.099	1.089	1.108	1.108	1.108
0.054	0.010	0.000	0.010	0.010	-0.005	0.029	1.787	1.123	1.108	1.094	1.113	1.118	1.113
0.088	0.010	-0.005	0.005	0.029	0.000	0.029	1.792	1.138	1.118	1.099	1.113	1.118	1.118
0.103	0.010	0.000	-0.005	0.005	0.020	0.029	1.743	1.133	1.123	1.104	1.113	1.108	1.118
0.068	0.005	0.000	-0.010	-0.010	0.015	0.029	1.772	1.108	1.118	1.108	1.108	1.104	1.113
0.083	0.000	0.000	-0.015	0.010	0.015	0.024	1.763	1.113	1.113	1.108	1.118	1.118	1.118
0.078	0.005	0.000	0.005	0.044	0.010	0.024	1.729	1.104	1.108	1.113	1.128	1.123	1.113
0.044	0.000	0.000	0.029	0.083	0.005	0.024	1.807	1.094	1.108	1.113	1.138	1.138	1.118
0.039	0.010	0.005	0.049	0.112	0.020	0.024	1.802	1.104	1.108	1.108	1.143	1.147	1.133
0.015	0.010	0.000	0.049	0.059	0.029	0.024	1.797	1.099	1.104	1.108	1.133	1.128	1.133
0.005	-0.005	0.000	0.034	0.044	0.010	0.024	1.772	1.099	1.099	1.104	1.128	1.123	1.118
-0.015	-0.005	-0.005	0.010	0.024	0.000	0.029	1.743	1.094	1.094	1.099	1.113	1.113	1.118
-0.015	0.000	-0.005	-0.010	0.005	-0.010	0.024	1.758	1.094	1.094	1.099	1.108	1.108	1.108
-0.034	-0.010	-0.010	-0.010	-0.005	0.005	0.029	1.763	1.089	1.089	1.094	1.113	1.099	1.108
-0.049	-0.010	0.000	-0.010	-0.024	0.005	0.024	1.782	1.089	1.089	1.094	1.108	1.099	1.108
-0.044	-0.005	0.000	-0.005	-0.034	-0.015	0.024	1.772	1.089	1.089	1.089	1.108	1.094	1.104
-0.029	0.000	0.000	-0.015	-0.044	0.010	0.024	1.797	1.099	1.089	1.094	1.104	1.094	1.104
-0.005	0.000	0.000	-0.010	-0.044	0.000	0.029	1.792	1.108	1.099	1.094	1.108	1.099	1.099
-0.020	-0.005	0.000	0.015	-0.044	-0.005	0.024	1.787	1.108	1.099	1.094	1.118	1.104	1.099
-0.015	-0.005	0.000	0.010	-0.034	-0.005	0.029	1.758	1.104	1.099	1.094	1.113	1.108	1.099
-0.020	-0.005	0.000	0.010	-0.039	0.010	0.024	1.792	1.099	1.099	1.094	1.118	1.108	1.108
-0.015	0.000	-0.005	0.010	-0.029	0.000	0.029	1.772	1.099	1.099	1.094	1.113	1.113	1.104
-0.020	-0.010	0.000	0.005	-0.020	-0.005	0.029	1.724	1.094	1.099	1.094	1.113	1.113	1.104
-0.020	-0.005	0.000	-0.005	-0.020	0.000	0.029	1.738	1.094	1.094	1.099	1.113	1.113	1.108
-0.010	0.000	0.000	0.000	-0.015	0.000	0.029	1.802	1.099	1.094	1.099	1.118	1.113	1.108
-0.015	-0.005	0.000	-0.005	-0.010	0.000	0.029	1.797	1.099	1.094	1.094	1.113	1.113	1.113
-0.034	0.000	0.000	-0.024	-0.005	0.024	0.024	1.802	1.104	1.099	1.094	1.108	1.113	1.113
-0.020	0.000	0.000	-0.039	-0.005	0.020	0.024	1.787	1.108	1.104	1.094	1.108	1.108	1.113
-0.020	0.005	-0.005	-0.034	0.000	0.010	0.024	1.792	1.108	1.104	1.099	1.108	1.108	1.108
-0.015	0.005	0.000	-0.024	-0.005	-0.010	0.029	1.777	1.108	1.108	1.099	1.113	1.108	1.104
-0.020	-0.005	0.000	-0.020	0.000	-0.024	0.024	1.777	1.108	1.104	1.099	1.118	1.108	1.099
-0.005	0.005	-0.005	-0.005	0.000	-0.039	0.024	1.787	1.104	1.104	1.104	1.123	1.108	1.099
-0.005	0.000	0.000	0.005	0.000	-0.034	0.029	1.792	1.108	1.104	1.099	1.123	1.113	1.104
-0.005	-0.005	-0.005	0.000	-0.005	-0.044	0.029	1.792	1.108	1.099	1.099	1.118	1.113	1.104
-0.010	0.000	0.000	0.000	0.000	-0.010	0.029	1.792	1.108	1.099	1.104	1.118	1.113	1.118
0.000	0.000	0.000	0.000	-0.005	-0.005	0.024	1.763	1.108	1.104	1.104	1.118	1.113	1.113
-0.005	0.005	-0.005	-0.005	-0.005	-0.005	0.024	1.792	1.104	1.099	1.104	1.118	1.113	1.113
0.000	0.000	0.000	-0.005	-0.005	0.010	0.024	1.777	1.104	1.104	1.104	1.118	1.118	1.118
0.000	0.015	-0.005	0.000	0.005	-0.005	0.024	1.777	1.108	1.108	1.104	1.123	1.118	1.118
0.000	0.000	-0.005	0.000	0.010	0.005	0.024	1.787	1.104	1.108	1.104	1.123	1.118	1.118
0.010	-0.005	-0.005	0.000	0.020	0.005	0.024	1.782	1.104	1.104	1.104	1.123	1.123	1.118
0.005	-0.005	0.000	-0.005	0.015	0.005	0.029	1.753	1.104	1.104	1.104	1.123	1.123	1.118
-0.010	0.000	0.005	0.005	0.015	0.010	0.029	1.802	1.104	1.104	1.104	1.123	1.123	1.123
0.005	0.005	0.000	0.005	0.010	-0.010	0.029	1.787	1.108	1.108	1.104	1.123	1.118	1.118
0.000	0.000	-0.005	0.000	0.000	-0.015	0.029	1.753	1.104	1.104	1.104	1.123	1.118	1.118
0.000	-0.010	0.000	0.005	-0.005	0.010	0.024	1.792	1.108	1.099	1.104	1.123	1.113	1.118
-0.005	-0.010	0.000	0.005	-0.005	-0.005	0.024	1.777	1.108	1.099	1.104	1.123	1.113	1.113
-0.010	-0.010	-0.005	-0.005	-0.024	0.000	0.024	1.797	1.108	1.099	1.099	1.118	1.108	1.113
0.000	-0.005	0.000	0.000	-0.020	0.000	0.024	1.792	1.108	1.104	1.104	1.118	1.113	1.113
0.005	-0.010	0.000	-0.005	-0.005	0.000	0.024	1.792	1.108	1.104	1.099	1.118	1.118	1.113
0.000	-0.010	0.005	-0.010	-0.005	0.000	0.029	1.807	1.108	1.104	1.104	1.118	1.113	1.113
0.000	-0.010	0.000	0.000	-0.029	0.000	0.024	1.743	1.104	1.104	1.104	1.123	1.108	1.108
0.000	-0.010	0.000	0.000	-0.029	0.000	0.029	1.748	1.104	1.104	1.099	1.123	1.113	1.108
0.000	-0.010	0.000	0.000	-0.010	-0.005	0.029	1.812	1.108	1.104	1.104	1.123	1.118	1.108
0.010	-0.005	-0.005	0.000	0.005	-0.005	0.029	1.689	1.099	1.104	1.104	1.123	1.123	1.113
0.005	-0.005	-0.005	-0.005	0.024	-0.005	0.029	1.738	1.099	1.104	1.104	1.118	1.128	1.118
0.000	-0.005	-0.005	0.000	0.024	-0.024	0.029	1.787	1.099	1.099	1.104	1.123	1.123	1.113
0.010	-0.010	-0.005	-0.005	0.000	0.000	0.024	1.753	1.104	1.099	1.104	1.118	1.118	1.123
0.010	0.010	-0.005	-0.005	0.005	0.005	0.024	1.792	1.108	1.104	1.104	1.123	1.118	1.123
0.010	0.005	0.000	0.000	-0.005	-0.005	0.024	1.748	1.099	1.104	1.104	1.123	1.118	1.113
0.005	0.010	-0.005	-0.005	0.015	0.010	0.029	1.768	1.104	1.104	1.104	1.123	1.118	1.123
0.000	0.015	0.000	0.000	0.029	-0.005	0.029	1.758	1.104	1.108	1.104	1.123	1.123	1.118
-0.005	0.015	0.000	0.005	0.024	-0.010	0.024	1.772	1.104	1.104	1.104	1.123	1.123	1.118
0.005	-0.005	0.000	0.000	0.020	0.005	0.024	1.777	1.104	1.094	1.104	1.123	1.118	1.123
0.000	0.000	-0.005	0.000	0.024	-0.010	0.024	1.772	1.099	1.099	1.099	1.118	1.118	1.118
-0.005	0.000	-0.005	0.000	0.034	0.005	0.024	1.797	1.099	1.094	1.099	1.118	1.118	1.118
0.000	0.020	-0.005	0.005	0.005	-0.010	0.024	1.807	1.108	1.104	1.099	1.118	1.108	1.113
0.000	-0.005	0.005	0.005	-0.010	0.005	0.024	1.777	1.104	1.099	1.099	1.118	1.108	1.113
0.000	0.000	0.010	-0.005	-0.010	0.015	0.024	1.807	1.108	1.104	1.104	1.113	1.108	1.118
0.005	-0.005	0.000	0.000	0.000	0.010	0.024	1.782	1.108	1.099	1.099	1.113	1.113	1.118
0.005	0.000	0.000	0.000	0.000	-0.015	0.024	1.763	1.104	1.104	1.099	1.118	1.113	1.108
0.000	0.000	0.000	0.000	-0.024	0.015	0.029	1.792	1.108	1.104	1.104	1.118	1.104	1.113
0.005	0.005	-0.005	-0.005	-0.029	-0.010	0.024	1.807	1.113	1.108	1.104	1.118	1.108	1.104
0.005	0.000	0.000	0.000	-0.029	0.010	0.024	1.733	1.104	1.104	1.104	1.118	1.113	1.108
-0.005	0.000	0.000	-0.005	-0.005	0.000	0.024	1.787	1.108	1.104	1.104	1.123	1.118	1.108
0.005	-0.005	0.000	0.000	-0.010	-0.010	0.029	1.724	1.104	1.104	1.104	1.123	1.118	1.108
0.000	-0.005	-0.005	-0.005	0.000	-0.015	0.024	1.797	1.104	1.099	1.104	1.123	1.123	1.113
-0.005	-0.005	0.005	-0.005	0.000	0.000	0.024	1.787	1.104	1.104	1.104	1.118	1.118	1.118
-0.005	-0.005	0.005	-0.005	-0.010	0.010	0.024	1.782	1.104	1.104	1.104	1.123	1.113	1.118
-0.005	0.000	0.000	0.005	-0.010	0.000	0.024	1.782	1.104	1.104	1.104	1.123	1.113	1.118
-0.005	-0.010	0.005	0.000	0.005	0.010	0.024	1.719	1.104	1.104	1.099	1.123	1.123	1.118
-0.005	0.000	0.000	0.000	0.063	-0.005	0.029	1.797	1.108	1.104	1.104	1.123	1.133	1.118
0.000	0.000	0.000	0.015	0.083	-0.015	0.024	1.758	1.099	1.104	1.104	1.123	1.133	1.123
-0.010	0.000	0.000	0.010	0.059	0.005	0.029	1.797	1.104	1.104	1.099	1.123	1.123	1.123
0.000	-0.015	0.000	0.005	0.054	0.020	0.024	1.792	1.108	1.099	1.099	1.123	1.123	1.128
0.000	-0.005	-0.005	0.000	0.054	0.010	0.024	1.763	1.108	1.104	1.099	1.118	1.118	1.123
-0.005	-0.005	0.000	-0.010	0.029	0.010	0.024	1.763	1.104	1.104	1.099	1.113	1.108	1.118
-0.010	-0.005	0.000	-0.020	0.010	0.000	0.024	1.743	1.099	1.099	1.099	1.113	1.104	1.113
-0.005	0.000	0.000	-0.015	0.015	0.005	0.024	1.772	1.104	1.104	1.099	1.118	1.108	1.108
-0.005	0.005	0.000	-0.005	0.000	0.000	0.029	1.802	1.104	1.104	1.099	1.118	1.108	1.108
-0.005	0.005	0.005	0.000	-0.024	0.005	0.024	1.763	1.099	1.104	1.104	1.118	1.104	1.108
-0.034	0.000	-0.005	-0.010	-0.044	0.000	0.029	1.787	1.094	1.099	1.099	1.113	1.099	1.104
-0.029	-0.005	-0.005	-0.010	-0.063	0.005	0.029	1.782	1.104	1.099	1.099	1.113	1.099	1.104
-0.010	0.005	-0.010	0.000	-0.083	-0.005	0.024	1.782	1.108	1.104	1.099	1.123	1.094	1.099
0.015	-0.010	0.000	0.010	-0.088	0.000	0.024	1.729	1.113	1.099	1.104	1.123	1.104	1.099
0.029	0.005	0.000	0.015	-0.083	0.005	0.024	1.777	1.113	1.108	1.104	1.123	1.108	1.104
0.034	-0.005	0.000	0.024	-0.063	0.010	0.029	1.768	1.128	1.108	1.104	1.128	1.118	1.108
0.029	-0.005	-0.005	0.015	-0.024	-0.005	0.024	1.763	1.118	1.108	1.104	1.123	1.128	1.108
0.020	0.000	-0.005	0.005	0.029	-0.005	0.024	1.729	1.108	1.108	1.108	1.123	1.138	1.118
0.020	-0.005	-0.005	0.000	0.039	-0.015	0.024	1.772	1.104	1.108	1.104	1.118	1.133	1.118
-0.005	-0.010	-0.005	0.000	0.015	0.000	0.024	1.748	1.094	1.099	1.104	1.118	1.123	1.128
0.000	0.005	-0.005	0.000	0.005	-0.005	0.024	1.777	1.104	1.104	1.104	1.123	1.118	1.118
0.000	-0.005	-0.005	-0.005	0.005	0.000	0.024	1.797	1.104	1.099	1.104	1.118	1.118	1.123
0.000	0.005	-0.005	0.000	0.000	-0.010	0.024	1.738	1.099	1.104	1.104	1.118	1.113	1.118
0.000	0.000	-0.005	0.005	0.005	-0.005	0.024	1.792	1.104	1.104	1.104	1.123	1.113	1.118
0.005	0.005	-0.005	0.000	0.000	-0.020	0.024	1.753	1.104	1.104	1.099	1.118	1.118	1.113
0.000	0.000	0.000	-0.010	0.005	-0.010	0.024	1.797	1.108	1.104	1.104	1.118	1.118	1.118
-0.005	0.005	0.000	-0.010	0.000	0.000	0.024	1.777	1.104	1.104	1.104	1.118	1.113	1.118
-0.010	-0.005	0.000	-0.010	0.000	0.000	0.029	1.787	1.104	1.099	1.104	1.118	1.113	1.118
-0.015	-0.005	-0.005	-0.005	0.015	0.010	0.029	1.792	1.108	1.104	1.104	1.123	1.118	1.123
-0.005	0.000	0.005	-0.005	-0.005	-0.005	0.024	1.743	1.108	1.108	1.104	1.118	1.113	1.113
-0.010	0.000	-0.005	0.000	0.000	-0.005	0.029	1.787	1.104	1.104	1.099	1.118	1.113	1.118
-0.005	-0.005	0.000	0.005	-0.005	-0.005	0.029	1.782	1.108	1.104	1.104	1.123	1.113	1.113
-0.005	-0.010	-0.005	0.000	-0.005	-0.020	0.024	1.777	1.104	1.104	1.104	1.123	1.113	1.108
-0.005	0.000	0.000	-0.005	-0.005	-0.005	0.024	1.812	1.108	1.104	1.099	1.118	1.113	1.113
-0.010	-0.005	-0.005	0.000	-0.005	-0.020	0.024	1.792	1.104	1.104	1.099	1.118	1.113	1.108
-0.010	0.000	0.000	-0.005	0.000	0.010	0.024	1.792	1.108	1.108	1.104	1.118	1.118	1.118
-0.005	0.000	-0.005	-0.005	-0.010	-0.005	0.024	1.758	1.104	1.108	1.104	1.118	1.113	1.113
0.005	-0.005	0.000	0.000	0.000	0.010	0.024	1.787	1.108	1.104	1.104	1.123	1.118	1.118
0.000	-0.010	-0.005	0.015	0.000	-0.005	0.024	1.792	1.104	1.104	1.099	1.123	1.118	1.113
0.000	0.000	0.000	0.015	-0.005	0.005	0.029	1.753	1.108	1.108	1.104	1.123	1.118	1.118
0.000	0.005	-0.005	0.020	0.000	0.000	0.029	1.792	1.104	1.108	1.104	1.128	1.118	1.118
-0.010	0.000	0.000	0.000	-0.005	-0.005	0.029	1.812	1.108	1.108	1.104	1.123	1.118	1.113
0.000	0.010	-0.005	-0.005	0.000	0.000	0.024	1.792	1.108	1.104	1.104	1.118	1.118	1.118
0.005	-0.005	0.000	-0.010	0.000	0.000	0.024	1.777	1.108	1.108	1.108	1.123	1.118	1.118
-0.005	0.000	0.005	-0.005	-0.005	-0.010	0.029	1.812	1.108	1.104	1.108	1.123	1.118	1.113
0.005	0.000	-0.005	0.000	0.005	-0.010	0.024	1.772	1.108	1.104	1.104	1.123	1.118	1.113
0.000	0.010	0.005	0.000	0.000	0.000	0.024	1.797	1.113	1.108	1.104	1.128	1.118	1.118
-0.015	0.010	-0.005	0.000	0.000	0.000	0.024	1.797	1.113	1.108	1.108	1.123	1.118	1.118
0.005	0.000	0.000	0.005	0.000	0.005	0.024	1.758	1.113	1.108	1.108	1.128	1.118	1.118
0.000	-0.005	0.000	0.000	0.000	0.000	0.024	1.758	1.104	1.104	1.108	1.123	1.118	1.118
-0.015	0.005	0.000	-0.005	0.010	-0.010	0.024	1.797	1.108	1.104	1.108	1.128	1.118	1.113
-0.010	0.005	0.000	0.005	0.010	0.000	0.024	1.802	1.099	1.104	1.104	1.123	1.123	1.118
0.000	-0.010	-0.005	-0.005	0.000	0.000	0.024	1.797	1.104	1.099	1.099	1.123	1.118	1.118
0.010	-0.020	0.000	-0.010	0.005	0.005	0.024	1.792	1.108	1.099	1.099	1.118	1.118	1.118
0.010	-0.005	0.000	0.000	0.000	0.015	0.024	1.792	1.113	1.104	1.099	1.123	1.113	1.118
-0.005	0.005	0.000	-0.005	0.000	0.005	0.024	1.768	1.108	1.108	1.099	1.118	1.118	1.118
0.000	0.000	0.000	-0.005	-0.010	0.005	0.024	1.768	1.099	1.104	1.104	1.118	1.113	1.113
0.005	-0.005	0.005	-0.005	-0.015	-0.020	0.029	1.787	1.099	1.104	1.104	1.118	1.113	1.108
0.000	-0.005	0.000	-0.015	-0.034	-0.010	0.024	1.777	1.094	1.099	1.099	1.118	1.108	1.108
0.000	-0.005	0.000	-0.020	-0.029	-0.015	0.024	1.772	1.094	1.104	1.104	1.118	1.113	1.108
0.000	0.000	0.000	-0.020	-0.020	-0.010	0.024	1.792	1.099	1.099	1.104	1.118	1.113	1.108
0.000	0.000	-0.005	-0.005	-0.029	-0.029	0.029	1.738	1.094	1.099	1.099	1.118	1.113	1.104
-0.010	0.010	0.000	-0.005	-0.029	-0.020	0.024	1.812	1.104	1.099	1.099	1.123	1.113	1.108
0.000	0.005	0.000	0.000	-0.024	-0.005	0.024	1.743	1.099	1.104	1.104	1.118	1.113	1.113
0.000	0.005	0.000	0.000	-0.020	0.000	0.024	1.812	1.104	1.099	1.099	1.123	1.118	1.118
0.005	0.010	-0.005	0.010	-0.044	-0.020	0.024	1.782	1.104	1.104	1.099	1.123	1.108	1.108
0.000	0.005	0.000	0.015	-0.034	0.005	0.029	1.738	1.099	1.099	1.099	1.123	1.118	1.118
-0.010	0.015	0.000	0.020	0.000	-0.020	0.024	1.802	1.099	1.099	1.099	1.128	1.123	1.113
-0.005	0.010	0.000	0.020	0.024	0.010	0.024	1.768	1.104	1.099	1.099	1.118	1.133	1.128
0.005	0.000	-0.005	0.015	0.029	0.005	0.024	1.797	1.108	1.094	1.099	1.123	1.128	1.128
-0.015	-0.005	-0.005	0.020	0.034	0.010	0.024	1.738	1.104	1.099	1.094	1.118	1.128	1.128
-0.005	-0.005	-0.005	0.010	0.068	0.020	0.024	1.782	1.104	1.094	1.094	1.113	1.128	1.133
-0.005	-0.010	-0.005	0.005	0.117	0.024	0.024	1.758	1.104	1.094	1.094	1.118	1.138	1.133
0.010	-0.005	-0.005	0.005	0.132	0.020	0.024	1.792	1.108	1.099	1.099	1.118	1.133	1.133
0.000	-0.010	0.000	0.000	0.107	0.005	0.024	1.763	1.108	1.104	1.099	1.113	1.118	1.123
0.000	-0.005	0.000	-0.005	0.073	0.015	0.029	1.768	1.108	1.104	1.099	1.113	1.108	1.123
0.010	0.005	0.000	-0.005	0.073	0.005	0.024	1.758	1.113	1.113	1.104	1.118	1.108	1.118
0.000	-0.005	0.000	-0.010	0.068	0.015	0.024	1.763	1.108	1.108	1.104	1.118	1.108	1.118
-0.005	-0.010	0.000	-0.010	0.044	0.010	0.029	1.738	1.099	1.104	1.104	1.113	1.104	1.113
-0.005	-0.010	-0.005	-0.010	0.029	0.010	0.029	1.802	1.108	1.104	1.104	1.118	1.104	1.108
0.010	-0.005	0.000	0.005	-0.005	0.005	0.029	1.743	1.104	1.104	1.104	1.123	1.094	1.104
0.000	-0.015	0.000	-0.005	-0.034	0.000	0.024	1.772	1.104	1.099	1.099	1.118	1.094	1.099
-0.010	-0.010	-0.005	-0.005	-0.068	0.000	0.024	1.772	1.094	1.099	1.099	1.113	1.089	1.094
-0.010	-0.005	0.000	-0.015	-0.078	0.005	0.024	1.797	1.099	1.099	1.099	1.113	1.094	1.094
0.000	-0.005	0.000	-0.020	-0.073	0.000	0.024	1.763	1.099	1.099	1.099	1.113	1.099	1.094
-0.005	-0.010	0.000	-0.015	-0.073	-0.029	0.024	1.821	1.099	1.094	1.094	1.113	1.099	1.089
-0.005	-0.024	0.000	-0.015	-0.054	-0.015	0.024	1.807	1.099	1.094	1.094	1.118	1.108	1.099
0.005	-0.020	-0.005	-0.005	-0.059	-0.015	0.024	1.758	1.094	1.094	1.094	1.113	1.108	1.099
0.000	-0.010	0.000	-0.010	-0.054	-0.010	0.024	1.768	1.104	1.099	1.094	1.113	1.113	1.104
0.005	0.000	0.000	-0.005	-0.044	0.005	0.024	1.743	1.104	1.104	1.099	1.118	1.113	1.108
-0.005	0.005	0.000	0.005	-0.029	0.000	0.024	1.797	1.104	1.104	1.104	1.123	1.118	1.113
0.005	-0.010	-0.005	0.005	-0.024	-0.005	0.024	1.748	1.099	1.099	1.099	1.118	1.118	1.113
0.000	-0.010	0.000	0.010	-0.020	-0.005	0.029	1.787	1.094	1.099	1.099	1.118	1.118	1.118
-0.005	-0.005	0.000	0.015	-0.020	-0.005	0.024	1.802	1.104	1.099	1.099	1.123	1.118	1.118
-0.005	-0.005	0.005	0.015	-0.005	-0.020	0.024	1.787	1.104	1.104	1.099	1.123	1.123	1.113
0.000	0.010	0.000	0.010	-0.005	-0.005	0.029	1.768	1.104	1.108	1.099	1.118	1.123	1.118
0.005	0.015	0.000	-0.005	-0.005	-0.029	0.029	1.768	1.099	1.108	1.104	1.113	1.118	1.113
-0.005	0.024	0.000	-0.010	-0.005	0.000	0.029	1.787	1.099	1.108	1.104	1.113	1.118	1.123
-0.010	0.029	-0.005	-0.005	-0.005	0.005	0.024	1.797	1.104	1.104	1.104	1.118	1.113	1.118
-0.005	0.034	0.000	-0.005	-0.005	0.000	0.029	1.782	1.099	1.104	1.104	1.118	1.113	1.118
0.005	0.000	0.000	0.000	-0.005	0.000	0.024	1.797	1.104	1.094	1.099	1.123	1.113	1.113
0.000	-0.005	0.000	-0.005	0.005	0.005	0.024	1.802	1.108	1.094	1.094	1.118	1.113	1.113
0.000	-0.010	-0.005	0.005	0.000	-0.024	0.029	1.763	1.104	1.099	1.099	1.123	1.113	1.108
-0.005	-0.005	-0.005	0.015	-0.005	-0.010	0.029	1.763	1.104	1.099	1.094	1.123	1.113	1.108
-0.005	-0.010	-0.005	0.015	0.000	0.010	0.024	1.777	1.099	1.099	1.099	1.118	1.118	1.118
-0.005	-0.010	0.000	0.010	0.000	-0.005	0.024	1.753	1.104	1.099	1.094	1.118	1.113	1.113
-0.005	0.010	-0.005	0.005	0.005	0.015	0.024	1.792	1.104	1.104	1.099	1.118	1.113	1.118
0.000	-0.010	0.000	0.005	0.000	0.000	0.029	1.709	1.099	1.099	1.099	1.118	1.113	1.113
0.000	-0.005	0.000	0.005	0.000	0.005	0.024	1.768	1.099	1.099	1.099	1.118	1.113	1.113
0.000	-0.005	0.000	0.000	0.000	0.000	0.024	1.738	1.104	1.099	1.099	1.113	1.113	1.113
-0.005	0.010	0.000	0.010	0.005	0.000	0.024	1.787	1.099	1.104	1.104	1.123	1.113	1.113
-0.005	0.010	0.000	0.000	0.005	0.005	0.029	1.763	1.094	1.099	1.099	1.118	1.113	1.113
0.000	-0.005	-0.005	-0.005	0.005	0.000	0.024	1.807	1.099	1.094	1.099	1.118	1.113	1.113
0.005	-0.015	-0.005	-0.015	0.005	0.000	0.024	1.724	1.094	1.094	1.094	1.108	1.113	1.108
-0.010	-0.020	0.000	-0.054	0.005	-0.005	0.024	1.802	1.099	1.089	1.094	1.099	1.108	1.108
0.005	-0.010	0.000	-0.039	0.005	0.005	0.024	1.753	1.094	1.094	1.094	1.108	1.108	1.108
-0.005	-0.005	0.000	-0.015	0.010	0.005	0.029	1.787	1.094	1.094	1.099	1.113	1.108	1.113
0.000	-0.010	0.000	0.000	0.000	-0.010	0.029	1.797	1.104	1.094	1.094	1.118	1.108	1.104
-0.010	-0.005	0.005	0.010	-0.005	0.000	0.024	1.797	1.104	1.094	1.099	1.118	1.108	1.108
0.000	-0.005	0.000	0.015	0.005	-0.005	0.024	1.738	1.104	1.094	1.094	1.123	1.113	1.108
-0.005	-0.005	-0.005	0.020	0.005	-0.020	0.024	1.792	1.099	1.094	1.094	1.123	1.113	1.104
-0.010	0.000	0.000	0.024	-0.005	0.010	0.024	1.802	1.104	1.099	1.094	1.118	1.113	1.113
-0.005	0.000	0.000	0.020	0.000	0.005	0.024	1.802	1.104	1.099	1.099	1.113	1.113	1.113
0.005	0.010	0.000	0.010	0.005	0.000	0.024	1.743	1.104	1.104	1.099	1.113	1.113	1.113
0.000	0.015	0.000	0.010	0.005	0.000	0.024	1.802	1.108	1.104	1.099	1.113	1.113	1.113
0.000	0.010	-0.005	0.005	0.000	0.010	0.024	1.797	1.108	1.104	1.099	1.113	1.113	1.113
-0.010	0.005	0.000	0.000	0.000	-0.015	0.029	1.797	1.104	1.099	1.099	1.113	1.108	1.104
0.005	-0.005	0.000	-0.005	0.000	0.005	0.024	1.777	1.108	1.099	1.099	1.113	1.108	1.113
0.000	-0.005	-0.005	-0.005	0.005	-0.010	0.029	1.797	1.108	1.099	1.099	1.118	1.113	1.104
-0.005	-0.015	-0.005	-0.005	0.010	0.000	0.024	1.802	1.099	1.099	1.099	1.118	1.113	1.108
-0.015	-0.005	0.000	0.000	0.005	-0.005	0.024	1.758	1.099	1.099	1.104	1.118	1.113	1.108
-0.005	-0.010	0.010	0.000	-0.005	0.010	0.024	1.768	1.099	1.099	1.099	1.118	1.108	1.113
-0.005	0.005	0.000	-0.005	-0.010	0.005	0.024	1.763	1.099	1.104	1.099	1.113	1.108	1.108
-0.010	0.054	0.000	-0.010	-0.005	0.005	0.024	1.782	1.104	1.108	1.099	1.118	1.113	1.108
0.005	0.005	-0.005	-0.010	-0.005	0.005	0.029	1.797	1.108	1.094	1.099	1.113	1.108	1.113
0.005	-0.015	0.000	-0.015	0.000	0.005	0.024	1.768	1.108	1.094	1.094	1.113	1.113	1.108
0.000	-0.005	-0.005	-0.015	0.000	-0.020	0.024	1.797	1.108	1.099	1.094	1.113	1.108	1.108
0.005	-0.010	0.000	-0.015	-0.010	0.000	0.029	1.807	1.108	1.104	1.099	1.113	1.108	1.108
0.005	-0.005	-0.005	-0.005	-0.005	-0.005	0.024	1.782	1.108	1.104	1.099	1.118	1.108	1.108
0.000	-0.005	-0.005	0.000	0.000	0.005	0.029	1.763	1.099	1.104	1.099	1.118	1.113	1.113
0.000	0.000	0.000	-0.005	0.005	-0.005	0.024	1.797	1.099	1.104	1.104	1.118	1.113	1.108
0.010	0.000	0.000	-0.010	0.000	0.010	0.024	1.768	1.104	1.104	1.104	1.118	1.113	1.113
-0.005	-0.005	0.000	-0.020	0.005	0.000	0.024	1.782	1.099	1.099	1.104	1.113	1.113	1.108
0.005	-0.005	0.000	-0.029	0.010	0.005	0.024	1.797	1.104	1.099	1.099	1.113	1.113	1.113
0.005	0.005	-0.005	-0.015	0.015	0.005	0.024	1.802	1.108	1.104	1.104	1.123	1.118	1.113
0.005	-0.005	0.000	0.005	0.020	0.005	0.029	1.792	1.108	1.104	1.104	1.128	1.118	1.118
-0.010	-0.005	0.000	0.020	0.005	-0.005	0.024	1.768	1.104	1.104	1.104	1.128	1.118	1.113
-0.015	-0.010	-0.005	0.015	0.020	-0.020	0.029	1.753	1.094	1.094	1.099	1.123	1.123	1.113
0.000	-0.005	-0.005	0.015	0.015	0.010	0.029	1.748	1.099	1.099	1.099	1.123	1.118	1.123
-0.005	-0.005	-0.005	0.010	0.000	0.010	0.029	1.782	1.099	1.094	1.099	1.118	1.108	1.118
-0.005	-0.010	0.000	0.020	0.000	0.005	0.024	1.733	1.099	1.099	1.099	1.118	1.113	1.113
-0.005	-0.005	-0.005	0.010	-0.015	-0.029	0.024	1.768	1.099	1.094	1.094	1.118	1.108	1.104
-0.005	-0.005	0.005	0.015	-0.020	0.010	0.024	1.753	1.094	1.099	1.099	1.113	1.108	1.113
0.000	0.000	-0.005	0.010	-0.020	0.005	0.024	1.753	1.094	1.094	1.094	1.113	1.108	1.108
-0.010	0.005	-0.005	0.010	-0.024	-0.005	0.024	1.812	1.099	1.099	1.094	1.113	1.104	1.104
0.000	0.010	0.000	0.005	-0.039	-0.005	0.024	1.792	1.104	1.099	1.094	1.113	1.104	1.104
0.000	0.010	0.005	0.015	-0.029	-0.005	0.029	1.748	1.099	1.099	1.099	1.113	1.104	1.104
0.010	0.000	0.000	0.010	-0.005	0.000	0.029	1.777	1.099	1.099	1.099	1.113	1.113	1.108
0.000	-0.005	0.005	0.010	0.000	-0.005	0.024	1.768	1.094	1.094	1.099	1.113	1.113	1.113
0.005	0.015	0.005	-0.005	-0.010	-0.010	0.024	1.758	1.099	1.099	1.094	1.108	1.108	1.108
-0.005	-0.005	0.005	-0.010	-0.034	-0.005	0.029	1.772	1.099	1.089	1.094	1.113	1.104	1.108
0.000	-0.010	-0.005	0.000	-0.005	-0.005	0.024	1.777	1.099	1.094	1.094	1.113	1.108	1.108
-0.010	-0.010	0.000	0.005	0.005	0.000	0.024	1.763	1.094	1.094	1.094	1.113	1.113	1.113
0.005	-0.005	0.000	-0.005	-0.005	-0.015	0.024	1.797	1.104	1.099	1.094	1.113	1.108	1.108
0.005	-0.005	0.000	-0.005	0.000	0.000	0.024	1.738	1.099	1.099	1.094	1.113	1.113	1.108
-0.005	-0.005	-0.010	-0.005	0.010	0.000	0.024	1.719	1.089	1.094	1.094	1.108	1.113	1.108
-0.005	0.000	0.000	-0.005	0.034	0.005	0.024	1.772	1.094	1.094	1.094	1.113	1.118	1.118
-0.010	-0.010	-0.005	-0.005	0.059	0.015	0.024	1.772	1.094	1.089	1.094	1.113	1.123	1.123
-0.005	0.000	-0.005	-0.010	0.068	-0.005	0.024	1.807	1.094	1.094	1.094	1.113	1.118	1.113
0.000	0.000	-0.005	-0.010	0.068	-0.005	0.029	1.797	1.099	1.094	1.094	1.108	1.113	1.113
0.010	-0.005	-0.005	-0.010	0.088	0.000	0.024	1.787	1.104	1.094	1.094	1.113	1.118	1.113
0.005	0.000	-0.010	-0.005	0.059	0.024	0.029	1.763	1.099	1.099	1.094	1.108	1.108	1.118
0.000	0.010	-0.005	-0.015	0.024	0.010	0.029	1.792	1.104	1.099	1.094	1.108	1.094	1.108
0.000	-0.005	0.000	-0.015	0.005	0.005	0.024	1.753	1.104	1.099	1.099	1.108	1.094	1.099
0.005	-0.010	-0.005	-0.005	-0.005	0.010	0.024	1.772	1.104	1.099	1.094	1.113	1.099	1.099
-0.005	-0.005	-0.005	0.005	-0.005	-0.005	0.024	1.714	1.094	1.099	1.099	1.118	1.099	1.099
0.005	0.005	0.000	0.000	-0.029	-0.005	0.024	1.768	1.104	1.099	1.099	1.113	1.099	1.094
0.000	0.000	0.000	-0.005	-0.044	0.000	0.024	1.777	1.099	1.099	1.099	1.113	1.094	1.099
0.000	-0.010	0.005	-0.010	-0.059	0.000	0.029	1.768	1.099	1.094	1.094	1.113	1.094	1.099
0.000	-0.005	0.005	-0.010	-0.054	-0.020	0.024	1.777	1.094	1.094	1.099	1.113	1.099	1.094
0.005	0.015	0.010	-0.010	-0.044	-0.015	0.024	1.768	1.099	1.099	1.099	1.113	1.104	1.094
-0.005	0.020	0.000	-0.005	-0.034	-0.020	0.024	1.743	1.099	1.099	1.099	1.118	1.108	1.099
0.005	0.000	0.005	0.000	-0.029	0.005	0.024	1.738	1.094	1.094	1.099	1.118	1.113	1.108
-0.005	0.044	0.000	0.000	-0.020	-0.005	0.024	1.772	1.094	1.099	1.094	1.118	1.113	1.108
-0.005	-0.010	0.000	0.000	-0.015	-0.005	0.024	1.782	1.094	1.084	1.094	1.113	1.113	1.108
0.000	-0.020	0.000	0.005	-0.015	0.000	0.024	1.763	1.094	1.089	1.094	1.113	1.113	1.108
0.005	-0.010	-0.005	0.005	-0.015	-0.005	0.024	1.768	1.099	1.089	1.089	1.113	1.108	1.108
-0.010	0.005	-0.005	0.015	-0.010	0.005	0.024	1.797	1.099	1.094	1.089	1.113	1.113	1.113
-0.015	0.005	-0.005	0.020	-0.005	0.000	0.029	1.772	1.099	1.094	1.094	1.113	1.113	1.108
-0.005	0.000	0.000	0.020	-0.005	-0.015	0.029	1.792	1.104	1.094	1.094	1.113	1.108	1.104
-0.005	-0.005	0.000	0.015	-0.005	-0.020	0.029	1.782	1.104	1.099	1.094	1.113	1.108	1.108
0.010	-0.005	0.000	0.005	0.005	-0.010	0.029	1.787	1.113	1.099	1.094	1.108	1.108	1.113
0.039	-0.010	-0.005	0.000	0.005	0.000	0.029	1.772	1.118	1.108	1.099	1.108	1.108	1.113
0.020	0.000	0.000	-0.005	0.000	0.000	0.024	1.782	1.113	1.108	1.099	1.113	1.108	1.108
0.005	-0.005	0.000	-0.010	0.000	0.000	0.024	1.782	1.108	1.108	1.099	1.113	1.108	1.108
-0.010	0.000	0.000	-0.010	0.000	0.005	0.024	1.797	1.104	1.104	1.104	1.113	1.108	1.108
-0.020	-0.010	0.005	-0.005	0.005	0.000	0.024	1.719	1.094	1.104	1.104	1.118	1.113	1.108
-0.024	-0.005	0.000	-0.010	0.005	0.000	0.029	1.763	1.089	1.094	1.104	1.118	1.108	1.108
-0.005	0.000	0.000	-0.010	0.005	-0.010	0.029	1.719	1.089	1.094	1.099	1.113	1.113	1.108
0.000	-0.005	-0.005	-0.010	0.010	-0.015	0.024	1.792	1.094	1.094	1.099	1.118	1.113	1.108
0.005	-0.005	-0.010	-0.005	0.005	-0.005	0.024	1.753	1.094	1.094	1.094	1.113	1.108	1.108
0.005	-0.005	-0.005	-0.010	0.005	0.020	0.024	1.743	1.099	1.099	1.094	1.113	1.113	1.113
0.010	-0.005	-0.005	-0.005	0.000	0.010	0.024	1.792	1.099	1.094	1.094	1.113	1.108	1.108
0.015	-0.005	-0.010	0.000	-0.005	0.005	0.024	1.758	1.099	1.094	1.094	1.113	1.108	1.108
-0.005	0.000	0.005	0.005	-0.005	0.000	0.024	1.729	1.089	1.094	1.094	1.113	1.108	1.108
-0.005	-0.005	0.005	0.015	-0.005	-0.005	0.029	1.782	1.094	1.094	1.094	1.118	1.108	1.104
-0.005	-0.005	0.015	0.010	-0.005	-0.005	0.029	1.777	1.094	1.094	1.099	1.113	1.108	1.108
0.005	0.005	0.005	0.000	0.005	0.000	0.024	1.792	1.099	1.094	1.094	1.113	1.108	1.108
-0.005	0.005	0.005	-0.010	-0.005	-0.005	0.024	1.787	1.104	1.099	1.094	1.113	1.108	1.108
-0.029	0.000	0.010	-0.010	0.000	0.005	0.024	1.807	1.094	1.094	1.094	1.113	1.108	1.108
-0.029	-0.005	0.000	-0.020	-0.005	-0.020	0.029	1.787	1.099	1.094	1.089	1.108	1.108	1.104
-0.039	0.005	-0.005	-0.029	0.005	0.010	0.029	1.772	1.094	1.094	1.089	1.104	1.108	1.108
-0.029	-0.005	-0.005	-0.015	-0.005	0.005	0.029	1.758	1.094	1.094	1.094	1.108	1.104	1.108
-0.005	0.005	0.000	0.005	0.000	0.000	0.024	1.792	1.099	1.099	1.094	1.113	1.108	1.104
0.015	0.010	0.000	0.015	0.000	0.005	0.024	1.787	1.108	1.104	1.099	1.118	1.113	1.108
0.015	-0.005	-0.005	0.024	0.005	0.005	0.024	1.777	1.089	1.094	1.094	1.118	1.113	1.108
0.020	0.000	-0.005	0.029	0.000	-0.010	0.024	1.792	1.094	1.094	1.094	1.118	1.108	1.104
0.029	-0.010	-0.005	0.034	0.000	0.005	0.029	1.772	1.099	1.094	1.094	1.118	1.113	1.113
0.034	0.005	-0.010	0.034	0.000	0.010	0.029	1.763	1.099	1.099	1.094	1.118	1.113	1.113
0.020	0.000	0.000	0.024	0.005	0.000	0.029	1.792	1.099	1.094	1.094	1.108	1.108	1.108
0.015	-0.005	0.000	0.005	0.005	0.005	0.029	1.768	1.099	1.089	1.094	1.104	1.108	1.108
0.020	0.000	0.000	-0.010	0.000	0.000	0.029	1.763	1.099	1.094	1.094	1.104	1.104	1.108
0.005	0.005	-0.005	-0.010	-0.005	-0.020	0.029	1.777	1.094	1.094	1.094	1.104	1.099	1.099
0.000	-0.005	-0.005	0.000	-0.005	0.010	0.024	1.768	1.094	1.094	1.094	1.108	1.104	1.108
-0.010	-0.005	0.000	-0.005	-0.005	0.005	0.024	1.797	1.094	1.094	1.094	1.108	1.104	1.108
0.000	0.000	-0.005	-0.005	0.005	0.005	0.024	1.782	1.099	1.094	1.094	1.108	1.108	1.108
-0.010	-0.005	0.000	0.000	0.000	0.000	0.024	1.763	1.094	1.094	1.094	1.108	1.104	1.104
0.005	0.000	0.000	-0.005	0.000	0.000	0.024	1.763	1.108	1.099	1.094	1.108	1.108	1.099
-0.005	0.000	0.005	-0.005	0.000	0.000	0.024	1.792	1.104	1.094	1.099	1.113	1.104	1.104
-0.005	-0.005	0.010	0.000	-0.005	-0.010	0.029	1.768	1.099	1.099	1.094	1.113	1.108	1.099
-0.015	0.000	-0.005	-0.010	0.005	-0.005	0.029	1.772	1.089	1.094	1.094	1.108	1.108	1.104
-0.029	0.010	-0.005	-0.010	0.005	0.005	0.029	1.748	1.084	1.094	1.094	1.108	1.108	1.108
-0.020	0.005	-0.005	-0.015	-0.005	0.005	0.029	1.782	1.094	1.094	1.094	1.108	1.104	1.104
-0.015	0.005	-0.005	-0.020	-0.005	-0.024	0.024	1.729	1.089	1.094	1.094	1.104	1.104	1.099
0.005	0.010	-0.005	-0.024	0.000	0.010	0.024	1.768	1.094	1.094	1.094	1.108	1.104	1.108
0.010	0.005	-0.005	-0.015	0.005	0.000	0.024	1.729	1.094	1.094	1.094	1.108	1.104	1.104
0.005	0.000	0.000	-0.010	0.005	0.000	0.024	1.797	1.099	1.089	1.094	1.108	1.104	1.104
0.015	-0.005	-0.005	-0.005	0.005	-0.015	0.024	1.787	1.094	1.089	1.094	1.113	1.104	1.099
0.005	0.005	0.005	0.000	0.000	0.000	0.029	1.758	1.094	1.094	1.094	1.113	1.108	1.108
0.005	-0.005	0.000	0.005	-0.010	0.005	0.024	1.797	1.104	1.094	1.089	1.113	1.108	1.104
0.010	-0.010	0.000	0.000	-0.010	-0.005	0.024	1.772	1.104	1.094	1.094	1.113	1.104	1.104
-0.005	-0.005	-0.005	0.005	-0.005	-0.005	0.024	1.704	1.094	1.094	1.094	1.113	1.108	1.099
0.000	0.000	-0.005	0.000	0.000	0.000	0.029	1.758	1.089	1.094	1.094	1.108	1.108	1.104
