-0.005	0.010	0.000	0.000	0.000	0.000	0.029	2.671	2.515	2.163	2.061	1.982	1.987	1.973
0.000	0.005	0.000	-0.005	-0.005	0.000	0.029	2.686	2.363	2.217	2.104	2.017	1.992	1.978
-0.005	0.005	-0.005	0.005	-0.005	-0.005	0.029	2.676	2.251	2.231	2.139	2.056	2.007	1.982
-0.005	0.000	-0.005	0.000	0.000	-0.005	0.029	2.681	2.173	2.217	2.163	2.090	2.026	1.997
-0.015	-0.005	0.000	0.005	0.000	-0.010	0.029	2.686	2.119	2.192	2.173	2.119	2.051	2.012
-0.010	0.000	0.000	0.000	0.000	0.000	0.029	2.681	2.080	2.163	2.168	2.139	2.075	2.031
-0.005	-0.005	0.000	0.000	0.005	-0.015	0.029	2.686	2.056	2.129	2.163	2.148	2.095	2.041
-0.005	-0.005	0.000	0.000	0.005	0.010	0.029	2.681	2.036	2.109	2.148	2.153	2.109	2.065
0.005	-0.005	0.000	0.000	0.000	-0.005	0.029	2.676	2.026	2.085	2.129	2.153	2.119	2.080
0.010	-0.010	0.000	0.000	0.010	0.010	0.029	2.671	2.017	2.061	2.109	2.148	2.129	2.095
0.005	-0.005	0.000	0.000	0.005	-0.010	0.029	2.676	2.012	2.046	2.095	2.139	2.129	2.100
0.005	-0.010	0.005	0.000	0.000	0.000	0.024	2.661	2.012	2.041	2.080	2.129	2.124	2.109
0.005	0.000	0.000	0.000	0.005	0.000	0.029	2.686	2.012	2.026	2.065	2.114	2.124	2.114
0.010	0.010	0.010	0.000	0.000	-0.020	0.029	2.695	2.012	2.026	2.056	2.104	2.114	2.109
0.005	-0.005	0.000	0.005	0.005	-0.005	0.029	2.637	2.002	2.021	2.041	2.090	2.109	2.114
0.000	0.000	0.000	0.000	0.000	0.000	0.024	2.676	2.007	2.012	2.031	2.080	2.100	2.109
0.000	0.010	0.000	0.000	0.000	0.005	0.029	2.690	2.012	2.017	2.026	2.070	2.090	2.109
0.000	0.000	0.000	0.005	-0.005	0.000	0.029	2.686	2.012	2.017	2.026	2.065	2.085	2.100
0.000	0.010	0.000	0.000	0.005	0.000	0.029	2.681	2.012	2.017	2.021	2.056	2.075	2.095
-0.010	0.015	-0.005	0.000	0.000	0.005	0.024	2.676	2.007	2.017	2.017	2.051	2.070	2.090
-0.010	0.010	-0.005	0.000	-0.005	-0.020	0.029	2.681	2.007	2.012	2.017	2.046	2.061	2.070
-0.005	0.010	0.000	0.000	-0.005	0.010	0.029	2.681	2.007	2.012	2.017	2.041	2.056	2.075
0.000	0.005	-0.005	0.000	0.000	0.010	0.029	2.686	2.012	2.012	2.012	2.041	2.046	2.070
-0.005	0.000	0.000	0.000	0.000	-0.005	0.029	2.681	2.007	2.007	2.012	2.036	2.046	2.061
0.005	-0.005	0.000	0.000	0.000	0.000	0.029	2.676	2.007	2.007	2.012	2.036	2.041	2.056
0.005	-0.010	0.005	0.005	0.000	0.005	0.029	2.690	2.007	2.007	2.012	2.036	2.036	2.051
0.010	-0.005	0.005	0.000	0.000	0.000	0.029	2.812	2.021	2.007	2.012	2.031	2.031	2.046
-0.005	-0.005	0.005	0.005	0.000	0.000	0.029	2.666	2.012	2.012	2.007	2.026	2.031	2.041
0.000	-0.010	0.010	0.005	0.000	0.000	0.029	2.690	2.012	2.007	2.007	2.026	2.031	2.036
0.010	-0.005	0.000	0.000	0.005	0.010	0.029	2.646	2.002	2.007	2.007	2.026	2.026	2.041
0.010	0.000	0.005	-0.005	0.005	0.005	0.029	2.671	2.002	2.007	2.007	2.026	2.026	2.036
0.000	-0.005	0.005	0.005	0.000	0.005	0.029	2.686	1.997	2.002	2.002	2.026	2.026	2.031
0.000	0.005	0.005	0.000	0.000	0.010	0.029	2.681	1.992	2.007	2.002	2.026	2.021	2.031
0.005	0.020	0.000	0.000	0.000	0.000	0.029	2.661	1.992	2.002	2.002	2.021	2.021	2.026
-0.005	0.015	0.000	-0.005	0.000	0.005	0.029	2.681	1.987	1.997	2.002	2.021	2.021	2.026
-0.005	0.000	0.000	0.000	-0.005	0.005	0.029	2.681	1.987	1.992	1.997	2.021	2.017	2.026
-0.005	0.010	-0.005	0.000	-0.005	-0.005	0.029	2.661	1.987	1.987	1.997	2.021	2.017	2.017
-0.005	0.000	-0.005	0.005	-0.010	0.010	0.029	2.671	1.982	1.987	1.992	2.017	2.017	2.017
-0.015	-0.005	-0.005	-0.005	0.005	0.010	0.029	2.686	1.982	1.982	1.987	2.017	2.017	2.021
-0.015	-0.005	-0.005	0.000	0.000	0.000	0.029	2.676	1.982	1.982	1.987	2.012	2.017	2.021
0.000	0.000	0.000	0.000	0.000	0.005	0.029	2.686	1.987	1.987	1.987	2.012	2.012	2.017
0.000	0.000	0.000	0.005	0.000	0.010	0.029	2.676	1.992	1.987	1.987	2.012	2.012	2.017
0.000	-0.005	0.000	0.000	-0.005	0.000	0.029	2.666	1.987	1.982	1.982	2.007	2.007	2.012
0.000	-0.010	0.000	0.005	-0.005	-0.024	0.029	2.671	1.982	1.982	1.987	2.007	2.002	2.002
0.015	-0.010	0.005	0.005	-0.010	0.015	0.029	2.686	1.987	1.982	1.982	2.007	2.002	2.012
0.005	-0.010	0.000	0.005	0.000	0.005	0.029	2.676	1.978	1.982	1.982	2.002	2.002	2.012
0.005	0.005	0.005	0.000	0.000	0.010	0.029	2.666	1.978	1.982	1.982	2.002	2.002	2.007
0.000	-0.005	0.010	0.000	0.005	0.005	0.029	2.686	1.978	1.978	1.982	2.002	2.002	2.007
0.010	-0.010	0.005	0.000	0.015	0.005	0.029	2.681	1.978	1.978	1.978	2.002	2.002	2.002
0.000	0.005	0.000	0.005	0.000	0.005	0.029	2.656	1.968	1.978	1.973	2.002	2.002	2.002
-0.005	0.005	-0.005	0.000	0.005	-0.005	0.029	2.686	1.973	1.978	1.973	1.997	1.997	1.997
-0.010	0.000	0.000	0.000	0.005	0.000	0.029	2.676	1.968	1.973	1.978	1.997	1.997	2.002
0.000	0.005	0.000	0.000	0.005	0.005	0.029	2.700	1.973	1.978	1.978	1.997	1.997	2.002
0.000	0.005	-0.005	0.005	0.000	-0.015	0.029	2.656	1.968	1.973	1.973	1.992	1.992	1.992
-0.010	0.015	-0.005	0.000	0.000	-0.005	0.029	2.671	1.963	1.973	1.973	1.992	1.992	1.997
-0.010	0.000	-0.010	0.000	0.000	0.005	0.029	2.676	1.963	1.968	1.968	1.992	1.992	1.997
0.000	0.000	0.000	0.000	-0.005	0.005	0.029	2.690	1.968	1.968	1.973	1.992	1.987	1.992
-0.005	0.015	0.000	-0.005	-0.005	-0.010	0.024	2.681	1.963	1.968	1.968	1.987	1.987	1.987
0.000	0.005	0.000	0.005	-0.010	-0.015	0.029	2.671	1.963	1.963	1.968	1.992	1.987	1.982
0.000	0.000	0.000	0.005	0.000	0.010	0.029	2.681	1.963	1.963	1.963	1.992	1.987	1.992
0.005	-0.010	0.000	0.000	0.005	-0.015	0.029	2.681	1.963	1.963	1.963	1.987	1.987	1.987
0.010	-0.005	0.005	0.000	0.000	0.005	0.024	2.681	1.963	1.963	1.963	1.982	1.982	1.992
0.010	-0.005	0.010	0.000	0.000	0.005	0.029	2.681	1.963	1.963	1.963	1.982	1.982	1.987
0.000	-0.020	0.000	0.005	0.005	0.000	0.029	2.681	1.958	1.953	1.958	1.982	1.982	1.982
0.000	-0.005	0.000	0.000	0.005	-0.015	0.029	2.681	1.958	1.958	1.958	1.978	1.978	1.982
0.010	0.000	0.000	0.000	0.005	0.010	0.029	2.690	1.958	1.963	1.958	1.978	1.978	1.982
0.000	0.005	0.005	0.005	0.000	0.005	0.029	2.681	1.958	1.958	1.958	1.978	1.973	1.982
0.000	-0.005	0.000	0.005	0.000	0.000	0.029	2.676	1.953	1.953	1.958	1.978	1.973	1.978
-0.005	0.010	0.005	0.005	0.000	0.000	0.029	2.695	1.953	1.958	1.958	1.978	1.973	1.978
-0.005	0.010	0.000	-0.005	0.000	-0.010	0.029	2.666	1.948	1.958	1.953	1.973	1.973	1.973
-0.005	0.005	-0.005	0.005	-0.005	0.005	0.029	2.666	1.948	1.953	1.953	1.973	1.973	1.978
-0.005	0.015	-0.005	0.000	0.005	0.005	0.029	2.666	1.953	1.953	1.958	1.973	1.973	1.978
-0.005	0.005	-0.005	0.000	-0.005	0.000	0.029	2.671	1.948	1.953	1.953	1.973	1.973	1.973
0.000	0.005	0.000	0.000	0.005	-0.010	0.029	2.681	1.948	1.948	1.953	1.973	1.973	1.973
0.000	0.005	0.000	0.000	0.005	-0.029	0.029	2.671	1.948	1.953	1.953	1.973	1.973	1.968
0.000	0.000	0.005	0.000	0.000	0.000	0.029	2.676	1.948	1.948	1.953	1.973	1.968	1.973
0.005	-0.005	0.005	0.000	0.000	0.010	0.029	2.705	1.953	1.948	1.948	1.973	1.968	1.973
0.000	-0.010	0.005	0.000	0.005	-0.015	0.024	2.651	1.943	1.943	1.948	1.968	1.968	1.968
0.005	-0.005	0.005	0.000	0.000	0.010	0.029	2.637	1.943	1.943	1.948	1.968	1.968	1.973
0.005	-0.005	0.005	0.005	0.000	0.005	0.029	2.788	1.953	1.948	1.948	1.968	1.968	1.968
0.005	-0.010	0.005	0.000	0.005	-0.005	0.029	2.656	1.948	1.943	1.943	1.963	1.963	1.963
0.005	0.000	0.005	0.000	0.000	-0.020	0.029	2.646	1.943	1.948	1.943	1.963	1.963	1.958
0.005	0.005	0.000	0.000	0.005	0.000	0.029	2.725	1.943	1.948	1.943	1.963	1.958	1.968
0.005	0.005	0.005	-0.005	0.000	0.005	0.029	2.651	1.943	1.948	1.943	1.963	1.958	1.963
0.000	0.000	0.000	0.000	0.000	0.010	0.029	2.720	1.948	1.943	1.943	1.963	1.963	1.963
-0.015	-0.005	-0.005	0.000	0.000	-0.020	0.029	2.642	1.938	1.943	1.943	1.963	1.958	1.958
-0.010	0.020	-0.005	0.005	0.000	0.010	0.029	2.632	1.934	1.943	1.943	1.963	1.958	1.963
-0.005	0.005	0.000	0.000	0.000	0.010	0.024	2.729	1.943	1.943	1.943	1.958	1.958	1.963
-0.010	0.005	0.000	0.000	0.010	0.005	0.029	2.642	1.938	1.938	1.943	1.963	1.958	1.963
-0.010	-0.005	0.000	0.005	0.000	-0.010	0.029	2.739	1.948	1.938	1.938	1.963	1.958	1.958
-0.005	-0.015	-0.005	0.005	0.005	0.005	0.029	2.715	1.948	1.938	1.934	1.958	1.958	1.963
0.005	0.005	0.000	0.000	0.000	0.010	0.029	2.627	1.943	1.943	1.943	1.958	1.953	1.958
0.005	0.005	0.005	0.000	0.000	0.005	0.029	2.593	1.934	1.943	1.943	1.958	1.953	1.958
0.015	0.000	0.005	0.000	0.005	0.015	0.029	2.642	1.929	1.934	1.938	1.958	1.958	1.958
0.005	-0.005	0.005	0.005	0.000	-0.010	0.029	2.651	1.924	1.929	1.934	1.958	1.953	1.953
0.000	0.000	0.000	0.000	0.000	0.005	0.029	2.661	1.924	1.929	1.934	1.953	1.953	1.958
0.010	-0.005	0.000	0.005	0.000	0.010	0.029	2.637	1.924	1.929	1.934	1.953	1.953	1.958
0.010	-0.005	0.000	0.000	0.005	0.010	0.029	2.744	1.938	1.929	1.929	1.953	1.948	1.953
0.005	-0.005	0.005	0.000	0.005	-0.005	0.024	2.651	1.929	1.929	1.934	1.953	1.953	1.953
0.000	-0.005	0.000	0.000	0.000	0.005	0.024	2.622	1.919	1.924	1.929	1.948	1.948	1.953
-0.005	0.000	0.000	0.000	0.000	0.010	0.029	2.661	1.919	1.924	1.924	1.948	1.948	1.953
0.000	0.005	0.000	0.000	0.005	-0.005	0.029	2.661	1.924	1.924	1.924	1.948	1.948	1.948
-0.005	0.010	-0.005	0.000	0.000	0.000	0.029	2.715	1.929	1.929	1.924	1.943	1.943	1.948
-0.005	0.005	-0.005	0.005	-0.010	0.010	0.029	2.646	1.924	1.929	1.924	1.943	1.943	1.948
-0.005	0.005	0.000	0.005	0.000	-0.005	0.029	2.622	1.919	1.924	1.924	1.943	1.943	1.943
-0.010	0.000	0.000	0.000	0.000	0.005	0.029	2.676	1.924	1.919	1.924	1.943	1.943	1.948
0.000	0.000	0.000	0.000	0.005	0.010	0.029	2.661	1.924	1.924	1.924	1.943	1.943	1.943
-0.005	-0.005	0.000	0.005	0.005	0.005	0.029	2.798	1.938	1.924	1.924	1.943	1.943	1.943
-0.005	-0.015	-0.005	0.000	0.000	-0.005	0.029	2.705	1.938	1.924	1.919	1.943	1.938	1.943
-0.005	-0.005	0.005	0.000	0.000	0.015	0.024	2.705	1.938	1.929	1.924	1.943	1.938	1.943
0.000	-0.010	0.005	0.000	0.005	-0.015	0.029	2.705	1.938	1.929	1.924	1.943	1.938	1.934
0.005	-0.005	0.005	0.000	0.005	-0.005	0.029	2.676	1.934	1.934	1.929	1.943	1.938	1.938
0.010	0.010	0.010	0.000	0.005	-0.005	0.029	2.690	1.929	1.934	1.929	1.943	1.938	1.938
0.010	-0.005	0.000	0.000	0.005	-0.005	0.029	2.666	1.929	1.929	1.929	1.943	1.938	1.943
0.010	-0.005	0.000	0.005	0.005	0.015	0.029	2.666	1.924	1.929	1.924	1.943	1.938	1.943
0.005	-0.005	0.005	0.005	-0.005	0.010	0.029	2.671	1.924	1.929	1.929	1.943	1.938	1.938
0.005	0.000	0.000	0.000	0.005	0.005	0.029	2.671	1.929	1.924	1.924	1.943	1.938	1.938
0.005	0.010	0.000	0.000	0.000	0.010	0.029	2.671	1.929	1.929	1.929	1.943	1.938	1.943
0.005	0.000	-0.005	0.005	-0.005	0.005	0.029	2.695	1.924	1.924	1.924	1.943	1.938	1.938
0.000	0.015	-0.005	0.005	0.000	0.005	0.029	2.666	1.924	1.929	1.924	1.943	1.938	1.938
-0.005	0.005	0.000	0.005	0.000	0.005	0.029	2.705	1.929	1.924	1.924	1.943	1.943	1.938
-0.005	0.010	-0.005	0.000	0.000	-0.015	0.029	2.695	1.929	1.929	1.924	1.943	1.938	1.934
-0.010	0.005	-0.005	0.000	-0.005	-0.005	0.024	2.705	1.929	1.924	1.924	1.943	1.938	1.938
-0.005	0.005	0.000	0.000	-0.005	0.005	0.024	2.681	1.929	1.924	1.929	1.943	1.938	1.943
0.005	0.020	0.000	0.000	0.000	0.000	0.029	2.671	1.924	1.929	1.929	1.943	1.943	1.938
0.000	0.005	0.000	0.005	0.005	0.005	0.029	2.690	1.924	1.924	1.924	1.948	1.943	1.943
-0.010	0.000	0.005	0.000	0.000	0.015	0.029	2.671	1.919	1.919	1.924	1.943	1.938	1.943
0.005	0.000	0.000	0.000	0.000	0.005	0.029	2.671	1.924	1.924	1.919	1.943	1.938	1.938
0.015	-0.005	0.005	0.000	0.000	0.005	0.029	2.700	1.929	1.924	1.919	1.943	1.938	1.938
0.010	-0.005	0.000	0.000	0.005	0.005	0.029	2.700	1.929	1.919	1.919	1.938	1.938	1.938
0.005	-0.010	0.010	0.000	0.005	-0.005	0.029	2.671	1.924	1.919	1.919	1.938	1.938	1.934
0.000	0.000	0.005	0.005	0.005	-0.029	0.029	2.681	1.919	1.924	1.919	1.938	1.934	1.929
0.005	0.010	0.000	0.000	0.000	0.000	0.029	2.632	1.914	1.919	1.919	1.938	1.934	1.938
0.015	-0.015	0.005	0.000	0.000	0.010	0.024	2.646	1.914	1.914	1.919	1.934	1.934	1.938
0.005	-0.020	0.000	0.000	0.000	0.005	0.029	2.798	1.909	1.914	1.909	1.934	1.934	1.938
-0.005	-0.015	-0.005	0.000	0.000	-0.010	0.029	2.661	1.904	1.909	1.909	1.934	1.929	1.934
0.000	-0.005	-0.005	0.005	0.000	0.005	0.029	2.651	1.909	1.909	1.914	1.934	1.934	1.934
-0.010	0.000	-0.005	0.000	0.000	-0.010	0.029	2.729	1.919	1.914	1.909	1.934	1.929	1.934
-0.015	0.005	-0.010	0.000	0.000	0.015	0.024	2.651	1.914	1.919	1.914	1.929	1.934	1.934
0.000	0.015	-0.005	0.000	-0.005	0.000	0.029	2.632	1.909	1.919	1.914	1.934	1.929	1.934
-0.005	0.010	-0.005	0.005	0.000	0.015	0.029	2.686	1.914	1.914	1.914	1.934	1.929	1.934
0.000	0.000	0.000	0.000	0.005	0.010	0.029	2.754	1.929	1.914	1.914	1.934	1.929	1.934
-0.005	-0.005	0.005	0.005	0.000	-0.020	0.024	2.666	1.929	1.914	1.914	1.934	1.929	1.924
0.010	0.010	0.005	0.005	0.005	0.010	0.029	2.676	1.929	1.919	1.919	1.934	1.929	1.934
0.005	-0.010	0.005	0.000	0.005	-0.005	0.024	2.632	1.914	1.914	1.914	1.934	1.929	1.929
0.010	-0.015	0.010	0.005	-0.005	0.015	0.029	2.700	1.914	1.914	1.914	1.934	1.929	1.934
0.005	0.015	0.010	0.005	-0.010	-0.010	0.029	2.715	1.924	1.919	1.914	1.934	1.924	1.919
0.010	0.005	0.010	0.000	-0.005	0.005	0.029	2.827	1.934	1.924	1.914	1.934	1.929	1.924
-0.005	0.000	0.005	0.005	0.000	0.015	0.029	2.715	1.929	1.919	1.914	1.934	1.929	1.934
0.000	0.015	0.000	0.000	0.005	-0.005	0.029	2.700	1.929	1.924	1.914	1.934	1.929	1.924
-0.010	0.010	0.000	0.000	-0.005	0.005	0.029	2.715	1.919	1.924	1.919	1.934	1.929	1.929
0.000	0.010	0.000	0.005	0.000	0.000	0.029	2.671	1.919	1.919	1.919	1.934	1.929	1.929
0.000	0.005	-0.005	0.005	0.000	-0.005	0.029	2.676	1.919	1.914	1.919	1.938	1.929	1.929
-0.020	0.015	0.000	0.000	0.005	0.015	0.029	2.705	1.919	1.919	1.919	1.934	1.934	1.934
-0.015	0.005	-0.005	0.000	0.000	0.005	0.029	2.690	1.919	1.914	1.914	1.934	1.929	1.929
-0.005	0.000	-0.005	0.005	0.000	0.005	0.029	2.676	1.914	1.914	1.914	1.934	1.934	1.934
0.000	-0.005	0.000	0.005	0.000	-0.015	0.029	2.705	1.924	1.914	1.919	1.938	1.934	1.924
-0.005	-0.010	0.000	0.005	0.000	0.010	0.024	2.690	1.919	1.914	1.914	1.938	1.934	1.934
0.010	-0.005	0.005	0.005	0.005	-0.005	0.024	2.695	1.924	1.919	1.919	1.934	1.934	1.934
0.010	-0.005	0.000	0.000	0.005	0.000	0.029	2.671	1.919	1.919	1.914	1.934	1.934	1.934
0.005	-0.005	0.005	0.000	0.005	0.000	0.029	2.705	1.914	1.919	1.914	1.934	1.934	1.934
0.005	0.000	0.005	0.005	0.000	0.000	0.029	2.705	1.919	1.919	1.914	1.938	1.934	1.934
0.015	-0.005	0.000	0.005	0.000	-0.020	0.029	2.671	1.914	1.914	1.914	1.934	1.929	1.924
0.010	-0.010	0.010	0.000	0.005	0.015	0.029	2.676	1.914	1.909	1.914	1.934	1.934	1.934
0.015	-0.010	0.000	0.000	-0.005	0.010	0.029	2.661	1.909	1.914	1.909	1.934	1.929	1.934
0.010	0.000	0.000	0.005	0.000	0.010	0.029	2.661	1.909	1.909	1.909	1.929	1.929	1.934
-0.005	0.010	0.005	0.000	0.005	0.000	0.029	2.695	1.909	1.914	1.909	1.934	1.924	1.929
0.000	0.000	0.005	0.000	-0.005	-0.010	0.029	2.700	1.909	1.909	1.909	1.929	1.929	1.924
-0.005	0.000	0.000	0.000	-0.005	0.000	0.029	2.705	1.914	1.909	1.904	1.929	1.929	1.929
-0.005	0.000	0.000	0.005	-0.005	0.005	0.029	2.690	1.914	1.914	1.909	1.929	1.924	1.929
-0.005	0.015	-0.005	0.000	-0.005	0.005	0.029	2.676	1.914	1.914	1.909	1.929	1.924	1.929
-0.005	0.000	-0.005	0.000	0.015	0.000	0.029	2.700	1.919	1.909	1.909	1.929	1.929	1.924
-0.010	0.000	0.000	0.000	0.010	-0.005	0.029	2.666	1.909	1.909	1.909	1.929	1.929	1.924
0.000	0.000	-0.005	0.000	0.005	-0.005	0.029	2.642	1.904	1.909	1.909	1.929	1.924	1.924
-0.005	-0.010	0.000	0.000	0.000	0.000	0.029	2.778	1.919	1.909	1.909	1.929	1.924	1.924
0.000	-0.005	0.005	0.000	0.000	0.000	0.029	2.671	1.919	1.909	1.909	1.929	1.919	1.924
-0.005	0.005	0.005	0.000	-0.005	-0.005	0.029	2.637	1.909	1.919	1.909	1.929	1.919	1.924
0.000	0.010	0.000	0.005	0.000	0.000	0.029	2.651	1.904	1.914	1.914	1.929	1.924	1.924
0.005	-0.005	0.000	0.005	0.000	-0.005	0.029	2.651	1.904	1.904	1.909	1.929	1.924	1.924
0.015	-0.010	0.005	0.005	0.005	0.010	0.029	2.749	1.914	1.909	1.909	1.929	1.924	1.924
0.010	0.000	0.005	0.000	0.005	0.015	0.029	2.656	1.909	1.909	1.909	1.929	1.924	1.929
0.005	0.000	0.005	0.000	0.000	-0.010	0.029	2.744	1.919	1.909	1.909	1.929	1.924	1.924
0.000	0.015	0.000	0.000	-0.005	0.015	0.029	2.671	1.909	1.914	1.909	1.929	1.924	1.929
0.005	0.020	0.000	0.000	-0.005	0.010	0.024	2.651	1.909	1.914	1.909	1.924	1.924	1.924
0.000	0.015	0.000	0.005	0.000	-0.020	0.029	2.744	1.914	1.909	1.909	1.929	1.919	1.919
0.000	0.015	-0.005	0.000	0.005	0.005	0.029	2.666	1.909	1.914	1.909	1.929	1.924	1.929
-0.005	0.010	-0.005	0.000	-0.005	0.010	0.029	2.651	1.909	1.909	1.909	1.929	1.919	1.924
-0.005	0.010	-0.005	0.005	0.000	-0.015	0.029	2.695	1.909	1.909	1.909	1.929	1.924	1.919
-0.005	0.005	-0.005	-0.005	0.000	-0.015	0.029	2.720	1.914	1.904	1.904	1.924	1.924	1.924
-0.010	0.000	0.000	0.010	-0.005	0.005	0.029	2.695	1.914	1.909	1.909	1.929	1.924	1.924
-0.005	0.005	-0.005	0.000	-0.005	0.005	0.029	2.695	1.914	1.909	1.909	1.924	1.924	1.924
0.010	0.000	0.000	0.005	-0.005	0.000	0.024	2.676	1.914	1.909	1.909	1.929	1.924	1.919
-0.005	0.000	0.000	0.000	0.005	-0.010	0.029	2.656	1.909	1.909	1.909	1.929	1.924	1.924
0.005	-0.010	0.000	0.000	0.005	0.005	0.029	2.666	1.909	1.909	1.904	1.924	1.924	1.924
0.010	-0.010	0.005	0.000	0.005	0.005	0.029	2.671	1.909	1.904	1.909	1.924	1.924	1.924
0.010	-0.010	0.000	-0.005	0.000	0.010	0.029	2.676	1.909	1.899	1.904	1.924	1.919	1.924
0.015	-0.010	0.005	0.000	0.000	0.000	0.029	2.671	1.914	1.909	1.904	1.924	1.919	1.919
-0.005	0.000	0.010	0.000	-0.005	0.005	0.029	2.700	1.909	1.909	1.904	1.924	1.919	1.919
0.000	-0.010	0.000	0.005	0.000	0.000	0.024	2.700	1.909	1.904	1.904	1.924	1.919	1.919
-0.005	-0.010	0.000	0.000	0.005	0.005	0.029	2.681	1.909	1.904	1.904	1.924	1.919	1.919
-0.005	-0.005	0.000	0.005	0.005	0.010	0.029	2.705	1.909	1.904	1.904	1.924	1.924	1.924
-0.005	-0.005	0.005	0.005	0.010	0.000	0.029	2.695	1.909	1.909	1.909	1.924	1.919	1.924
0.000	-0.005	0.005	0.000	0.000	0.015	0.029	2.676	1.909	1.904	1.904	1.924	1.919	1.924
-0.005	-0.005	0.000	0.005	0.000	0.005	0.024	2.671	1.909	1.909	1.904	1.924	1.919	1.919
0.000	0.005	-0.005	0.000	0.000	0.005	0.029	2.666	1.909	1.909	1.909	1.924	1.919	1.919
-0.005	0.005	0.000	0.000	0.000	0.000	0.029	2.681	1.909	1.909	1.904	1.924	1.919	1.919
-0.010	-0.005	0.005	0.000	0.000	-0.005	0.029	2.671	1.904	1.909	1.909	1.929	1.919	1.919
0.000	0.005	0.000	0.000	0.000	-0.005	0.024	2.700	1.909	1.909	1.909	1.924	1.919	1.919
0.000	-0.005	0.000	0.000	0.000	0.005	0.024	2.705	1.914	1.904	1.909	1.924	1.919	1.919
-0.005	-0.005	0.005	0.000	0.005	0.005	0.029	2.666	1.909	1.909	1.909	1.924	1.924	1.919
0.010	0.000	0.005	0.000	0.010	0.005	0.024	2.695	1.909	1.909	1.909	1.924	1.924	1.924
0.010	-0.005	0.005	0.000	0.005	-0.010	0.024	2.681	1.909	1.904	1.904	1.924	1.919	1.919
0.015	0.000	0.005	0.000	0.005	-0.010	0.029	2.666	1.909	1.909	1.904	1.924	1.919	1.919
0.015	0.000	0.005	0.000	-0.005	0.005	0.029	2.642	1.909	1.909	1.904	1.924	1.919	1.924
0.010	-0.005	0.000	0.005	-0.005	0.000	0.029	2.773	1.914	1.904	1.904	1.924	1.919	1.919
0.010	0.010	0.000	0.000	-0.005	-0.010	0.029	2.651	1.904	1.909	1.904	1.924	1.919	1.919
0.000	0.000	0.000	0.000	0.000	-0.010	0.029	2.637	1.899	1.904	1.904	1.924	1.919	1.919
-0.005	0.015	-0.005	0.000	0.005	0.015	0.024	2.646	1.895	1.904	1.904	1.924	1.919	1.924
-0.010	0.020	0.000	0.000	-0.005	0.010	0.029	2.671	1.895	1.904	1.904	1.924	1.919	1.924
-0.005	0.015	-0.005	0.000	0.000	-0.010	0.029	2.627	1.890	1.899	1.899	1.919	1.919	1.914
-0.010	0.010	0.000	0.005	-0.005	0.010	0.029	2.739	1.904	1.899	1.899	1.924	1.919	1.924
-0.010	0.020	-0.005	-0.005	0.000	0.000	0.029	2.744	1.914	1.904	1.899	1.919	1.919	1.924
-0.005	0.010	0.000	-0.005	0.005	0.005	0.029	2.666	1.909	1.899	1.899	1.919	1.919	1.919
0.005	0.010	-0.005	0.005	0.010	0.005	0.029	2.681	1.914	1.904	1.904	1.924	1.919	1.924
0.000	-0.005	0.000	0.000	0.005	-0.005	0.029	2.754	1.919	1.904	1.899	1.919	1.919	1.919
0.000	-0.010	0.005	0.000	0.000	0.010	0.029	2.661	1.914	1.904	1.904	1.924	1.919	1.924
0.005	-0.010	0.005	0.005	-0.005	-0.010	0.029	2.651	1.904	1.904	1.904	1.919	1.914	1.914
0.005	-0.010	0.005	0.000	-0.010	-0.005	0.029	2.651	1.904	1.904	1.904	1.919	1.914	1.914
0.010	0.005	0.000	0.005	0.010	-0.010	0.029	2.710	1.909	1.909	1.904	1.924	1.919	1.914
0.000	0.015	0.010	0.005	0.010	0.000	0.029	2.705	1.909	1.909	1.909	1.924	1.914	1.919
0.010	-0.005	0.000	0.005	0.000	-0.024	0.029	2.705	1.914	1.904	1.904	1.924	1.914	1.909
0.015	0.000	0.005	0.010	0.000	0.000	0.029	2.666	1.909	1.904	1.904	1.924	1.919	1.914
0.010	0.005	0.000	0.000	-0.005	-0.005	0.029	2.671	1.904	1.909	1.904	1.924	1.914	1.919
0.000	0.010	-0.005	0.000	-0.005	-0.010	0.029	2.700	1.904	1.904	1.904	1.924	1.914	1.914
0.005	0.000	0.000	0.000	0.000	0.000	0.029	2.666	1.904	1.904	1.899	1.924	1.914	1.919
-0.010	0.005	0.000	0.000	0.000	0.000	0.029	2.666	1.899	1.904	1.904	1.919	1.919	1.919
-0.005	0.005	0.000	-0.005	0.005	0.010	0.029	2.695	1.909	1.899	1.904	1.924	1.919	1.919
-0.015	0.005	0.000	0.000	0.005	0.005	0.029	2.705	1.909	1.909	1.899	1.919	1.919	1.919
-0.005	0.015	0.000	0.000	0.005	0.000	0.024	2.700	1.914	1.909	1.899	1.919	1.919	1.914
-0.005	-0.010	0.000	0.005	0.005	-0.005	0.029	2.676	1.909	1.899	1.904	1.924	1.919	1.919
0.000	-0.010	-0.005	0.000	0.000	0.020	0.029	2.710	1.914	1.904	1.899	1.919	1.919	1.924
0.005	-0.010	0.000	0.000	0.005	-0.010	0.029	2.700	1.914	1.909	1.904	1.919	1.919	1.914
0.000	-0.010	0.000	0.000	0.000	0.020	0.029	2.666	1.904	1.909	1.904	1.919	1.919	1.924
0.000	-0.005	0.005	0.000	0.005	0.015	0.024	2.676	1.909	1.904	1.904	1.924	1.919	1.919
0.005	-0.005	0.000	0.000	0.005	0.005	0.029	2.671	1.904	1.904	1.904	1.924	1.919	1.919
0.005	-0.015	0.010	0.000	-0.005	0.000	0.029	2.661	1.904	1.904	1.904	1.919	1.914	1.914
0.010	-0.005	0.000	0.005	0.005	0.010	0.029	2.705	1.904	1.904	1.899	1.924	1.919	1.919
0.005	0.005	0.000	0.000	0.005	0.000	0.029	2.700	1.904	1.904	1.904	1.919	1.919	1.914
0.005	0.005	0.005	0.005	0.000	0.005	0.029	2.710	1.904	1.909	1.904	1.924	1.919	1.914
0.000	0.000	0.000	0.005	0.005	-0.015	0.029	2.666	1.904	1.904	1.904	1.919	1.919	1.914
0.005	0.000	0.000	0.000	0.005	0.010	0.029	2.676	1.904	1.904	1.904	1.919	1.919	1.919
-0.005	0.010	0.000	0.005	0.000	0.005	0.029	2.690	1.904	1.904	1.904	1.919	1.914	1.919
-0.005	0.029	0.000	0.005	0.000	0.000	0.029	2.651	1.904	1.909	1.904	1.919	1.919	1.919
-0.010	0.020	-0.005	0.000	0.005	0.005	0.029	2.646	1.895	1.904	1.904	1.919	1.919	1.919
-0.015	0.010	0.000	0.000	0.005	0.005	0.029	2.666	1.899	1.899	1.904	1.924	1.919	1.919
0.000	0.005	0.000	0.000	0.000	0.005	0.024	2.681	1.899	1.899	1.904	1.924	1.914	1.919
0.000	0.000	0.000	0.005	0.000	-0.005	0.029	2.646	1.899	1.899	1.899	1.919	1.914	1.914
0.000	0.000	-0.005	0.000	0.005	-0.015	0.029	2.729	1.909	1.899	1.899	1.919	1.914	1.909
-0.005	0.000	0.000	0.005	0.005	-0.010	0.029	2.627	1.895	1.899	1.899	1.924	1.914	1.914
0.000	0.000	0.000	0.000	0.000	0.005	0.029	2.759	1.904	1.899	1.899	1.919	1.919	1.919
0.015	-0.005	0.000	0.005	0.000	0.010	0.024	2.749	1.909	1.899	1.899	1.919	1.914	1.919
0.005	-0.010	0.005	0.005	-0.005	-0.010	0.024	2.744	1.919	1.899	1.899	1.919	1.914	1.909
0.010	-0.005	0.005	0.000	0.000	0.015	0.029	2.637	1.904	1.904	1.899	1.919	1.914	1.919
0.005	-0.010	0.005	0.000	0.005	0.015	0.029	2.666	1.899	1.899	1.899	1.919	1.914	1.919
0.010	-0.005	0.005	0.005	0.000	0.000	0.029	2.676	1.899	1.899	1.899	1.919	1.914	1.914
0.005	-0.005	0.005	0.005	0.000	-0.005	0.024	2.671	1.899	1.899	1.899	1.919	1.914	1.914
0.000	0.000	0.005	-0.005	0.000	0.015	0.029	2.642	1.890	1.899	1.899	1.914	1.914	1.919
0.005	0.000	0.005	0.000	0.005	-0.015	0.029	2.651	1.909	1.904	1.899	1.914	1.914	1.909
-0.010	-0.015	-0.005	-0.005	-0.005	0.010	0.029	2.734	1.914	1.899	1.895	1.914	1.909	1.914
-0.010	-0.010	-0.005	0.000	0.000	0.005	0.029	2.705	1.909	1.899	1.895	1.919	1.909	1.914
-0.005	0.005	0.000	0.000	0.000	0.000	0.029	2.710	1.914	1.909	1.899	1.919	1.909	1.914
-0.010	0.020	-0.005	0.000	-0.005	0.005	0.029	2.676	1.909	1.914	1.899	1.919	1.914	1.914
-0.010	0.015	0.000	-0.005	0.000	0.000	0.029	2.710	1.914	1.909	1.904	1.919	1.914	1.914
0.000	0.000	0.000	0.000	-0.005	0.005	0.029	2.686	1.909	1.904	1.904	1.924	1.914	1.914
0.000	0.000	0.000	-0.005	0.000	0.005	0.024	2.676	1.909	1.904	1.904	1.919	1.914	1.914
-0.005	0.005	0.000	0.000	0.005	0.000	0.029	2.676	1.899	1.909	1.904	1.924	1.919	1.914
0.005	-0.010	0.000	0.005	0.005	-0.010	0.029	2.666	1.904	1.904	1.904	1.924	1.919	1.914
0.005	0.000	0.010	0.005	0.005	-0.020	0.029	2.656	1.904	1.904	1.909	1.924	1.914	1.909
0.005	-0.005	0.005	0.000	0.000	0.010	0.029	2.671	1.899	1.899	1.904	1.919	1.914	1.919
0.010	0.010	0.005	0.000	0.000	0.005	0.029	2.686	1.899	1.904	1.899	1.924	1.919	1.914
0.010	-0.005	0.000	0.000	0.000	0.005	0.029	2.690	1.899	1.899	1.899	1.919	1.914	1.914
0.005	0.000	0.005	0.000	0.000	0.005	0.029	2.705	1.904	1.899	1.904	1.919	1.914	1.914
0.005	0.005	0.000	0.000	0.005	0.010	0.029	2.695	1.904	1.904	1.899	1.919	1.919	1.919
0.015	0.000	0.000	0.000	0.005	0.000	0.029	2.666	1.904	1.904	1.899	1.919	1.919	1.914
-0.010	0.024	0.005	0.000	0.000	-0.005	0.029	2.671	1.899	1.909	1.904	1.919	1.914	1.909
-0.005	0.010	0.000	0.005	-0.005	-0.020	0.029	2.671	1.899	1.899	1.899	1.924	1.914	1.909
-0.005	0.020	-0.005	0.000	0.005	-0.005	0.029	2.700	1.899	1.899	1.899	1.919	1.919	1.919
-0.015	0.010	0.000	0.000	0.005	0.000	0.029	2.676	1.899	1.899	1.899	1.919	1.919	1.919
-0.005	0.005	0.000	0.010	0.005	0.005	0.029	2.671	1.904	1.899	1.899	1.924	1.914	1.919
-0.005	0.010	-0.005	0.000	0.000	-0.005	0.029	2.676	1.904	1.899	1.899	1.919	1.914	1.914
0.000	0.000	0.005	0.005	0.000	0.000	0.029	2.666	1.904	1.899	1.899	1.919	1.914	1.919
0.000	0.000	0.000	0.000	-0.005	0.010	0.029	2.686	1.904	1.899	1.895	1.919	1.914	1.919
0.000	-0.010	0.005	0.000	-0.010	0.015	0.029	2.598	1.895	1.895	1.895	1.914	1.909	1.919
0.005	-0.010	0.005	0.000	-0.005	0.010	0.029	2.646	1.895	1.895	1.895	1.914	1.914	1.914
0.005	-0.005	0.005	0.000	0.000	-0.010	0.029	2.783	1.904	1.899	1.895	1.914	1.914	1.904
0.010	-0.010	0.005	0.005	0.005	0.015	0.029	2.656	1.904	1.899	1.895	1.914	1.914	1.914
0.015	-0.005	0.005	0.005	0.005	0.005	0.029	2.642	1.904	1.899	1.895	1.914	1.914	1.914
0.005	-0.005	0.000	0.005	0.005	-0.010	0.029	2.627	1.890	1.895	1.895	1.914	1.909	1.909
0.010	0.000	0.000	0.000	0.010	0.005	0.029	2.642	1.890	1.895	1.895	1.909	1.909	1.914
0.005	0.005	0.000	0.000	0.005	-0.005	0.029	2.715	1.895	1.895	1.895	1.914	1.909	1.909
0.000	-0.005	0.005	0.000	0.000	0.005	0.029	2.754	1.904	1.895	1.895	1.914	1.909	1.909
0.000	0.000	0.005	0.000	0.000	-0.005	0.029	2.754	1.914	1.899	1.895	1.909	1.904	1.909
0.000	0.010	0.000	0.000	0.000	0.010	0.029	2.656	1.904	1.904	1.895	1.914	1.909	1.909
-0.005	0.000	-0.005	0.005	0.005	0.005	0.029	2.671	1.899	1.899	1.895	1.914	1.909	1.914
-0.005	0.005	-0.005	0.005	0.005	0.010	0.029	2.720	1.914	1.904	1.899	1.914	1.909	1.914
-0.015	0.000	-0.005	0.000	0.005	0.000	0.029	2.695	1.909	1.904	1.899	1.914	1.909	1.909
-0.005	0.000	0.000	0.000	0.000	0.000	0.029	2.661	1.904	1.904	1.899	1.919	1.909	1.909
-0.005	-0.015	0.005	0.005	0.000	-0.020	0.029	2.656	1.914	1.899	1.899	1.919	1.909	1.904
0.000	-0.005	0.005	0.000	-0.005	0.000	0.024	2.725	1.919	1.904	1.904	1.919	1.909	1.914
0.000	-0.005	0.005	0.000	0.000	0.010	0.029	2.700	1.914	1.909	1.904	1.919	1.914	1.914
0.005	0.000	0.005	0.005	-0.005	0.000	0.029	2.710	1.914	1.909	1.904	1.919	1.914	1.909
0.005	-0.010	0.005	0.000	0.000	-0.005	0.024	2.676	1.909	1.904	1.904	1.919	1.914	1.914
0.005	-0.005	0.005	0.000	0.005	-0.005	0.029	2.661	1.904	1.904	1.904	1.919	1.919	1.914
0.010	0.000	0.000	0.005	0.005	0.005	0.029	2.695	1.904	1.904	1.904	1.919	1.914	1.914
0.000	-0.005	0.005	0.005	0.005	-0.010	0.029	2.651	1.895	1.904	1.904	1.919	1.914	1.914
0.010	0.000	0.005	0.005	0.005	0.005	0.029	2.671	1.899	1.904	1.899	1.919	1.919	1.914
0.005	-0.005	0.000	0.000	-0.005	-0.010	0.029	2.705	1.904	1.899	1.899	1.919	1.914	1.909
0.000	0.000	-0.005	0.005	-0.005	0.005	0.029	2.705	1.904	1.899	1.899	1.919	1.914	1.919
-0.005	0.015	-0.005	0.000	0.000	0.000	0.029	2.710	1.904	1.904	1.899	1.919	1.914	1.914
-0.005	0.015	-0.005	0.000	0.000	-0.010	0.029	2.681	1.904	1.904	1.899	1.919	1.914	1.909
-0.005	0.010	-0.005	0.005	-0.005	0.005	0.029	2.695	1.904	1.904	1.899	1.919	1.914	1.914
-0.005	0.010	-0.005	0.005	-0.005	-0.015	0.029	2.686	1.904	1.904	1.899	1.919	1.914	1.909
-0.005	0.010	-0.005	0.000	0.005	0.010	0.029	2.676	1.904	1.904	1.904	1.919	1.919	1.924
0.005	0.015	-0.005	0.000	0.015	-0.010	0.029	2.671	1.909	1.904	1.904	1.919	1.919	1.919
-0.005	0.000	0.000	0.000	0.005	-0.005	0.029	2.671	1.899	1.899	1.899	1.919	1.919	1.919
-0.005	0.005	0.005	0.005	0.005	0.015	0.029	2.666	1.899	1.899	1.904	1.919	1.919	1.924
0.000	0.010	0.010	0.000	0.000	0.020	0.029	2.690	1.904	1.904	1.904	1.919	1.914	1.919
0.005	0.005	0.005	0.000	0.000	0.015	0.029	2.695	1.909	1.904	1.899	1.919	1.914	1.919
0.005	-0.015	0.000	0.005	-0.010	0.005	0.029	2.690	1.904	1.895	1.895	1.919	1.914	1.914
0.000	-0.005	0.000	0.005	-0.005	-0.005	0.029	2.690	1.904	1.899	1.899	1.919	1.914	1.909
0.010	0.000	0.000	0.005	0.000	-0.005	0.029	2.695	1.904	1.904	1.899	1.919	1.914	1.909
0.005	-0.005	0.000	0.000	0.000	0.000	0.029	2.690	1.904	1.899	1.899	1.914	1.914	1.914
0.000	0.015	0.005	0.000	0.005	-0.005	0.029	2.607	1.899	1.904	1.899	1.919	1.914	1.914
0.010	0.020	0.005	0.000	0.005	0.000	0.029	2.646	1.895	1.904	1.899	1.919	1.914	1.914
0.000	0.015	-0.005	0.005	0.000	-0.010	0.029	2.739	1.899	1.899	1.899	1.919	1.914	1.909
-0.005	0.020	-0.005	0.000	0.005	0.010	0.029	2.656	1.899	1.899	1.899	1.914	1.914	1.914
-0.005	0.010	0.005	-0.005	0.000	0.005	0.029	2.646	1.895	1.895	1.899	1.914	1.914	1.909
-0.010	0.000	0.000	-0.005	0.000	0.010	0.029	2.720	1.899	1.895	1.895	1.914	1.914	1.914
-0.010	0.000	-0.005	0.000	-0.005	0.005	0.029	2.622	1.895	1.895	1.895	1.914	1.909	1.914
-0.010	0.000	0.000	0.000	0.000	-0.015	0.029	2.642	1.895	1.895	1.895	1.914	1.909	1.909
-0.010	0.000	0.000	0.005	0.005	-0.015	0.029	2.734	1.904	1.895	1.895	1.914	1.909	1.909
-0.005	-0.005	0.000	0.000	0.000	-0.020	0.029	2.749	1.914	1.895	1.895	1.914	1.909	1.909
0.000	-0.005	0.005	0.005	-0.005	-0.024	0.029	2.749	1.909	1.899	1.895	1.914	1.909	1.909
0.010	0.000	0.005	0.000	-0.005	0.000	0.029	2.671	1.904	1.899	1.899	1.914	1.909	1.914
0.000	-0.010	0.005	0.000	0.000	0.015	0.029	2.627	1.899	1.895	1.899	1.914	1.909	1.914
0.010	-0.005	0.000	0.000	0.000	0.024	0.029	2.661	1.899	1.899	1.895	1.914	1.909	1.919
0.015	-0.010	0.005	0.005	0.005	0.015	0.029	2.661	1.895	1.895	1.895	1.914	1.909	1.914
0.010	0.000	0.000	0.000	0.005	0.010	0.029	2.671	1.899	1.899	1.895	1.914	1.909	1.914
0.005	-0.010	0.000	-0.005	0.005	0.000	0.029	2.739	1.904	1.895	1.895	1.914	1.909	1.909
0.005	0.000	0.000	0.000	0.005	-0.005	0.029	2.695	1.904	1.899	1.895	1.914	1.909	1.904
0.000	0.005	0.005	0.000	0.000	0.010	0.029	2.700	1.904	1.899	1.895	1.914	1.909	1.909
0.000	0.005	0.005	0.000	-0.005	0.010	0.029	2.671	1.899	1.904	1.899	1.914	1.909	1.909
-0.005	0.020	0.000	0.005	0.005	-0.005	0.029	2.671	1.899	1.904	1.899	1.914	1.909	1.904
-0.010	-0.005	-0.005	0.005	0.000	0.005	0.024	2.705	1.899	1.895	1.895	1.914	1.909	1.909
-0.010	0.005	-0.005	0.005	-0.005	-0.024	0.029	2.681	1.899	1.899	1.895	1.919	1.909	1.904
0.000	-0.005	0.000	0.000	-0.005	0.010	0.029	2.671	1.899	1.899	1.895	1.914	1.909	1.914
-0.005	0.000	0.000	0.000	0.005	-0.020	0.029	2.671	1.904	1.899	1.899	1.914	1.909	1.909
0.000	-0.005	-0.005	0.000	0.005	0.010	0.029	2.686	1.904	1.895	1.899	1.914	1.914	1.914
-0.005	0.005	0.005	0.005	0.005	0.005	0.029	2.715	1.904	1.904	1.899	1.919	1.914	1.914
0.000	0.000	0.010	0.000	0.005	0.015	0.029	2.666	1.899	1.899	1.899	1.914	1.914	1.919
0.000	-0.005	0.005	0.005	0.005	-0.005	0.024	2.695	1.909	1.899	1.899	1.919	1.909	1.909
0.005	-0.005	0.000	0.000	0.000	0.015	0.029	2.695	1.904	1.899	1.895	1.914	1.909	1.914
0.010	0.000	0.000	0.005	-0.005	0.010	0.029	2.666	1.904	1.904	1.895	1.919	1.909	1.909
0.010	0.000	0.005	0.005	-0.010	0.000	0.024	2.671	1.904	1.904	1.899	1.914	1.909	1.909
0.010	-0.005	0.005	0.005	0.005	0.005	0.029	2.671	1.895	1.895	1.899	1.914	1.914	1.914
0.015	-0.005	0.005	0.005	0.015	0.005	0.029	2.671	1.899	1.895	1.899	1.919	1.914	1.909
0.010	0.010	0.005	0.000	0.005	-0.020	0.029	2.690	1.895	1.904	1.899	1.914	1.909	1.909
0.005	0.024	0.005	0.000	0.005	0.005	0.029	2.705	1.899	1.904	1.899	1.914	1.909	1.914
0.000	0.015	-0.005	0.005	0.000	0.000	0.029	2.700	1.904	1.899	1.895	1.914	1.909	1.914
-0.005	0.020	-0.005	0.005	-0.005	-0.015	0.029	2.686	1.899	1.904	1.895	1.919	1.909	1.904
0.000	0.010	0.000	-0.005	0.005	0.005	0.029	2.671	1.899	1.899	1.899	1.914	1.909	1.914
-0.005	0.010	-0.005	0.005	0.000	0.015	0.029	2.676	1.899	1.899	1.895	1.914	1.909	1.914
-0.010	-0.015	0.000	0.000	0.000	0.005	0.029	2.695	1.904	1.895	1.895	1.914	1.909	1.914
-0.005	0.015	0.000	0.000	-0.010	0.000	0.029	2.646	1.895	1.899	1.899	1.914	1.909	1.909
-0.005	0.000	0.000	0.005	-0.005	0.005	0.029	2.783	1.909	1.899	1.899	1.914	1.909	1.914
-0.005	-0.005	0.005	0.005	0.000	-0.005	0.029	2.661	1.909	1.899	1.899	1.914	1.909	1.909
0.005	0.000	0.000	0.000	-0.005	-0.010	0.029	2.646	1.904	1.899	1.899	1.914	1.909	1.909
0.010	-0.005	0.000	0.000	0.000	0.005	0.029	2.637	1.895	1.895	1.899	1.914	1.914	1.909
0.005	-0.005	0.010	0.000	0.005	-0.024	0.029	2.656	1.895	1.895	1.895	1.914	1.909	1.904
0.010	0.000	0.000	0.000	0.005	0.005	0.029	2.715	1.899	1.899	1.895	1.914	1.914	1.914
0.010	-0.005	0.005	0.000	0.005	0.000	0.029	2.739	1.909	1.899	1.899	1.914	1.909	1.914
0.000	-0.005	0.000	0.000	-0.005	-0.020	0.029	2.656	1.895	1.895	1.895	1.914	1.909	1.909
0.010	-0.005	0.005	0.005	0.005	0.010	0.029	2.671	1.895	1.899	1.899	1.914	1.909	1.914
0.005	0.005	-0.005	0.000	0.005	0.010	0.029	2.642	1.890	1.899	1.895	1.914	1.909	1.914
-0.010	0.010	0.000	0.000	0.005	0.010	0.024	2.705	1.895	1.899	1.895	1.914	1.909	1.909
-0.015	0.005	0.005	0.000	0.000	0.010	0.024	2.700	1.899	1.895	1.895	1.914	1.909	1.914
-0.005	0.010	-0.005	-0.005	0.000	0.005	0.029	2.754	1.890	1.899	1.895	1.914	1.909	1.909
-0.010	0.000	-0.005	0.005	0.000	0.000	0.029	2.651	1.890	1.890	1.895	1.914	1.909	1.909
-0.010	0.000	0.000	0.000	0.000	-0.015	0.029	2.725	1.899	1.895	1.895	1.914	1.909	1.909
-0.005	0.010	0.000	0.005	0.005	0.000	0.029	2.700	1.899	1.895	1.895	1.914	1.909	1.914
0.000	-0.005	0.000	0.000	0.000	0.005	0.029	2.710	1.909	1.895	1.895	1.914	1.909	1.909
0.005	-0.005	0.000	0.005	0.005	-0.020	0.029	2.661	1.899	1.895	1.895	1.914	1.909	1.904
0.000	-0.015	0.000	0.000	0.005	-0.005	0.029	2.671	1.899	1.895	1.895	1.914	1.909	1.909
0.005	-0.015	0.005	0.000	0.005	-0.015	0.029	2.700	1.899	1.895	1.895	1.914	1.909	1.904
0.005	-0.010	0.005	0.000	0.000	-0.005	0.029	2.681	1.899	1.895	1.895	1.914	1.909	1.909
0.010	-0.005	0.005	0.005	0.000	0.010	0.029	2.671	1.899	1.899	1.895	1.914	1.909	1.914
0.015	0.000	-0.005	0.005	0.000	0.005	0.029	2.705	1.899	1.899	1.895	1.914	1.909	1.909
0.015	0.000	0.005	0.005	0.000	0.010	0.029	2.700	1.909	1.899	1.895	1.914	1.909	1.909
0.015	-0.005	0.005	0.010	0.000	0.005	0.024	2.690	1.904	1.899	1.895	1.914	1.909	1.909
0.010	-0.005	0.000	0.000	0.010	0.005	0.029	2.671	1.899	1.899	1.895	1.914	1.909	1.909
0.005	0.010	0.000	0.005	0.000	-0.015	0.029	2.705	1.899	1.904	1.895	1.914	1.909	1.904
0.005	0.015	-0.005	0.000	0.000	0.000	0.029	2.700	1.899	1.899	1.895	1.914	1.909	1.909
-0.005	0.010	-0.005	0.005	0.005	-0.010	0.029	2.695	1.899	1.899	1.899	1.909	1.909	1.909
-0.005	0.020	-0.005	0.005	0.000	-0.010	0.029	2.676	1.899	1.904	1.899	1.914	1.909	1.909
-0.015	0.015	-0.005	0.000	0.000	0.010	0.024	2.671	1.899	1.899	1.899	1.914	1.909	1.909
0.000	0.010	0.000	0.000	0.000	-0.015	0.029	2.671	1.899	1.899	1.899	1.914	1.909	1.904
0.000	0.005	0.000	0.000	0.000	0.015	0.029	2.690	1.899	1.895	1.895	1.914	1.914	1.914
-0.005	0.010	0.000	0.000	-0.005	0.000	0.029	2.705	1.899	1.899	1.899	1.914	1.909	1.909
-0.005	0.010	0.005	0.000	0.005	0.005	0.029	2.700	1.904	1.899	1.899	1.914	1.914	1.914
0.000	0.000	0.005	0.000	0.000	0.015	0.029	2.695	1.899	1.899	1.899	1.919	1.914	1.914
0.005	-0.005	0.005	0.005	0.000	0.015	0.029	2.690	1.909	1.899	1.899	1.914	1.914	1.909
0.015	-0.005	0.010	0.000	0.000	0.005	0.024	2.681	1.909	1.899	1.899	1.914	1.909	1.909
0.010	0.000	0.005	0.000	-0.005	0.015	0.029	2.656	1.899	1.899	1.899	1.914	1.909	1.914
0.010	-0.010	0.010	0.000	-0.005	-0.005	0.029	2.646	1.895	1.895	1.895	1.914	1.909	1.909
0.010	-0.010	0.000	0.000	0.005	0.005	0.029	2.778	1.909	1.899	1.895	1.914	1.909	1.909
0.000	0.000	0.005	0.010	-0.005	0.010	0.029	2.656	1.899	1.899	1.895	1.914	1.914	1.914
0.000	0.000	0.000	0.000	0.005	0.015	0.024	2.646	1.895	1.899	1.895	1.914	1.909	1.914
0.000	0.000	0.000	0.000	0.000	0.005	0.029	2.632	1.890	1.899	1.895	1.914	1.909	1.909
0.000	0.015	-0.005	0.000	0.000	0.005	0.029	2.656	1.890	1.899	1.895	1.914	1.909	1.909
0.000	0.005	-0.005	0.000	0.000	0.005	0.029	2.715	1.899	1.899	1.895	1.914	1.909	1.909
-0.015	0.005	-0.005	0.005	0.005	0.005	0.029	2.764	1.904	1.895	1.895	1.914	1.909	1.909
-0.010	0.005	-0.005	0.005	0.000	0.000	0.029	2.734	1.909	1.899	1.895	1.914	1.909	1.909
0.000	0.000	0.000	0.000	0.000	0.000	0.029	2.666	1.904	1.899	1.899	1.914	1.909	1.909
-0.010	-0.005	0.000	0.000	0.000	0.000	0.029	2.681	1.904	1.899	1.895	1.914	1.909	1.909
0.005	-0.005	0.000	0.000	0.005	0.000	0.029	2.622	1.899	1.899	1.895	1.914	1.914	1.909
0.010	-0.005	-0.005	0.000	0.000	0.000	0.029	2.676	1.899	1.899	1.895	1.914	1.909	1.909
0.010	-0.015	0.000	0.005	0.005	0.000	0.029	2.656	1.899	1.895	1.899	1.914	1.909	1.909
0.005	-0.005	0.005	0.010	-0.005	-0.015	0.024	2.686	1.895	1.899	1.899	1.914	1.909	1.904
0.015	-0.010	0.005	0.000	0.000	0.005	0.029	2.700	1.895	1.899	1.899	1.914	1.909	1.909
0.010	0.000	0.000	0.005	0.005	0.005	0.029	2.700	1.899	1.899	1.895	1.914	1.909	1.914
0.000	0.000	0.005	0.000	0.000	0.005	0.029	2.700	1.904	1.895	1.895	1.914	1.909	1.909
0.005	-0.005	0.005	0.000	0.000	-0.005	0.029	2.681	1.904	1.895	1.895	1.914	1.909	1.909
0.005	-0.005	0.005	0.005	0.000	0.010	0.029	2.671	1.899	1.899	1.895	1.914	1.909	1.914
0.005	0.005	0.000	0.000	0.000	0.005	0.029	2.700	1.904	1.899	1.895	1.914	1.909	1.909
-0.005	0.000	0.000	0.000	0.000	0.005	0.024	2.676	1.904	1.899	1.895	1.914	1.909	1.909
0.000	0.000	-0.005	0.005	0.000	-0.005	0.024	2.676	1.899	1.899	1.895	1.914	1.909	1.904
-0.010	0.020	-0.005	0.000	0.000	0.010	0.029	2.686	1.904	1.899	1.895	1.914	1.909	1.914
-0.005	0.020	-0.005	0.000	0.005	0.005	0.029	2.710	1.904	1.904	1.895	1.919	1.909	1.909
-0.005	0.010	-0.005	0.005	0.000	0.010	0.029	2.695	1.904	1.904	1.899	1.914	1.914	1.914
-0.005	0.010	0.000	0.000	0.000	0.010	0.029	2.671	1.904	1.904	1.904	1.914	1.909	1.914
-0.005	0.000	0.000	-0.005	0.005	0.005	0.029	2.700	1.904	1.899	1.899	1.914	1.914	1.909
0.005	0.005	0.005	0.000	0.000	0.000	0.029	2.686	1.904	1.904	1.899	1.914	1.909	1.909
-0.005	-0.010	0.000	0.000	0.005	0.000	0.029	2.666	1.895	1.895	1.899	1.919	1.914	1.914
0.010	-0.005	0.000	0.000	0.000	-0.020	0.029	2.661	1.899	1.899	1.899	1.914	1.909	1.909
0.010	0.000	0.005	0.000	0.000	0.005	0.029	2.671	1.899	1.895	1.899	1.919	1.909	1.914
0.015	-0.005	0.005	0.000	0.010	0.000	0.029	2.681	1.899	1.899	1.895	1.914	1.914	1.914
0.005	-0.005	0.005	0.005	0.005	0.010	0.029	2.666	1.899	1.895	1.895	1.914	1.914	1.914
0.010	0.000	0.005	0.000	0.000	0.005	0.029	2.705	1.904	1.899	1.895	1.914	1.909	1.914
0.015	0.000	0.000	0.005	0.000	0.005	0.029	2.695	1.904	1.899	1.895	1.914	1.909	1.909
0.005	0.010	0.010	0.005	0.005	0.000	0.029	2.710	1.904	1.899	1.895	1.914	1.909	1.909
0.010	0.000	0.010	0.005	0.000	0.005	0.029	2.661	1.904	1.899	1.899	1.914	1.909	1.909
0.000	0.010	-0.005	0.005	0.005	-0.010	0.024	2.686	1.899	1.899	1.895	1.914	1.909	1.909
-0.010	0.000	-0.005	0.000	0.005	0.000	0.029	2.656	1.895	1.899	1.895	1.914	1.914	1.914
-0.010	0.020	0.000	0.000	-0.005	0.005	0.029	2.651	1.895	1.899	1.895	1.914	1.909	1.909
0.000	0.005	-0.010	0.000	0.000	0.000	0.029	2.783	1.914	1.899	1.895	1.909	1.909	1.914
-0.005	0.000	-0.005	0.000	-0.005	0.000	0.029	2.666	1.904	1.899	1.899	1.914	1.909	1.909
-0.010	-0.010	-0.005	0.000	0.000	0.000	0.029	2.642	1.895	1.895	1.895	1.914	1.909	1.909
0.005	0.000	0.005	0.005	0.005	0.005	0.029	2.637	1.895	1.899	1.899	1.919	1.914	1.914
-0.010	-0.005	0.000	0.000	-0.005	0.000	0.024	2.651	1.890	1.895	1.895	1.914	1.909	1.909
-0.005	0.000	-0.005	0.005	0.000	-0.005	0.029	2.710	1.904	1.899	1.895	1.914	1.909	1.909
0.005	-0.020	0.005	0.005	0.005	-0.015	0.029	2.651	1.899	1.895	1.890	1.914	1.909	1.909
0.010	-0.010	0.005	0.005	0.005	-0.015	0.029	2.734	1.904	1.895	1.895	1.914	1.909	1.904
0.010	-0.015	0.005	0.000	0.005	0.015	0.029	2.656	1.899	1.895	1.895	1.909	1.909	1.914
0.015	-0.020	0.005	0.005	-0.005	-0.010	0.029	2.676	1.904	1.899	1.895	1.914	1.909	1.909
0.010	-0.020	0.005	0.000	0.000	-0.015	0.029	2.651	1.899	1.895	1.895	1.914	1.909	1.909
-0.005	0.000	0.005	-0.005	0.005	0.005	0.029	2.671	1.895	1.899	1.895	1.914	1.909	1.909
0.005	0.015	0.000	0.000	0.000	0.010	0.029	2.744	1.904	1.904	1.895	1.909	1.904	1.914
-0.005	0.015	0.010	0.000	0.005	0.005	0.029	2.661	1.899	1.904	1.895	1.914	1.909	1.909
0.000	0.010	0.005	0.005	0.000	0.005	0.029	2.710	1.904	1.899	1.899	1.914	1.909	1.909
-0.010	0.010	0.000	0.005	-0.005	0.005	0.029	2.705	1.899	1.899	1.899	1.914	1.909	1.909
-0.005	0.010	0.000	0.000	-0.005	0.005	0.024	2.710	1.904	1.899	1.899	1.914	1.909	1.909
-0.005	0.010	0.000	0.000	-0.005	0.000	0.029	2.671	1.904	1.899	1.899	1.914	1.909	1.904
0.000	0.005	0.000	0.000	0.000	0.005	0.029	2.661	1.904	1.899	1.899	1.919	1.909	1.909
-0.010	0.015	0.000	0.000	-0.005	0.000	0.029	2.666	1.899	1.899	1.899	1.919	1.909	1.909
0.000	-0.005	0.000	0.000	-0.005	0.000	0.029	2.666	1.899	1.895	1.899	1.914	1.909	1.909
0.000	0.005	0.005	0.005	0.000	0.010	0.029	2.681	1.904	1.899	1.899	1.919	1.914	1.914
0.010	0.024	0.005	0.000	0.005	-0.010	0.029	2.700	1.904	1.904	1.899	1.919	1.909	1.909
0.005	0.015	0.000	0.000	0.005	-0.015	0.024	2.695	1.899	1.899	1.899	1.914	1.909	1.909
0.005	0.005	0.000	0.000	0.005	0.005	0.029	2.695	1.899	1.899	1.895	1.914	1.914	1.914
0.015	0.000	0.000	0.000	0.005	0.005	0.029	2.661	1.904	1.895	1.895	1.914	1.914	1.914
0.015	-0.005	0.005	0.005	0.000	-0.020	0.029	2.700	1.904	1.899	1.895	1.914	1.909	1.904
0.010	-0.005	0.005	0.005	-0.005	0.005	0.029	2.690	1.899	1.899	1.895	1.914	1.909	1.914
0.010	0.000	0.005	0.000	0.000	0.010	0.029	2.705	1.904	1.899	1.895	1.914	1.914	1.914
0.000	-0.005	0.000	0.000	0.005	-0.005	0.029	2.681	1.904	1.899	1.895	1.914	1.909	1.909
0.005	0.000	0.000	0.000	0.005	-0.005	0.029	2.676	1.904	1.899	1.895	1.914	1.909	1.909
-0.005	0.005	0.000	0.000	0.005	0.000	0.029	2.671	1.899	1.899	1.895	1.914	1.909	1.914
-0.005	0.005	-0.010	0.000	0.005	0.000	0.029	2.695	1.899	1.899	1.899	1.914	1.909	1.914
-0.010	0.005	0.000	0.005	-0.005	0.000	0.029	2.705	1.899	1.899	1.899	1.914	1.909	1.909
-0.005	0.000	-0.005	0.005	-0.010	-0.024	0.029	2.710	1.899	1.899	1.899	1.914	1.904	1.904
-0.010	0.000	0.000	0.005	-0.005	0.005	0.029	2.695	1.904	1.899	1.899	1.914	1.909	1.909
-0.010	0.000	-0.005	0.005	-0.005	0.000	0.029	2.671	1.899	1.899	1.899	1.914	1.909	1.909
-0.005	0.000	0.000	-0.005	0.000	0.005	0.029	2.681	1.904	1.899	1.899	1.919	1.909	1.914
0.000	0.000	0.000	0.000	-0.005	0.005	0.029	2.607	1.899	1.899	1.899	1.914	1.909	1.914
0.000	0.000	0.000	0.005	0.005	0.010	0.029	2.637	1.895	1.899	1.899	1.919	1.914	1.914
0.000	0.005	0.000	0.000	0.000	0.015	0.029	2.661	1.895	1.895	1.899	1.914	1.909	1.914
0.020	-0.010	0.010	0.000	-0.005	0.020	0.029	2.666	1.895	1.895	1.895	1.914	1.914	1.914
0.010	-0.010	0.005	0.000	0.000	0.005	0.029	2.637	1.890	1.890	1.895	1.914	1.909	1.909
0.015	-0.015	0.005	-0.005	0.000	-0.010	0.029	2.725	1.895	1.890	1.890	1.914	1.909	1.904
0.005	-0.005	0.005	0.000	0.005	-0.020	0.029	2.646	1.895	1.890	1.890	1.914	1.909	1.904
0.000	0.005	0.000	0.000	0.000	0.000	0.029	2.744	1.899	1.899	1.890	1.914	1.909	1.909
-0.005	-0.005	0.000	0.000	0.005	0.005	0.029	2.661	1.895	1.895	1.895	1.909	1.909	1.914
-0.005	0.015	-0.005	0.000	0.010	-0.020	0.029	2.661	1.895	1.895	1.895	1.909	1.909	1.904
-0.005	-0.010	0.000	-0.005	0.010	0.000	0.024	2.710	1.899	1.890	1.890	1.909	1.909	1.914
-0.010	-0.015	-0.010	0.000	0.010	0.000	0.029	2.671	1.899	1.890	1.890	1.909	1.909	1.914
-0.005	-0.005	-0.005	0.000	0.015	0.000	0.029	2.739	1.904	1.895	1.895	1.909	1.909	1.909
-0.005	0.005	-0.005	0.000	0.010	-0.005	0.029	2.690	1.909	1.904	1.895	1.909	1.909	1.909
-0.005	0.000	0.000	0.000	0.010	-0.010	0.029	2.656	1.904	1.899	1.895	1.914	1.909	1.909
0.005	0.005	0.000	0.005	0.000	-0.015	0.029	2.661	1.904	1.904	1.895	1.914	1.909	1.904
0.010	0.005	0.005	0.000	0.010	0.005	0.029	2.739	1.909	1.904	1.899	1.914	1.909	1.909
0.015	0.000	-0.005	0.005	0.005	0.010	0.029	2.700	1.909	1.904	1.899	1.914	1.909	1.914
0.010	-0.010	0.000	0.005	0.000	0.000	0.029	2.700	1.904	1.899	1.899	1.914	1.909	1.909
0.010	0.000	0.010	0.000	0.010	0.005	0.029	2.681	1.904	1.904	1.904	1.919	1.909	1.909
-0.005	-0.005	0.005	0.010	0.010	-0.010	0.029	2.690	1.899	1.904	1.899	1.919	1.914	1.904
0.000	-0.005	0.010	0.005	0.020	0.000	0.029	2.681	1.904	1.899	1.899	1.919	1.914	1.909
0.005	0.000	0.005	0.005	0.020	0.000	0.029	2.676	1.904	1.899	1.899	1.919	1.914	1.914
-0.005	0.005	0.005	0.000	0.010	-0.015	0.029	2.671	1.895	1.899	1.899	1.914	1.909	1.909
0.005	0.015	0.000	0.005	0.010	-0.020	0.029	2.656	1.895	1.904	1.899	1.919	1.909	1.904
0.005	0.024	0.000	0.005	0.000	-0.029	0.029	2.656	1.895	1.904	1.899	1.919	1.909	1.904
-0.005	0.010	0.000	0.005	0.005	-0.005	0.029	2.671	1.895	1.895	1.895	1.914	1.914	1.914
-0.005	0.005	0.000	0.010	-0.010	0.005	0.029	2.676	1.895	1.895	1.895	1.914	1.909	1.914
-0.010	0.010	-0.005	0.005	-0.005	-0.005	0.029	2.690	1.895	1.895	1.895	1.914	1.909	1.914
-0.010	0.010	-0.005	0.005	-0.005	0.015	0.029	2.695	1.899	1.895	1.895	1.914	1.909	1.914
-0.020	0.005	-0.005	0.000	-0.005	0.010	0.029	2.700	1.899	1.895	1.890	1.914	1.909	1.914
-0.005	0.010	-0.005	0.000	-0.005	0.020	0.029	2.676	1.904	1.899	1.895	1.909	1.909	1.914
-0.005	-0.005	-0.005	0.000	-0.005	0.010	0.029	2.671	1.899	1.895	1.899	1.909	1.909	1.914
0.000	-0.010	0.000	0.000	-0.005	0.005	0.029	2.705	1.904	1.899	1.895	1.914	1.909	1.909
0.010	0.000	0.005	0.000	-0.005	0.015	0.024	2.695	1.909	1.899	1.899	1.914	1.909	1.909
0.020	0.000	0.000	0.000	-0.005	-0.015	0.029	2.666	1.904	1.904	1.899	1.914	1.909	1.904
0.005	-0.010	0.000	0.000	-0.015	0.000	0.029	2.676	1.899	1.895	1.895	1.914	1.904	1.904
0.005	-0.005	0.005	-0.005	-0.010	0.015	0.029	2.695	1.899	1.899	1.899	1.914	1.909	1.909
0.010	0.005	0.005	0.005	-0.010	0.015	0.029	2.710	1.904	1.904	1.899	1.914	1.909	1.909
0.015	0.005	0.005	0.000	-0.005	-0.005	0.029	2.681	1.895	1.899	1.899	1.914	1.909	1.909
0.005	0.010	0.005	0.000	-0.005	0.010	0.029	2.598	1.880	1.895	1.899	1.914	1.909	1.909
0.005	0.015	0.000	0.000	-0.005	0.000	0.029	2.637	1.885	1.895	1.895	1.914	1.909	1.909
-0.010	0.000	0.005	0.000	-0.010	0.005	0.029	2.642	1.895	1.890	1.895	1.914	1.909	1.909
0.000	0.000	0.005	-0.005	-0.015	0.010	0.029	2.666	1.899	1.890	1.895	1.914	1.904	1.909
-0.005	-0.005	0.000	0.000	-0.005	0.005	0.029	2.651	1.895	1.890	1.890	1.914	1.909	1.909
-0.005	0.005	-0.005	0.000	-0.005	0.015	0.029	2.729	1.899	1.895	1.890	1.909	1.909	1.914
-0.010	0.000	0.000	0.000	-0.005	-0.010	0.024	2.637	1.899	1.895	1.890	1.909	1.909	1.909
-0.005	0.005	-0.005	0.000	0.000	0.015	0.029	2.617	1.895	1.895	1.895	1.914	1.909	1.914
-0.005	0.000	0.005	0.000	-0.005	0.010	0.029	2.681	1.904	1.895	1.895	1.909	1.909	1.909
0.000	0.010	-0.005	0.000	0.000	-0.005	0.029	2.710	1.904	1.899	1.895	1.909	1.909	1.909
0.000	-0.005	0.000	0.000	0.005	0.005	0.029	2.754	1.899	1.895	1.895	1.909	1.909	1.909
0.005	-0.005	0.000	-0.005	0.005	0.005	0.024	2.646	1.899	1.895	1.895	1.914	1.909	1.909
0.005	-0.010	0.010	0.000	0.005	0.000	0.029	2.720	1.899	1.895	1.895	1.914	1.909	1.909
0.005	-0.005	0.000	0.000	0.005	-0.005	0.029	2.695	1.899	1.899	1.895	1.909	1.909	1.909
0.010	-0.010	0.005	0.000	0.005	0.005	0.029	2.661	1.895	1.895	1.895	1.914	1.909	1.909
0.010	-0.005	0.005	0.000	0.005	0.000	0.029	2.661	1.895	1.895	1.895	1.909	1.904	1.909
0.010	0.000	0.000	0.005	0.000	0.000	0.029	2.715	1.899	1.899	1.895	1.909	1.904	1.904
0.010	0.000	0.005	0.000	0.005	0.000	0.024	2.705	1.899	1.895	1.895	1.909	1.909	1.909
0.000	0.000	0.000	0.000	0.005	0.010	0.029	2.705	1.899	1.895	1.895	1.914	1.909	1.909
-0.005	0.000	-0.005	0.000	0.005	0.000	0.029	2.676	1.899	1.899	1.895	1.909	1.909	1.909
0.000	0.000	-0.005	0.005	0.005	0.005	0.029	2.666	1.899	1.895	1.895	1.914	1.909	1.909
-0.015	0.010	0.000	0.000	0.010	-0.005	0.029	2.666	1.899	1.899	1.895	1.914	1.909	1.904
-0.005	-0.005	0.000	0.005	0.000	0.000	0.029	2.676	1.899	1.895	1.895	1.914	1.909	1.909
-0.010	-0.005	0.000	0.005	0.000	0.005	0.029	2.676	1.895	1.895	1.895	1.914	1.909	1.909
-0.010	-0.005	0.000	0.000	0.000	0.005	0.024	2.676	1.899	1.895	1.895	1.914	1.909	1.909
-0.005	0.010	0.000	0.000	0.010	-0.005	0.029	2.695	1.904	1.899	1.895	1.914	1.909	1.909
0.000	0.005	-0.005	0.005	0.005	0.005	0.029	2.700	1.909	1.899	1.895	1.914	1.909	1.909
0.000	-0.005	-0.005	0.005	0.015	-0.010	0.029	2.671	1.904	1.895	1.895	1.914	1.909	1.904
0.010	-0.005	0.005	0.005	0.005	0.005	0.029	2.705	1.909	1.899	1.899	1.914	1.909	1.909
0.010	-0.010	0.005	0.005	-0.005	0.005	0.029	2.700	1.904	1.899	1.899	1.914	1.909	1.909
0.000	-0.020	0.005	0.000	0.010	0.000	0.029	2.671	1.899	1.895	1.899	1.914	1.909	1.909
0.005	-0.005	0.010	0.000	0.000	0.000	0.029	2.686	1.904	1.899	1.895	1.914	1.909	1.909
0.000	-0.015	0.005	0.000	0.000	-0.005	0.029	2.671	1.899	1.895	1.895	1.914	1.909	1.904
0.005	0.005	0.000	0.005	0.000	0.000	0.024	2.661	1.895	1.899	1.895	1.914	1.904	1.904
0.000	0.015	0.000	0.000	0.005	-0.005	0.029	2.695	1.899	1.899	1.895	1.914	1.909	1.909
0.005	0.010	0.000	0.005	0.000	0.005	0.029	2.700	1.899	1.899	1.895	1.914	1.909	1.909
0.005	0.010	0.000	0.005	0.005	0.000	0.029	2.686	1.895	1.899	1.899	1.914	1.909	1.909
-0.005	0.010	-0.005	0.005	0.005	-0.005	0.029	2.676	1.899	1.895	1.895	1.914	1.909	1.909
-0.005	0.015	0.000	0.005	0.000	-0.005	0.029	2.700	1.904	1.899	1.899	1.914	1.909	1.904
-0.015	0.010	0.000	0.000	0.005	0.010	0.024	2.690	1.899	1.895	1.899	1.914	1.909	1.914
0.000	-0.010	0.000	0.000	0.000	0.005	0.029	2.661	1.904	1.895	1.895	1.914	1.909	1.909
-0.010	0.000	0.000	0.005	0.000	-0.010	0.029	2.642	1.895	1.899	1.895	1.914	1.909	1.909
0.000	0.005	-0.005	0.000	0.005	0.015	0.029	2.739	1.909	1.899	1.899	1.914	1.909	1.914
0.005	0.005	0.000	0.000	0.000	0.000	0.029	2.671	1.909	1.899	1.899	1.914	1.909	1.909
0.005	0.005	0.005	0.005	-0.005	0.015	0.029	2.637	1.899	1.904	1.899	1.914	1.909	1.914
0.005	0.015	0.000	0.005	0.000	0.000	0.029	2.734	1.895	1.899	1.899	1.914	1.909	1.914
0.000	0.010	0.005	0.000	0.000	0.000	0.029	2.651	1.890	1.899	1.899	1.914	1.914	1.909
0.015	0.010	0.005	-0.005	0.005	-0.015	0.029	2.627	1.890	1.890	1.895	1.914	1.909	1.909
0.010	0.005	0.005	0.000	0.005	0.005	0.029	2.725	1.895	1.895	1.890	1.914	1.909	1.914
0.005	-0.005	0.000	0.005	0.010	0.000	0.029	2.729	1.904	1.890	1.890	1.914	1.914	1.914
0.005	-0.010	0.000	0.005	0.010	0.005	0.029	2.744	1.895	1.890	1.890	1.914	1.909	1.909
0.005	-0.015	0.000	0.000	0.000	0.005	0.029	2.651	1.890	1.890	1.890	1.909	1.909	1.909
0.000	-0.010	0.000	0.005	0.000	0.010	0.029	2.651	1.890	1.890	1.890	1.909	1.909	1.909
-0.005	0.000	0.005	-0.005	0.000	0.005	0.029	2.676	1.890	1.890	1.890	1.909	1.909	1.909
0.000	0.010	0.000	0.005	0.000	0.000	0.029	2.656	1.895	1.895	1.890	1.909	1.909	1.909
-0.010	0.000	-0.005	0.005	0.000	-0.010	0.029	2.661	1.890	1.895	1.890	1.909	1.904	1.909
-0.005	0.005	0.005	0.005	0.000	-0.005	0.029	2.749	1.904	1.895	1.890	1.909	1.904	1.909
0.000	0.010	0.000	0.000	0.000	0.010	0.029	2.700	1.904	1.899	1.890	1.909	1.904	1.909
-0.010	0.015	0.000	0.000	-0.005	0.010	0.029	2.705	1.904	1.904	1.895	1.909	1.904	1.909
0.000	0.010	0.000	0.005	0.000	-0.020	0.029	2.661	1.904	1.899	1.895	1.909	1.904	1.904
0.005	0.005	-0.005	0.000	0.005	0.015	0.029	2.666	1.899	1.899	1.895	1.914	1.909	1.909
0.000	-0.005	0.005	0.005	0.005	-0.005	0.029	2.676	1.899	1.895	1.895	1.914	1.904	1.904
0.015	-0.005	0.005	0.005	0.000	0.015	0.029	2.671	1.904	1.895	1.895	1.914	1.909	1.909
0.010	-0.010	0.005	0.000	0.005	0.005	0.029	2.656	1.899	1.895	1.895	1.914	1.909	1.909
0.005	0.000	0.005	0.005	0.000	0.000	0.029	2.666	1.899	1.899	1.895	1.914	1.904	1.904
0.000	0.005	0.010	-0.005	0.000	-0.010	0.029	2.705	1.899	1.899	1.895	1.914	1.904	1.904
0.010	0.000	0.005	0.005	0.000	-0.005	0.029	2.700	1.899	1.899	1.895	1.914	1.909	1.909
0.000	-0.005	0.005	0.005	0.005	0.005	0.029	2.666	1.895	1.895	1.895	1.909	1.909	1.909
0.010	-0.005	0.000	0.000	0.000	0.005	0.029	2.700	1.899	1.899	1.895	1.909	1.909	1.909
-0.005	0.005	-0.005	0.000	0.000	0.010	0.029	2.705	1.899	1.899	1.895	1.914	1.909	1.909
-0.005	0.005	-0.005	0.000	0.000	0.010	0.029	2.700	1.904	1.899	1.895	1.914	1.909	1.909
-0.010	0.005	-0.005	0.000	0.000	0.005	0.029	2.671	1.899	1.899	1.895	1.909	1.909	1.909
-0.005	0.010	-0.005	0.005	0.005	-0.005	0.029	2.666	1.899	1.899	1.895	1.914	1.909	1.909
-0.010	0.010	-0.005	0.000	0.005	-0.005	0.029	2.695	1.904	1.899	1.899	1.914	1.909	1.909
-0.005	-0.005	0.000	0.000	0.000	-0.010	0.029	2.690	1.899	1.899	1.895	1.914	1.909	1.909
-0.005	-0.005	0.000	0.005	0.000	-0.005	0.029	2.700	1.899	1.899	1.899	1.914	1.909	1.909
0.000	-0.005	0.000	-0.005	0.005	0.010	0.029	2.710	1.904	1.899	1.895	1.914	1.909	1.914
-0.005	-0.010	0.000	0.000	0.000	0.000	0.029	2.676	1.904	1.899	1.895	1.914	1.909	1.909
0.000	-0.020	0.000	0.000	0.000	0.010	0.029	2.705	1.904	1.895	1.899	1.914	1.909	1.909
0.015	-0.010	0.010	0.000	0.000	0.005	0.029	2.676	1.904	1.899	1.895	1.914	1.909	1.909
0.000	-0.010	0.010	-0.005	-0.005	-0.005	0.029	2.690	1.899	1.899	1.895	1.914	1.909	1.909
0.005	-0.010	0.005	0.000	0.000	0.010	0.029	2.646	1.895	1.899	1.895	1.914	1.909	1.914
0.010	-0.010	0.005	0.000	-0.005	0.010	0.029	2.783	1.904	1.899	1.895	1.914	1.909	1.909
0.005	-0.005	0.000	0.000	-0.005	0.000	0.029	2.661	1.899	1.899	1.895	1.914	1.909	1.909
0.000	0.005	0.000	0.000	0.000	0.005	0.029	2.646	1.895	1.899	1.895	1.914	1.909	1.909
0.000	0.000	0.000	0.005	0.000	-0.010	0.024	2.725	1.904	1.899	1.895	1.914	1.904	1.904
-0.005	0.010	-0.005	0.000	0.000	-0.020	0.029	2.617	1.890	1.895	1.895	1.914	1.909	1.904
-0.005	0.015	0.000	0.000	0.005	0.005	0.029	2.739	1.899	1.899	1.899	1.914	1.909	1.909
-0.005	0.020	0.000	0.000	0.000	0.010	0.029	2.754	1.909	1.899	1.899	1.919	1.909	1.909
-0.010	0.005	-0.005	0.005	0.005	0.010	0.029	2.715	1.909	1.899	1.899	1.919	1.914	1.914
-0.005	0.005	0.000	0.000	0.000	-0.005	0.029	2.671	1.904	1.904	1.899	1.914	1.909	1.909
-0.005	-0.005	0.000	0.005	-0.005	0.015	0.024	2.642	1.899	1.899	1.899	1.914	1.909	1.914
-0.005	0.020	0.000	0.000	0.005	-0.005	0.029	2.622	1.904	1.909	1.904	1.914	1.909	1.909
0.015	0.015	0.005	0.005	0.000	0.010	0.029	2.690	1.914	1.904	1.904	1.919	1.914	1.914
0.010	0.000	0.000	0.000	0.000	0.005	0.029	2.642	1.895	1.899	1.899	1.919	1.914	1.914
0.015	0.000	0.000	0.000	0.000	0.005	0.029	2.661	1.899	1.895	1.899	1.919	1.914	1.914
0.010	0.000	0.000	0.000	0.000	-0.010	0.029	2.734	1.904	1.899	1.899	1.914	1.909	1.904
0.005	-0.005	0.010	-0.005	0.005	-0.015	0.029	2.710	1.904	1.899	1.899	1.914	1.914	1.909
0.010	-0.005	0.005	0.000	0.000	-0.005	0.029	2.700	1.909	1.899	1.899	1.914	1.909	1.909
0.010	-0.010	0.005	0.000	0.000	0.005	0.029	2.671	1.899	1.895	1.899	1.919	1.909	1.914
0.000	-0.005	0.000	0.005	0.000	0.000	0.029	2.671	1.899	1.899	1.895	1.919	1.909	1.914
0.000	-0.005	0.010	0.000	0.000	0.005	0.029	2.671	1.899	1.899	1.899	1.914	1.914	1.909
0.005	0.000	0.000	0.005	0.000	-0.005	0.029	2.676	1.895	1.899	1.895	1.914	1.909	1.909
-0.005	0.005	-0.005	0.000	0.000	0.005	0.029	2.666	1.890	1.899	1.895	1.914	1.909	1.914
-0.005	0.015	-0.005	0.000	0.000	-0.024	0.029	2.700	1.904	1.899	1.895	1.914	1.909	1.904
-0.020	0.015	-0.005	0.000	0.005	0.005	0.029	2.705	1.899	1.899	1.895	1.914	1.909	1.914
-0.010	0.015	0.000	0.000	0.000	0.010	0.029	2.700	1.904	1.899	1.899	1.914	1.909	1.914
-0.005	0.005	0.000	0.005	0.000	0.005	0.029	2.666	1.899	1.899	1.895	1.914	1.914	1.914
-0.005	-0.005	0.005	0.000	0.005	0.000	0.029	2.705	1.904	1.899	1.899	1.914	1.914	1.914
-0.010	-0.005	0.000	0.000	0.000	0.010	0.029	2.705	1.909	1.899	1.895	1.919	1.909	1.914
0.000	-0.005	0.010	0.005	0.000	0.000	0.029	2.715	1.909	1.899	1.899	1.919	1.909	1.909
0.005	-0.005	0.010	0.005	0.000	0.000	0.029	2.681	1.909	1.899	1.899	1.919	1.909	1.914
0.010	-0.005	0.005	0.000	-0.005	-0.005	0.029	2.651	1.904	1.904	1.899	1.914	1.909	1.909
0.005	-0.005	0.000	0.000	0.005	0.005	0.024	2.671	1.899	1.904	1.899	1.919	1.909	1.914
-0.005	0.000	0.005	0.000	0.000	0.000	0.029	2.666	1.895	1.899	1.899	1.914	1.914	1.909
0.005	0.000	0.000	0.000	0.000	0.000	0.029	2.695	1.899	1.899	1.899	1.914	1.914	1.914
0.005	0.000	0.000	0.000	0.000	-0.010	0.029	2.690	1.899	1.899	1.899	1.914	1.909	1.909
0.010	0.000	0.000	0.005	0.000	0.000	0.029	2.671	1.899	1.899	1.899	1.919	1.909	1.914
-0.005	-0.005	0.005	0.000	0.000	0.010	0.024	2.676	1.895	1.899	1.895	1.919	1.909	1.914
0.000	0.000	0.000	0.005	0.000	0.010	0.029	2.676	1.895	1.895	1.895	1.914	1.909	1.914
-0.005	-0.005	0.000	0.005	0.000	0.010	0.029	2.661	1.895	1.895	1.895	1.914	1.909	1.914
-0.005	0.000	0.000	0.000	0.005	0.020	0.029	2.642	1.895	1.895	1.895	1.914	1.914	1.914
-0.005	0.000	0.000	0.000	0.005	0.015	0.029	2.783	1.909	1.899	1.895	1.914	1.914	1.914
-0.005	-0.005	-0.005	0.000	0.000	-0.005	0.024	2.661	1.899	1.899	1.895	1.909	1.909	1.909
-0.010	-0.005	0.000	0.000	0.000	0.010	0.029	2.642	1.899	1.899	1.895	1.914	1.909	1.914
-0.005	-0.010	0.000	-0.005	0.000	-0.010	0.029	2.725	1.904	1.899	1.895	1.914	1.909	1.909
0.000	-0.005	0.000	0.000	0.005	-0.020	0.029	2.656	1.904	1.899	1.895	1.914	1.909	1.904
0.005	-0.005	0.000	0.005	-0.005	-0.024	0.029	2.651	1.899	1.904	1.895	1.914	1.909	1.904
0.005	0.010	0.000	0.000	-0.005	-0.005	0.029	2.754	1.909	1.904	1.904	1.914	1.909	1.909
-0.005	0.005	0.000	0.000	0.000	-0.010	0.029	2.715	1.904	1.904	1.899	1.914	1.909	1.909
0.010	0.000	0.000	0.000	0.005	-0.010	0.029	2.676	1.904	1.904	1.899	1.919	1.909	1.909
0.010	0.024	0.000	0.000	0.005	-0.005	0.029	2.671	1.904	1.909	1.904	1.919	1.909	1.914
0.010	0.024	0.005	0.000	0.000	-0.010	0.029	2.744	1.909	1.904	1.904	1.919	1.909	1.914
0.005	0.010	0.005	0.000	0.000	0.005	0.029	2.700	1.909	1.904	1.899	1.919	1.909	1.914
0.010	0.010	0.005	0.000	0.000	0.020	0.029	2.661	1.904	1.899	1.899	1.919	1.914	1.919
0.000	0.010	0.000	0.000	0.000	0.020	0.029	2.671	1.899	1.899	1.899	1.919	1.914	1.914
0.000	0.010	-0.005	0.000	-0.005	0.010	0.029	2.739	1.909	1.899	1.899	1.919	1.914	1.914
-0.005	0.010	-0.005	0.000	0.005	0.010	0.029	2.690	1.904	1.904	1.899	1.919	1.914	1.914
-0.010	0.005	-0.005	0.000	0.000	-0.005	0.029	2.700	1.904	1.904	1.899	1.914	1.914	1.909
-0.015	0.010	-0.005	0.000	0.005	0.005	0.029	2.681	1.899	1.899	1.899	1.914	1.914	1.914
-0.005	0.005	-0.005	0.005	0.005	0.010	0.029	2.686	1.904	1.899	1.899	1.919	1.914	1.914
0.000	0.005	0.000	0.000	0.005	-0.020	0.024	2.710	1.904	1.904	1.899	1.919	1.914	1.909
0.005	0.000	0.000	0.000	0.005	0.015	0.029	2.671	1.899	1.899	1.899	1.919	1.914	1.919
0.005	-0.005	0.000	0.000	0.000	-0.010	0.029	2.671	1.904	1.899	1.899	1.919	1.914	1.914
-0.005	-0.010	-0.005	0.005	0.000	0.010	0.029	2.705	1.904	1.899	1.899	1.919	1.914	1.919
0.010	-0.010	0.000	0.005	-0.005	0.005	0.029	2.695	1.909	1.904	1.899	1.919	1.914	1.919
0.020	-0.010	0.005	0.005	0.005	0.005	0.024	2.695	1.909	1.904	1.899	1.919	1.914	1.914
0.010	0.000	0.005	0.000	0.005	0.000	0.029	2.681	1.909	1.904	1.899	1.919	1.914	1.914
0.010	-0.010	0.005	-0.005	0.005	0.005	0.029	2.705	1.909	1.904	1.899	1.919	1.914	1.914
0.005	-0.005	0.005	0.005	0.000	-0.005	0.029	2.686	1.909	1.904	1.899	1.919	1.914	1.914
0.010	0.000	0.005	0.005	0.005	0.005	0.029	2.705	1.909	1.909	1.899	1.919	1.914	1.914
0.000	-0.010	0.005	0.000	-0.005	0.005	0.029	2.681	1.904	1.899	1.899	1.919	1.909	1.914
-0.005	0.000	0.000	-0.005	0.005	0.000	0.029	2.671	1.904	1.904	1.899	1.919	1.914	1.909
-0.005	0.005	0.000	-0.005	-0.005	0.005	0.029	2.700	1.904	1.899	1.904	1.919	1.909	1.914
0.005	0.010	-0.005	0.000	0.005	-0.020	0.029	2.661	1.904	1.904	1.899	1.919	1.909	1.909
-0.005	0.005	0.000	0.005	0.005	0.010	0.029	2.700	1.899	1.899	1.904	1.919	1.914	1.914
-0.005	-0.005	0.000	0.005	0.000	0.005	0.029	2.700	1.904	1.899	1.899	1.919	1.914	1.914
0.000	0.000	0.000	0.000	-0.005	0.000	0.029	2.695	1.909	1.904	1.899	1.919	1.914	1.914
0.000	-0.005	0.000	0.000	0.000	0.000	0.029	2.710	1.909	1.904	1.899	1.919	1.914	1.914
-0.010	0.000	0.000	0.000	0.000	0.000	0.029	2.690	1.904	1.904	1.899	1.919	1.914	1.914
-0.005	0.000	0.005	0.000	0.000	-0.015	0.029	2.598	1.899	1.899	1.904	1.919	1.914	1.909
0.005	-0.005	0.005	0.005	0.005	0.000	0.029	2.637	1.895	1.899	1.899	1.919	1.919	1.914
0.015	-0.010	0.005	0.005	0.000	-0.010	0.029	2.651	1.909	1.899	1.899	1.919	1.914	1.909
0.010	-0.005	0.010	0.000	0.000	-0.005	0.029	2.666	1.899	1.899	1.899	1.919	1.914	1.914
0.000	-0.005	0.005	0.005	-0.005	0.015	0.029	2.646	1.895	1.899	1.899	1.914	1.914	1.919
0.005	0.010	0.005	0.000	0.000	0.020	0.029	2.622	1.890	1.899	1.899	1.919	1.914	1.919
0.000	-0.015	0.010	0.000	0.005	0.005	0.029	2.627	1.885	1.890	1.895	1.914	1.914	1.914
0.015	-0.010	0.005	0.000	0.000	0.000	0.029	2.749	1.904	1.895	1.895	1.914	1.914	1.914
-0.005	0.005	0.000	0.000	0.000	0.000	0.029	2.686	1.895	1.899	1.895	1.914	1.914	1.914
-0.005	0.000	0.005	0.000	0.000	-0.005	0.029	2.720	1.899	1.899	1.895	1.914	1.909	1.909
-0.005	0.010	-0.005	0.005	0.000	0.000	0.029	2.749	1.895	1.899	1.890	1.914	1.909	1.914
-0.010	0.000	-0.005	0.005	-0.005	0.005	0.029	2.671	1.899	1.899	1.895	1.914	1.909	1.914
-0.015	0.024	0.000	0.000	0.000	-0.005	0.024	2.754	1.909	1.904	1.899	1.914	1.909	1.909
-0.010	0.020	0.000	0.000	0.000	0.000	0.029	2.686	1.909	1.904	1.899	1.914	1.909	1.909
-0.005	0.015	0.000	-0.005	0.005	0.005	0.029	2.749	1.914	1.904	1.899	1.914	1.909	1.909
0.000	0.010	0.000	0.000	0.000	-0.015	0.029	2.661	1.909	1.904	1.899	1.914	1.909	1.904
0.000	0.010	-0.005	0.000	0.005	-0.010	0.029	2.710	1.909	1.904	1.899	1.919	1.914	1.909
-0.005	0.005	0.005	0.000	0.005	-0.010	0.029	2.690	1.904	1.904	1.904	1.919	1.914	1.914
0.010	-0.010	0.005	0.000	0.005	0.010	0.029	2.705	1.909	1.904	1.904	1.919	1.914	1.919
0.010	-0.020	0.010	0.000	0.005	0.005	0.029	2.676	1.904	1.899	1.899	1.919	1.914	1.914
0.005	-0.015	0.000	0.000	0.000	0.005	0.029	2.676	1.904	1.904	1.899	1.919	1.914	1.909
0.005	-0.010	0.005	0.000	-0.005	0.005	0.029	2.700	1.904	1.904	1.899	1.919	1.909	1.909
0.015	-0.010	0.000	0.000	0.005	0.005	0.024	2.676	1.904	1.904	1.899	1.919	1.914	1.914
0.005	0.000	0.000	0.005	0.000	-0.005	0.029	2.671	1.899	1.904	1.899	1.919	1.914	1.914
0.000	-0.005	0.000	0.000	0.005	-0.005	0.029	2.661	1.899	1.899	1.899	1.914	1.914	1.914
0.000	-0.005	0.000	0.000	-0.005	0.000	0.029	2.695	1.904	1.899	1.895	1.919	1.914	1.909
-0.005	0.000	-0.005	0.005	0.000	-0.005	0.029	2.705	1.904	1.899	1.895	1.914	1.914	1.909
-0.010	0.000	0.000	0.000	0.000	0.005	0.029	2.671	1.899	1.899	1.899	1.919	1.914	1.914
-0.015	0.000	0.000	0.000	-0.005	0.000	0.029	2.710	1.909	1.899	1.899	1.919	1.914	1.909
-0.010	0.015	0.000	0.000	-0.005	0.000	0.029	2.700	1.904	1.904	1.904	1.919	1.914	1.914
-0.005	0.015	-0.005	0.000	0.010	0.000	0.029	2.710	1.909	1.909	1.904	1.919	1.914	1.914
-0.005	0.010	-0.005	0.000	0.000	0.005	0.029	2.681	1.904	1.904	1.904	1.919	1.914	1.919
-0.005	0.005	0.000	0.000	0.000	0.005	0.029	2.666	1.904	1.904	1.904	1.919	1.914	1.914
0.000	0.000	0.000	0.000	0.005	0.005	0.029	2.695	1.904	1.899	1.904	1.919	1.914	1.914
0.000	-0.005	0.000	0.000	0.000	0.005	0.029	2.695	1.904	1.904	1.899	1.919	1.914	1.914
0.005	-0.010	0.005	0.005	0.000	0.005	0.029	2.710	1.909	1.899	1.904	1.919	1.914	1.914
-0.005	0.015	0.005	0.000	0.005	0.000	0.029	2.710	1.909	1.904	1.904	1.919	1.914	1.909
0.015	-0.005	0.005	0.000	0.005	-0.010	0.029	2.676	1.909	1.904	1.904	1.919	1.914	1.914
0.015	0.000	0.005	0.000	0.005	0.000	0.029	2.705	1.909	1.904	1.904	1.919	1.914	1.914
0.010	0.005	0.000	0.000	0.005	0.000	0.029	2.681	1.904	1.899	1.899	1.919	1.914	1.914
0.000	-0.005	0.005	-0.005	-0.005	0.015	0.029	2.607	1.895	1.899	1.899	1.919	1.909	1.919
0.005	0.000	0.000	0.000	-0.005	0.010	0.029	2.651	1.895	1.899	1.899	1.919	1.914	1.914
0.005	0.005	0.000	0.000	0.000	0.005	0.024	2.671	1.895	1.899	1.899	1.919	1.914	1.909
-0.005	0.020	0.000	0.005	0.005	0.005	0.024	2.666	1.895	1.899	1.899	1.919	1.914	1.914
-0.005	0.005	0.000	0.005	0.000	0.005	0.029	2.651	1.890	1.895	1.895	1.919	1.914	1.914
-0.005	0.005	-0.005	0.000	0.000	0.000	0.029	2.690	1.890	1.890	1.890	1.914	1.914	1.914
0.000	0.015	0.000	0.000	0.000	-0.005	0.024	2.656	1.890	1.895	1.895	1.914	1.909	1.909
-0.005	0.015	0.000	0.000	0.000	0.005	0.029	2.646	1.890	1.895	1.895	1.914	1.914	1.914
-0.010	0.005	-0.005	0.000	0.005	0.000	0.029	2.739	1.904	1.890	1.895	1.914	1.909	1.914
-0.005	0.005	0.000	0.005	0.005	0.005	0.029	2.622	1.895	1.895	1.895	1.914	1.909	1.914
0.000	0.000	0.000	0.005	0.000	-0.015	0.029	2.710	1.904	1.890	1.895	1.914	1.909	1.909
0.000	-0.005	0.010	0.000	0.005	-0.010	0.029	2.637	1.895	1.890	1.895	1.909	1.909	1.909
0.005	0.000	0.005	0.000	0.005	-0.015	0.029	2.739	1.904	1.895	1.890	1.909	1.909	1.909
0.015	-0.010	0.000	-0.005	0.000	0.005	0.029	2.690	1.904	1.895	1.895	1.909	1.909	1.914
0.010	0.000	0.005	0.005	0.005	-0.005	0.029	2.651	1.904	1.899	1.895	1.914	1.909	1.909
0.015	-0.005	0.005	0.010	0.005	-0.015	0.029	2.671	1.904	1.899	1.890	1.914	1.909	1.904
0.000	-0.005	0.005	0.000	0.000	-0.015	0.029	2.749	1.904	1.899	1.895	1.909	1.904	1.904
0.005	0.005	0.005	0.000	0.005	0.015	0.029	2.705	1.904	1.904	1.895	1.914	1.909	1.914
0.005	0.000	0.000	0.000	0.000	0.005	0.029	2.705	1.904	1.899	1.895	1.914	1.904	1.909
-0.005	0.005	-0.005	0.000	0.000	0.010	0.029	2.676	1.904	1.904	1.895	1.914	1.904	1.909
-0.005	-0.005	-0.005	0.000	0.000	0.005	0.029	2.710	1.909	1.899	1.899	1.914	1.909	1.909
0.005	0.000	0.000	0.000	0.000	0.015	0.029	2.705	1.909	1.904	1.899	1.914	1.909	1.909
-0.010	-0.005	0.005	0.000	0.000	-0.005	0.029	2.681	1.904	1.904	1.899	1.914	1.909	1.909
-0.010	0.000	-0.005	0.000	0.000	0.005	0.029	2.676	1.899	1.899	1.899	1.919	1.909	1.909
-0.010	0.005	0.000	0.000	-0.005	0.005	0.029	2.681	1.904	1.904	1.899	1.919	1.909	1.909
-0.010	0.005	-0.005	0.000	-0.005	0.005	0.029	2.661	1.899	1.899	1.899	1.919	1.909	1.909
-0.005	-0.005	0.000	0.000	0.000	-0.015	0.029	2.656	1.899	1.899	1.899	1.914	1.914	1.904
-0.005	-0.010	0.000	-0.005	0.000	0.010	0.029	2.666	1.895	1.895	1.895	1.914	1.909	1.914
0.005	-0.005	0.005	0.000	0.005	-0.010	0.024	2.695	1.899	1.895	1.899	1.914	1.909	1.909
0.005	-0.005	0.005	0.000	0.000	-0.015	0.029	2.705	1.904	1.899	1.895	1.919	1.909	1.909
0.020	-0.005	0.005	0.000	0.000	0.000	0.029	2.681	1.904	1.899	1.899	1.914	1.909	1.909
0.010	0.000	0.005	0.000	0.000	0.000	0.029	2.671	1.904	1.899	1.895	1.919	1.909	1.909
0.015	-0.015	0.005	0.005	0.005	-0.005	0.029	2.671	1.895	1.895	1.895	1.914	1.914	1.909
0.005	0.000	0.010	0.000	0.000	0.005	0.029	2.671	1.895	1.899	1.899	1.914	1.909	1.914
0.000	0.000	0.000	0.005	-0.005	0.000	0.029	2.700	1.899	1.899	1.895	1.914	1.909	1.914
0.000	0.005	0.005	0.000	0.005	0.010	0.029	2.671	1.899	1.899	1.895	1.914	1.909	1.909
0.000	0.010	0.000	0.000	-0.005	-0.005	0.029	2.676	1.899	1.899	1.895	1.914	1.909	1.909
-0.005	0.010	-0.005	0.000	0.000	0.005	0.029	2.676	1.895	1.899	1.895	1.914	1.909	1.909
-0.005	0.010	0.000	0.000	0.005	0.010	0.029	2.705	1.899	1.899	1.895	1.914	1.909	1.914
-0.005	0.000	0.005	0.005	-0.010	0.010	0.029	2.686	1.904	1.899	1.895	1.914	1.909	1.914
-0.010	0.005	-0.005	0.000	0.005	0.000	0.029	2.656	1.899	1.899	1.895	1.914	1.914	1.909
-0.005	0.015	-0.005	0.000	0.005	0.020	0.029	2.646	1.899	1.899	1.895	1.914	1.909	1.914
-0.005	-0.005	0.000	0.000	0.000	0.015	0.029	2.642	1.914	1.899	1.899	1.914	1.909	1.914
-0.005	-0.005	0.000	0.000	0.000	-0.005	0.029	2.661	1.904	1.899	1.899	1.914	1.909	1.909
-0.010	-0.005	0.005	0.000	0.000	0.015	0.029	2.632	1.895	1.899	1.899	1.914	1.909	1.914
0.010	-0.015	0.005	0.005	0.000	0.005	0.029	2.729	1.904	1.899	1.899	1.914	1.909	1.909
0.005	-0.010	0.010	0.005	0.010	-0.005	0.029	2.651	1.899	1.899	1.899	1.914	1.909	1.909
0.000	-0.005	0.000	0.005	0.005	-0.010	0.029	2.651	1.895	1.895	1.895	1.914	1.909	1.909
0.010	-0.005	0.000	0.000	0.000	-0.024	0.024	2.749	1.904	1.899	1.895	1.914	1.909	1.899
0.015	0.000	0.005	0.005	0.000	-0.010	0.029	2.617	1.895	1.904	1.895	1.914	1.909	1.909
0.000	0.005	0.005	0.000	0.005	-0.005	0.029	2.754	1.904	1.904	1.899	1.914	1.909	1.909
-0.005	0.005	0.005	0.000	-0.005	-0.034	0.029	2.671	1.899	1.899	1.899	1.914	1.904	1.899
-0.005	0.010	0.000	0.005	-0.010	-0.005	0.029	2.749	1.909	1.904	1.895	1.914	1.909	1.914
-0.005	0.010	0.000	-0.005	-0.010	0.005	0.029	2.661	1.904	1.904	1.899	1.914	1.909	1.914
-0.010	0.000	0.000	0.005	-0.005	0.015	0.029	2.642	1.909	1.899	1.899	1.919	1.914	1.914
-0.005	0.005	0.000	0.005	0.000	0.000	0.029	2.710	1.909	1.904	1.899	1.914	1.914	1.909
-0.005	0.000	-0.005	0.000	0.010	0.015	0.029	2.744	1.914	1.904	1.899	1.919	1.919	1.919
-0.010	0.015	-0.010	0.000	0.005	0.010	0.029	2.700	1.909	1.904	1.899	1.919	1.914	1.914
-0.005	0.010	-0.005	0.000	0.000	0.010	0.029	2.705	1.914	1.909	1.904	1.919	1.914	1.914
0.005	0.005	0.000	0.005	-0.005	0.010	0.029	2.671	1.909	1.909	1.904	1.919	1.914	1.914
0.010	0.005	0.005	0.005	0.005	-0.005	0.029	2.661	1.904	1.904	1.909	1.924	1.914	1.909
0.010	-0.015	0.005	0.000	0.005	0.005	0.029	2.705	1.909	1.899	1.904	1.919	1.914	1.914
0.005	-0.005	0.010	0.000	0.005	0.010	0.029	2.661	1.899	1.904	1.904	1.919	1.914	1.919
0.010	-0.005	0.005	0.000	0.005	0.010	0.029	2.666	1.899	1.899	1.904	1.919	1.914	1.919
0.005	0.005	0.005	0.000	0.005	0.020	0.024	2.676	1.899	1.899	1.899	1.924	1.919	1.919
0.015	0.000	0.005	0.000	0.005	0.015	0.029	2.695	1.904	1.899	1.899	1.919	1.914	1.914
0.010	0.000	0.005	0.010	0.000	0.005	0.029	2.695	1.904	1.899	1.899	1.919	1.914	1.914
0.010	0.010	0.000	0.005	0.000	0.000	0.029	2.671	1.899	1.899	1.899	1.919	1.914	1.914
-0.005	0.005	0.000	-0.005	0.000	0.000	0.029	2.710	1.899	1.899	1.899	1.919	1.914	1.909
0.000	0.005	0.000	0.000	0.005	-0.020	0.029	2.695	1.904	1.899	1.895	1.919	1.914	1.909
-0.005	0.000	0.000	0.000	-0.005	-0.015	0.029	2.661	1.899	1.899	1.899	1.914	1.909	1.909
-0.010	0.005	-0.005	0.000	-0.005	0.000	0.029	2.676	1.899	1.899	1.899	1.919	1.909	1.914
0.000	0.010	-0.005	-0.005	0.005	-0.005	0.024	2.666	1.899	1.899	1.899	1.914	1.914	1.914
-0.005	0.010	-0.005	0.005	0.000	0.010	0.024	2.690	1.899	1.904	1.899	1.914	1.914	1.914
0.000	0.000	-0.005	0.000	-0.005	0.000	0.029	2.690	1.904	1.899	1.899	1.914	1.909	1.914
-0.010	0.010	-0.005	-0.005	0.000	0.010	0.029	2.710	1.909	1.899	1.895	1.919	1.909	1.914
0.005	0.000	0.005	0.000	0.005	0.005	0.029	2.705	1.909	1.904	1.899	1.919	1.914	1.914
0.015	-0.005	0.005	0.000	0.005	0.010	0.024	2.686	1.909	1.904	1.899	1.919	1.914	1.914
0.005	-0.005	0.000	0.000	0.005	-0.010	0.024	2.676	1.904	1.899	1.899	1.919	1.914	1.909
0.005	-0.029	0.005	0.000	0.005	-0.005	0.029	2.690	1.904	1.895	1.899	1.919	1.914	1.909
0.010	-0.010	0.005	0.000	0.005	0.010	0.029	2.651	1.904	1.904	1.899	1.919	1.909	1.914
0.005	-0.020	0.005	0.000	0.005	0.005	0.029	2.627	1.895	1.899	1.899	1.914	1.909	1.914
0.010	0.000	0.005	0.005	0.000	-0.020	0.029	2.656	1.909	1.904	1.899	1.919	1.909	1.909
0.000	0.000	0.005	0.000	-0.005	0.005	0.029	2.666	1.904	1.904	1.899	1.914	1.909	1.914
0.005	0.005	0.005	0.005	-0.005	0.000	0.029	2.637	1.895	1.899	1.899	1.919	1.909	1.914
0.005	-0.005	0.005	0.005	0.000	-0.005	0.024	2.739	1.895	1.899	1.899	1.919	1.914	1.909
0.005	0.015	0.000	0.000	0.000	0.015	0.029	2.646	1.890	1.904	1.899	1.914	1.914	1.919
-0.020	0.020	0.000	0.000	0.005	0.005	0.029	2.710	1.885	1.895	1.895	1.914	1.914	1.914
-0.015	0.024	-0.005	0.005	0.005	0.005	0.029	2.666	1.890	1.895	1.895	1.914	1.914	1.914
-0.005	0.005	0.000	0.005	0.005	-0.005	0.029	2.646	1.885	1.885	1.895	1.914	1.914	1.909
-0.010	0.000	-0.005	0.000	0.005	0.000	0.029	2.754	1.895	1.890	1.890	1.914	1.909	1.909
-0.010	-0.005	0.000	0.000	0.005	0.000	0.029	2.642	1.895	1.890	1.890	1.914	1.909	1.909
-0.010	0.005	0.005	0.000	0.010	0.000	0.029	2.651	1.895	1.895	1.890	1.914	1.914	1.909
0.000	0.000	-0.005	0.000	0.005	0.010	0.029	2.666	1.899	1.895	1.890	1.914	1.909	1.914
0.005	-0.010	0.005	0.000	-0.005	0.000	0.029	2.754	1.909	1.895	1.890	1.909	1.904	1.909
0.005	-0.010	0.005	0.000	0.000	-0.020	0.029	2.725	1.909	1.895	1.890	1.909	1.909	1.904
0.005	-0.005	0.005	0.000	0.000	0.005	0.024	2.710	1.904	1.904	1.895	1.909	1.904	1.909
0.010	0.005	0.000	0.000	0.005	-0.005	0.029	2.690	1.904	1.904	1.895	1.909	1.904	1.909
0.010	0.005	0.005	0.000	0.005	0.005	0.029	2.700	1.909	1.904	1.895	1.909	1.904	1.909
0.010	-0.005	0.005	0.010	-0.005	-0.015	0.029	2.666	1.904	1.899	1.899	1.914	1.904	1.904
0.005	0.000	0.000	0.005	-0.005	0.015	0.029	2.666	1.899	1.899	1.899	1.914	1.904	1.914
-0.005	0.000	-0.005	0.005	-0.010	0.010	0.024	2.700	1.899	1.899	1.899	1.914	1.904	1.909
0.010	-0.005	0.005	0.005	-0.010	0.005	0.029	2.676	1.904	1.899	1.899	1.914	1.909	1.909
-0.005	0.010	0.000	0.005	-0.005	0.000	0.029	2.666	1.895	1.904	1.899	1.914	1.909	1.909
-0.005	0.005	-0.005	0.000	0.005	-0.010	0.029	2.666	1.904	1.899	1.899	1.914	1.909	1.909
-0.005	0.015	0.000	0.000	-0.005	-0.005	0.029	2.705	1.904	1.904	1.899	1.914	1.909	1.909
-0.010	0.010	0.000	0.000	-0.005	-0.005	0.029	2.710	1.904	1.904	1.899	1.914	1.909	1.909
-0.005	0.005	-0.005	0.000	0.005	0.000	0.029	2.671	1.899	1.904	1.899	1.914	1.914	1.914
-0.010	0.010	0.000	0.005	0.005	0.005	0.024	2.705	1.904	1.904	1.904	1.919	1.914	1.909
0.000	0.005	0.000	0.000	0.005	0.010	0.029	2.695	1.909	1.899	1.904	1.919	1.914	1.914
0.000	-0.010	0.005	0.000	0.005	-0.005	0.029	2.671	1.904	1.899	1.899	1.919	1.914	1.909
0.005	-0.005	0.005	0.000	0.010	0.010	0.029	2.671	1.904	1.899	1.899	1.919	1.914	1.919
0.005	-0.010	0.005	0.000	0.005	0.010	0.029	2.676	1.899	1.899	1.899	1.919	1.914	1.914
0.015	-0.015	0.005	0.000	0.010	0.010	0.024	2.695	1.904	1.899	1.899	1.914	1.914	1.914
0.010	-0.010	0.005	0.005	0.005	0.010	0.029	2.695	1.895	1.899	1.895	1.914	1.909	1.914
0.005	0.000	0.010	0.005	0.005	0.000	0.029	2.705	1.899	1.899	1.899	1.919	1.914	1.909
0.005	0.000	0.000	0.000	0.000	0.000	0.024	2.700	1.899	1.899	1.895	1.914	1.909	1.909
0.005	0.005	0.000	0.005	0.000	-0.015	0.029	2.666	1.899	1.899	1.899	1.914	1.909	1.909
0.005	0.005	0.000	-0.005	0.010	0.000	0.029	2.700	1.899	1.895	1.895	1.914	1.909	1.909
0.000	0.029	0.000	0.000	-0.005	-0.015	0.029	2.690	1.904	1.909	1.895	1.914	1.909	1.909
-0.010	0.024	-0.005	0.000	0.000	-0.005	0.029	2.695	1.899	1.899	1.899	1.914	1.909	1.914
0.000	0.015	-0.005	0.000	0.000	0.005	0.029	2.651	1.899	1.899	1.895	1.914	1.914	1.914
0.000	0.010	-0.005	0.000	0.005	0.010	0.029	2.651	1.909	1.904	1.899	1.914	1.914	1.914
-0.010	0.005	0.000	-0.005	0.000	0.000	0.029	2.666	1.899	1.899	1.899	1.914	1.909	1.914
0.000	0.005	-0.005	0.000	0.010	0.020	0.029	2.637	1.899	1.899	1.895	1.914	1.914	1.919
-0.005	0.005	0.000	0.000	0.005	0.015	0.029	2.734	1.909	1.899	1.899	1.914	1.909	1.919
0.005	-0.005	0.000	0.000	0.010	0.005	0.029	2.627	1.904	1.899	1.899	1.914	1.914	1.914
-0.005	-0.005	0.000	0.000	0.015	0.000	0.024	2.661	1.899	1.895	1.899	1.914	1.914	1.914
0.000	-0.020	0.005	0.005	0.015	0.000	0.029	2.656	1.895	1.890	1.895	1.919	1.914	1.914
0.010	-0.024	0.005	0.005	0.005	0.000	0.029	2.651	1.904	1.895	1.890	1.914	1.909	1.909
0.010	-0.024	0.010	-0.005	-0.015	-0.024	0.029	2.661	1.904	1.895	1.895	1.914	1.899	1.904
0.005	-0.010	0.005	0.000	-0.024	-0.024	0.024	2.681	1.904	1.899	1.895	1.914	1.899	1.899
0.010	-0.015	0.005	0.000	-0.024	-0.039	0.029	2.656	1.899	1.899	1.895	1.914	1.904	1.899
0.005	-0.010	0.005	0.000	-0.020	0.000	0.024	2.695	1.899	1.899	1.895	1.914	1.904	1.909
-0.005	0.000	0.000	0.000	-0.049	-0.010	0.029	2.651	1.895	1.899	1.895	1.914	1.899	1.904
0.005	0.010	0.000	0.000	-0.039	-0.020	0.029	2.729	1.895	1.899	1.895	1.914	1.904	1.899
0.000	0.005	0.000	0.000	-0.029	0.010	0.029	2.720	1.895	1.895	1.895	1.914	1.909	1.914
0.000	0.010	-0.005	0.000	-0.005	0.005	0.024	2.705	1.899	1.899	1.895	1.914	1.914	1.914
-0.010	0.015	0.005	0.000	0.024	0.010	0.024	2.710	1.904	1.899	1.899	1.914	1.924	1.919
-0.005	0.020	-0.005	0.000	0.044	0.005	0.029	2.671	1.904	1.899	1.899	1.919	1.929	1.919
-0.010	0.010	0.005	0.000	0.054	0.024	0.029	2.671	1.899	1.899	1.899	1.919	1.924	1.924
-0.010	-0.010	-0.005	0.000	0.034	0.015	0.029	2.695	1.904	1.895	1.895	1.914	1.914	1.924
-0.010	-0.010	0.005	0.000	0.029	0.005	0.029	2.681	1.909	1.899	1.899	1.914	1.914	1.919
0.000	0.005	0.005	0.005	0.020	0.015	0.029	2.671	1.904	1.904	1.899	1.919	1.909	1.919
0.005	-0.005	0.005	0.000	0.010	0.010	0.029	2.676	1.904	1.899	1.895	1.919	1.909	1.914
0.010	0.005	0.005	0.005	0.005	0.010	0.029	2.700	1.909	1.904	1.899	1.919	1.909	1.909
0.005	0.000	0.005	0.000	0.000	0.000	0.029	2.705	1.914	1.904	1.899	1.914	1.904	1.909
0.010	0.000	0.000	0.005	0.000	0.005	0.029	2.671	1.904	1.904	1.899	1.919	1.909	1.909
0.000	0.005	0.000	0.005	0.000	0.005	0.029	2.700	1.904	1.899	1.899	1.914	1.909	1.909
-0.005	0.000	0.010	0.000	0.000	0.000	0.029	2.700	1.904	1.904	1.899	1.914	1.909	1.909
-0.005	0.000	0.005	0.000	-0.010	-0.005	0.029	2.671	1.899	1.899	1.899	1.914	1.909	1.909
0.005	0.005	-0.005	0.000	-0.024	-0.005	0.029	2.671	1.904	1.899	1.899	1.914	1.904	1.904
0.000	0.000	0.000	0.005	-0.049	-0.005	0.029	2.661	1.895	1.899	1.899	1.914	1.899	1.904
0.005	0.000	-0.005	0.005	-0.024	-0.005	0.029	2.676	1.895	1.899	1.895	1.914	1.909	1.904
-0.010	0.010	0.000	0.000	-0.020	-0.005	0.029	2.666	1.895	1.899	1.895	1.914	1.909	1.904
-0.015	0.005	-0.005	0.000	-0.039	-0.005	0.029	2.700	1.895	1.899	1.895	1.914	1.904	1.909
-0.015	0.005	-0.005	0.000	-0.034	-0.010	0.029	2.705	1.899	1.895	1.895	1.914	1.909	1.904
-0.015	-0.005	-0.005	0.000	-0.034	0.005	0.029	2.681	1.899	1.895	1.895	1.914	1.909	1.914
-0.005	0.020	0.000	0.000	-0.020	-0.024	0.024	2.671	1.904	1.904	1.899	1.919	1.914	1.909
0.005	0.010	0.000	-0.005	0.039	0.020	0.029	2.690	1.904	1.899	1.899	1.919	1.929	1.929
-0.005	0.024	0.005	-0.005	0.098	0.020	0.024	2.607	1.895	1.899	1.899	1.919	1.938	1.929
0.010	-0.005	0.005	0.000	0.107	0.020	0.029	2.651	1.895	1.895	1.899	1.919	1.938	1.934
0.010	-0.005	0.005	0.000	0.073	0.020	0.024	2.646	1.895	1.890	1.895	1.914	1.919	1.929
0.005	-0.010	0.005	0.000	0.024	0.015	0.029	2.661	1.890	1.890	1.890	1.914	1.904	1.919
0.005	0.000	0.005	0.000	-0.005	0.010	0.024	2.637	1.890	1.890	1.895	1.909	1.895	1.914
0.010	-0.010	0.000	0.000	-0.015	-0.005	0.024	2.627	1.890	1.890	1.890	1.909	1.895	1.904
0.015	-0.005	0.000	0.000	0.000	0.010	0.029	2.651	1.890	1.890	1.890	1.909	1.904	1.909
0.005	-0.005	0.000	0.000	-0.005	0.000	0.029	2.754	1.899	1.895	1.885	1.909	1.899	1.904
0.000	0.000	-0.005	0.005	0.000	-0.010	0.029	2.666	1.899	1.895	1.890	1.909	1.904	1.899
0.010	0.000	0.000	0.005	-0.010	-0.010	0.029	2.622	1.895	1.895	1.890	1.904	1.899	1.899
0.000	-0.005	0.000	0.000	-0.015	-0.005	0.029	2.754	1.904	1.895	1.890	1.904	1.904	1.899
-0.005	-0.005	-0.005	0.000	-0.010	0.000	0.024	2.676	1.899	1.895	1.890	1.904	1.904	1.899
-0.010	-0.005	0.005	0.005	0.000	-0.010	0.029	2.637	1.895	1.895	1.895	1.909	1.904	1.904
-0.005	0.005	-0.005	0.000	0.000	-0.005	0.029	2.661	1.895	1.899	1.895	1.909	1.904	1.904
-0.015	0.000	0.000	0.000	-0.005	0.000	0.029	2.734	1.899	1.899	1.895	1.909	1.909	1.909
0.000	0.005	-0.005	0.000	-0.005	0.005	0.029	2.705	1.904	1.899	1.895	1.909	1.909	1.909
0.010	-0.005	0.000	0.000	-0.005	0.005	0.029	2.715	1.909	1.899	1.895	1.914	1.909	1.904
0.000	-0.010	0.000	0.000	-0.005	0.015	0.029	2.695	1.909	1.899	1.895	1.914	1.904	1.909
0.005	-0.005	0.005	0.005	-0.005	0.005	0.029	2.700	1.909	1.899	1.899	1.914	1.909	1.904
0.015	0.000	0.010	0.000	-0.005	0.000	0.029	2.671	1.904	1.899	1.899	1.914	1.904	1.904
0.010	0.005	0.005	0.000	0.000	-0.005	0.029	2.661	1.899	1.904	1.899	1.914	1.909	1.904
0.015	0.000	0.010	0.000	-0.010	-0.020	0.029	2.661	1.899	1.904	1.899	1.914	1.909	1.904
0.015	0.000	0.005	0.000	-0.010	0.010	0.029	2.671	1.895	1.899	1.899	1.914	1.909	1.909
0.010	0.005	0.005	0.000	-0.010	0.010	0.029	2.671	1.895	1.899	1.895	1.914	1.909	1.909
0.000	0.005	0.000	0.000	-0.005	0.005	0.029	2.666	1.890	1.895	1.895	1.914	1.914	1.909
-0.005	0.005	0.000	0.000	-0.005	0.005	0.029	2.705	1.895	1.890	1.895	1.914	1.909	1.909
-0.005	0.015	0.000	0.000	0.000	0.005	0.029	2.715	1.899	1.895	1.895	1.914	1.909	1.909
-0.005	0.010	0.000	0.000	0.005	0.005	0.029	2.671	1.895	1.890	1.895	1.914	1.914	1.909
-0.015	0.015	-0.005	0.000	0.000	0.000	0.029	2.705	1.895	1.895	1.895	1.909	1.909	1.909
-0.005	0.010	0.000	0.005	0.005	0.000	0.029	2.690	1.899	1.895	1.895	1.914	1.909	1.909
0.000	0.005	0.000	0.000	0.005	-0.015	0.029	2.671	1.899	1.895	1.895	1.914	1.909	1.909
-0.010	-0.005	0.000	0.005	0.000	-0.010	0.029	2.671	1.899	1.895	1.895	1.914	1.909	1.909
0.000	0.000	0.000	0.005	0.000	0.015	0.024	2.661	1.899	1.899	1.895	1.914	1.909	1.914
0.000	0.010	0.005	0.000	0.000	0.000	0.029	2.695	1.899	1.899	1.895	1.914	1.909	1.909
0.005	0.005	0.000	0.005	-0.005	0.000	0.029	2.690	1.899	1.895	1.895	1.914	1.909	1.909
0.005	0.000	0.005	0.000	-0.005	0.000	0.029	2.700	1.899	1.895	1.895	1.914	1.909	1.909
0.010	-0.005	0.000	0.000	0.005	-0.005	0.029	2.700	1.904	1.895	1.895	1.914	1.909	1.909
0.005	-0.010	0.005	0.005	0.010	-0.005	0.029	2.661	1.899	1.895	1.895	1.914	1.909	1.909
0.015	-0.015	0.000	0.005	0.000	0.005	0.029	2.666	1.899	1.895	1.895	1.909	1.904	1.914
0.005	0.000	0.005	0.005	0.005	0.015	0.029	2.690	1.899	1.899	1.895	1.909	1.909	1.909
0.000	0.000	0.005	0.005	-0.005	-0.005	0.024	2.612	1.890	1.895	1.895	1.909	1.904	1.909
0.005	-0.005	0.000	0.000	0.000	0.005	0.029	2.632	1.885	1.890	1.895	1.909	1.904	1.909
-0.005	-0.020	0.000	0.000	0.000	-0.010	0.029	2.651	1.899	1.885	1.890	1.909	1.904	1.904
0.000	-0.005	-0.005	0.000	0.000	0.010	0.029	2.671	1.895	1.890	1.890	1.909	1.909	1.909
-0.010	0.010	-0.005	-0.005	-0.010	-0.005	0.024	2.651	1.890	1.895	1.890	1.909	1.899	1.904
-0.015	0.015	-0.005	0.000	-0.010	0.010	0.029	2.637	1.890	1.895	1.890	1.909	1.904	1.909
-0.005	0.024	0.000	0.000	0.005	0.015	0.029	2.622	1.890	1.895	1.895	1.909	1.909	1.909
0.000	0.029	-0.005	0.000	0.005	0.010	0.029	2.632	1.885	1.895	1.895	1.909	1.909	1.909
-0.010	0.020	0.000	0.000	0.005	0.015	0.029	2.749	1.895	1.895	1.895	1.914	1.909	1.909
-0.005	-0.005	-0.005	0.000	0.020	0.005	0.029	2.749	1.895	1.885	1.895	1.909	1.909	1.909
0.005	0.000	0.005	0.000	0.010	0.000	0.029	2.744	1.909	1.895	1.890	1.909	1.904	1.909
0.005	-0.010	0.000	0.005	0.005	0.005	0.029	2.646	1.899	1.895	1.890	1.909	1.904	1.909
0.000	-0.005	0.005	0.000	-0.005	-0.010	0.029	2.651	1.895	1.895	1.890	1.909	1.904	1.899
0.010	-0.005	0.005	0.000	0.000	-0.005	0.029	2.671	1.899	1.895	1.890	1.909	1.904	1.904
0.005	0.000	0.005	0.000	0.005	-0.015	0.024	2.651	1.890	1.895	1.895	1.909	1.904	1.904
0.015	-0.010	0.005	0.005	0.020	-0.015	0.029	2.817	1.895	1.890	1.890	1.909	1.909	1.904
0.005	-0.010	0.005	0.000	0.015	-0.015	0.029	2.754	1.899	1.890	1.890	1.909	1.904	1.904
0.005	0.005	0.000	0.005	0.005	-0.015	0.029	2.710	1.909	1.899	1.890	1.909	1.909	1.904
0.000	0.000	-0.005	0.005	-0.005	-0.005	0.029	2.700	1.899	1.899	1.890	1.909	1.899	1.909
0.000	0.010	-0.005	0.000	-0.005	-0.005	0.024	2.676	1.899	1.899	1.895	1.909	1.904	1.904
0.000	0.010	0.000	0.000	-0.010	0.010	0.029	2.681	1.899	1.899	1.895	1.909	1.904	1.909
-0.010	0.010	0.000	0.000	-0.010	0.000	0.029	2.695	1.899	1.899	1.895	1.909	1.904	1.909
-0.015	0.015	-0.005	0.000	-0.015	0.010	0.029	2.671	1.899	1.895	1.895	1.914	1.904	1.909
-0.005	0.000	-0.005	0.005	-0.015	0.024	0.029	2.671	1.899	1.895	1.895	1.914	1.904	1.909
0.005	-0.010	0.000	0.000	0.000	0.024	0.029	2.651	1.904	1.895	1.895	1.914	1.909	1.909
-0.010	-0.010	0.000	0.000	-0.005	0.000	0.029	2.690	1.899	1.895	1.895	1.914	1.909	1.904
0.000	-0.010	0.000	0.000	-0.010	0.015	0.029	2.710	1.904	1.895	1.895	1.914	1.904	1.904
0.005	0.000	0.005	0.000	0.000	0.015	0.029	2.666	1.899	1.899	1.895	1.914	1.909	1.909
0.005	0.000	0.005	0.000	0.020	0.010	0.029	2.710	1.899	1.899	1.895	1.914	1.914	1.909
0.000	0.005	0.005	0.000	0.015	0.005	0.029	2.705	1.904	1.904	1.895	1.914	1.914	1.909
0.010	0.005	0.005	0.005	0.015	0.000	0.029	2.666	1.899	1.899	1.899	1.914	1.909	1.904
0.010	-0.010	0.005	0.005	0.005	0.005	0.029	2.676	1.895	1.895	1.895	1.914	1.909	1.904
0.010	0.000	0.005	0.000	0.010	0.000	0.029	2.676	1.899	1.899	1.895	1.914	1.909	1.909
0.005	0.000	0.005	0.005	0.000	0.005	0.029	2.661	1.899	1.899	1.895	1.914	1.909	1.909
0.000	0.000	-0.005	0.005	0.010	-0.020	0.029	2.656	1.895	1.895	1.895	1.914	1.909	1.904
0.000	0.010	-0.005	0.005	0.000	-0.020	0.029	2.710	1.899	1.899	1.895	1.914	1.904	1.904
-0.005	0.000	0.000	0.000	0.005	0.005	0.024	2.710	1.899	1.895	1.895	1.914	1.909	1.914
-0.005	0.005	-0.005	0.000	0.000	-0.005	0.029	2.695	1.904	1.895	1.895	1.909	1.909	1.909
-0.015	0.000	-0.005	0.000	0.000	-0.005	0.029	2.681	1.895	1.895	1.895	1.914	1.909	1.909
0.000	0.005	0.000	0.000	0.005	-0.005	0.029	2.686	1.899	1.899	1.895	1.914	1.909	1.909
-0.015	0.005	-0.005	0.010	0.024	-0.015	0.029	2.651	1.895	1.899	1.895	1.914	1.914	1.909
-0.005	-0.005	0.005	0.005	0.024	0.010	0.029	2.637	1.895	1.895	1.895	1.914	1.914	1.919
-0.005	-0.005	0.000	0.000	0.010	0.015	0.024	2.793	1.909	1.895	1.895	1.914	1.909	1.914
0.000	0.000	0.000	-0.005	0.005	-0.015	0.024	2.671	1.904	1.904	1.895	1.914	1.904	1.904
0.000	0.000	0.005	0.000	-0.005	0.015	0.029	2.646	1.899	1.904	1.895	1.914	1.904	1.914
0.010	-0.005	0.000	0.000	-0.005	0.010	0.029	2.725	1.909	1.899	1.899	1.914	1.904	1.909
0.005	-0.005	0.010	0.000	-0.024	0.005	0.029	2.666	1.904	1.899	1.899	1.914	1.904	1.904
0.020	0.005	0.005	0.000	-0.020	0.000	0.029	2.725	1.904	1.904	1.899	1.914	1.904	1.904
0.015	-0.005	0.005	0.005	-0.020	-0.005	0.029	2.749	1.909	1.904	1.899	1.914	1.904	1.904
0.010	0.005	0.000	0.005	-0.010	0.000	0.029	2.646	1.904	1.904	1.899	1.919	1.909	1.904
0.000	-0.005	0.010	0.000	0.000	-0.005	0.024	2.617	1.899	1.899	1.899	1.919	1.914	1.904
0.000	-0.005	0.010	0.005	0.015	0.005	0.029	2.651	1.890	1.899	1.899	1.914	1.919	1.914
-0.005	0.000	-0.005	0.000	0.020	0.000	0.029	2.720	1.904	1.899	1.895	1.914	1.914	1.914
-0.005	-0.005	0.000	0.000	-0.020	-0.005	0.029	2.700	1.904	1.899	1.895	1.914	1.904	1.904
-0.005	-0.010	0.000	0.000	-0.029	0.010	0.029	2.651	1.914	1.899	1.895	1.914	1.904	1.909
-0.005	0.005	-0.005	0.000	-0.029	0.015	0.029	2.690	1.909	1.904	1.899	1.914	1.904	1.914
0.005	0.000	0.000	0.000	-0.029	0.015	0.029	2.749	1.919	1.909	1.904	1.914	1.904	1.914
0.005	0.005	-0.005	0.000	-0.015	0.005	0.029	2.700	1.914	1.909	1.904	1.919	1.914	1.909
0.000	0.005	0.000	0.000	0.005	0.015	0.029	2.705	1.909	1.909	1.904	1.924	1.919	1.914
-0.005	0.000	-0.005	0.000	0.020	0.000	0.029	2.666	1.904	1.909	1.904	1.924	1.924	1.919
-0.005	0.000	0.000	0.000	0.015	0.005	0.029	2.700	1.909	1.904	1.904	1.924	1.919	1.914
0.010	0.000	0.000	0.005	0.005	-0.020	0.029	2.700	1.909	1.904	1.904	1.924	1.919	1.909
0.000	0.000	0.010	0.000	0.010	0.010	0.029	2.676	1.904	1.904	1.904	1.924	1.919	1.919
0.010	-0.005	0.000	0.000	0.005	0.005	0.029	2.661	1.904	1.904	1.904	1.919	1.914	1.919
0.005	0.005	0.005	0.000	0.005	0.000	0.029	2.671	1.899	1.909	1.904	1.919	1.914	1.914
0.000	0.005	0.005	0.000	0.044	0.000	0.029	2.695	1.904	1.904	1.904	1.924	1.929	1.919
0.005	0.015	0.000	0.000	0.054	-0.005	0.029	2.671	1.899	1.904	1.904	1.919	1.924	1.924
0.010	0.010	0.000	0.000	0.034	0.000	0.029	2.681	1.904	1.904	1.904	1.924	1.914	1.919
-0.005	0.015	0.005	0.005	-0.005	0.000	0.029	2.705	1.904	1.899	1.904	1.919	1.909	1.914
0.005	0.010	0.000	0.000	-0.005	0.010	0.029	2.695	1.904	1.904	1.899	1.919	1.909	1.919
0.000	0.000	0.000	0.000	0.010	0.010	0.024	2.705	1.904	1.899	1.899	1.919	1.914	1.919
-0.005	0.000	-0.005	0.000	0.015	0.010	0.029	2.681	1.899	1.899	1.899	1.919	1.919	1.919
-0.005	0.005	-0.005	0.000	0.000	0.005	0.029	2.700	1.899	1.899	1.899	1.919	1.909	1.914
-0.005	0.005	-0.005	0.000	-0.005	0.000	0.029	2.666	1.899	1.899	1.899	1.919	1.909	1.914
-0.005	0.015	-0.005	-0.005	-0.010	0.005	0.029	2.671	1.899	1.904	1.899	1.919	1.909	1.914
-0.010	0.005	0.000	0.005	-0.010	-0.005	0.029	2.666	1.899	1.899	1.899	1.919	1.914	1.909
0.000	-0.005	0.000	0.000	0.000	0.005	0.029	2.661	1.899	1.895	1.899	1.919	1.914	1.914
0.005	-0.020	0.005	0.000	-0.005	0.005	0.029	2.676	1.904	1.890	1.895	1.919	1.914	1.914
0.000	-0.015	0.010	0.000	-0.005	0.005	0.029	2.710	1.909	1.899	1.895	1.919	1.914	1.914
0.010	-0.015	0.005	0.005	0.044	-0.010	0.024	2.676	1.904	1.899	1.899	1.914	1.929	1.914
0.015	-0.005	0.005	0.000	0.059	0.015	0.029	2.646	1.904	1.899	1.899	1.914	1.924	1.924
0.015	-0.010	0.000	0.000	0.015	-0.005	0.029	2.651	1.899	1.899	1.895	1.914	1.909	1.909
0.010	-0.010	0.005	0.005	0.000	0.000	0.029	2.642	1.890	1.899	1.895	1.914	1.909	1.914
0.010	-0.005	0.000	0.000	0.000	0.005	0.029	2.661	1.895	1.895	1.895	1.914	1.909	1.909
0.005	0.005	0.000	0.000	-0.020	0.005	0.029	2.642	1.895	1.899	1.895	1.914	1.899	1.909
-0.005	0.005	-0.005	0.000	-0.049	0.000	0.029	2.632	1.885	1.895	1.895	1.914	1.895	1.904
0.000	0.015	0.000	0.000	-0.039	0.000	0.029	2.646	1.885	1.899	1.895	1.914	1.904	1.904
0.000	0.020	-0.005	0.005	-0.024	0.005	0.029	2.642	1.895	1.895	1.895	1.914	1.909	1.904
-0.005	0.010	-0.005	-0.005	-0.005	0.005	0.029	2.754	1.904	1.895	1.895	1.914	1.909	1.909
-0.010	0.015	-0.005	0.000	-0.005	0.000	0.024	2.715	1.904	1.899	1.895	1.909	1.914	1.909
0.000	0.005	-0.005	0.005	0.000	-0.010	0.029	2.749	1.914	1.899	1.895	1.914	1.914	1.904
0.000	0.024	0.000	0.005	-0.005	0.005	0.029	2.681	1.909	1.909	1.899	1.914	1.914	1.914
-0.005	0.015	-0.005	0.000	0.000	0.010	0.029	2.734	1.914	1.909	1.904	1.914	1.914	1.914
0.000	0.005	0.000	0.000	-0.005	0.005	0.029	2.690	1.909	1.904	1.904	1.914	1.909	1.914
0.010	-0.005	0.005	0.000	0.000	-0.015	0.029	2.642	1.904	1.904	1.904	1.919	1.914	1.904
0.010	-0.010	0.005	0.005	-0.005	0.005	0.029	2.827	1.904	1.904	1.904	1.919	1.909	1.914
0.000	-0.005	0.005	0.005	0.000	-0.005	0.029	2.710	1.904	1.904	1.904	1.919	1.909	1.909
0.010	-0.010	0.005	0.005	-0.005	-0.005	0.029	2.700	1.909	1.899	1.899	1.919	1.914	1.909
-0.005	-0.005	0.010	0.000	0.000	0.000	0.029	2.705	1.904	1.904	1.899	1.919	1.914	1.909
0.010	-0.010	0.005	0.000	0.000	0.000	0.029	2.671	1.904	1.899	1.899	1.919	1.914	1.914
0.000	-0.005	0.000	0.000	0.015	0.010	0.029	2.661	1.899	1.904	1.899	1.919	1.919	1.919
0.000	0.000	-0.005	0.000	0.020	0.000	0.029	2.681	1.904	1.904	1.899	1.919	1.919	1.914
0.010	0.000	0.000	0.005	0.010	-0.005	0.029	2.671	1.899	1.904	1.904	1.919	1.914	1.909
-0.005	0.000	0.000	0.000	0.000	0.005	0.029	2.671	1.899	1.899	1.899	1.914	1.914	1.914
-0.010	0.010	0.000	0.005	0.010	0.005	0.029	2.671	1.895	1.899	1.899	1.919	1.914	1.914
-0.005	0.005	0.000	0.005	0.005	0.000	0.029	2.700	1.904	1.899	1.899	1.919	1.914	1.914
0.000	0.005	0.000	0.005	0.005	0.005	0.029	2.705	1.899	1.904	1.899	1.919	1.914	1.914
-0.005	-0.005	-0.005	0.000	0.005	0.005	0.029	2.676	1.899	1.895	1.899	1.919	1.914	1.914
-0.020	-0.015	0.000	0.000	0.005	0.005	0.029	2.700	1.904	1.895	1.895	1.919	1.914	1.914
0.000	0.000	0.000	0.000	0.000	-0.005	0.029	2.686	1.909	1.904	1.895	1.919	1.914	1.914
0.005	-0.010	0.000	0.005	0.005	0.015	0.029	2.705	1.904	1.904	1.899	1.919	1.914	1.914
0.005	-0.005	0.005	0.000	0.000	0.015	0.029	2.681	1.904	1.904	1.895	1.919	1.914	1.914
0.000	-0.015	0.005	0.000	0.000	-0.005	0.029	2.661	1.899	1.899	1.895	1.914	1.914	1.909
0.010	-0.020	0.005	0.000	-0.005	0.000	0.029	2.671	1.904	1.899	1.899	1.914	1.909	1.909
0.015	-0.010	0.005	0.005	-0.034	0.010	0.029	2.690	1.904	1.899	1.899	1.914	1.904	1.909
0.010	-0.005	0.005	0.000	-0.020	-0.005	0.029	2.710	1.909	1.904	1.899	1.914	1.909	1.904
0.000	-0.005	0.000	0.005	-0.005	0.010	0.029	2.690	1.909	1.904	1.899	1.914	1.914	1.914
-0.005	0.005	0.005	0.000	0.010	0.005	0.029	2.700	1.904	1.904	1.899	1.914	1.914	1.914
-0.005	0.015	0.005	0.000	0.015	0.000	0.029	2.666	1.899	1.904	1.899	1.919	1.914	1.914
-0.010	-0.005	0.010	0.000	0.010	0.005	0.029	2.686	1.904	1.904	1.899	1.919	1.919	1.914
0.000	0.010	0.000	0.000	0.020	0.010	0.029	2.651	1.904	1.909	1.899	1.919	1.919	1.914
-0.005	0.010	0.000	0.000	0.015	0.005	0.029	2.651	1.895	1.899	1.899	1.919	1.914	1.914
-0.005	0.000	-0.005	0.000	0.015	0.005	0.029	2.656	1.899	1.895	1.899	1.919	1.919	1.914
-0.005	0.000	0.000	0.005	0.000	0.000	0.029	2.661	1.895	1.899	1.899	1.919	1.909	1.914
-0.005	0.005	0.000	0.000	-0.010	-0.010	0.029	2.637	1.895	1.895	1.895	1.919	1.909	1.909
0.010	0.000	0.000	-0.005	-0.020	0.000	0.029	2.637	1.895	1.899	1.895	1.914	1.909	1.909
-0.005	0.005	0.000	0.000	-0.010	-0.005	0.029	2.632	1.890	1.895	1.895	1.914	1.909	1.909
0.010	-0.005	0.000	0.000	0.000	-0.005	0.029	2.637	1.890	1.895	1.895	1.919	1.914	1.909
0.010	0.000	0.005	0.005	0.015	-0.024	0.029	2.656	1.890	1.895	1.895	1.914	1.919	1.909
0.005	0.010	0.010	-0.005	0.024	0.000	0.029	2.617	1.885	1.890	1.890	1.914	1.919	1.919
0.000	0.005	0.005	-0.005	0.005	-0.020	0.029	2.734	1.895	1.890	1.890	1.909	1.909	1.909
0.010	0.000	0.010	0.000	0.010	0.010	0.029	2.671	1.899	1.890	1.890	1.909	1.909	1.919
0.010	0.010	0.005	0.000	0.005	0.015	0.029	2.715	1.904	1.899	1.890	1.909	1.909	1.914
0.000	0.015	0.010	0.000	-0.005	-0.010	0.029	2.695	1.899	1.899	1.895	1.909	1.904	1.904
0.010	0.005	0.005	0.000	-0.010	0.020	0.029	2.744	1.909	1.899	1.895	1.909	1.904	1.914
0.000	0.015	0.000	0.005	0.010	0.000	0.029	2.700	1.909	1.904	1.895	1.909	1.909	1.909
0.000	0.005	-0.010	0.000	0.010	0.000	0.029	2.715	1.904	1.899	1.895	1.909	1.909	1.909
0.005	0.015	-0.005	0.005	0.000	0.000	0.029	2.690	1.904	1.904	1.899	1.909	1.904	1.909
-0.015	0.010	0.000	0.000	-0.010	0.005	0.029	2.710	1.904	1.904	1.899	1.914	1.904	1.909
-0.010	0.020	0.000	0.000	-0.010	-0.020	0.029	2.676	1.904	1.904	1.899	1.914	1.904	1.899
-0.005	0.005	0.000	0.000	-0.005	0.005	0.024	2.671	1.904	1.899	1.899	1.914	1.909	1.909
0.000	0.005	-0.005	0.000	0.005	0.005	0.029	2.676	1.899	1.899	1.899	1.914	1.914	1.909
-0.005	0.000	0.000	0.000	0.010	-0.005	0.029	2.671	1.899	1.895	1.899	1.919	1.914	1.909
-0.015	-0.010	0.005	0.000	0.005	0.010	0.029	2.661	1.895	1.895	1.899	1.914	1.909	1.914
0.005	-0.010	0.005	0.000	-0.005	0.005	0.029	2.666	1.899	1.895	1.895	1.914	1.909	1.909
0.015	-0.010	0.010	0.000	-0.015	0.000	0.029	2.700	1.904	1.899	1.899	1.914	1.909	1.909
0.000	-0.020	0.005	0.000	-0.005	0.000	0.029	2.705	1.899	1.895	1.895	1.914	1.909	1.909
0.010	-0.015	0.010	0.000	0.005	-0.015	0.029	2.671	1.904	1.895	1.895	1.914	1.914	1.909
0.005	-0.020	0.000	0.005	0.015	0.015	0.029	2.700	1.904	1.890	1.895	1.914	1.914	1.919
0.010	-0.010	0.000	0.000	0.015	-0.010	0.029	2.700	1.904	1.899	1.895	1.914	1.914	1.909
0.010	0.000	0.005	0.005	0.020	-0.005	0.029	2.671	1.904	1.899	1.899	1.914	1.914	1.914
0.000	0.005	0.005	0.000	0.010	0.000	0.029	2.666	1.895	1.899	1.895	1.914	1.909	1.914
0.005	0.010	0.000	0.005	0.015	0.005	0.029	2.661	1.895	1.904	1.895	1.914	1.914	1.914
0.000	0.000	0.000	0.005	0.010	0.005	0.029	2.705	1.899	1.899	1.895	1.914	1.909	1.909
-0.005	0.010	0.000	0.000	0.005	0.005	0.029	2.671	1.899	1.904	1.895	1.914	1.909	1.909
-0.015	0.005	0.000	0.000	-0.024	0.020	0.029	2.705	1.899	1.899	1.899	1.914	1.899	1.909
-0.005	0.010	0.000	0.000	-0.039	0.000	0.029	2.720	1.909	1.904	1.895	1.914	1.899	1.904
0.000	0.015	-0.005	0.000	-0.020	0.010	0.029	2.686	1.904	1.904	1.895	1.914	1.909	1.904
-0.005	0.005	0.000	0.000	0.000	0.000	0.029	2.700	1.904	1.899	1.899	1.919	1.914	1.909
-0.005	-0.005	0.000	0.000	0.015	0.010	0.029	2.686	1.899	1.895	1.899	1.914	1.914	1.914
0.005	-0.005	-0.005	0.000	0.005	0.005	0.029	2.637	1.895	1.899	1.899	1.919	1.914	1.914
0.005	-0.020	0.005	0.000	0.010	-0.010	0.029	2.646	1.890	1.895	1.895	1.919	1.914	1.909
0.005	0.000	0.005	0.000	0.024	0.010	0.029	2.651	1.904	1.899	1.895	1.919	1.919	1.919
0.010	-0.005	0.005	0.000	0.024	0.010	0.029	2.671	1.904	1.895	1.895	1.914	1.914	1.919
0.015	-0.010	0.000	0.005	-0.010	0.005	0.029	2.646	1.899	1.899	1.895	1.914	1.904	1.909
0.010	-0.005	0.005	0.010	-0.010	-0.005	0.029	2.632	1.890	1.895	1.895	1.914	1.904	1.909
0.000	0.000	0.000	0.000	-0.005	-0.015	0.024	2.632	1.890	1.895	1.895	1.914	1.904	1.904
-0.005	-0.005	0.005	0.000	-0.005	0.005	0.029	2.715	1.890	1.890	1.895	1.914	1.909	1.909
-0.005	0.005	0.000	-0.005	0.000	-0.005	0.029	2.725	1.904	1.895	1.890	1.909	1.909	1.909
-0.005	-0.005	0.000	0.000	-0.010	-0.020	0.029	2.646	1.909	1.899	1.895	1.909	1.904	1.904
0.000	0.010	-0.005	0.000	-0.015	-0.010	0.029	2.739	1.909	1.904	1.895	1.909	1.904	1.909
-0.005	0.010	-0.005	0.000	-0.015	-0.005	0.029	2.686	1.904	1.904	1.895	1.914	1.904	1.909
-0.010	0.010	-0.005	0.000	-0.020	-0.020	0.024	2.622	1.895	1.899	1.899	1.914	1.904	1.904
-0.005	0.010	0.000	0.000	-0.010	0.005	0.024	2.700	1.899	1.899	1.899	1.914	1.909	1.914
-0.005	0.010	-0.005	0.000	0.000	0.020	0.029	2.749	1.909	1.904	1.904	1.919	1.914	1.914
-0.015	0.000	-0.005	0.000	0.024	0.015	0.029	2.671	1.904	1.899	1.899	1.919	1.919	1.919
-0.005	-0.010	0.005	0.000	0.024	0.005	0.029	2.715	1.904	1.899	1.899	1.919	1.919	1.914
0.005	-0.015	0.000	0.005	0.029	0.010	0.029	2.666	1.904	1.899	1.899	1.919	1.919	1.914
0.000	-0.015	0.000	0.000	0.020	-0.005	0.029	2.695	1.904	1.899	1.899	1.914	1.914	1.909
0.010	-0.010	0.005	0.000	-0.005	0.000	0.029	2.671	1.899	1.899	1.899	1.914	1.904	1.914
0.010	-0.010	0.000	0.005	-0.024	0.005	0.029	2.661	1.899	1.899	1.899	1.914	1.904	1.909
0.010	-0.005	0.000	0.005	-0.024	-0.015	0.029	2.671	1.895	1.899	1.899	1.914	1.904	1.904
0.000	-0.010	0.005	0.005	-0.024	0.005	0.029	2.681	1.895	1.895	1.899	1.919	1.904	1.909
0.015	0.005	0.005	0.000	-0.010	0.000	0.029	2.671	1.899	1.899	1.899	1.919	1.909	1.909
0.005	0.024	0.005	0.000	0.029	0.005	0.029	2.676	1.899	1.904	1.899	1.914	1.924	1.914
0.000	0.015	0.005	0.000	0.039	-0.005	0.029	2.705	1.899	1.899	1.899	1.919	1.924	1.909
0.000	0.015	0.000	0.005	0.024	0.000	0.029	2.705	1.904	1.899	1.899	1.919	1.914	1.919
-0.005	0.020	0.000	0.000	0.020	-0.010	0.029	2.671	1.899	1.899	1.899	1.914	1.914	1.914
0.000	0.010	-0.005	0.005	0.010	-0.015	0.029	2.705	1.904	1.899	1.899	1.914	1.909	1.914
-0.010	0.010	0.000	0.000	-0.005	-0.015	0.029	2.705	1.904	1.899	1.895	1.914	1.904	1.914
-0.010	0.010	0.000	0.000	-0.020	0.010	0.024	2.676	1.904	1.899	1.899	1.914	1.904	1.914
-0.005	0.000	0.000	0.000	-0.034	0.015	0.029	2.681	1.909	1.899	1.899	1.919	1.904	1.909
-0.010	0.000	0.000	0.005	-0.034	0.020	0.029	2.671	1.899	1.895	1.895	1.914	1.904	1.909
0.000	0.000	-0.005	0.000	-0.020	0.005	0.024	2.700	1.904	1.899	1.895	1.914	1.909	1.909
0.005	-0.005	0.000	0.005	-0.015	0.015	0.029	2.661	1.904	1.899	1.895	1.919	1.909	1.914
0.010	-0.005	0.010	0.005	0.000	0.015	0.029	2.695	1.904	1.899	1.899	1.919	1.919	1.914
0.010	-0.005	0.000	0.005	0.034	0.015	0.029	2.695	1.904	1.899	1.895	1.914	1.924	1.914
0.005	-0.005	0.005	0.005	0.054	0.015	0.029	2.661	1.899	1.899	1.895	1.914	1.929	1.919
0.005	-0.010	0.005	0.005	0.059	0.000	0.029	2.661	1.899	1.899	1.895	1.919	1.924	1.914
0.005	-0.005	0.005	0.000	0.044	0.010	0.029	2.681	1.899	1.899	1.895	1.914	1.914	1.919
0.005	-0.015	0.005	0.000	0.029	0.000	0.029	2.617	1.895	1.895	1.895	1.914	1.909	1.914
-0.005	0.015	0.000	0.000	0.010	-0.005	0.029	2.642	1.890	1.904	1.895	1.914	1.904	1.909
-0.005	0.020	0.005	0.000	-0.015	-0.015	0.029	2.642	1.890	1.904	1.895	1.909	1.899	1.904
-0.005	0.000	-0.005	-0.005	-0.020	0.000	0.024	2.661	1.885	1.890	1.895	1.914	1.899	1.904
0.000	0.005	0.000	0.000	-0.020	-0.005	0.029	2.646	1.890	1.890	1.890	1.909	1.904	1.904
-0.005	-0.005	-0.005	0.000	-0.010	-0.005	0.029	2.632	1.885	1.885	1.890	1.909	1.904	1.904
-0.005	0.005	-0.005	0.000	-0.015	-0.005	0.029	2.622	1.880	1.890	1.890	1.909	1.904	1.904
-0.010	0.010	-0.005	0.000	-0.020	-0.015	0.029	2.734	1.899	1.895	1.890	1.909	1.904	1.899
0.000	0.005	0.000	0.000	-0.005	-0.005	0.029	2.739	1.904	1.890	1.890	1.909	1.909	1.909
0.000	-0.005	0.000	0.000	0.005	-0.005	0.029	2.637	1.899	1.895	1.890	1.909	1.909	1.909
0.005	0.010	0.000	0.005	-0.005	-0.010	0.029	2.754	1.909	1.899	1.890	1.909	1.909	1.904
-0.005	-0.005	0.000	-0.005	-0.015	0.005	0.029	2.671	1.904	1.895	1.890	1.909	1.904	1.909
0.010	-0.005	0.000	-0.005	-0.010	0.005	0.029	2.739	1.904	1.899	1.895	1.909	1.904	1.909
0.015	-0.005	0.005	0.000	0.005	-0.010	0.029	2.690	1.904	1.899	1.895	1.909	1.909	1.909
0.005	0.000	0.000	0.000	0.000	-0.005	0.024	2.646	1.909	1.904	1.895	1.914	1.904	1.909
0.010	-0.005	0.005	0.005	0.000	0.015	0.029	2.666	1.904	1.899	1.899	1.914	1.909	1.909
0.005	-0.010	0.010	0.000	0.005	0.000	0.024	2.715	1.904	1.899	1.895	1.914	1.909	1.909
0.005	-0.005	0.005	0.005	-0.005	0.005	0.029	2.676	1.899	1.904	1.895	1.914	1.909	1.909
0.000	0.000	0.000	0.005	-0.005	0.005	0.029	2.705	1.904	1.904	1.895	1.914	1.909	1.909
-0.005	0.005	0.000	0.005	0.024	0.000	0.029	2.676	1.899	1.904	1.899	1.914	1.919	1.909
-0.005	0.010	0.000	0.000	0.020	0.005	0.029	2.676	1.899	1.899	1.899	1.919	1.909	1.909
-0.005	0.000	0.000	0.005	0.015	-0.005	0.029	2.656	1.899	1.899	1.899	1.914	1.914	1.909
0.000	0.015	0.000	0.005	0.010	-0.015	0.029	2.676	1.904	1.904	1.899	1.919	1.909	1.904
-0.010	0.005	0.000	0.010	0.005	0.000	0.029	2.671	1.899	1.904	1.899	1.919	1.909	1.909
-0.010	0.010	0.000	0.005	-0.005	0.000	0.029	2.666	1.899	1.904	1.899	1.919	1.909	1.914
-0.005	0.005	0.000	0.005	0.010	0.000	0.029	2.695	1.904	1.899	1.899	1.919	1.914	1.914
-0.005	-0.005	0.000	0.000	0.015	-0.005	0.029	2.710	1.904	1.895	1.899	1.919	1.914	1.909
0.015	-0.010	0.000	0.005	0.015	0.010	0.029	2.671	1.904	1.899	1.895	1.919	1.919	1.919
0.010	-0.005	0.000	0.005	0.015	0.015	0.029	2.686	1.899	1.899	1.899	1.914	1.914	1.919
0.010	-0.010	0.005	0.005	-0.005	-0.010	0.029	2.695	1.904	1.895	1.899	1.914	1.904	1.904
0.005	-0.005	0.000	0.000	-0.005	-0.005	0.029	2.671	1.899	1.899	1.899	1.914	1.909	1.909
0.000	0.000	0.000	0.010	-0.015	-0.015	0.029	2.671	1.895	1.899	1.899	1.914	1.904	1.904
0.015	-0.010	-0.005	0.005	-0.015	0.005	0.029	2.661	1.895	1.895	1.895	1.914	1.909	1.914
-0.005	-0.010	0.005	0.005	-0.015	0.005	0.029	2.676	1.895	1.890	1.895	1.914	1.909	1.909
0.000	-0.015	0.005	0.005	-0.015	-0.010	0.029	2.671	1.895	1.890	1.890	1.914	1.909	1.909
0.005	0.000	0.005	0.000	-0.005	-0.015	0.029	2.705	1.899	1.899	1.895	1.909	1.909	1.904
-0.005	0.005	0.000	0.000	-0.005	0.005	0.029	2.700	1.895	1.899	1.895	1.909	1.914	1.914
-0.005	0.020	-0.005	0.000	0.005	0.000	0.029	2.705	1.904	1.904	1.899	1.914	1.909	1.914
-0.015	0.015	0.000	0.000	0.000	-0.010	0.029	2.695	1.904	1.899	1.895	1.914	1.909	1.909
-0.005	0.000	0.000	0.000	0.024	-0.010	0.029	2.676	1.899	1.899	1.895	1.914	1.914	1.909
-0.010	0.005	-0.005	0.000	0.015	0.005	0.029	2.656	1.899	1.899	1.895	1.914	1.909	1.914
-0.010	0.005	-0.005	0.000	-0.005	-0.015	0.029	2.642	1.895	1.899	1.895	1.914	1.904	1.904
-0.005	0.010	-0.005	0.000	-0.005	0.005	0.029	2.651	1.895	1.895	1.899	1.914	1.909	1.914
-0.005	0.005	0.005	-0.005	0.015	0.034	0.029	2.661	1.895	1.895	1.899	1.914	1.914	1.924
0.005	-0.010	0.000	0.000	0.020	0.049	0.029	2.637	1.890	1.890	1.895	1.914	1.914	1.924
0.000	-0.005	0.010	-0.005	0.010	0.034	0.024	2.637	1.890	1.890	1.895	1.914	1.909	1.914
0.010	-0.005	0.005	-0.005	-0.010	0.029	0.029	2.646	1.890	1.890	1.890	1.909	1.899	1.909
0.020	-0.010	0.005	0.000	-0.039	0.015	0.024	2.637	1.904	1.890	1.890	1.909	1.895	1.899
0.005	-0.005	0.000	0.000	-0.044	-0.005	0.029	2.651	1.890	1.890	1.890	1.909	1.895	1.895
0.010	-0.005	0.005	0.000	-0.034	0.005	0.029	2.734	1.904	1.899	1.890	1.909	1.899	1.899
0.005	0.015	0.000	0.000	-0.039	-0.005	0.029	2.754	1.904	1.899	1.890	1.909	1.899	1.899
0.005	0.015	0.000	0.000	0.000	0.000	0.029	2.651	1.895	1.899	1.895	1.909	1.914	1.904
0.005	0.020	0.000	0.000	0.034	-0.005	0.024	2.656	1.895	1.899	1.895	1.914	1.924	1.909
-0.005	0.024	0.000	0.000	0.005	-0.005	0.029	2.700	1.895	1.895	1.895	1.914	1.909	1.909
-0.005	0.015	-0.005	0.000	-0.005	0.000	0.029	2.749	1.904	1.895	1.895	1.914	1.909	1.909
-0.005	0.010	0.000	0.005	0.005	0.000	0.029	2.803	1.904	1.899	1.895	1.914	1.909	1.909
-0.010	0.005	-0.005	0.000	0.005	0.005	0.029	2.749	1.909	1.899	1.895	1.914	1.909	1.909
0.000	0.005	-0.005	0.005	0.020	-0.005	0.029	2.671	1.909	1.899	1.899	1.914	1.914	1.909
-0.005	0.010	0.000	0.000	0.039	-0.015	0.029	2.700	1.909	1.899	1.899	1.919	1.914	1.909
0.000	-0.005	0.000	0.000	0.049	0.005	0.029	2.671	1.909	1.899	1.895	1.914	1.919	1.919
0.000	0.000	0.000	0.010	0.020	0.000	0.029	2.671	1.899	1.899	1.899	1.914	1.909	1.914
0.015	-0.010	0.005	0.005	0.020	-0.010	0.029	2.671	1.904	1.899	1.899	1.914	1.909	1.909
0.005	-0.015	0.000	0.000	0.000	0.000	0.024	2.676	1.904	1.895	1.895	1.914	1.904	1.909
0.010	-0.005	0.005	0.005	-0.020	0.005	0.024	2.671	1.899	1.899	1.895	1.914	1.899	1.904
0.015	-0.010	0.005	0.000	-0.034	-0.010	0.029	2.671	1.895	1.895	1.895	1.914	1.899	1.904
0.010	-0.005	0.005	0.000	-0.029	0.000	0.029	2.700	1.895	1.895	1.895	1.914	1.904	1.904
0.000	-0.010	0.005	0.000	-0.015	0.000	0.029	2.710	1.895	1.890	1.895	1.914	1.909	1.904
0.000	0.000	0.000	0.000	-0.010	-0.005	0.029	2.686	1.895	1.895	1.890	1.914	1.909	1.904
0.005	-0.010	0.000	0.005	0.005	-0.005	0.029	2.700	1.895	1.895	1.890	1.914	1.914	1.909
0.000	0.010	-0.005	0.000	0.015	0.000	0.024	2.700	1.899	1.899	1.895	1.914	1.914	1.914
-0.015	0.005	0.005	0.000	0.005	0.000	0.029	2.676	1.899	1.899	1.895	1.914	1.909	1.909
-0.005	0.000	0.000	0.005	-0.005	-0.024	0.029	2.666	1.895	1.895	1.895	1.914	1.909	1.904
-0.005	0.005	0.000	0.000	0.005	0.000	0.029	2.671	1.895	1.895	1.895	1.914	1.909	1.914
-0.005	-0.005	0.000	0.000	0.024	-0.015	0.029	2.666	1.895	1.895	1.895	1.914	1.914	1.909
-0.015	-0.010	0.000	0.000	0.034	-0.010	0.029	2.695	1.899	1.895	1.890	1.909	1.914	1.914
0.000	-0.010	0.000	0.005	0.005	0.010	0.024	2.705	1.904	1.895	1.895	1.914	1.904	1.919
-0.005	0.000	0.005	0.000	-0.005	0.015	0.029	2.690	1.904	1.899	1.895	1.914	1.904	1.914
0.000	-0.005	0.010	0.000	0.000	0.005	0.029	2.700	1.909	1.899	1.895	1.914	1.904	1.909
0.005	-0.005	0.005	0.000	0.000	0.015	0.024	2.666	1.909	1.899	1.895	1.914	1.909	1.909
0.000	0.000	0.000	0.005	-0.005	-0.010	0.029	2.676	1.899	1.899	1.895	1.914	1.904	1.904
0.010	0.005	0.010	0.005	0.000	0.015	0.029	2.666	1.899	1.904	1.895	1.914	1.909	1.909
0.005	-0.010	0.005	0.000	0.010	0.000	0.029	2.642	1.895	1.899	1.895	1.914	1.909	1.909
0.005	0.024	0.005	0.005	0.005	0.000	0.029	2.783	1.904	1.904	1.895	1.914	1.909	1.909
0.005	0.015	0.005	0.000	0.010	-0.010	0.029	2.666	1.899	1.904	1.895	1.914	1.909	1.904
0.000	0.010	0.005	0.005	0.000	-0.010	0.029	2.646	1.895	1.899	1.895	1.914	1.909	1.909
0.005	0.015	0.000	0.000	0.005	-0.005	0.029	2.729	1.904	1.899	1.895	1.914	1.909	1.904
0.005	0.005	0.000	0.010	0.010	-0.020	0.029	2.642	1.895	1.895	1.895	1.914	1.909	1.909
-0.005	0.005	0.005	0.000	0.005	0.020	0.029	2.627	1.885	1.895	1.895	1.914	1.914	1.914
-0.010	0.005	0.000	0.000	0.015	0.010	0.029	2.656	1.885	1.890	1.895	1.914	1.909	1.914
-0.005	0.005	-0.005	0.000	0.000	0.005	0.029	2.661	1.890	1.890	1.890	1.914	1.909	1.909
-0.010	0.000	-0.005	0.000	-0.005	-0.010	0.029	2.627	1.885	1.885	1.890	1.914	1.909	1.909
-0.010	-0.010	-0.005	0.000	-0.005	0.015	0.024	2.646	1.885	1.885	1.890	1.909	1.904	1.914
-0.005	-0.005	0.000	0.000	0.000	0.015	0.029	2.715	1.899	1.890	1.890	1.909	1.909	1.909
0.000	-0.015	0.000	0.000	-0.005	-0.010	0.029	2.695	1.904	1.890	1.890	1.909	1.904	1.904
0.010	-0.005	0.000	0.000	0.000	0.015	0.029	2.666	1.914	1.895	1.890	1.909	1.909	1.909
0.020	-0.010	0.005	0.005	-0.005	-0.015	0.029	2.681	1.909	1.899	1.890	1.909	1.904	1.899
0.015	-0.010	0.005	0.005	-0.010	0.000	0.029	2.729	1.909	1.904	1.895	1.909	1.904	1.904
0.010	0.005	0.000	0.005	-0.010	0.015	0.029	2.671	1.904	1.904	1.899	1.909	1.904	1.909
0.005	0.000	0.000	0.000	-0.005	0.015	0.029	2.705	1.904	1.904	1.895	1.909	1.904	1.909
0.005	-0.005	0.005	0.005	0.005	0.020	0.029	2.676	1.899	1.904	1.899	1.914	1.909	1.909
0.000	0.010	0.000	0.005	0.015	0.005	0.029	2.695	1.895	1.904	1.899	1.914	1.909	1.909
0.000	0.005	0.005	-0.005	-0.005	0.010	0.029	2.671	1.899	1.899	1.899	1.914	1.904	1.904
-0.005	0.000	0.005	0.005	-0.005	0.000	0.029	2.676	1.895	1.899	1.895	1.914	1.909	1.904
-0.005	0.000	0.000	0.005	0.010	-0.005	0.029	2.676	1.890	1.895	1.895	1.914	1.909	1.904
-0.010	0.000	-0.005	0.000	0.010	-0.005	0.029	2.681	1.895	1.895	1.895	1.914	1.909	1.909
-0.005	0.005	-0.005	0.000	0.010	-0.020	0.024	2.705	1.899	1.899	1.895	1.914	1.909	1.909
-0.005	0.010	0.005	0.005	0.000	-0.005	0.029	2.676	1.895	1.899	1.895	1.914	1.909	1.909
0.005	0.010	-0.005	0.005	0.000	0.005	0.029	2.676	1.895	1.899	1.895	1.914	1.909	1.914
0.000	0.024	0.005	0.000	0.005	0.005	0.029	2.710	1.899	1.899	1.899	1.914	1.909	1.914
-0.005	0.020	0.000	0.005	-0.005	0.000	0.029	2.700	1.904	1.899	1.899	1.914	1.909	1.909
0.010	0.010	0.005	0.005	-0.005	0.005	0.029	2.690	1.904	1.899	1.899	1.919	1.909	1.909
0.010	-0.005	0.005	0.000	0.000	0.005	0.029	2.681	1.899	1.895	1.895	1.914	1.909	1.909
0.010	-0.005	0.000	0.000	0.005	-0.029	0.029	2.681	1.899	1.895	1.895	1.914	1.909	1.904
0.005	-0.005	0.010	0.000	0.005	0.005	0.029	2.700	1.899	1.895	1.895	1.914	1.914	1.914
0.010	0.005	0.005	0.010	-0.005	-0.005	0.029	2.661	1.895	1.895	1.895	1.914	1.909	1.909
0.010	-0.010	0.005	0.005	-0.020	0.005	0.029	2.676	1.895	1.890	1.890	1.909	1.904	1.909
0.000	-0.005	0.000	0.000	-0.015	0.010	0.029	2.676	1.895	1.890	1.895	1.909	1.904	1.909
0.005	-0.005	0.005	0.000	-0.005	0.015	0.029	2.705	1.904	1.895	1.895	1.909	1.909	1.909
0.010	-0.005	0.000	0.000	-0.015	0.010	0.029	2.661	1.899	1.895	1.895	1.909	1.904	1.909
0.000	0.000	0.005	0.000	0.005	-0.010	0.029	2.681	1.899	1.899	1.899	1.909	1.909	1.904
-0.010	0.010	0.000	0.000	0.020	-0.005	0.029	2.651	1.895	1.895	1.895	1.909	1.914	1.909
-0.015	0.010	-0.005	0.005	0.034	-0.005	0.029	2.646	1.895	1.895	1.890	1.914	1.919	1.914
-0.015	0.005	-0.005	0.000	0.000	0.000	0.029	2.656	1.890	1.895	1.890	1.909	1.904	1.914
0.005	-0.005	0.000	0.000	-0.024	0.010	0.029	2.666	1.895	1.890	1.890	1.909	1.899	1.909
-0.005	0.000	-0.005	0.005	-0.044	0.005	0.024	2.642	1.890	1.890	1.895	1.909	1.895	1.904
-0.010	0.000	-0.005	-0.005	-0.024	0.005	0.029	2.725	1.899	1.895	1.890	1.909	1.904	1.904
0.000	-0.005	0.000	0.000	0.010	0.005	0.029	2.661	1.899	1.890	1.890	1.909	1.914	1.909
0.000	-0.005	0.000	0.005	0.020	-0.015	0.029	2.734	1.904	1.895	1.895	1.909	1.914	1.904
0.010	-0.005	0.005	0.000	0.015	0.015	0.024	2.656	1.904	1.895	1.895	1.914	1.909	1.914
0.005	-0.010	0.005	0.005	0.010	-0.010	0.029	2.749	1.904	1.899	1.895	1.909	1.909	1.909
0.010	-0.005	0.005	0.000	0.000	0.010	0.029	2.749	1.909	1.904	1.895	1.909	1.904	1.909
0.005	0.000	0.000	0.000	0.010	0.010	0.029	2.651	1.895	1.904	1.895	1.909	1.909	1.909
0.000	-0.005	0.005	0.005	0.039	-0.015	0.029	2.700	1.904	1.899	1.899	1.914	1.914	1.904
0.010	-0.005	0.005	0.000	0.054	0.000	0.029	2.700	1.909	1.899	1.899	1.914	1.914	1.914
0.005	0.005	0.005	0.000	0.034	0.005	0.024	2.656	1.899	1.904	1.899	1.914	1.909	1.914
0.015	0.010	0.000	0.005	0.024	-0.005	0.029	2.837	1.904	1.904	1.899	1.914	1.909	1.909
-0.005	0.005	0.000	0.000	0.015	-0.010	0.024	2.720	1.904	1.899	1.899	1.914	1.904	1.904
-0.010	0.005	-0.005	0.000	-0.010	0.015	0.029	2.671	1.899	1.899	1.899	1.914	1.904	1.914
-0.005	0.015	-0.005	0.000	-0.010	0.010	0.029	2.710	1.904	1.904	1.899	1.919	1.904	1.909
-0.010	0.005	-0.005	0.000	0.005	0.000	0.029	2.681	1.899	1.899	1.899	1.919	1.909	1.904
-0.005	0.010	0.000	-0.005	0.000	0.005	0.029	2.671	1.899	1.899	1.899	1.919	1.909	1.909
0.000	-0.005	0.000	0.005	-0.015	-0.005	0.029	2.695	1.904	1.895	1.899	1.919	1.909	1.904
0.000	-0.005	0.000	0.005	-0.010	-0.010	0.029	2.671	1.895	1.899	1.899	1.914	1.909	1.909
0.005	0.000	0.005	0.000	0.000	0.000	0.029	2.671	1.895	1.899	1.895	1.914	1.914	1.909
0.000	-0.015	0.005	0.000	0.000	-0.010	0.029	2.661	1.895	1.895	1.895	1.914	1.914	1.909
0.010	0.005	-0.005	0.005	0.000	0.015	0.029	2.690	1.899	1.899	1.895	1.914	1.914	1.914
0.015	0.005	0.005	0.005	-0.010	0.005	0.029	2.715	1.899	1.899	1.899	1.914	1.909	1.909
0.005	-0.005	0.010	0.005	-0.010	-0.020	0.024	2.676	1.895	1.895	1.895	1.914	1.909	1.904
0.005	0.000	0.010	0.000	-0.010	0.005	0.029	2.700	1.899	1.895	1.895	1.914	1.909	1.909
0.015	-0.005	0.005	0.000	0.000	0.005	0.029	2.700	1.904	1.895	1.895	1.914	1.909	1.914
0.005	0.000	0.000	0.000	0.005	0.000	0.029	2.705	1.904	1.899	1.895	1.914	1.909	1.909
0.005	0.000	0.000	0.000	0.000	-0.005	0.029	2.676	1.899	1.899	1.895	1.914	1.909	1.909
-0.005	0.000	0.000	0.005	-0.010	0.005	0.029	2.666	1.895	1.895	1.895	1.914	1.909	1.914
-0.005	0.000	-0.005	0.005	-0.010	-0.010	0.024	2.671	1.899	1.899	1.895	1.909	1.909	1.904
-0.005	0.010	0.000	0.000	0.000	0.000	0.029	2.690	1.895	1.904	1.895	1.909	1.914	1.914
-0.010	-0.005	0.005	-0.005	0.000	0.010	0.029	2.700	1.899	1.895	1.895	1.909	1.909	1.914
-0.015	0.005	0.000	0.000	-0.005	0.020	0.029	2.705	1.904	1.899	1.895	1.914	1.909	1.914
-0.005	-0.005	-0.005	0.000	0.000	-0.005	0.029	2.705	1.909	1.899	1.895	1.914	1.909	1.909
0.000	-0.005	-0.005	0.000	-0.005	-0.005	0.029	2.671	1.904	1.899	1.895	1.914	1.909	1.904
0.000	-0.005	0.000	0.000	-0.005	-0.010	0.029	2.690	1.904	1.899	1.895	1.914	1.909	1.904
0.000	0.000	0.000	-0.005	-0.005	0.000	0.024	2.607	1.895	1.899	1.899	1.914	1.909	1.904
0.010	-0.005	0.005	0.005	-0.010	0.010	0.029	2.642	1.890	1.895	1.899	1.914	1.909	1.909
0.005	-0.005	0.005	0.005	0.000	0.015	0.029	2.651	1.890	1.895	1.895	1.914	1.914	1.914
0.005	-0.005	0.005	0.005	-0.015	0.020	0.029	2.666	1.890	1.895	1.895	1.909	1.904	1.914
0.015	-0.010	0.000	0.005	-0.034	0.000	0.029	2.632	1.890	1.890	1.890	1.909	1.899	1.904
0.005	-0.005	0.010	0.005	-0.039	0.010	0.029	2.720	1.890	1.890	1.890	1.909	1.904	1.904
0.015	0.000	0.005	0.000	-0.015	0.000	0.029	2.656	1.895	1.890	1.890	1.909	1.909	1.904
0.005	-0.005	0.000	0.005	0.034	0.010	0.029	2.720	1.899	1.895	1.890	1.914	1.924	1.914
-0.005	0.010	0.000	0.000	0.029	0.015	0.029	2.754	1.909	1.899	1.890	1.909	1.914	1.914
-0.010	0.005	0.000	0.000	0.039	0.010	0.029	2.632	1.895	1.895	1.895	1.909	1.914	1.914
-0.010	0.005	0.005	0.000	0.039	0.000	0.029	2.754	1.904	1.899	1.895	1.909	1.914	1.914
-0.005	-0.005	-0.005	0.005	0.029	-0.005	0.029	2.651	1.899	1.899	1.895	1.909	1.904	1.909
-0.010	0.000	-0.005	0.000	0.005	0.005	0.029	2.622	1.904	1.899	1.895	1.914	1.904	1.909
-0.005	0.005	-0.010	0.005	-0.010	-0.005	0.029	2.671	1.904	1.899	1.895	1.909	1.895	1.904
-0.005	0.015	-0.005	0.005	-0.005	-0.015	0.029	2.729	1.909	1.909	1.899	1.914	1.904	1.899
0.000	0.015	0.000	0.000	0.010	-0.049	0.029	2.822	1.924	1.909	1.904	1.914	1.914	1.895
0.000	0.015	0.005	0.000	0.010	-0.005	0.024	2.749	1.924	1.909	1.904	1.919	1.909	1.909
0.010	0.010	0.010	0.000	-0.005	-0.010	0.029	2.676	1.914	1.914	1.909	1.919	1.909	1.909
0.010	-0.005	0.005	0.000	-0.015	0.000	0.029	2.705	1.914	1.909	1.904	1.919	1.904	1.909
0.005	-0.005	0.005	0.000	-0.010	0.000	0.029	2.666	1.899	1.904	1.904	1.919	1.909	1.909
-0.005	-0.005	0.005	0.005	-0.010	0.005	0.029	2.661	1.895	1.904	1.904	1.924	1.914	1.914
0.010	-0.010	0.005	0.000	-0.005	0.010	0.029	2.695	1.899	1.899	1.904	1.924	1.914	1.919
0.000	0.000	0.005	0.000	0.015	0.000	0.029	2.661	1.895	1.899	1.899	1.919	1.919	1.914
0.000	-0.005	0.005	0.000	0.015	0.010	0.029	2.666	1.895	1.899	1.899	1.919	1.919	1.919
-0.005	-0.005	0.005	0.005	0.020	0.015	0.029	2.681	1.895	1.899	1.899	1.919	1.919	1.919
0.005	-0.015	0.000	0.000	0.005	0.010	0.029	2.690	1.899	1.890	1.895	1.919	1.909	1.914
0.005	-0.015	0.000	0.000	-0.005	0.010	0.024	2.715	1.904	1.895	1.895	1.914	1.909	1.914
0.000	0.005	-0.005	0.005	-0.010	0.005	0.029	2.686	1.904	1.904	1.895	1.919	1.909	1.914
-0.010	0.010	-0.005	-0.005	0.005	0.010	0.029	2.705	1.904	1.904	1.899	1.914	1.914	1.914
-0.010	0.010	0.000	0.000	0.005	0.010	0.029	2.695	1.904	1.904	1.899	1.914	1.914	1.914
0.000	0.000	0.000	0.000	0.015	0.000	0.024	2.671	1.904	1.899	1.904	1.919	1.914	1.914
-0.005	0.000	0.000	0.000	0.015	-0.010	0.029	2.676	1.904	1.899	1.904	1.919	1.914	1.914
-0.005	0.000	0.000	0.000	0.010	-0.020	0.029	2.666	1.899	1.899	1.899	1.919	1.914	1.909
0.000	0.010	0.000	0.000	0.000	-0.015	0.029	2.705	1.909	1.904	1.899	1.919	1.909	1.909
0.005	-0.015	0.005	0.000	0.000	0.005	0.029	2.671	1.899	1.899	1.899	1.919	1.914	1.919
0.010	-0.010	0.005	0.000	0.005	0.005	0.029	2.695	1.904	1.899	1.899	1.919	1.914	1.914
0.000	-0.005	0.005	0.000	0.005	0.010	0.029	2.690	1.904	1.904	1.899	1.914	1.914	1.914
0.015	-0.005	0.005	0.000	0.005	0.010	0.029	2.705	1.909	1.899	1.899	1.919	1.914	1.909
0.010	-0.020	0.010	0.000	-0.005	0.000	0.024	2.700	1.904	1.899	1.899	1.919	1.909	1.909
0.005	-0.005	0.010	0.000	-0.020	0.015	0.029	2.686	1.904	1.904	1.899	1.914	1.904	1.914
0.000	-0.015	0.000	0.000	-0.024	-0.005	0.029	2.642	1.895	1.899	1.895	1.914	1.904	1.904
0.000	-0.005	0.000	0.000	-0.020	0.005	0.029	2.637	1.890	1.899	1.895	1.914	1.909	1.909
-0.005	0.010	-0.005	0.000	-0.020	0.010	0.029	2.661	1.890	1.899	1.895	1.914	1.909	1.909
-0.005	0.015	-0.005	0.000	-0.024	0.005	0.029	2.661	1.895	1.899	1.895	1.914	1.909	1.909
-0.005	0.020	-0.005	0.000	-0.020	-0.005	0.029	2.627	1.890	1.895	1.899	1.914	1.909	1.909
0.000	0.005	0.000	0.000	0.000	0.020	0.029	2.632	1.890	1.890	1.895	1.919	1.919	1.914
-0.005	-0.005	0.000	0.000	0.024	0.005	0.029	2.646	1.885	1.885	1.895	1.914	1.924	1.919
0.000	0.010	-0.005	0.005	0.024	0.005	0.029	2.642	1.890	1.890	1.895	1.914	1.919	1.919
-0.005	-0.010	-0.005	0.000	0.015	-0.020	0.029	2.656	1.904	1.890	1.890	1.914	1.909	1.909
0.000	-0.005	0.000	0.000	0.015	-0.005	0.029	2.725	1.909	1.895	1.890	1.914	1.909	1.914
0.000	0.000	0.010	0.000	0.020	-0.005	0.029	2.739	1.914	1.899	1.895	1.914	1.909	1.914
0.010	-0.005	0.010	0.005	0.024	-0.005	0.029	2.637	1.909	1.904	1.895	1.914	1.909	1.914
0.005	0.010	0.005	0.005	0.015	0.000	0.029	2.651	1.899	1.904	1.895	1.914	1.909	1.914
0.000	0.010	0.005	0.000	0.005	0.010	0.024	2.695	1.899	1.904	1.895	1.914	1.909	1.914
0.005	0.005	0.005	0.005	-0.005	-0.015	0.029	2.651	1.895	1.899	1.895	1.914	1.904	1.909
0.010	0.010	0.000	-0.005	-0.029	0.015	0.029	2.710	1.899	1.899	1.895	1.914	1.899	1.909
0.000	0.000	0.000	0.000	-0.015	0.005	0.029	2.759	1.904	1.895	1.895	1.914	1.909	1.909
0.005	-0.005	0.005	0.000	0.000	0.010	0.029	2.666	1.899	1.899	1.895	1.914	1.909	1.909
0.005	0.005	-0.005	0.005	0.010	0.005	0.029	2.700	1.899	1.899	1.895	1.914	1.909	1.909
0.000	0.010	0.000	0.005	0.015	0.010	0.029	2.676	1.899	1.899	1.899	1.914	1.914	1.914
-0.010	0.005	-0.005	0.000	0.020	-0.010	0.029	2.671	1.899	1.895	1.895	1.914	1.914	1.904
-0.010	0.010	0.000	0.000	0.015	0.000	0.029	2.710	1.899	1.895	1.895	1.914	1.914	1.909
-0.010	0.010	-0.005	0.005	-0.005	0.000	0.029	2.676	1.904	1.899	1.895	1.914	1.904	1.909
-0.005	0.010	0.000	0.000	0.000	-0.010	0.029	2.666	1.899	1.899	1.895	1.914	1.909	1.909
-0.010	0.000	0.000	-0.005	-0.005	0.000	0.029	2.671	1.899	1.895	1.895	1.914	1.909	1.909
0.000	-0.015	0.000	0.005	-0.010	0.010	0.029	2.700	1.904	1.899	1.895	1.914	1.909	1.909
0.000	0.005	-0.005	0.005	-0.010	0.005	0.029	2.710	1.904	1.899	1.895	1.914	1.909	1.914
0.000	0.000	0.005	0.000	-0.005	0.010	0.029	2.690	1.904	1.899	1.895	1.914	1.909	1.914
0.010	-0.020	0.005	0.000	-0.005	-0.005	0.024	2.686	1.904	1.895	1.895	1.914	1.909	1.909
0.000	-0.020	0.005	0.005	-0.010	-0.020	0.024	2.695	1.904	1.899	1.895	1.914	1.904	1.899
0.005	-0.010	0.000	0.005	0.000	-0.024	0.029	2.661	1.899	1.899	1.895	1.914	1.909	1.904
0.015	-0.005	0.000	0.000	0.005	0.005	0.029	2.661	1.895	1.899	1.895	1.914	1.914	1.914
0.015	0.000	0.000	0.000	-0.005	0.005	0.029	2.666	1.895	1.899	1.899	1.914	1.909	1.909
0.005	0.000	0.005	-0.005	0.000	-0.020	0.029	2.676	1.895	1.895	1.895	1.914	1.909	1.904
0.005	0.000	0.000	0.000	-0.015	0.005	0.029	2.686	1.895	1.895	1.895	1.914	1.909	1.914
0.005	0.010	0.000	-0.005	0.005	0.010	0.024	2.710	1.904	1.899	1.895	1.914	1.909	1.914
0.000	0.005	0.005	0.005	-0.010	-0.005	0.029	2.700	1.904	1.899	1.895	1.914	1.909	1.909
-0.010	0.015	0.000	0.005	0.005	0.005	0.029	2.700	1.904	1.904	1.895	1.914	1.914	1.914
-0.005	0.015	0.000	0.000	0.015	-0.010	0.029	2.676	1.909	1.904	1.895	1.919	1.914	1.909
-0.005	0.005	-0.005	0.005	0.029	-0.020	0.029	2.681	1.904	1.904	1.895	1.914	1.919	1.909
0.000	0.005	-0.005	0.000	0.034	0.010	0.029	2.656	1.904	1.904	1.899	1.919	1.919	1.919
-0.010	0.010	0.000	0.000	0.005	0.020	0.029	2.646	1.895	1.899	1.899	1.914	1.909	1.919
0.005	0.020	0.000	0.005	0.000	0.010	0.029	2.656	1.895	1.904	1.899	1.914	1.909	1.914
-0.005	0.010	0.000	0.000	-0.005	-0.005	0.024	2.666	1.895	1.895	1.899	1.914	1.904	1.909
0.005	-0.005	0.005	0.005	-0.010	0.015	0.029	2.632	1.890	1.895	1.895	1.914	1.909	1.914
0.005	0.000	0.000	0.000	-0.024	0.020	0.029	2.632	1.885	1.895	1.895	1.914	1.904	1.914
-0.005	-0.005	0.005	0.005	-0.039	-0.020	0.029	2.651	1.885	1.885	1.890	1.914	1.899	1.895
0.005	-0.005	0.000	0.010	0.010	-0.024	0.029	2.671	1.885	1.885	1.890	1.914	1.919	1.899
0.010	0.005	0.005	0.000	0.024	0.005	0.029	2.646	1.885	1.885	1.890	1.909	1.919	1.914
0.010	0.000	0.010	-0.005	-0.005	-0.005	0.029	2.617	1.880	1.885	1.885	1.909	1.904	1.909
0.010	-0.005	0.005	0.000	0.015	0.015	0.029	2.749	1.895	1.885	1.885	1.909	1.909	1.919
0.000	-0.005	0.005	0.005	0.059	0.000	0.029	2.651	1.890	1.885	1.885	1.904	1.919	1.919
0.000	0.000	0.005	0.000	0.034	0.015	0.029	2.637	1.890	1.885	1.885	1.904	1.904	1.919
