0.005	0.010	-0.005	0.000	0.010	0.000	0.039	2.642	4.536	3.252	2.979	2.515	2.607	2.109
-0.005	-0.005	-0.005	0.000	-0.005	0.000	0.039	2.671	3.911	3.447	3.105	2.676	2.622	2.246
0.000	0.000	0.005	0.000	0.000	0.005	0.039	2.632	3.477	3.472	3.208	2.827	2.676	2.368
-0.005	0.005	0.000	0.005	0.000	0.015	0.039	2.656	3.184	3.403	3.267	2.949	2.749	2.476
0.005	0.010	0.000	0.000	0.010	0.000	0.039	2.666	2.964	3.291	3.276	3.047	2.827	2.563
0.000	0.005	0.000	0.000	-0.005	0.010	0.039	2.783	2.808	3.164	3.252	3.110	2.905	2.661
-0.005	0.000	0.000	0.005	-0.005	0.005	0.039	2.720	2.710	3.042	3.198	3.140	2.969	2.744
-0.005	0.005	0.000	0.000	-0.005	0.005	0.039	2.632	2.637	2.935	3.130	3.145	3.013	2.817
0.000	0.000	0.005	0.000	-0.005	-0.005	0.039	2.656	2.588	2.842	3.052	3.125	3.047	2.876
0.005	-0.010	0.005	0.000	0.000	0.005	0.039	2.622	2.554	2.764	2.974	3.091	3.062	2.930
-0.005	0.005	0.000	0.005	0.000	0.005	0.039	2.754	2.544	2.710	2.900	3.047	3.057	2.964
0.000	0.000	0.000	0.005	0.010	0.000	0.039	2.651	2.534	2.666	2.837	2.998	3.042	2.983
0.005	0.000	0.000	0.000	0.010	0.000	0.039	2.651	2.534	2.632	2.783	2.944	3.018	2.993
0.000	-0.005	0.000	0.005	-0.005	-0.020	0.039	2.690	2.534	2.607	2.734	2.891	2.979	2.983
0.000	0.005	0.000	0.000	-0.010	0.005	0.039	2.710	2.544	2.598	2.695	2.842	2.939	2.979
0.010	0.000	0.005	0.005	0.000	0.000	0.039	2.666	2.534	2.578	2.661	2.803	2.905	2.964
0.005	-0.005	0.000	0.000	0.000	-0.010	0.039	2.681	2.534	2.568	2.637	2.759	2.861	2.935
0.015	-0.005	0.000	0.000	0.000	0.005	0.039	2.744	2.544	2.568	2.617	2.729	2.827	2.905
0.000	-0.010	0.000	0.000	0.000	0.005	0.039	2.715	2.544	2.559	2.603	2.700	2.788	2.876
0.000	-0.005	0.005	0.000	0.005	0.005	0.039	2.666	2.529	2.559	2.588	2.671	2.759	2.847
0.000	0.000	0.000	0.000	0.010	0.000	0.039	2.676	2.524	2.554	2.578	2.651	2.729	2.812
0.000	-0.005	0.000	0.000	0.005	0.000	0.039	2.676	2.520	2.539	2.568	2.632	2.700	2.783
0.000	0.000	0.010	-0.005	0.000	0.005	0.039	2.700	2.515	2.539	2.559	2.617	2.671	2.754
0.010	0.005	0.005	0.000	0.000	-0.005	0.039	2.671	2.505	2.534	2.549	2.607	2.651	2.720
0.005	0.005	0.000	0.000	0.000	0.000	0.039	2.700	2.495	2.520	2.539	2.593	2.637	2.700
0.010	0.000	0.000	0.005	0.000	-0.005	0.039	2.705	2.495	2.515	2.534	2.578	2.617	2.681
0.005	0.005	0.000	0.005	-0.005	-0.005	0.039	2.690	2.476	2.505	2.524	2.568	2.603	2.661
0.010	0.000	0.000	0.005	0.010	0.005	0.039	2.700	2.471	2.495	2.520	2.559	2.593	2.642
-0.005	0.005	0.005	0.000	0.000	0.005	0.039	2.676	2.461	2.490	2.510	2.554	2.578	2.627
0.000	0.005	0.005	0.000	0.000	0.005	0.039	2.705	2.456	2.480	2.500	2.544	2.568	2.607
0.000	0.005	0.005	0.000	0.000	0.005	0.039	2.681	2.451	2.476	2.490	2.534	2.559	2.593
0.005	0.000	0.005	0.005	0.000	0.000	0.039	2.666	2.441	2.466	2.485	2.524	2.549	2.583
0.000	0.000	0.000	0.000	0.000	-0.010	0.039	2.666	2.427	2.456	2.476	2.515	2.539	2.568
0.000	0.005	0.000	0.000	0.000	-0.010	0.039	2.671	2.422	2.451	2.471	2.510	2.529	2.559
0.000	0.005	0.000	0.000	0.005	-0.005	0.039	2.700	2.417	2.441	2.466	2.500	2.524	2.544
-0.005	0.005	-0.005	0.000	0.000	0.015	0.039	2.690	2.407	2.432	2.451	2.495	2.510	2.544
0.000	-0.005	0.000	0.000	0.005	0.005	0.039	2.695	2.402	2.422	2.446	2.485	2.505	2.534
-0.005	-0.005	0.000	0.000	0.000	0.000	0.034	2.671	2.393	2.417	2.437	2.476	2.495	2.520
-0.010	0.005	0.005	0.005	0.000	-0.020	0.039	2.676	2.383	2.412	2.432	2.466	2.490	2.505
-0.005	-0.005	0.000	0.000	0.005	0.010	0.039	2.671	2.373	2.397	2.422	2.461	2.480	2.505
0.005	0.005	0.005	0.005	0.005	0.005	0.039	2.666	2.368	2.397	2.412	2.451	2.471	2.495
-0.005	0.000	0.000	0.000	0.005	0.010	0.039	2.686	2.363	2.388	2.402	2.446	2.461	2.490
-0.005	0.005	0.000	0.000	0.005	0.005	0.039	2.666	2.354	2.378	2.397	2.437	2.451	2.476
-0.005	0.010	0.000	0.000	0.005	0.005	0.039	2.656	2.349	2.373	2.388	2.427	2.446	2.471
0.005	0.005	0.000	0.000	0.000	0.000	0.039	2.666	2.339	2.363	2.383	2.422	2.437	2.461
0.005	-0.005	0.000	0.000	0.000	0.000	0.039	2.637	2.329	2.354	2.373	2.412	2.427	2.451
-0.010	0.010	0.000	0.000	0.005	0.005	0.039	2.632	2.319	2.349	2.368	2.402	2.422	2.446
0.010	0.010	-0.005	0.005	0.005	-0.005	0.039	2.729	2.324	2.344	2.358	2.397	2.412	2.437
0.000	0.000	0.005	0.000	0.005	0.005	0.039	2.744	2.329	2.339	2.354	2.393	2.407	2.427
0.015	-0.005	0.000	0.005	0.005	0.000	0.039	2.754	2.319	2.334	2.349	2.383	2.397	2.422
0.000	0.005	-0.005	0.000	-0.005	-0.005	0.039	2.666	2.310	2.329	2.344	2.378	2.393	2.412
-0.005	0.000	0.005	0.000	0.000	-0.005	0.039	2.676	2.300	2.319	2.339	2.373	2.383	2.407
-0.005	0.000	0.005	0.000	0.000	0.000	0.039	2.739	2.300	2.314	2.334	2.363	2.378	2.402
-0.010	0.000	0.005	0.005	0.000	-0.005	0.039	2.681	2.290	2.310	2.324	2.358	2.373	2.388
-0.005	0.000	0.000	0.005	0.000	0.000	0.039	2.749	2.290	2.305	2.314	2.354	2.363	2.383
0.000	0.000	0.005	0.005	-0.020	0.005	0.039	2.666	2.280	2.300	2.310	2.344	2.354	2.378
0.000	-0.010	0.000	0.000	-0.034	0.005	0.039	2.705	2.271	2.290	2.305	2.339	2.344	2.368
-0.005	0.005	0.000	0.000	-0.024	0.010	0.039	2.710	2.271	2.285	2.300	2.334	2.344	2.363
0.000	0.000	0.005	0.000	-0.010	0.015	0.039	2.720	2.266	2.280	2.290	2.329	2.339	2.358
0.000	0.000	0.000	0.000	0.005	0.010	0.039	2.671	2.256	2.275	2.285	2.319	2.339	2.354
0.010	-0.005	0.000	0.000	0.015	-0.010	0.039	2.686	2.256	2.266	2.280	2.314	2.334	2.339
0.005	0.005	0.000	0.000	0.024	0.000	0.039	2.681	2.246	2.266	2.275	2.310	2.329	2.344
0.000	-0.015	0.000	0.005	0.020	-0.015	0.039	2.681	2.241	2.256	2.271	2.305	2.319	2.334
0.005	-0.015	0.000	0.005	0.010	0.010	0.039	2.695	2.236	2.251	2.266	2.300	2.310	2.334
0.005	0.000	0.000	0.005	0.000	0.010	0.039	2.656	2.227	2.246	2.261	2.295	2.305	2.324
0.005	-0.005	0.000	0.005	0.000	-0.005	0.039	2.705	2.227	2.241	2.256	2.290	2.295	2.314
-0.005	-0.005	0.000	0.000	-0.005	0.000	0.039	2.700	2.222	2.236	2.251	2.285	2.290	2.310
0.005	0.000	-0.005	0.005	-0.005	0.000	0.039	2.700	2.217	2.236	2.241	2.280	2.290	2.305
0.005	0.020	0.005	0.005	-0.005	-0.005	0.039	2.671	2.212	2.236	2.241	2.275	2.285	2.295
0.000	0.029	0.000	0.000	-0.005	0.000	0.039	2.671	2.202	2.231	2.241	2.266	2.275	2.290
-0.005	0.020	0.000	0.000	0.000	-0.010	0.039	2.676	2.197	2.222	2.231	2.266	2.275	2.285
0.010	0.010	-0.005	0.000	0.015	0.010	0.039	2.666	2.192	2.207	2.227	2.256	2.271	2.290
-0.005	0.005	0.005	0.000	0.000	0.015	0.039	2.676	2.187	2.202	2.217	2.251	2.261	2.275
0.000	0.000	0.005	0.005	0.005	0.010	0.039	2.671	2.183	2.192	2.212	2.246	2.261	2.275
-0.005	0.000	0.005	0.000	0.000	0.000	0.039	2.705	2.187	2.192	2.207	2.241	2.251	2.266
0.005	-0.005	0.000	0.000	0.005	0.005	0.039	2.690	2.183	2.187	2.197	2.236	2.246	2.261
0.000	0.000	0.000	0.000	0.000	0.005	0.039	2.705	2.183	2.183	2.192	2.227	2.241	2.256
0.005	0.005	0.005	0.000	0.000	0.005	0.039	2.705	2.178	2.187	2.192	2.222	2.231	2.246
0.000	-0.005	0.005	0.000	0.005	0.005	0.039	2.710	2.173	2.178	2.187	2.217	2.231	2.246
-0.005	-0.005	0.000	0.000	0.000	0.005	0.039	2.676	2.168	2.178	2.183	2.212	2.222	2.236
0.000	0.000	0.005	0.000	0.005	-0.010	0.039	2.671	2.163	2.178	2.183	2.207	2.217	2.227
0.000	-0.005	0.005	0.000	0.005	0.000	0.039	2.686	2.158	2.173	2.183	2.207	2.217	2.227
0.000	0.000	0.005	-0.005	0.005	0.000	0.039	2.681	2.153	2.168	2.178	2.202	2.212	2.222
0.005	0.024	0.000	0.000	0.010	-0.005	0.039	2.803	2.148	2.173	2.178	2.197	2.207	2.222
0.005	0.005	0.000	0.000	0.010	-0.005	0.039	2.661	2.144	2.158	2.173	2.192	2.202	2.217
0.005	-0.005	0.000	0.000	0.010	-0.024	0.039	2.651	2.139	2.148	2.163	2.192	2.197	2.202
0.005	0.000	0.005	0.005	0.010	-0.005	0.039	2.729	2.129	2.148	2.158	2.192	2.197	2.207
0.015	-0.010	0.000	0.000	0.010	0.005	0.039	2.622	2.124	2.144	2.148	2.183	2.192	2.207
0.015	-0.005	0.000	0.000	0.010	0.015	0.039	2.744	2.134	2.134	2.144	2.178	2.187	2.202
-0.005	-0.005	0.000	0.000	0.005	-0.005	0.039	2.759	2.129	2.134	2.144	2.173	2.183	2.192
-0.005	0.000	0.000	0.000	0.010	0.005	0.039	2.637	2.119	2.134	2.139	2.168	2.178	2.187
0.005	0.015	0.000	0.000	0.015	-0.010	0.039	2.671	2.114	2.134	2.139	2.168	2.173	2.183
0.000	0.000	0.000	0.005	0.015	-0.015	0.039	2.744	2.124	2.124	2.134	2.163	2.168	2.178
0.000	0.005	0.005	0.005	0.015	-0.005	0.039	2.666	2.114	2.124	2.134	2.163	2.168	2.178
0.005	-0.005	0.000	0.005	0.015	-0.010	0.039	2.744	2.119	2.119	2.124	2.153	2.163	2.173
0.010	0.000	0.000	0.005	0.015	-0.015	0.039	2.695	2.114	2.119	2.124	2.153	2.158	2.168
0.015	0.010	0.000	0.010	0.015	-0.020	0.039	2.646	2.109	2.119	2.124	2.148	2.153	2.163
0.000	0.005	0.000	0.005	0.005	0.010	0.039	2.739	2.109	2.114	2.119	2.144	2.148	2.168
0.005	0.000	-0.005	0.005	0.005	0.010	0.039	2.671	2.114	2.114	2.114	2.144	2.148	2.158
-0.005	0.020	0.005	0.005	0.000	0.010	0.039	2.681	2.109	2.114	2.119	2.144	2.144	2.158
0.010	0.020	0.000	0.005	-0.005	-0.005	0.039	2.705	2.104	2.114	2.119	2.144	2.139	2.148
0.005	0.015	0.000	0.000	-0.010	0.005	0.039	2.681	2.100	2.109	2.109	2.139	2.139	2.148
-0.005	0.010	0.000	0.000	-0.010	-0.010	0.039	2.695	2.090	2.104	2.109	2.134	2.134	2.139
0.005	0.005	0.000	0.000	-0.005	0.010	0.039	2.705	2.085	2.095	2.109	2.134	2.134	2.148
0.000	0.005	0.000	0.000	-0.005	0.005	0.039	2.705	2.085	2.095	2.100	2.129	2.129	2.139
-0.005	-0.010	0.005	0.000	-0.015	0.010	0.039	2.695	2.080	2.085	2.100	2.124	2.124	2.139
-0.005	-0.010	0.000	0.000	-0.015	0.010	0.039	2.676	2.080	2.080	2.090	2.124	2.124	2.134
-0.005	-0.010	0.005	0.005	-0.010	0.005	0.039	2.695	2.075	2.080	2.090	2.119	2.124	2.129
-0.005	0.000	0.005	0.000	-0.005	0.000	0.039	2.690	2.075	2.080	2.085	2.114	2.119	2.124
-0.005	0.000	0.010	0.000	-0.010	0.020	0.039	2.686	2.070	2.080	2.085	2.109	2.114	2.129
-0.005	0.000	0.005	0.000	-0.010	0.010	0.039	2.676	2.065	2.075	2.080	2.109	2.114	2.119
0.005	-0.005	0.005	0.000	-0.005	0.010	0.039	2.700	2.070	2.070	2.075	2.104	2.109	2.114
0.000	-0.005	0.005	0.000	-0.010	0.024	0.039	2.681	2.065	2.065	2.075	2.100	2.104	2.119
0.005	-0.005	0.000	0.000	-0.005	0.024	0.039	2.671	2.061	2.065	2.070	2.100	2.104	2.114
0.005	-0.015	0.000	0.000	-0.005	0.010	0.039	2.700	2.061	2.061	2.070	2.095	2.100	2.104
0.005	-0.015	0.000	0.000	-0.015	0.015	0.039	2.705	2.061	2.065	2.065	2.095	2.095	2.104
0.005	0.000	0.000	0.000	-0.010	0.010	0.034	2.681	2.056	2.065	2.070	2.090	2.095	2.100
0.000	-0.010	0.000	0.000	-0.010	-0.020	0.039	2.671	2.051	2.061	2.065	2.090	2.090	2.090
0.010	0.000	0.000	-0.005	-0.010	-0.010	0.039	2.705	2.051	2.061	2.065	2.085	2.090	2.090
0.000	0.000	0.005	-0.005	-0.005	-0.005	0.039	2.676	2.046	2.056	2.061	2.085	2.090	2.090
0.005	-0.005	0.005	0.000	-0.005	-0.020	0.039	2.666	2.041	2.051	2.061	2.085	2.085	2.090
0.000	-0.005	0.005	-0.005	0.005	-0.005	0.039	2.686	2.036	2.046	2.056	2.080	2.085	2.090
-0.005	0.005	0.005	0.000	0.000	-0.020	0.039	2.671	2.036	2.046	2.051	2.075	2.080	2.085
0.005	0.015	0.000	-0.005	-0.005	-0.010	0.039	2.778	2.031	2.046	2.046	2.075	2.080	2.085
0.005	0.000	0.000	0.000	-0.010	0.020	0.039	2.666	2.026	2.036	2.041	2.070	2.075	2.090
-0.005	0.000	0.000	0.000	-0.005	0.010	0.039	2.637	2.021	2.031	2.041	2.065	2.070	2.080
0.005	-0.005	0.000	0.005	-0.010	0.000	0.039	2.676	2.017	2.026	2.036	2.065	2.070	2.075
0.000	0.015	0.000	0.005	0.000	0.000	0.039	2.637	2.021	2.031	2.036	2.061	2.065	2.070
-0.005	0.024	0.000	0.005	0.010	0.005	0.039	2.759	2.036	2.036	2.031	2.061	2.065	2.075
0.005	0.020	0.000	0.000	0.005	-0.015	0.039	2.725	2.036	2.026	2.031	2.056	2.061	2.065
0.000	0.010	0.000	0.005	0.010	0.005	0.039	2.617	2.021	2.026	2.031	2.056	2.061	2.070
0.000	0.010	-0.005	0.005	0.010	0.010	0.039	2.646	2.017	2.026	2.031	2.051	2.061	2.070
0.000	0.010	0.000	0.000	0.000	0.015	0.034	2.686	2.017	2.021	2.026	2.051	2.051	2.065
0.005	-0.005	0.005	-0.005	0.000	0.005	0.039	2.705	2.021	2.017	2.026	2.046	2.046	2.056
0.005	0.005	0.000	0.000	0.000	0.000	0.039	2.715	2.021	2.021	2.021	2.046	2.046	2.056
0.000	0.000	0.000	0.005	-0.005	0.000	0.039	2.690	2.017	2.017	2.026	2.046	2.046	2.051
0.005	0.000	0.000	0.000	0.000	0.000	0.039	2.754	2.026	2.017	2.021	2.046	2.046	2.051
0.000	-0.010	0.010	0.000	0.005	-0.010	0.039	2.734	2.026	2.017	2.017	2.041	2.046	2.046
0.005	-0.010	0.000	0.010	0.005	0.005	0.039	2.710	2.021	2.017	2.017	2.041	2.041	2.051
-0.005	0.005	0.000	0.000	0.010	-0.005	0.039	2.666	2.017	2.021	2.017	2.041	2.041	2.046
-0.005	-0.010	0.000	0.000	0.015	0.005	0.039	2.700	2.012	2.017	2.017	2.036	2.036	2.046
0.000	0.000	0.005	0.005	0.010	0.005	0.039	2.671	2.007	2.012	2.017	2.036	2.036	2.041
0.000	0.000	-0.005	0.005	0.010	0.005	0.039	2.666	2.002	2.012	2.012	2.036	2.031	2.041
-0.005	0.000	0.000	0.000	0.000	0.000	0.034	2.705	2.012	2.007	2.012	2.036	2.031	2.036
0.000	0.000	0.000	0.005	0.000	0.000	0.039	2.671	2.002	2.012	2.007	2.031	2.031	2.036
0.005	0.010	0.000	0.000	0.000	0.000	0.039	2.700	2.002	2.012	2.012	2.031	2.026	2.031
0.000	0.020	0.000	0.000	0.005	0.000	0.039	2.705	1.997	2.012	2.007	2.026	2.026	2.031
-0.005	-0.015	-0.005	0.000	0.005	-0.005	0.039	2.700	2.002	1.997	2.007	2.026	2.026	2.026
0.005	-0.010	0.000	0.000	0.000	-0.024	0.039	2.681	2.002	2.002	2.007	2.026	2.026	2.021
-0.005	-0.010	0.000	0.000	0.005	0.005	0.039	2.676	1.992	1.997	2.002	2.026	2.026	2.031
0.005	0.005	-0.005	0.000	0.005	0.010	0.039	2.676	1.992	2.002	1.997	2.021	2.026	2.031
0.005	-0.005	0.000	0.000	0.005	0.010	0.039	2.666	1.987	1.997	1.997	2.021	2.026	2.026
0.005	0.005	0.000	0.000	0.010	0.000	0.039	2.686	1.987	1.997	1.997	2.021	2.021	2.026
0.000	0.000	0.005	0.005	0.005	0.005	0.039	2.656	1.978	1.992	1.997	2.021	2.017	2.026
0.000	0.000	0.005	0.000	0.005	-0.005	0.039	2.695	1.987	1.992	1.992	2.017	2.017	2.021
0.005	0.000	0.005	0.005	0.000	-0.005	0.039	2.661	1.982	1.987	1.992	2.017	2.017	2.021
0.000	0.005	0.005	0.000	0.000	0.000	0.039	2.671	1.982	1.982	1.987	2.017	2.012	2.021
-0.005	-0.010	0.005	0.005	-0.005	0.005	0.039	2.666	1.978	1.978	1.987	2.007	2.012	2.017
0.000	-0.005	0.005	0.000	0.000	0.005	0.039	2.700	1.982	1.978	1.978	2.007	2.007	2.012
0.000	0.010	0.000	0.010	0.000	0.005	0.039	2.671	1.982	1.982	1.982	2.007	2.007	2.012
0.005	0.010	-0.005	0.005	0.000	0.000	0.039	2.671	1.978	1.978	1.978	2.002	2.002	2.007
0.000	-0.005	0.000	0.000	0.000	-0.015	0.039	2.695	1.978	1.978	1.978	1.997	2.002	2.007
0.010	0.005	0.005	0.000	0.005	0.000	0.039	2.646	1.973	1.978	1.978	1.997	2.002	2.007
-0.005	0.015	0.000	0.000	0.010	-0.005	0.039	2.661	1.968	1.978	1.978	1.997	2.002	2.002
0.015	0.010	-0.005	0.000	0.005	-0.005	0.039	2.671	1.968	1.973	1.978	1.997	1.997	2.002
0.005	0.005	0.000	0.000	0.005	0.000	0.039	2.788	1.982	1.978	1.973	1.997	1.997	2.002
0.000	0.005	0.000	0.000	0.005	-0.005	0.039	2.720	1.982	1.978	1.973	1.997	1.992	1.997
-0.005	0.000	0.000	-0.005	0.005	0.005	0.039	2.646	1.973	1.973	1.973	1.997	1.997	1.997
0.000	0.000	0.000	0.000	0.010	0.000	0.039	2.734	1.963	1.973	1.973	1.997	1.997	1.997
-0.005	0.005	0.000	0.000	-0.005	0.005	0.039	2.651	1.953	1.968	1.973	1.992	1.987	1.997
0.005	0.000	0.000	0.000	-0.015	-0.010	0.039	2.754	1.973	1.968	1.968	1.992	1.987	1.992
0.000	0.010	0.000	0.005	-0.010	0.010	0.039	2.671	1.968	1.973	1.973	1.992	1.987	1.992
0.000	-0.015	0.005	0.000	-0.010	0.010	0.039	2.754	1.973	1.968	1.968	1.992	1.987	1.992
-0.005	-0.005	0.010	0.000	-0.005	0.005	0.039	2.695	1.968	1.968	1.968	1.992	1.987	1.992
0.000	0.005	0.000	0.000	-0.005	-0.005	0.039	2.725	1.973	1.968	1.963	1.987	1.987	1.987
-0.010	-0.005	0.005	0.000	0.005	0.010	0.039	2.676	1.968	1.968	1.968	1.987	1.987	1.992
0.010	0.010	0.000	0.000	0.010	0.010	0.039	2.715	1.968	1.968	1.968	1.987	1.987	1.992
0.005	0.010	0.005	0.005	0.015	0.005	0.039	2.749	1.968	1.968	1.968	1.987	1.987	1.987
0.005	0.010	0.000	0.005	0.010	0.005	0.039	2.622	1.963	1.963	1.968	1.987	1.982	1.987
-0.005	-0.010	0.005	0.000	0.000	0.005	0.039	2.686	1.958	1.953	1.963	1.982	1.982	1.982
0.005	0.000	0.000	0.000	0.000	0.010	0.039	2.676	1.958	1.963	1.958	1.982	1.982	1.987
0.015	-0.005	0.005	0.000	0.005	0.010	0.034	2.671	1.958	1.958	1.963	1.982	1.982	1.982
0.000	0.000	-0.005	0.000	0.005	-0.005	0.039	2.661	1.953	1.958	1.958	1.978	1.982	1.982
0.000	0.005	0.000	0.005	0.000	-0.010	0.039	2.671	1.953	1.958	1.958	1.982	1.978	1.978
-0.005	-0.005	0.000	0.000	0.000	-0.015	0.039	2.681	1.953	1.953	1.958	1.978	1.978	1.978
-0.005	-0.010	0.000	0.000	0.000	0.000	0.039	2.710	1.953	1.953	1.958	1.978	1.978	1.978
0.010	0.010	0.000	0.000	0.005	0.000	0.039	2.690	1.958	1.958	1.958	1.978	1.978	1.982
0.000	-0.005	0.000	0.000	0.000	-0.005	0.039	2.690	1.953	1.953	1.958	1.973	1.978	1.973
0.000	0.000	0.005	0.005	0.000	0.010	0.044	2.671	1.948	1.953	1.953	1.973	1.973	1.978
0.005	0.010	0.000	0.000	-0.005	0.015	0.039	2.695	1.948	1.953	1.953	1.973	1.968	1.978
0.000	0.010	0.005	0.000	-0.015	0.010	0.039	2.666	1.948	1.953	1.953	1.973	1.968	1.973
0.000	0.005	0.000	0.005	-0.005	-0.024	0.039	2.676	1.943	1.948	1.948	1.973	1.968	1.963
-0.005	0.005	0.000	0.000	0.024	0.005	0.039	2.676	1.943	1.943	1.948	1.973	1.978	1.978
-0.005	-0.010	0.005	0.000	0.034	0.005	0.039	2.681	1.943	1.943	1.948	1.968	1.978	1.978
0.005	0.005	0.000	0.010	0.029	0.010	0.039	2.671	1.948	1.948	1.948	1.968	1.973	1.978
0.005	0.005	0.000	0.005	0.010	-0.020	0.039	2.661	1.943	1.948	1.943	1.968	1.963	1.963
0.005	0.010	0.000	0.005	0.000	-0.005	0.039	2.671	1.943	1.948	1.943	1.963	1.958	1.968
0.005	0.005	0.000	0.000	-0.005	0.010	0.034	2.676	1.943	1.943	1.943	1.963	1.958	1.968
0.010	0.005	0.000	0.000	-0.015	0.005	0.039	2.681	1.943	1.943	1.943	1.963	1.958	1.963
0.005	0.005	0.000	0.000	-0.005	-0.015	0.039	2.681	1.943	1.943	1.943	1.963	1.963	1.958
0.005	-0.005	0.000	0.000	0.000	0.015	0.039	2.676	1.938	1.938	1.943	1.963	1.963	1.968
-0.005	0.015	0.000	0.000	0.000	0.005	0.039	2.690	1.943	1.948	1.943	1.963	1.963	1.963
-0.010	0.020	0.000	0.000	0.010	0.010	0.039	2.656	1.938	1.943	1.943	1.963	1.963	1.963
-0.005	0.010	0.000	0.000	0.000	0.000	0.039	2.671	1.938	1.938	1.943	1.963	1.958	1.958
0.005	0.000	0.000	0.000	0.000	0.005	0.039	2.661	1.934	1.934	1.938	1.958	1.958	1.963
0.005	0.000	0.000	0.000	0.005	0.005	0.039	2.642	1.929	1.934	1.938	1.958	1.958	1.963
0.000	0.000	0.000	0.000	0.005	0.005	0.039	2.637	1.929	1.929	1.934	1.958	1.958	1.958
-0.005	-0.005	0.005	0.000	-0.005	-0.010	0.039	2.720	1.934	1.929	1.929	1.958	1.953	1.953
-0.005	0.000	0.005	0.000	0.000	0.000	0.039	2.759	1.938	1.934	1.929	1.953	1.953	1.958
-0.005	-0.005	0.000	0.000	0.000	0.005	0.039	2.744	1.948	1.934	1.929	1.953	1.953	1.953
-0.005	-0.005	-0.005	0.005	0.005	-0.005	0.039	2.627	1.934	1.934	1.929	1.953	1.953	1.953
0.005	0.010	0.000	0.000	0.000	-0.010	0.039	2.646	1.934	1.938	1.929	1.953	1.948	1.948
0.005	0.000	0.000	-0.005	0.000	0.000	0.039	2.656	1.934	1.934	1.929	1.948	1.948	1.953
0.000	-0.010	0.000	0.000	0.000	-0.024	0.039	2.690	1.934	1.934	1.929	1.948	1.948	1.943
-0.005	-0.015	0.000	-0.005	0.005	0.005	0.039	2.725	1.938	1.929	1.929	1.953	1.948	1.953
0.005	-0.020	0.005	0.005	0.000	0.000	0.039	2.671	1.938	1.934	1.934	1.953	1.948	1.953
-0.005	0.005	0.000	0.005	0.000	0.010	0.039	2.749	1.938	1.938	1.934	1.948	1.948	1.953
0.005	0.000	0.000	0.000	0.000	0.000	0.039	2.715	1.943	1.938	1.934	1.948	1.948	1.948
-0.005	0.005	0.000	0.000	0.000	0.005	0.039	2.622	1.934	1.938	1.938	1.953	1.948	1.948
-0.005	0.005	0.000	0.000	-0.005	0.005	0.039	2.686	1.934	1.934	1.934	1.948	1.948	1.948
0.010	-0.005	0.010	0.000	-0.005	-0.015	0.039	2.676	1.934	1.934	1.934	1.953	1.948	1.943
0.000	0.000	0.005	0.000	0.005	0.000	0.039	2.666	1.929	1.934	1.934	1.953	1.948	1.948
0.005	0.000	0.000	0.000	0.005	-0.005	0.039	2.695	1.929	1.929	1.929	1.953	1.948	1.943
0.000	0.000	0.000	-0.005	0.005	0.010	0.039	2.700	1.929	1.929	1.929	1.948	1.948	1.953
-0.005	0.000	0.005	0.005	0.000	-0.005	0.039	2.676	1.929	1.924	1.929	1.953	1.943	1.943
0.000	0.000	0.000	0.000	-0.005	0.000	0.039	2.700	1.929	1.929	1.929	1.948	1.943	1.948
-0.005	0.000	0.000	0.005	0.000	-0.005	0.039	2.671	1.929	1.924	1.924	1.948	1.943	1.943
0.000	0.005	-0.005	0.000	0.005	-0.005	0.039	2.686	1.924	1.929	1.929	1.943	1.948	1.943
0.005	0.000	0.000	0.000	0.005	0.020	0.039	2.690	1.924	1.924	1.929	1.943	1.943	1.948
0.000	0.005	-0.005	0.005	0.000	0.015	0.034	2.700	1.929	1.929	1.929	1.948	1.943	1.948
0.000	0.005	0.000	0.005	0.000	0.005	0.039	2.681	1.929	1.924	1.929	1.948	1.943	1.943
0.000	0.005	0.000	0.000	-0.005	-0.020	0.039	2.681	1.929	1.924	1.924	1.943	1.938	1.934
-0.005	0.000	0.000	0.000	-0.010	0.010	0.039	2.700	1.919	1.924	1.924	1.943	1.943	1.943
0.005	0.005	0.000	0.005	0.005	0.010	0.039	2.695	1.929	1.929	1.924	1.948	1.943	1.943
0.005	0.005	0.000	0.000	0.010	0.005	0.039	2.690	1.929	1.929	1.924	1.943	1.943	1.943
0.005	0.000	0.000	0.000	0.005	0.000	0.039	2.695	1.924	1.924	1.924	1.943	1.943	1.943
0.010	-0.005	0.000	0.005	0.005	-0.024	0.039	2.695	1.929	1.924	1.924	1.943	1.938	1.938
0.005	0.000	0.000	0.000	0.005	-0.005	0.039	2.700	1.929	1.924	1.924	1.943	1.938	1.943
0.000	-0.005	0.005	0.005	0.005	-0.015	0.039	2.700	1.924	1.924	1.924	1.943	1.938	1.938
0.000	0.000	-0.005	0.000	0.000	0.005	0.039	2.705	1.929	1.924	1.919	1.943	1.938	1.943
0.000	0.000	0.000	0.000	-0.005	0.000	0.039	2.671	1.924	1.924	1.924	1.943	1.938	1.938
0.005	0.000	0.005	0.000	0.005	0.005	0.039	2.676	1.924	1.924	1.924	1.938	1.938	1.938
0.000	-0.005	0.000	0.000	0.005	0.005	0.039	2.656	1.919	1.919	1.924	1.938	1.938	1.938
0.000	0.000	0.005	0.000	-0.005	-0.005	0.039	2.803	1.919	1.919	1.919	1.938	1.934	1.938
0.005	-0.005	0.000	0.000	-0.005	0.015	0.039	2.661	1.914	1.914	1.919	1.938	1.934	1.938
0.005	0.005	0.000	0.005	0.005	-0.010	0.039	2.646	1.914	1.919	1.919	1.938	1.934	1.934
0.005	0.005	-0.005	0.000	0.000	0.005	0.039	2.725	1.909	1.919	1.914	1.934	1.934	1.938
0.005	0.005	0.000	0.005	0.000	-0.010	0.039	2.637	1.904	1.914	1.919	1.938	1.934	1.934
0.005	0.000	0.000	0.000	0.000	-0.005	0.039	2.651	1.904	1.909	1.914	1.938	1.934	1.934
0.005	0.005	0.000	0.005	0.000	0.015	0.039	2.720	1.914	1.914	1.914	1.938	1.934	1.938
0.005	0.015	0.000	0.000	0.010	0.000	0.039	2.676	1.924	1.919	1.914	1.934	1.934	1.934
-0.005	0.005	0.000	0.010	0.005	0.000	0.039	2.671	1.914	1.914	1.914	1.938	1.934	1.934
-0.005	0.005	0.000	0.000	0.000	0.005	0.039	2.744	1.929	1.919	1.914	1.934	1.934	1.934
0.005	0.000	0.000	0.000	0.000	-0.015	0.039	2.690	1.929	1.919	1.914	1.934	1.929	1.924
0.005	0.000	0.000	0.005	0.005	-0.010	0.039	2.739	1.929	1.919	1.914	1.934	1.929	1.929
0.010	0.000	0.000	0.000	0.005	0.000	0.039	2.681	1.924	1.919	1.919	1.934	1.934	1.934
-0.005	-0.005	0.005	0.000	0.005	0.015	0.039	2.627	1.914	1.919	1.919	1.934	1.934	1.934
-0.010	-0.010	0.000	0.000	0.010	0.000	0.039	2.734	1.919	1.914	1.914	1.934	1.929	1.934
0.010	0.000	0.005	0.000	0.000	-0.005	0.039	2.622	1.909	1.919	1.914	1.934	1.929	1.929
0.005	0.005	0.010	0.005	0.000	0.005	0.039	2.676	1.909	1.914	1.914	1.934	1.929	1.934
0.005	0.000	0.005	0.000	0.000	0.000	0.039	2.710	1.914	1.914	1.914	1.934	1.929	1.929
-0.005	0.005	0.000	0.000	0.005	0.020	0.039	2.661	1.909	1.914	1.914	1.929	1.929	1.934
-0.005	0.000	0.005	0.000	0.000	0.010	0.039	2.681	1.914	1.909	1.909	1.934	1.929	1.929
0.005	0.005	0.000	0.005	0.005	0.005	0.039	2.690	1.914	1.914	1.914	1.934	1.929	1.929
0.000	0.010	0.005	-0.005	0.005	0.005	0.039	2.705	1.919	1.914	1.914	1.934	1.929	1.929
-0.005	0.000	0.000	0.000	0.005	0.010	0.039	2.700	1.914	1.914	1.909	1.929	1.929	1.934
0.000	0.015	-0.005	0.000	0.005	0.005	0.039	2.676	1.914	1.914	1.914	1.934	1.929	1.929
0.000	0.015	0.000	0.005	-0.005	0.005	0.039	2.700	1.914	1.914	1.914	1.934	1.929	1.929
0.000	-0.005	0.000	0.000	-0.005	-0.020	0.039	2.671	1.914	1.914	1.914	1.929	1.929	1.924
0.005	-0.005	0.005	0.005	-0.005	0.010	0.039	2.700	1.914	1.914	1.914	1.934	1.929	1.929
0.000	0.000	0.005	0.000	-0.010	0.005	0.039	2.686	1.914	1.914	1.914	1.934	1.929	1.924
0.000	-0.010	0.000	0.000	0.000	-0.005	0.034	2.671	1.909	1.909	1.909	1.934	1.929	1.929
0.000	-0.010	0.000	0.000	0.000	-0.005	0.039	2.671	1.909	1.909	1.909	1.934	1.929	1.924
-0.005	-0.010	0.000	0.005	0.005	-0.020	0.039	2.695	1.914	1.909	1.909	1.934	1.929	1.924
0.000	0.000	0.000	0.000	0.010	0.005	0.039	2.695	1.909	1.909	1.909	1.929	1.929	1.934
-0.005	0.005	0.000	0.000	0.000	0.010	0.039	2.676	1.909	1.909	1.909	1.929	1.924	1.929
0.005	0.010	-0.005	0.000	0.005	0.000	0.039	2.666	1.909	1.909	1.909	1.924	1.924	1.929
0.000	0.010	0.000	0.000	-0.005	0.010	0.039	2.676	1.909	1.914	1.909	1.929	1.924	1.929
0.000	-0.005	0.000	0.000	0.000	0.000	0.039	2.666	1.904	1.904	1.909	1.929	1.924	1.924
-0.005	0.005	0.000	0.005	0.005	0.000	0.039	2.710	1.909	1.909	1.909	1.929	1.924	1.924
0.005	0.010	0.005	0.000	0.005	0.005	0.039	2.671	1.909	1.914	1.909	1.929	1.924	1.924
0.000	0.000	0.000	0.000	0.005	0.015	0.039	2.686	1.909	1.909	1.904	1.929	1.924	1.929
0.000	-0.005	0.005	0.000	0.005	0.010	0.039	2.686	1.909	1.909	1.904	1.929	1.924	1.924
0.000	0.005	0.000	0.000	0.000	0.000	0.039	2.666	1.904	1.909	1.904	1.924	1.924	1.919
0.005	0.005	-0.005	0.005	0.000	-0.010	0.039	2.671	1.909	1.909	1.909	1.924	1.919	1.924
-0.010	-0.005	0.000	0.000	-0.005	0.000	0.039	2.642	1.899	1.904	1.904	1.924	1.919	1.919
0.010	-0.005	0.005	0.000	-0.005	0.000	0.039	2.637	1.899	1.904	1.904	1.924	1.919	1.924
-0.005	0.010	0.000	0.005	0.000	-0.005	0.039	2.710	1.904	1.904	1.904	1.924	1.919	1.919
0.000	0.000	0.000	0.000	0.000	0.000	0.039	2.646	1.899	1.899	1.904	1.924	1.919	1.924
-0.005	-0.010	0.000	0.005	0.005	-0.015	0.039	2.651	1.899	1.895	1.899	1.924	1.919	1.919
0.005	-0.005	0.005	0.000	0.005	0.015	0.039	2.720	1.904	1.899	1.899	1.919	1.919	1.924
0.000	-0.005	0.005	0.000	0.000	0.010	0.039	2.651	1.904	1.899	1.899	1.919	1.919	1.919
0.005	-0.005	0.005	0.005	0.000	-0.005	0.039	2.744	1.899	1.899	1.899	1.919	1.919	1.919
-0.005	0.000	0.000	0.000	0.000	0.005	0.039	2.700	1.899	1.899	1.899	1.919	1.914	1.919
0.000	0.010	0.000	0.000	0.005	-0.005	0.039	2.651	1.899	1.899	1.899	1.919	1.914	1.914
0.000	-0.005	0.000	0.005	0.000	0.000	0.039	2.666	1.899	1.895	1.895	1.914	1.914	1.914
-0.005	0.010	0.000	0.000	0.000	-0.005	0.039	2.734	1.909	1.899	1.899	1.919	1.914	1.914
0.005	0.005	0.000	0.000	-0.005	-0.005	0.039	2.725	1.914	1.904	1.899	1.919	1.914	1.914
0.000	0.005	0.000	0.000	0.000	-0.005	0.039	2.642	1.904	1.899	1.899	1.919	1.914	1.914
0.000	0.010	0.000	-0.005	0.000	0.005	0.039	2.681	1.904	1.899	1.904	1.919	1.914	1.914
0.010	0.020	0.000	0.000	0.000	0.000	0.039	2.700	1.909	1.904	1.904	1.919	1.914	1.914
0.005	0.010	0.005	0.000	-0.005	0.010	0.039	2.676	1.909	1.904	1.904	1.919	1.914	1.919
0.005	0.010	0.000	0.000	0.010	0.000	0.039	2.690	1.909	1.904	1.904	1.919	1.914	1.914
-0.005	-0.010	0.005	0.000	0.000	0.005	0.039	2.705	1.909	1.899	1.899	1.919	1.914	1.914
0.000	0.010	0.000	0.000	0.000	0.005	0.039	2.666	1.904	1.904	1.899	1.919	1.914	1.914
-0.005	0.000	0.005	0.000	-0.005	-0.005	0.039	2.700	1.904	1.904	1.899	1.919	1.914	1.909
0.000	-0.005	0.010	0.000	0.000	-0.005	0.039	2.671	1.899	1.899	1.899	1.919	1.919	1.914
0.000	-0.005	0.000	0.005	0.005	-0.005	0.039	2.695	1.904	1.904	1.895	1.919	1.919	1.909
-0.005	0.000	0.000	0.000	0.005	0.005	0.039	2.661	1.899	1.899	1.899	1.919	1.914	1.919
0.000	0.000	0.005	0.000	0.000	0.015	0.039	2.705	1.904	1.899	1.899	1.919	1.914	1.914
-0.005	-0.005	0.000	0.000	0.005	0.005	0.039	2.686	1.899	1.899	1.899	1.914	1.914	1.914
0.005	0.000	0.000	0.000	0.010	-0.005	0.039	2.676	1.904	1.899	1.899	1.919	1.914	1.909
-0.005	0.010	0.000	0.000	0.005	0.005	0.039	2.695	1.899	1.904	1.899	1.914	1.914	1.914
0.005	0.005	0.010	0.005	0.000	0.005	0.039	2.681	1.904	1.904	1.899	1.919	1.914	1.914
0.010	0.010	0.000	0.000	0.010	-0.024	0.039	2.705	1.909	1.904	1.899	1.919	1.914	1.904
0.005	-0.005	0.000	0.005	0.005	-0.015	0.039	2.676	1.899	1.899	1.899	1.919	1.914	1.914
-0.010	0.005	-0.005	0.000	0.005	0.010	0.039	2.705	1.904	1.904	1.899	1.919	1.914	1.919
0.000	0.000	0.005	0.000	0.005	0.000	0.039	2.676	1.904	1.904	1.904	1.919	1.914	1.919
0.000	0.005	0.000	0.000	0.005	0.010	0.039	2.700	1.904	1.904	1.904	1.919	1.914	1.919
0.005	0.000	0.000	0.000	0.015	0.000	0.039	2.695	1.904	1.904	1.899	1.919	1.919	1.914
0.000	0.000	-0.005	0.000	0.010	-0.005	0.039	2.666	1.904	1.904	1.899	1.919	1.919	1.914
0.000	-0.005	0.005	0.005	0.005	0.005	0.039	2.686	1.904	1.899	1.904	1.919	1.914	1.919
0.005	0.000	0.005	0.000	-0.005	0.005	0.039	2.666	1.904	1.899	1.904	1.919	1.914	1.914
0.005	0.000	0.000	0.000	-0.005	-0.010	0.039	2.710	1.899	1.899	1.899	1.919	1.909	1.909
-0.010	0.000	0.000	0.000	0.000	0.010	0.039	2.656	1.890	1.895	1.899	1.914	1.914	1.914
0.005	0.000	0.000	0.000	0.000	0.005	0.039	2.642	1.890	1.890	1.899	1.919	1.914	1.914
-0.005	0.005	-0.005	0.005	-0.005	0.005	0.039	2.646	1.885	1.890	1.895	1.914	1.909	1.909
0.000	0.000	0.000	0.000	-0.010	-0.024	0.039	2.637	1.899	1.890	1.895	1.914	1.909	1.904
-0.005	0.000	0.005	0.000	-0.005	-0.005	0.039	2.651	1.899	1.895	1.895	1.914	1.909	1.909
0.000	0.000	0.005	0.000	0.000	0.005	0.039	2.725	1.904	1.895	1.890	1.914	1.909	1.909
0.005	0.005	0.000	0.005	-0.005	-0.005	0.039	2.651	1.904	1.899	1.895	1.914	1.909	1.909
0.010	-0.005	0.000	-0.005	0.005	0.000	0.034	2.671	1.899	1.895	1.890	1.909	1.914	1.914
0.005	0.005	0.000	0.000	0.005	-0.005	0.039	2.725	1.909	1.899	1.895	1.914	1.909	1.909
0.010	0.000	0.005	-0.005	0.005	-0.005	0.039	2.705	1.909	1.904	1.895	1.914	1.914	1.909
0.005	-0.005	0.000	0.000	0.000	0.010	0.039	2.739	1.909	1.904	1.895	1.914	1.909	1.914
-0.005	0.005	0.000	0.000	0.005	-0.020	0.039	2.676	1.909	1.904	1.899	1.914	1.909	1.904
-0.005	0.000	0.000	0.005	-0.005	0.000	0.039	2.725	1.909	1.904	1.899	1.919	1.909	1.914
0.000	-0.005	-0.005	0.000	0.005	0.005	0.039	2.734	1.909	1.904	1.899	1.919	1.909	1.914
0.000	-0.005	-0.005	0.005	0.000	0.000	0.039	2.646	1.899	1.904	1.899	1.919	1.909	1.914
0.000	-0.005	0.000	0.005	0.000	0.005	0.039	2.661	1.899	1.899	1.899	1.919	1.914	1.914
0.000	-0.010	0.000	0.000	0.005	-0.005	0.039	2.666	1.895	1.895	1.899	1.919	1.914	1.909
0.005	-0.005	0.000	0.005	0.005	0.000	0.039	2.656	1.895	1.899	1.899	1.919	1.914	1.914
-0.005	0.000	0.010	0.000	-0.005	-0.005	0.039	2.710	1.899	1.899	1.899	1.919	1.909	1.909
0.000	0.010	0.005	0.000	-0.005	0.005	0.039	2.700	1.904	1.904	1.899	1.914	1.909	1.909
0.000	0.015	0.000	0.000	0.005	0.005	0.039	2.671	1.904	1.904	1.899	1.919	1.914	1.909
0.010	0.010	0.005	0.000	0.010	0.010	0.039	2.700	1.904	1.904	1.899	1.914	1.914	1.914
0.000	0.010	0.000	0.005	0.000	0.000	0.039	2.705	1.899	1.899	1.899	1.919	1.914	1.909
-0.005	0.005	0.000	0.005	0.005	0.005	0.039	2.695	1.904	1.899	1.899	1.914	1.914	1.909
0.010	0.015	-0.005	0.000	0.000	0.010	0.039	2.666	1.904	1.904	1.899	1.914	1.914	1.914
0.010	0.000	0.000	0.005	0.005	0.010	0.039	2.710	1.904	1.899	1.899	1.919	1.914	1.914
0.000	0.015	0.000	0.000	0.000	0.005	0.039	2.705	1.904	1.899	1.904	1.919	1.914	1.909
0.000	-0.005	0.000	0.005	0.000	0.000	0.039	2.676	1.899	1.899	1.899	1.919	1.914	1.909
-0.005	0.000	0.005	0.000	0.005	0.005	0.039	2.676	1.895	1.899	1.899	1.919	1.914	1.914
0.010	0.005	0.000	0.000	-0.005	0.005	0.039	2.690	1.904	1.899	1.899	1.919	1.914	1.909
-0.005	0.000	0.000	0.000	0.000	0.000	0.039	2.700	1.899	1.899	1.899	1.919	1.914	1.914
-0.005	-0.005	0.000	0.000	0.000	0.010	0.039	2.676	1.899	1.895	1.895	1.919	1.914	1.914
0.000	-0.005	0.005	0.000	0.000	0.000	0.039	2.690	1.895	1.895	1.895	1.914	1.914	1.909
-0.005	0.005	0.005	0.000	0.000	0.000	0.039	2.695	1.899	1.895	1.895	1.914	1.909	1.909
0.000	0.005	0.005	0.005	0.000	0.000	0.039	2.690	1.899	1.899	1.899	1.914	1.909	1.909
0.000	0.005	0.000	0.005	0.005	-0.015	0.039	2.700	1.899	1.895	1.895	1.914	1.909	1.904
0.005	0.000	0.000	0.000	-0.005	0.005	0.039	2.661	1.895	1.899	1.895	1.914	1.909	1.914
-0.005	0.010	0.000	0.000	0.000	-0.005	0.039	2.695	1.895	1.895	1.895	1.914	1.909	1.909
0.000	-0.005	0.000	0.000	0.000	-0.010	0.039	2.676	1.895	1.890	1.895	1.914	1.909	1.909
-0.005	-0.005	0.000	-0.005	0.005	0.010	0.039	2.671	1.895	1.890	1.895	1.914	1.909	1.914
0.010	-0.005	0.005	0.000	0.000	0.000	0.039	2.656	1.895	1.895	1.895	1.909	1.909	1.909
0.000	0.000	0.005	0.005	0.000	0.005	0.039	2.637	1.890	1.895	1.895	1.914	1.909	1.909
0.005	0.010	-0.005	0.000	0.005	-0.005	0.039	2.637	1.890	1.895	1.890	1.909	1.909	1.909
0.000	0.010	0.000	0.000	0.000	0.000	0.039	2.700	1.899	1.895	1.895	1.909	1.909	1.909
0.005	0.005	-0.005	0.005	0.000	-0.010	0.039	2.754	1.909	1.895	1.895	1.914	1.904	1.909
0.005	0.005	-0.005	0.005	0.000	-0.020	0.039	2.612	1.895	1.895	1.895	1.914	1.909	1.904
0.005	0.000	0.000	0.000	0.005	-0.005	0.039	2.637	1.890	1.890	1.895	1.914	1.909	1.909
0.000	-0.005	0.000	0.000	0.000	0.010	0.039	2.661	1.890	1.890	1.895	1.909	1.909	1.914
-0.010	-0.010	0.000	0.000	0.005	0.005	0.039	2.744	1.890	1.890	1.890	1.909	1.909	1.909
-0.005	0.015	0.000	0.000	0.005	0.005	0.039	2.666	1.890	1.895	1.890	1.914	1.904	1.909
-0.005	0.010	0.005	0.000	0.005	-0.005	0.039	2.627	1.885	1.890	1.890	1.909	1.909	1.909
-0.005	0.000	0.005	0.005	0.005	-0.005	0.039	2.695	1.895	1.885	1.890	1.909	1.904	1.904
0.000	0.000	0.000	0.000	0.005	0.010	0.039	2.729	1.899	1.890	1.890	1.904	1.909	1.909
-0.005	0.005	0.000	0.000	0.000	0.010	0.039	2.720	1.904	1.890	1.890	1.909	1.904	1.909
0.005	0.000	0.000	0.005	-0.005	-0.005	0.039	2.725	1.899	1.895	1.890	1.909	1.904	1.904
0.005	0.000	0.005	0.000	0.000	0.005	0.039	2.681	1.899	1.895	1.890	1.904	1.904	1.904
0.010	-0.005	0.005	0.000	0.000	-0.005	0.039	2.700	1.904	1.895	1.895	1.909	1.904	1.904
0.010	-0.005	0.005	0.005	0.010	0.005	0.039	2.666	1.899	1.895	1.895	1.909	1.909	1.909
0.010	-0.005	0.000	0.005	-0.005	0.000	0.039	2.690	1.899	1.899	1.890	1.909	1.904	1.904
0.000	0.000	0.005	0.000	0.005	0.000	0.039	2.710	1.899	1.899	1.895	1.914	1.904	1.904
0.005	0.000	0.005	0.000	0.000	0.005	0.039	2.681	1.904	1.899	1.895	1.914	1.909	1.904
0.005	-0.005	0.000	0.005	0.000	0.005	0.039	2.695	1.899	1.899	1.895	1.914	1.909	1.904
0.005	-0.005	0.000	0.000	0.000	0.005	0.039	2.666	1.899	1.895	1.895	1.909	1.909	1.909
0.005	-0.005	0.000	0.000	0.000	-0.005	0.039	2.700	1.899	1.895	1.895	1.914	1.904	1.904
-0.005	-0.005	0.005	0.005	0.000	-0.005	0.039	2.671	1.895	1.895	1.895	1.914	1.909	1.904
0.000	0.000	0.000	0.000	0.000	0.000	0.039	2.700	1.895	1.895	1.890	1.914	1.909	1.904
-0.010	0.005	0.000	0.000	0.000	0.010	0.039	2.690	1.895	1.899	1.895	1.914	1.909	1.909
0.005	0.005	0.000	0.005	0.000	0.005	0.039	2.695	1.899	1.899	1.899	1.914	1.909	1.909
-0.005	-0.024	0.000	0.005	0.000	0.000	0.039	2.695	1.890	1.885	1.890	1.909	1.909	1.904
0.005	-0.015	0.000	0.000	0.010	0.010	0.039	2.695	1.895	1.890	1.895	1.909	1.909	1.909
0.000	-0.005	0.000	0.000	0.005	0.005	0.039	2.705	1.904	1.895	1.890	1.914	1.909	1.909
0.005	-0.005	0.000	0.000	0.005	-0.005	0.039	2.710	1.904	1.899	1.895	1.914	1.909	1.909
0.005	0.000	0.000	0.000	0.000	-0.015	0.039	2.686	1.899	1.899	1.890	1.909	1.904	1.904
-0.005	0.000	0.000	0.000	0.000	-0.010	0.039	2.686	1.899	1.899	1.895	1.914	1.904	1.904
-0.005	0.000	0.000	0.000	-0.005	-0.020	0.039	2.695	1.899	1.899	1.895	1.914	1.904	1.904
0.005	0.024	-0.005	0.000	0.005	0.010	0.039	2.695	1.904	1.909	1.899	1.914	1.909	1.914
-0.005	0.020	0.000	0.000	0.000	0.005	0.039	2.666	1.899	1.899	1.899	1.914	1.909	1.909
0.010	0.020	0.000	0.005	0.005	0.010	0.039	2.690	1.904	1.904	1.899	1.919	1.909	1.909
0.005	0.015	0.000	0.000	0.000	0.010	0.039	2.632	1.895	1.899	1.899	1.919	1.909	1.909
-0.005	0.005	0.005	0.005	0.000	-0.005	0.039	2.666	1.895	1.899	1.899	1.919	1.914	1.909
0.000	0.000	0.000	0.005	0.000	-0.005	0.039	2.661	1.890	1.890	1.895	1.919	1.909	1.909
0.000	0.000	0.000	0.005	0.000	-0.005	0.039	2.764	1.904	1.895	1.895	1.914	1.909	1.909
0.000	0.005	0.005	-0.005	0.000	0.010	0.039	2.715	1.909	1.895	1.895	1.914	1.909	1.909
-0.005	0.005	0.005	0.005	0.000	-0.005	0.039	2.671	1.895	1.895	1.895	1.914	1.909	1.909
-0.005	-0.005	0.000	0.005	0.005	0.010	0.039	2.749	1.899	1.895	1.895	1.914	1.909	1.914
0.005	0.000	0.000	0.000	0.005	0.005	0.039	2.651	1.895	1.895	1.890	1.909	1.909	1.914
0.005	-0.005	0.005	0.000	0.005	0.005	0.039	2.720	1.899	1.895	1.895	1.909	1.909	1.909
0.000	-0.005	0.000	0.000	0.000	-0.005	0.039	2.651	1.895	1.895	1.890	1.909	1.904	1.904
0.000	0.005	0.000	0.000	0.005	0.010	0.039	2.656	1.890	1.895	1.895	1.909	1.909	1.909
0.000	0.005	0.005	0.000	0.000	0.000	0.039	2.651	1.890	1.895	1.890	1.909	1.909	1.909
-0.005	0.005	-0.005	0.000	0.005	0.000	0.039	2.715	1.899	1.895	1.890	1.909	1.909	1.909
0.005	0.020	0.000	0.005	0.005	-0.010	0.039	2.690	1.899	1.899	1.895	1.909	1.909	1.909
0.000	0.005	0.000	0.000	0.000	0.000	0.039	2.725	1.899	1.895	1.895	1.914	1.909	1.909
0.010	0.000	0.000	0.000	0.000	0.000	0.039	2.715	1.909	1.895	1.895	1.914	1.909	1.909
0.005	0.000	0.005	0.000	0.005	-0.005	0.039	2.656	1.904	1.899	1.895	1.914	1.909	1.909
0.005	0.000	0.005	0.000	0.005	0.000	0.039	2.671	1.899	1.899	1.895	1.914	1.909	1.909
0.005	0.010	0.000	0.005	0.000	-0.005	0.039	2.695	1.904	1.899	1.899	1.914	1.909	1.909
0.000	0.010	0.005	0.005	0.005	0.005	0.039	2.676	1.899	1.895	1.899	1.914	1.909	1.909
0.000	0.000	0.005	0.005	0.000	0.000	0.039	2.700	1.899	1.899	1.895	1.914	1.909	1.909
-0.005	-0.005	0.000	0.000	-0.010	0.005	0.039	2.646	1.890	1.895	1.890	1.914	1.904	1.909
-0.005	-0.010	0.000	0.005	-0.010	0.010	0.039	2.671	1.890	1.890	1.890	1.914	1.904	1.909
0.000	-0.005	0.000	0.000	0.005	0.000	0.039	2.695	1.895	1.890	1.890	1.909	1.909	1.909
0.005	-0.005	0.005	0.000	0.005	0.010	0.039	2.700	1.899	1.895	1.890	1.909	1.909	1.909
0.005	-0.005	0.005	0.000	0.000	-0.005	0.039	2.695	1.899	1.895	1.890	1.909	1.904	1.909
0.000	0.005	0.000	0.000	-0.005	0.005	0.039	2.710	1.899	1.899	1.890	1.909	1.904	1.909
0.005	0.000	-0.005	0.005	-0.005	0.005	0.039	2.700	1.904	1.899	1.895	1.909	1.904	1.904
0.005	0.010	0.000	0.000	-0.005	0.005	0.039	2.690	1.904	1.899	1.899	1.914	1.904	1.909
0.000	0.005	0.005	0.000	0.000	0.000	0.039	2.676	1.899	1.899	1.895	1.914	1.909	1.904
0.005	0.000	0.005	0.000	0.005	-0.005	0.039	2.700	1.904	1.899	1.895	1.909	1.909	1.904
0.005	-0.005	0.005	0.000	0.015	0.005	0.039	2.671	1.899	1.899	1.899	1.914	1.914	1.909
-0.005	-0.005	0.000	0.000	0.020	0.005	0.039	2.676	1.895	1.899	1.895	1.914	1.909	1.909
0.010	0.005	0.000	0.005	0.005	0.005	0.039	2.695	1.899	1.899	1.895	1.914	1.909	1.914
-0.005	-0.005	0.000	0.000	-0.005	0.015	0.039	2.671	1.895	1.895	1.895	1.914	1.904	1.909
-0.005	0.005	0.000	0.000	-0.005	0.005	0.039	2.690	1.899	1.899	1.895	1.914	1.909	1.909
-0.005	0.005	0.005	0.000	0.005	-0.015	0.039	2.671	1.895	1.899	1.895	1.914	1.909	1.904
0.000	0.000	0.005	0.000	0.000	-0.005	0.039	2.690	1.895	1.895	1.895	1.909	1.909	1.904
-0.005	-0.005	0.000	0.005	0.005	-0.020	0.039	2.671	1.890	1.895	1.895	1.909	1.909	1.904
0.000	0.000	0.000	0.005	0.005	-0.020	0.039	2.676	1.890	1.890	1.890	1.909	1.909	1.904
-0.005	-0.005	0.000	0.000	0.005	0.000	0.039	2.656	1.890	1.890	1.890	1.909	1.909	1.909
0.005	-0.015	0.005	0.000	-0.005	0.010	0.039	2.798	1.890	1.890	1.885	1.909	1.904	1.914
-0.005	-0.010	0.005	-0.005	0.000	0.005	0.039	2.666	1.890	1.890	1.890	1.909	1.904	1.909
0.000	-0.005	0.000	0.000	0.000	0.010	0.039	2.646	1.890	1.890	1.890	1.904	1.904	1.909
0.000	0.000	0.005	0.000	-0.005	-0.010	0.039	2.729	1.890	1.895	1.890	1.909	1.904	1.899
0.000	0.000	0.005	0.005	0.000	0.015	0.039	2.632	1.880	1.890	1.885	1.909	1.904	1.909
0.000	0.005	0.005	-0.005	0.000	0.010	0.039	2.666	1.895	1.890	1.890	1.909	1.904	1.909
0.000	-0.005	0.005	0.000	-0.005	0.010	0.039	2.749	1.899	1.890	1.890	1.909	1.904	1.904
0.000	0.005	0.000	0.000	0.000	0.010	0.039	2.651	1.904	1.895	1.890	1.909	1.904	1.904
0.005	0.000	0.000	0.000	0.000	0.005	0.039	2.671	1.899	1.899	1.890	1.909	1.904	1.904
0.000	0.015	0.000	0.000	0.005	0.010	0.039	2.734	1.899	1.899	1.895	1.909	1.904	1.904
0.000	0.000	0.000	0.000	0.005	-0.020	0.039	2.666	1.895	1.895	1.895	1.909	1.904	1.899
0.005	0.000	0.005	0.000	0.000	0.010	0.039	2.744	1.904	1.895	1.895	1.909	1.904	1.904
0.005	0.005	0.005	0.010	0.000	0.000	0.044	2.695	1.899	1.899	1.895	1.914	1.904	1.904
0.005	0.010	-0.005	0.000	0.000	-0.005	0.039	2.725	1.909	1.899	1.895	1.909	1.904	1.904
0.000	0.005	0.000	0.005	-0.005	-0.005	0.039	2.715	1.909	1.899	1.895	1.909	1.904	1.904
0.005	-0.005	0.000	0.000	0.005	0.005	0.039	2.710	1.895	1.899	1.895	1.909	1.909	1.904
-0.005	0.000	0.000	0.005	0.000	0.015	0.039	2.671	1.890	1.890	1.895	1.914	1.904	1.909
0.000	0.000	0.000	0.000	0.000	0.010	0.039	2.676	1.895	1.890	1.895	1.909	1.904	1.904
0.010	0.000	0.005	0.005	0.000	0.005	0.039	2.681	1.890	1.895	1.890	1.909	1.909	1.904
-0.005	0.020	0.005	0.000	0.000	0.000	0.039	2.705	1.890	1.899	1.895	1.909	1.904	1.904
-0.005	0.010	0.000	0.000	-0.005	-0.020	0.034	2.700	1.895	1.890	1.895	1.909	1.904	1.899
0.000	0.000	0.000	0.000	0.005	0.010	0.039	2.686	1.899	1.890	1.890	1.914	1.909	1.909
0.000	0.000	0.000	0.000	0.005	-0.020	0.039	2.705	1.899	1.895	1.890	1.909	1.909	1.904
0.010	0.010	-0.005	0.005	0.000	0.005	0.039	2.671	1.895	1.895	1.890	1.914	1.909	1.909
0.005	0.000	0.005	-0.005	0.000	0.005	0.039	2.690	1.899	1.895	1.895	1.909	1.909	1.909
0.005	0.000	0.005	0.005	0.000	-0.005	0.039	2.676	1.895	1.895	1.895	1.909	1.909	1.904
-0.005	0.000	0.000	0.000	-0.005	0.005	0.039	2.671	1.895	1.895	1.895	1.914	1.909	1.909
0.005	0.000	0.000	0.005	0.000	0.010	0.039	2.686	1.895	1.895	1.895	1.909	1.909	1.909
-0.005	0.000	0.005	0.000	0.005	0.010	0.039	2.666	1.890	1.895	1.890	1.914	1.909	1.909
-0.005	0.005	0.005	0.005	0.010	0.010	0.039	2.671	1.890	1.895	1.895	1.914	1.909	1.909
0.000	-0.005	0.005	0.000	0.010	0.010	0.039	2.700	1.895	1.890	1.890	1.909	1.909	1.904
0.005	-0.010	0.005	0.005	0.005	0.005	0.039	2.695	1.895	1.890	1.890	1.909	1.909	1.909
-0.005	0.000	0.000	0.010	0.005	-0.005	0.039	2.695	1.895	1.890	1.890	1.909	1.904	1.904
0.005	-0.005	0.005	0.005	0.010	0.010	0.039	2.700	1.899	1.895	1.890	1.909	1.904	1.909
0.010	-0.005	0.005	0.000	0.005	0.010	0.039	2.666	1.899	1.895	1.890	1.909	1.904	1.909
0.005	-0.005	0.005	0.005	0.000	0.005	0.039	2.710	1.899	1.895	1.890	1.909	1.904	1.904
0.005	-0.005	0.000	0.000	0.000	0.005	0.039	2.690	1.899	1.895	1.890	1.909	1.904	1.904
0.005	-0.005	0.000	0.000	0.000	0.005	0.039	2.671	1.899	1.899	1.890	1.909	1.904	1.904
0.005	0.000	0.000	0.000	-0.005	0.000	0.039	2.676	1.895	1.899	1.895	1.909	1.904	1.904
0.015	0.005	0.005	0.000	0.000	0.005	0.039	2.676	1.899	1.899	1.895	1.909	1.909	1.904
0.000	0.010	-0.005	0.000	0.000	-0.005	0.039	2.734	1.890	1.895	1.895	1.909	1.904	1.899
0.000	-0.005	0.000	0.005	0.005	0.005	0.039	2.666	1.890	1.895	1.895	1.914	1.909	1.909
-0.005	0.005	0.000	0.000	0.000	0.005	0.039	2.646	1.885	1.895	1.895	1.914	1.909	1.904
0.000	0.015	0.000	0.000	0.005	0.005	0.039	2.651	1.885	1.890	1.895	1.914	1.909	1.909
-0.005	0.005	0.005	0.000	0.000	0.005	0.039	2.627	1.890	1.890	1.890	1.914	1.904	1.904
0.005	0.000	0.005	0.005	0.000	0.000	0.039	2.651	1.890	1.890	1.890	1.914	1.909	1.909
0.010	-0.005	0.000	0.005	0.000	-0.010	0.039	2.749	1.899	1.890	1.885	1.909	1.904	1.904
0.000	0.000	0.000	-0.005	0.010	-0.010	0.044	2.637	1.890	1.890	1.890	1.909	1.904	1.909
-0.005	-0.005	0.000	0.005	0.000	0.010	0.039	2.656	1.890	1.890	1.885	1.909	1.904	1.909
0.000	-0.005	0.000	0.000	0.000	0.005	0.039	2.729	1.895	1.890	1.885	1.909	1.904	1.904
0.005	0.005	0.000	0.000	0.000	0.010	0.039	2.661	1.890	1.895	1.885	1.904	1.904	1.909
0.000	0.005	0.000	0.000	0.000	-0.020	0.039	2.754	1.899	1.890	1.885	1.904	1.904	1.895
0.000	0.000	0.005	0.005	0.000	0.005	0.039	2.681	1.904	1.895	1.890	1.904	1.904	1.904
-0.005	-0.005	0.000	0.000	0.000	0.000	0.039	2.749	1.909	1.899	1.890	1.904	1.904	1.904
-0.005	0.010	0.005	0.000	0.005	0.005	0.039	2.734	1.909	1.904	1.895	1.909	1.904	1.904
0.005	0.005	0.005	0.005	-0.005	0.005	0.039	2.642	1.899	1.899	1.895	1.909	1.904	1.904
0.005	0.000	0.000	0.005	0.000	0.000	0.039	2.671	1.899	1.899	1.895	1.909	1.904	1.904
0.000	0.005	0.000	0.000	0.005	0.000	0.039	2.705	1.904	1.904	1.895	1.914	1.909	1.904
-0.005	0.000	0.005	0.000	0.000	0.000	0.039	2.676	1.895	1.899	1.895	1.909	1.904	1.904
0.000	0.000	0.010	0.000	0.000	0.005	0.039	2.700	1.899	1.899	1.899	1.914	1.909	1.904
0.000	-0.005	0.000	0.000	0.000	0.000	0.039	2.695	1.899	1.899	1.899	1.914	1.904	1.904
0.000	-0.005	0.005	0.000	0.000	-0.010	0.039	2.700	1.899	1.899	1.899	1.914	1.909	1.904
0.010	0.000	0.005	0.005	-0.005	0.005	0.039	2.686	1.899	1.899	1.899	1.914	1.909	1.904
0.015	-0.005	-0.005	0.000	0.000	0.005	0.039	2.690	1.899	1.895	1.895	1.914	1.909	1.909
0.005	0.005	0.005	0.000	-0.005	-0.024	0.039	2.710	1.899	1.899	1.895	1.914	1.904	1.899
-0.010	-0.005	0.000	0.005	0.005	0.010	0.039	2.695	1.895	1.890	1.895	1.914	1.909	1.909
0.000	0.000	0.005	0.000	0.000	0.010	0.039	2.700	1.895	1.899	1.895	1.909	1.909	1.909
0.000	0.000	0.000	0.000	0.005	0.005	0.039	2.695	1.899	1.895	1.890	1.914	1.909	1.909
0.005	0.000	0.000	0.000	0.000	0.000	0.039	2.690	1.899	1.895	1.890	1.914	1.909	1.909
0.000	0.000	0.000	0.005	0.000	0.000	0.039	2.676	1.895	1.895	1.895	1.909	1.909	1.909
0.000	0.005	-0.010	0.005	0.000	0.000	0.039	2.671	1.890	1.895	1.895	1.914	1.904	1.909
0.005	-0.010	0.000	0.005	-0.005	0.000	0.039	2.700	1.895	1.895	1.895	1.909	1.909	1.904
0.000	-0.020	0.000	0.000	0.005	-0.005	0.039	2.705	1.899	1.890	1.890	1.909	1.909	1.904
0.000	-0.005	0.000	0.000	0.000	0.000	0.039	2.686	1.899	1.899	1.895	1.909	1.909	1.904
0.010	0.005	0.000	0.000	0.005	0.010	0.039	2.695	1.899	1.899	1.899	1.909	1.909	1.909
0.000	0.000	0.000	0.000	0.000	0.005	0.039	2.700	1.899	1.899	1.895	1.914	1.909	1.909
0.000	0.005	0.005	0.000	0.005	0.010	0.039	2.695	1.899	1.899	1.899	1.914	1.909	1.909
0.000	0.010	0.005	0.000	0.005	0.015	0.039	2.666	1.895	1.899	1.895	1.914	1.914	1.909
0.000	0.005	0.005	0.005	0.010	0.010	0.039	2.681	1.895	1.895	1.895	1.914	1.909	1.909
-0.005	0.000	0.005	0.000	0.010	0.005	0.039	2.666	1.890	1.895	1.899	1.914	1.909	1.909
-0.005	0.010	-0.005	0.005	0.000	0.015	0.039	2.651	1.895	1.895	1.890	1.914	1.909	1.909
0.000	0.000	-0.005	0.000	-0.010	-0.005	0.039	2.651	1.890	1.890	1.890	1.909	1.904	1.904
-0.005	-0.010	0.000	0.000	-0.010	0.005	0.039	2.642	1.885	1.885	1.890	1.909	1.904	1.904
0.005	0.005	0.000	0.005	0.000	0.000	0.039	2.637	1.880	1.890	1.890	1.909	1.904	1.904
0.000	-0.005	0.000	0.000	0.000	0.000	0.039	2.725	1.890	1.885	1.890	1.909	1.904	1.904
0.000	-0.005	0.000	0.000	-0.005	-0.005	0.039	2.661	1.899	1.890	1.890	1.904	1.904	1.899
0.005	0.000	0.000	0.005	0.000	0.000	0.039	2.754	1.909	1.895	1.890	1.909	1.904	1.904
0.005	0.020	0.000	0.000	0.000	0.005	0.039	2.637	1.899	1.899	1.890	1.909	1.904	1.904
0.000	0.010	0.000	0.005	0.000	0.000	0.044	2.666	1.899	1.899	1.890	1.909	1.904	1.904
0.005	0.015	0.000	0.000	0.000	-0.005	0.039	2.739	1.904	1.899	1.895	1.909	1.904	1.904
-0.005	0.020	0.005	0.000	-0.005	0.000	0.039	2.671	1.899	1.899	1.895	1.909	1.904	1.904
0.005	0.010	0.000	0.005	0.000	-0.010	0.039	2.734	1.909	1.899	1.899	1.914	1.904	1.904
-0.005	0.010	0.000	0.000	-0.005	-0.005	0.039	2.671	1.899	1.899	1.895	1.914	1.904	1.904
0.000	0.005	0.005	0.000	0.005	-0.005	0.034	2.646	1.899	1.899	1.895	1.914	1.909	1.909
0.000	0.000	-0.005	0.000	0.015	-0.024	0.039	2.725	1.895	1.895	1.895	1.914	1.909	1.904
0.000	0.010	0.000	0.000	0.010	0.010	0.039	2.622	1.890	1.895	1.895	1.914	1.909	1.914
-0.005	0.000	0.005	0.005	0.010	0.015	0.034	2.666	1.890	1.895	1.895	1.909	1.914	1.914
0.000	-0.005	0.005	0.000	0.020	0.015	0.039	2.681	1.890	1.890	1.890	1.914	1.909	1.914
0.000	0.000	0.005	0.005	0.015	0.015	0.039	2.666	1.890	1.895	1.895	1.909	1.909	1.914
0.000	0.000	0.000	0.000	0.020	0.010	0.039	2.695	1.895	1.885	1.890	1.909	1.909	1.909
-0.005	0.000	0.005	0.005	0.000	0.000	0.039	2.695	1.899	1.890	1.890	1.909	1.904	1.904
0.000	0.000	0.000	0.000	0.005	0.000	0.039	2.676	1.899	1.890	1.890	1.909	1.904	1.904
0.000	0.000	0.005	0.000	0.000	0.000	0.039	2.700	1.899	1.890	1.890	1.909	1.904	1.904
0.010	0.005	0.000	0.005	0.005	0.000	0.039	2.681	1.899	1.895	1.890	1.909	1.904	1.904
-0.005	-0.005	0.000	0.000	0.000	0.005	0.039	2.695	1.899	1.890	1.890	1.909	1.904	1.904
0.010	0.000	0.000	0.000	0.000	0.005	0.039	2.695	1.904	1.899	1.895	1.909	1.904	1.904
0.005	-0.005	0.000	0.000	-0.005	0.005	0.039	2.686	1.899	1.899	1.895	1.909	1.904	1.904
0.000	-0.005	-0.005	0.000	-0.005	0.000	0.039	2.695	1.899	1.895	1.895	1.909	1.904	1.904
0.005	-0.020	0.005	0.000	-0.010	0.005	0.039	2.681	1.899	1.895	1.895	1.909	1.904	1.904
0.000	-0.005	0.000	0.000	-0.005	-0.010	0.039	2.695	1.895	1.899	1.895	1.914	1.904	1.904
0.005	0.000	0.000	0.000	0.000	0.000	0.039	2.705	1.899	1.899	1.899	1.914	1.909	1.904
-0.005	-0.010	0.005	0.000	-0.005	0.005	0.039	2.705	1.899	1.895	1.895	1.909	1.909	1.909
-0.005	0.000	0.000	0.000	0.000	-0.015	0.039	2.676	1.899	1.895	1.895	1.914	1.909	1.904
-0.005	-0.005	0.005	0.000	0.000	0.005	0.039	2.661	1.890	1.895	1.895	1.914	1.909	1.909
-0.005	0.005	0.000	0.005	0.000	-0.024	0.039	2.671	1.890	1.895	1.895	1.914	1.909	1.899
0.005	0.010	0.000	0.000	0.005	0.010	0.039	2.695	1.895	1.895	1.895	1.909	1.909	1.914
0.000	0.000	0.005	0.000	0.000	0.005	0.039	2.690	1.895	1.890	1.895	1.914	1.909	1.909
0.010	0.005	0.000	0.000	0.000	0.005	0.039	2.666	1.895	1.890	1.890	1.909	1.909	1.909
-0.005	0.005	0.005	0.005	-0.005	0.015	0.039	2.690	1.895	1.890	1.890	1.909	1.909	1.909
0.015	0.000	0.000	0.000	0.005	0.015	0.039	2.676	1.904	1.895	1.890	1.909	1.909	1.909
0.000	0.005	0.005	0.000	0.005	0.010	0.039	2.676	1.899	1.895	1.890	1.914	1.909	1.909
0.005	0.010	0.000	0.000	0.000	0.005	0.039	2.666	1.895	1.899	1.890	1.914	1.909	1.909
0.005	0.005	0.000	0.000	0.005	-0.010	0.039	2.642	1.890	1.895	1.890	1.909	1.909	1.904
0.005	0.029	0.000	0.005	0.000	0.005	0.039	2.642	1.890	1.899	1.895	1.914	1.904	1.904
0.000	0.015	0.000	0.005	0.000	0.005	0.039	2.715	1.899	1.895	1.895	1.909	1.909	1.909
0.005	0.015	0.000	0.000	0.010	-0.005	0.039	2.651	1.914	1.895	1.895	1.914	1.909	1.904
0.005	0.010	0.000	0.005	0.000	-0.005	0.039	2.705	1.909	1.899	1.895	1.914	1.904	1.904
0.000	0.000	0.000	0.005	-0.005	-0.015	0.039	2.622	1.895	1.895	1.895	1.909	1.904	1.904
0.005	-0.005	0.005	0.000	-0.010	-0.005	0.039	2.646	1.895	1.895	1.895	1.914	1.909	1.909
0.000	0.000	0.000	0.005	0.000	-0.010	0.039	2.725	1.895	1.895	1.895	1.914	1.909	1.909
-0.010	0.000	-0.005	0.000	0.005	0.005	0.039	2.681	1.895	1.895	1.890	1.914	1.909	1.914
-0.005	-0.020	0.005	0.005	0.000	0.005	0.039	2.729	1.899	1.890	1.890	1.909	1.909	1.909
-0.005	-0.010	0.005	-0.005	0.005	0.010	0.039	2.671	1.899	1.895	1.890	1.909	1.909	1.914
-0.005	-0.010	0.005	0.000	0.005	0.000	0.039	2.715	1.899	1.895	1.890	1.909	1.904	1.909
0.000	0.005	-0.005	0.000	0.000	0.000	0.039	2.725	1.909	1.904	1.890	1.909	1.904	1.904
0.000	0.005	0.000	0.000	-0.005	-0.005	0.039	2.637	1.899	1.899	1.895	1.909	1.904	1.899
-0.005	0.010	0.000	0.000	-0.005	-0.005	0.039	2.681	1.895	1.899	1.895	1.909	1.904	1.904
0.010	0.005	0.000	0.005	-0.005	0.015	0.039	2.686	1.899	1.895	1.895	1.914	1.904	1.909
0.010	0.005	0.005	0.000	-0.005	0.015	0.039	2.681	1.899	1.899	1.895	1.914	1.909	1.909
0.005	0.005	0.000	0.000	0.005	-0.005	0.039	2.676	1.899	1.899	1.895	1.914	1.909	1.904
0.000	0.005	0.000	0.005	-0.015	0.015	0.039	2.700	1.899	1.895	1.895	1.914	1.904	1.914
0.000	0.000	0.010	0.000	-0.024	0.010	0.039	2.671	1.899	1.895	1.899	1.914	1.904	1.904
0.010	-0.005	0.005	0.000	-0.024	-0.010	0.034	2.710	1.899	1.895	1.895	1.914	1.904	1.899
-0.005	0.005	0.000	0.005	-0.005	0.010	0.039	2.700	1.899	1.899	1.895	1.914	1.914	1.909
-0.005	0.000	0.000	0.000	0.034	0.010	0.039	2.695	1.899	1.895	1.895	1.914	1.924	1.914
0.000	-0.010	0.000	0.005	0.034	0.005	0.039	2.661	1.899	1.895	1.895	1.914	1.919	1.914
0.005	-0.005	0.000	0.005	0.029	-0.005	0.039	2.666	1.895	1.895	1.895	1.914	1.914	1.914
-0.010	0.000	0.000	0.000	0.020	-0.010	0.039	2.695	1.895	1.895	1.895	1.909	1.909	1.909
0.000	-0.005	0.005	0.000	0.005	0.005	0.039	2.695	1.895	1.895	1.890	1.914	1.909	1.909
-0.005	-0.005	0.005	0.005	0.000	-0.010	0.039	2.695	1.895	1.895	1.895	1.909	1.904	1.904
0.005	-0.005	0.010	0.000	-0.005	0.000	0.039	2.700	1.899	1.899	1.895	1.909	1.904	1.904
-0.005	-0.005	0.005	0.000	0.000	-0.005	0.039	2.695	1.899	1.895	1.895	1.909	1.904	1.904
-0.005	-0.020	0.005	0.000	0.005	-0.015	0.039	2.676	1.895	1.890	1.895	1.909	1.904	1.904
0.000	-0.015	0.000	0.000	0.005	0.005	0.039	2.705	1.904	1.895	1.890	1.909	1.909	1.904
0.000	-0.005	0.000	0.000	0.000	-0.005	0.039	2.690	1.904	1.899	1.890	1.909	1.904	1.904
0.005	0.000	0.005	0.000	-0.005	0.000	0.039	2.700	1.904	1.899	1.895	1.909	1.904	1.904
0.010	0.005	0.005	0.000	-0.015	0.000	0.039	2.695	1.904	1.904	1.899	1.914	1.904	1.904
0.005	0.015	-0.005	0.000	0.000	0.000	0.039	2.671	1.895	1.904	1.899	1.909	1.909	1.909
0.005	0.015	0.005	0.000	0.000	0.000	0.039	2.681	1.899	1.904	1.904	1.914	1.909	1.909
-0.005	0.015	0.005	0.000	0.000	-0.024	0.039	2.656	1.895	1.899	1.899	1.914	1.909	1.899
0.000	0.010	-0.005	0.000	0.000	0.010	0.039	2.729	1.890	1.895	1.899	1.914	1.909	1.909
0.000	0.010	-0.005	0.000	-0.005	-0.005	0.039	2.661	1.885	1.895	1.895	1.914	1.909	1.904
0.000	0.010	0.000	0.000	0.000	0.005	0.039	2.651	1.895	1.890	1.895	1.914	1.909	1.909
-0.005	0.005	0.000	0.000	0.005	0.010	0.039	2.646	1.885	1.890	1.890	1.914	1.909	1.909
-0.005	0.010	0.000	0.000	0.005	-0.010	0.039	2.632	1.890	1.890	1.890	1.909	1.909	1.904
-0.005	0.010	0.000	0.000	0.005	0.000	0.039	2.749	1.895	1.890	1.890	1.909	1.909	1.904
0.000	-0.005	0.000	0.000	0.005	0.010	0.039	2.720	1.904	1.890	1.885	1.909	1.909	1.909
0.000	0.005	0.000	0.005	0.010	0.010	0.039	2.651	1.899	1.890	1.890	1.909	1.904	1.909
0.000	-0.005	0.000	0.000	0.000	0.005	0.039	2.656	1.895	1.890	1.890	1.909	1.904	1.904
-0.005	0.000	0.000	-0.005	0.005	0.010	0.039	2.729	1.904	1.895	1.890	1.904	1.904	1.904
0.000	0.005	0.000	0.000	-0.010	0.005	0.039	2.695	1.899	1.899	1.890	1.909	1.904	1.904
0.000	-0.005	0.000	0.000	-0.005	-0.010	0.039	2.739	1.909	1.899	1.890	1.909	1.904	1.899
0.010	0.010	0.000	0.000	0.000	0.005	0.039	2.681	1.904	1.904	1.895	1.909	1.904	1.904
0.010	0.010	0.000	0.000	0.005	0.000	0.039	2.656	1.899	1.899	1.895	1.914	1.909	1.904
0.010	-0.005	0.000	0.000	0.005	0.005	0.039	2.720	1.904	1.899	1.895	1.914	1.909	1.904
0.005	0.000	0.005	0.000	0.005	-0.005	0.039	2.651	1.899	1.899	1.899	1.914	1.904	1.904
-0.005	0.010	0.000	-0.005	0.005	-0.020	0.039	2.676	1.895	1.899	1.899	1.914	1.909	1.904
0.000	-0.005	0.010	0.005	0.000	0.000	0.039	2.700	1.895	1.895	1.899	1.919	1.909	1.909
-0.005	-0.010	0.005	0.000	0.000	0.010	0.039	2.671	1.890	1.890	1.895	1.914	1.909	1.909
0.000	-0.005	0.010	0.005	0.000	0.010	0.039	2.681	1.895	1.895	1.895	1.914	1.909	1.909
0.000	-0.005	0.000	0.000	0.005	0.005	0.039	2.705	1.895	1.890	1.890	1.914	1.909	1.909
0.000	0.000	0.000	0.000	0.005	0.015	0.039	2.671	1.895	1.895	1.890	1.909	1.909	1.909
0.000	0.000	-0.005	0.000	0.005	0.000	0.039	2.705	1.899	1.895	1.890	1.909	1.904	1.909
-0.010	-0.005	-0.005	0.005	0.005	0.000	0.039	2.666	1.890	1.890	1.890	1.909	1.909	1.909
0.000	0.000	0.000	0.000	0.005	0.005	0.039	2.690	1.895	1.895	1.890	1.909	1.904	1.909
-0.005	-0.005	0.000	0.000	0.005	0.000	0.039	2.676	1.895	1.890	1.890	1.909	1.904	1.904
-0.015	0.010	0.000	0.000	0.000	0.005	0.039	2.681	1.895	1.895	1.890	1.909	1.904	1.904
0.005	0.005	0.000	0.010	-0.005	-0.005	0.039	2.700	1.904	1.895	1.890	1.914	1.909	1.899
0.000	0.010	0.000	0.000	-0.005	0.010	0.039	2.695	1.899	1.899	1.895	1.909	1.904	1.909
0.000	0.010	0.000	0.000	-0.010	0.005	0.039	2.666	1.895	1.899	1.895	1.909	1.904	1.909
0.005	0.015	0.000	-0.005	-0.005	-0.005	0.039	2.695	1.899	1.904	1.899	1.909	1.909	1.904
0.010	0.005	0.000	0.000	0.000	0.005	0.034	2.705	1.899	1.895	1.895	1.914	1.909	1.909
0.010	0.000	0.000	0.005	0.010	0.005	0.039	2.681	1.904	1.895	1.895	1.914	1.909	1.909
0.010	-0.005	0.000	0.000	0.010	0.000	0.039	2.666	1.895	1.895	1.895	1.914	1.914	1.904
-0.005	0.000	0.000	0.005	0.000	0.005	0.039	2.695	1.895	1.895	1.895	1.914	1.909	1.909
-0.005	-0.005	0.000	0.005	-0.005	0.005	0.039	2.676	1.890	1.890	1.895	1.914	1.909	1.914
0.000	0.020	0.005	0.005	-0.005	0.000	0.039	2.690	1.890	1.895	1.895	1.914	1.909	1.909
-0.020	0.005	0.005	0.000	0.000	-0.005	0.039	2.666	1.890	1.890	1.895	1.909	1.904	1.904
-0.015	0.000	0.005	0.005	0.005	-0.015	0.039	2.686	1.895	1.890	1.890	1.914	1.909	1.899
-0.010	-0.005	0.010	0.000	0.015	0.000	0.039	2.632	1.890	1.885	1.890	1.909	1.909	1.914
-0.005	0.000	-0.005	0.000	0.005	0.005	0.034	2.656	1.885	1.885	1.885	1.909	1.904	1.904
-0.010	0.005	0.000	-0.005	0.005	0.010	0.039	2.671	1.890	1.885	1.885	1.904	1.904	1.909
-0.005	0.000	0.000	0.000	0.000	0.005	0.039	2.778	1.904	1.890	1.885	1.909	1.904	1.904
0.005	0.005	0.000	0.000	0.005	-0.015	0.039	2.734	1.914	1.895	1.890	1.909	1.904	1.904
0.015	0.005	0.005	0.000	0.000	0.010	0.039	2.656	1.904	1.899	1.890	1.909	1.904	1.909
0.024	0.005	-0.005	0.000	0.000	0.010	0.039	2.754	1.919	1.904	1.895	1.909	1.904	1.904
0.024	0.005	-0.005	0.000	0.000	0.000	0.039	2.632	1.904	1.904	1.895	1.914	1.904	1.904
0.029	0.005	0.000	0.000	0.000	0.000	0.039	2.749	1.909	1.904	1.899	1.914	1.904	1.904
0.015	0.005	0.000	0.005	0.000	0.000	0.039	2.651	1.899	1.904	1.899	1.914	1.909	1.904
0.005	0.000	0.000	0.000	-0.005	0.005	0.039	2.656	1.895	1.899	1.899	1.914	1.909	1.904
0.005	-0.005	0.000	0.005	-0.005	0.000	0.039	2.666	1.895	1.899	1.895	1.914	1.909	1.904
0.005	-0.005	0.000	0.000	0.000	-0.005	0.039	2.720	1.895	1.895	1.895	1.914	1.909	1.904
0.005	-0.005	0.005	0.000	0.005	-0.005	0.039	2.700	1.895	1.895	1.895	1.914	1.909	1.909
-0.005	-0.010	0.005	0.000	0.000	0.010	0.039	2.632	1.890	1.890	1.890	1.914	1.909	1.909
-0.010	0.000	0.000	0.005	0.000	0.005	0.039	2.720	1.895	1.890	1.895	1.914	1.909	1.904
-0.010	-0.005	0.005	0.005	0.000	0.005	0.039	2.749	1.899	1.890	1.890	1.914	1.909	1.909
-0.005	-0.010	-0.005	0.005	0.000	0.005	0.039	2.666	1.895	1.890	1.890	1.909	1.909	1.909
-0.005	-0.015	0.000	0.000	0.000	0.000	0.039	2.686	1.895	1.890	1.890	1.909	1.904	1.909
-0.015	0.000	0.005	0.005	0.000	0.000	0.039	2.666	1.890	1.895	1.895	1.909	1.904	1.904
-0.005	0.000	0.010	0.005	0.000	-0.020	0.039	2.681	1.895	1.895	1.890	1.909	1.904	1.899
-0.044	0.000	0.005	0.000	0.000	0.005	0.039	2.671	1.880	1.890	1.890	1.909	1.904	1.909
-0.039	0.000	0.000	0.000	0.000	0.005	0.039	2.681	1.890	1.890	1.890	1.909	1.904	1.904
-0.015	0.000	0.000	0.000	0.000	-0.010	0.039	2.695	1.895	1.890	1.890	1.909	1.904	1.904
0.005	0.000	0.000	0.000	0.000	0.005	0.039	2.671	1.904	1.895	1.890	1.909	1.904	1.909
0.029	0.005	0.005	0.005	-0.005	0.000	0.039	2.695	1.904	1.895	1.890	1.909	1.904	1.909
0.034	0.005	-0.005	0.000	0.000	0.005	0.039	2.671	1.909	1.904	1.895	1.909	1.904	1.909
0.039	0.005	0.000	0.000	0.000	0.000	0.039	2.695	1.909	1.904	1.895	1.909	1.909	1.904
0.024	0.000	0.000	0.005	0.005	-0.005	0.039	2.695	1.899	1.904	1.895	1.914	1.904	1.904
0.005	0.005	0.000	0.005	0.000	-0.015	0.039	2.700	1.899	1.899	1.899	1.914	1.909	1.904
0.000	-0.005	0.000	0.000	0.000	0.015	0.039	2.700	1.895	1.895	1.895	1.914	1.909	1.909
-0.015	-0.010	0.005	0.000	0.000	0.005	0.039	2.686	1.890	1.890	1.895	1.914	1.904	1.909
-0.015	-0.005	0.005	0.000	0.005	-0.010	0.039	2.686	1.890	1.895	1.890	1.914	1.904	1.899
-0.015	-0.010	0.005	0.000	0.005	-0.005	0.039	2.671	1.890	1.890	1.890	1.909	1.904	1.904
0.005	-0.015	0.005	0.000	0.005	0.010	0.039	2.671	1.895	1.890	1.890	1.909	1.904	1.909
0.010	0.005	0.005	0.005	0.000	0.005	0.039	2.700	1.899	1.899	1.890	1.909	1.904	1.909
0.020	0.010	0.000	0.005	0.000	0.005	0.039	2.671	1.899	1.899	1.895	1.914	1.904	1.904
0.010	0.010	0.000	0.010	0.000	0.010	0.039	2.686	1.895	1.899	1.895	1.909	1.904	1.904
-0.010	0.005	-0.005	0.000	0.005	-0.015	0.039	2.671	1.890	1.890	1.890	1.914	1.904	1.904
0.005	0.010	0.000	0.005	0.005	-0.010	0.039	2.676	1.895	1.895	1.895	1.909	1.904	1.904
-0.005	-0.005	-0.005	0.005	-0.005	0.005	0.039	2.671	1.890	1.890	1.890	1.909	1.909	1.909
-0.005	0.000	-0.005	0.000	0.000	0.005	0.034	2.793	1.890	1.890	1.890	1.909	1.909	1.909
0.005	0.005	0.005	0.000	0.000	-0.015	0.039	2.666	1.895	1.890	1.890	1.909	1.904	1.904
0.010	0.005	0.005	0.000	0.000	0.005	0.039	2.642	1.890	1.895	1.895	1.909	1.904	1.909
0.015	0.005	0.000	0.000	0.010	0.005	0.039	2.681	1.885	1.890	1.890	1.909	1.909	1.909
-0.005	0.005	0.005	0.000	0.010	-0.034	0.039	2.627	1.885	1.890	1.890	1.909	1.909	1.895
-0.039	0.000	0.000	0.000	0.005	0.000	0.039	2.656	1.880	1.885	1.885	1.909	1.904	1.904
-0.034	0.005	0.000	0.000	0.000	0.005	0.039	2.705	1.885	1.885	1.885	1.909	1.899	1.909
-0.029	0.000	0.000	0.000	0.000	0.010	0.039	2.729	1.895	1.880	1.885	1.904	1.904	1.909
-0.059	-0.005	0.000	0.005	0.000	-0.015	0.039	2.681	1.880	1.875	1.880	1.904	1.899	1.904
-0.039	-0.010	0.005	0.000	0.000	0.010	0.039	2.651	1.890	1.880	1.880	1.904	1.899	1.909
0.010	-0.005	0.005	0.000	0.000	0.010	0.039	2.666	1.899	1.890	1.885	1.899	1.899	1.904
0.049	-0.005	0.005	0.000	0.000	0.010	0.039	2.725	1.914	1.899	1.885	1.899	1.899	1.899
0.059	-0.005	0.005	0.000	0.000	-0.005	0.039	2.666	1.909	1.904	1.890	1.904	1.899	1.899
0.063	0.010	0.000	0.000	0.000	0.005	0.039	2.705	1.914	1.909	1.895	1.904	1.899	1.899
0.073	0.005	0.005	0.000	0.005	0.005	0.039	2.754	1.919	1.909	1.899	1.909	1.904	1.904
0.039	-0.005	0.000	0.000	0.005	0.005	0.039	2.725	1.904	1.904	1.899	1.909	1.904	1.899
0.020	0.015	0.000	0.000	0.005	0.005	0.039	2.676	1.895	1.904	1.899	1.914	1.904	1.904
-0.024	0.005	-0.005	0.005	0.005	-0.005	0.039	2.671	1.885	1.895	1.899	1.914	1.904	1.904
-0.054	0.010	0.000	0.000	0.000	-0.010	0.039	2.676	1.875	1.890	1.899	1.914	1.904	1.904
-0.083	0.000	0.000	0.010	0.000	0.005	0.039	2.671	1.870	1.885	1.890	1.914	1.909	1.904
-0.059	0.000	0.000	0.005	-0.005	0.010	0.039	2.690	1.890	1.885	1.890	1.909	1.909	1.909
-0.015	-0.005	0.005	0.000	0.005	0.010	0.039	2.686	1.904	1.890	1.890	1.909	1.909	1.904
0.015	0.005	0.000	0.005	0.000	-0.015	0.039	2.700	1.909	1.895	1.890	1.909	1.904	1.904
0.049	0.005	0.000	0.000	0.000	0.010	0.039	2.700	1.919	1.899	1.890	1.909	1.904	1.909
0.068	-0.005	0.005	0.005	0.005	0.010	0.039	2.676	1.914	1.904	1.895	1.909	1.904	1.909
0.049	0.000	0.000	0.000	0.000	0.000	0.039	2.690	1.909	1.904	1.895	1.909	1.904	1.904
0.020	-0.005	0.005	-0.005	0.000	0.005	0.039	2.676	1.890	1.895	1.895	1.909	1.904	1.904
-0.020	0.000	0.000	-0.005	0.000	0.010	0.039	2.695	1.885	1.895	1.895	1.909	1.904	1.904
-0.068	0.005	0.000	0.000	-0.005	0.005	0.039	2.666	1.870	1.885	1.890	1.909	1.904	1.904
-0.059	0.005	0.010	-0.005	0.000	-0.010	0.039	2.681	1.885	1.885	1.890	1.909	1.904	1.899
-0.015	0.010	0.005	0.000	0.000	0.010	0.034	2.700	1.895	1.895	1.890	1.909	1.909	1.909
0.015	0.015	0.005	0.000	-0.005	0.005	0.039	2.705	1.909	1.899	1.890	1.914	1.904	1.904
0.049	0.000	0.000	0.010	0.000	-0.020	0.039	2.671	1.914	1.899	1.895	1.909	1.909	1.899
0.073	0.010	0.000	0.005	0.005	0.005	0.039	2.671	1.914	1.904	1.895	1.909	1.909	1.909
0.083	0.005	0.005	0.010	0.000	0.005	0.039	2.671	1.909	1.904	1.899	1.914	1.909	1.909
0.068	-0.005	0.000	0.005	0.000	0.010	0.039	2.710	1.904	1.895	1.899	1.914	1.909	1.909
0.044	-0.005	0.000	0.010	0.000	0.005	0.039	2.690	1.895	1.899	1.899	1.914	1.909	1.909
0.020	-0.005	0.000	0.005	0.000	0.005	0.039	2.661	1.885	1.895	1.895	1.914	1.909	1.909
0.000	0.000	0.000	0.005	-0.005	0.010	0.039	2.676	1.880	1.890	1.890	1.909	1.909	1.909
-0.015	0.005	-0.005	0.000	-0.005	-0.005	0.039	2.661	1.880	1.890	1.890	1.909	1.909	1.904
-0.039	0.000	0.000	0.005	0.005	0.010	0.039	2.671	1.875	1.880	1.890	1.909	1.909	1.909
-0.039	0.005	0.000	0.000	0.000	0.010	0.039	2.656	1.880	1.880	1.885	1.909	1.904	1.909
-0.034	-0.005	0.005	-0.005	0.000	-0.015	0.039	2.646	1.875	1.875	1.880	1.904	1.904	1.899
-0.039	-0.005	0.005	-0.010	0.000	0.015	0.039	2.637	1.875	1.880	1.880	1.899	1.899	1.909
-0.039	-0.005	0.010	-0.010	0.000	0.005	0.039	2.686	1.890	1.880	1.880	1.899	1.899	1.904
-0.039	0.000	0.005	0.000	0.005	0.010	0.039	2.744	1.899	1.885	1.880	1.904	1.899	1.904
-0.029	-0.005	0.005	0.000	0.000	0.015	0.039	2.637	1.895	1.890	1.880	1.904	1.899	1.904
-0.020	0.000	0.000	0.005	0.005	0.005	0.039	2.754	1.909	1.895	1.880	1.899	1.899	1.899
-0.015	0.005	-0.005	-0.005	0.005	0.000	0.039	2.676	1.904	1.895	1.885	1.899	1.899	1.899
-0.010	0.000	0.005	0.000	0.015	0.000	0.039	2.744	1.895	1.899	1.890	1.904	1.904	1.899
-0.020	0.000	0.005	-0.005	0.010	-0.015	0.039	2.705	1.895	1.895	1.890	1.904	1.899	1.895
-0.005	0.000	-0.005	0.005	0.015	-0.005	0.039	2.642	1.890	1.895	1.890	1.909	1.904	1.899
-0.020	-0.015	0.000	0.010	0.015	0.005	0.039	2.690	1.890	1.885	1.890	1.909	1.904	1.904
-0.010	-0.010	0.000	0.010	0.015	-0.010	0.039	2.646	1.890	1.890	1.890	1.909	1.904	1.895
0.000	-0.010	0.000	0.005	0.010	-0.024	0.039	2.734	1.899	1.895	1.890	1.909	1.904	1.895
0.010	-0.005	0.000	0.010	0.010	0.005	0.039	2.627	1.895	1.895	1.890	1.909	1.904	1.904
0.015	-0.005	0.000	0.010	0.010	0.000	0.039	2.661	1.895	1.895	1.890	1.909	1.904	1.904
0.020	0.000	0.005	0.005	0.010	0.010	0.039	2.695	1.895	1.895	1.895	1.909	1.904	1.904
0.020	-0.010	0.005	0.000	0.010	-0.029	0.039	2.666	1.890	1.890	1.890	1.909	1.904	1.895
0.005	0.000	0.010	0.000	0.010	0.005	0.039	2.700	1.895	1.895	1.890	1.909	1.904	1.904
0.010	0.010	0.000	0.000	0.010	-0.010	0.039	2.695	1.895	1.895	1.890	1.909	1.904	1.904
0.005	0.000	0.000	-0.005	0.005	-0.010	0.039	2.700	1.890	1.890	1.885	1.909	1.899	1.899
0.000	0.020	0.000	0.005	0.010	-0.010	0.039	2.705	1.895	1.895	1.890	1.909	1.904	1.904
0.005	0.010	-0.005	0.005	0.010	0.000	0.039	2.671	1.895	1.890	1.890	1.909	1.904	1.904
-0.005	0.010	0.000	0.005	0.010	-0.005	0.039	2.700	1.890	1.895	1.890	1.909	1.904	1.904
0.015	0.000	-0.005	0.000	0.005	0.005	0.039	2.690	1.899	1.890	1.890	1.909	1.904	1.904
0.020	0.000	0.000	0.000	0.015	0.000	0.039	2.715	1.904	1.895	1.890	1.909	1.909	1.904
0.005	0.000	0.000	0.000	0.010	0.000	0.039	2.700	1.899	1.899	1.895	1.909	1.904	1.904
0.000	0.010	0.000	0.005	0.010	0.000	0.039	2.700	1.899	1.899	1.895	1.909	1.904	1.904
0.005	0.010	0.000	0.005	0.005	0.005	0.039	2.700	1.899	1.895	1.895	1.909	1.904	1.909
0.000	0.000	0.005	0.000	-0.005	0.010	0.039	2.695	1.899	1.895	1.895	1.909	1.904	1.904
0.005	0.000	0.000	0.005	0.000	0.005	0.039	2.700	1.899	1.895	1.895	1.909	1.904	1.904
-0.005	0.010	0.000	0.000	-0.005	-0.005	0.039	2.700	1.899	1.895	1.895	1.909	1.904	1.904
0.000	0.015	-0.005	0.005	-0.005	0.015	0.039	2.690	1.895	1.895	1.895	1.909	1.904	1.909
0.000	0.000	0.000	0.000	-0.010	0.000	0.039	2.681	1.899	1.895	1.895	1.909	1.904	1.904
-0.015	0.000	-0.005	0.000	-0.005	0.010	0.039	2.695	1.895	1.890	1.890	1.909	1.904	1.904
-0.020	-0.005	0.000	0.000	-0.005	0.010	0.039	2.686	1.890	1.890	1.890	1.909	1.904	1.904
-0.010	0.000	0.005	0.000	-0.010	0.005	0.039	2.676	1.890	1.890	1.890	1.909	1.904	1.899
-0.005	-0.015	0.010	0.005	-0.010	0.000	0.039	2.686	1.895	1.890	1.890	1.909	1.904	1.904
-0.005	-0.010	0.005	0.000	-0.010	-0.020	0.039	2.686	1.895	1.890	1.885	1.909	1.904	1.895
-0.005	-0.005	0.000	0.000	-0.005	0.010	0.039	2.666	1.890	1.890	1.890	1.909	1.904	1.904
0.005	-0.005	0.000	0.010	-0.010	0.005	0.039	2.681	1.895	1.890	1.885	1.909	1.904	1.904
0.020	0.010	-0.005	0.000	-0.015	0.015	0.039	2.642	1.899	1.895	1.890	1.909	1.904	1.909
0.039	-0.005	0.000	-0.010	-0.010	0.015	0.039	2.637	1.895	1.895	1.890	1.904	1.904	1.909
0.034	0.000	-0.005	-0.020	-0.005	0.010	0.039	2.710	1.899	1.895	1.890	1.904	1.904	1.904
-0.059	-0.005	0.000	-0.015	-0.010	0.010	0.039	2.661	1.865	1.885	1.890	1.904	1.904	1.904
-0.098	0.020	-0.005	-0.010	-0.005	0.005	0.039	2.632	1.865	1.880	1.885	1.904	1.904	1.904
-0.068	0.015	0.000	0.000	-0.010	0.015	0.039	2.632	1.875	1.880	1.885	1.909	1.904	1.904
-0.015	0.010	0.000	0.010	-0.005	0.010	0.039	2.642	1.890	1.880	1.885	1.909	1.904	1.904
0.015	-0.005	0.000	0.010	0.000	0.000	0.039	2.744	1.895	1.880	1.880	1.904	1.904	1.899
0.034	-0.005	0.005	-0.005	-0.005	0.010	0.039	2.681	1.895	1.885	1.880	1.899	1.899	1.904
0.059	0.000	0.000	-0.015	-0.005	0.010	0.039	2.627	1.899	1.890	1.880	1.899	1.899	1.899
0.068	0.000	-0.005	-0.005	0.000	-0.005	0.039	2.656	1.895	1.895	1.885	1.899	1.899	1.895
0.083	0.000	0.000	0.000	-0.005	0.010	0.039	2.734	1.904	1.890	1.885	1.904	1.899	1.899
0.088	0.000	0.000	0.010	0.005	0.000	0.039	2.715	1.904	1.899	1.890	1.909	1.899	1.899
0.073	0.000	0.010	0.015	0.005	0.015	0.039	2.651	1.899	1.895	1.890	1.909	1.904	1.904
0.059	0.000	0.005	0.020	0.005	0.000	0.039	2.676	1.890	1.895	1.890	1.909	1.904	1.899
0.039	0.015	0.000	0.015	0.005	0.005	0.039	2.676	1.885	1.899	1.890	1.909	1.899	1.899
0.029	0.010	0.000	0.010	0.005	0.000	0.039	2.671	1.890	1.890	1.895	1.909	1.904	1.899
0.010	0.010	0.000	0.005	0.000	-0.005	0.039	2.700	1.885	1.890	1.890	1.909	1.904	1.899
-0.010	-0.005	-0.005	0.005	0.000	-0.005	0.039	2.705	1.885	1.880	1.880	1.909	1.904	1.899
-0.020	0.010	0.000	0.005	0.000	-0.010	0.039	2.671	1.880	1.885	1.885	1.904	1.904	1.899
-0.039	-0.005	-0.005	0.000	0.000	-0.015	0.039	2.700	1.880	1.880	1.885	1.904	1.899	1.899
-0.059	0.000	0.000	0.000	-0.005	-0.010	0.039	2.710	1.880	1.880	1.880	1.899	1.899	1.899
-0.063	0.000	0.005	-0.005	0.010	0.005	0.039	2.690	1.885	1.880	1.880	1.899	1.899	1.904
-0.054	0.000	0.000	-0.005	0.005	0.000	0.039	2.705	1.890	1.880	1.880	1.899	1.899	1.904
-0.049	-0.005	0.000	-0.005	0.010	0.005	0.039	2.676	1.895	1.885	1.880	1.904	1.899	1.899
-0.039	-0.005	0.010	-0.005	0.000	-0.010	0.039	2.705	1.899	1.890	1.880	1.899	1.895	1.895
-0.024	0.000	0.005	0.000	0.000	0.005	0.039	2.690	1.904	1.895	1.880	1.899	1.895	1.899
-0.015	-0.010	0.005	0.010	0.000	-0.005	0.039	2.676	1.899	1.895	1.885	1.904	1.895	1.895
-0.010	-0.015	-0.005	0.005	0.010	-0.005	0.039	2.671	1.895	1.890	1.885	1.904	1.899	1.899
-0.010	-0.005	-0.005	0.010	0.005	0.005	0.039	2.705	1.899	1.895	1.885	1.904	1.899	1.899
0.005	0.015	0.000	0.005	0.005	-0.020	0.039	2.705	1.899	1.899	1.890	1.904	1.899	1.895
0.010	-0.005	-0.005	0.005	0.005	0.000	0.039	2.700	1.904	1.895	1.890	1.909	1.899	1.899
0.020	0.010	0.000	0.000	0.005	0.010	0.034	2.695	1.904	1.904	1.895	1.909	1.904	1.904
0.000	0.000	0.000	-0.005	0.000	-0.015	0.039	2.700	1.895	1.895	1.895	1.909	1.899	1.899
-0.005	0.005	-0.005	-0.005	0.005	-0.005	0.039	2.700	1.895	1.899	1.895	1.909	1.904	1.904
0.000	0.005	0.000	-0.005	0.005	0.000	0.039	2.661	1.890	1.895	1.895	1.909	1.904	1.899
0.000	0.005	0.010	0.000	0.005	-0.005	0.039	2.686	1.895	1.895	1.895	1.914	1.904	1.904
0.005	0.000	0.005	0.010	0.005	0.010	0.039	2.651	1.895	1.895	1.895	1.914	1.909	1.909
0.005	0.015	-0.005	0.005	0.010	-0.005	0.039	2.739	1.890	1.895	1.895	1.914	1.909	1.904
0.024	0.000	-0.005	0.010	0.000	0.005	0.039	2.651	1.890	1.890	1.890	1.914	1.904	1.909
0.020	-0.005	0.000	0.005	0.000	0.005	0.039	2.642	1.885	1.885	1.890	1.909	1.904	1.909
0.015	-0.010	0.000	0.005	0.000	-0.005	0.039	2.651	1.880	1.885	1.890	1.909	1.904	1.904
0.020	-0.005	0.000	0.005	0.000	0.000	0.034	2.637	1.890	1.885	1.885	1.909	1.904	1.904
0.005	0.005	0.005	0.000	0.000	0.010	0.039	2.754	1.890	1.885	1.885	1.904	1.904	1.909
0.010	-0.005	0.000	0.000	-0.005	-0.010	0.044	2.715	1.895	1.890	1.885	1.904	1.899	1.899
0.000	0.005	0.005	0.005	0.005	0.000	0.039	2.656	1.890	1.890	1.885	1.909	1.904	1.904
-0.005	0.005	0.005	0.000	0.005	0.010	0.039	2.642	1.885	1.890	1.885	1.904	1.904	1.909
-0.005	0.005	0.000	0.000	0.000	-0.024	0.039	2.661	1.880	1.885	1.885	1.904	1.899	1.895
-0.010	0.020	0.000	0.000	0.005	0.015	0.039	2.695	1.885	1.890	1.890	1.904	1.904	1.909
-0.010	0.029	0.000	0.000	0.000	-0.005	0.039	2.725	1.904	1.895	1.885	1.904	1.904	1.904
-0.015	0.020	0.000	0.010	0.000	0.005	0.039	2.671	1.895	1.895	1.890	1.909	1.904	1.904
-0.015	0.000	0.000	0.000	0.005	0.015	0.039	2.744	1.904	1.885	1.885	1.904	1.904	1.904
0.000	0.000	-0.005	0.005	0.000	0.010	0.039	2.734	1.914	1.899	1.890	1.904	1.904	1.904
-0.010	-0.005	0.005	0.000	0.000	-0.010	0.034	2.642	1.895	1.895	1.890	1.909	1.899	1.899
0.010	0.005	0.005	0.000	0.005	0.005	0.039	2.676	1.895	1.899	1.895	1.909	1.904	1.904
0.005	0.000	0.005	0.000	0.005	0.010	0.039	2.676	1.895	1.895	1.890	1.909	1.904	1.904
-0.020	0.000	0.000	0.000	0.005	0.010	0.039	2.651	1.880	1.890	1.895	1.909	1.904	1.904
-0.054	0.005	0.005	0.000	0.000	-0.005	0.039	2.676	1.875	1.885	1.890	1.909	1.899	1.904
-0.034	0.005	0.000	-0.005	0.005	-0.020	0.039	2.695	1.890	1.885	1.885	1.909	1.899	1.895
0.000	-0.005	0.000	0.000	0.000	0.020	0.039	2.690	1.899	1.890	1.885	1.909	1.899	1.904
0.020	-0.005	0.000	0.000	0.000	0.015	0.039	2.690	1.904	1.890	1.885	1.904	1.904	1.904
0.054	-0.005	0.000	0.005	0.000	0.010	0.039	2.690	1.909	1.899	1.890	1.909	1.904	1.904
0.068	-0.010	0.000	0.005	0.005	0.000	0.039	2.686	1.909	1.899	1.895	1.909	1.904	1.899
0.068	-0.005	0.000	0.005	0.005	0.010	0.039	2.671	1.899	1.899	1.895	1.909	1.904	1.904
0.039	0.000	0.000	0.005	0.000	0.010	0.039	2.695	1.895	1.899	1.895	1.909	1.899	1.904
0.029	0.000	0.005	0.005	-0.010	0.000	0.039	2.705	1.895	1.895	1.895	1.909	1.904	1.899
0.010	-0.015	0.005	0.000	-0.010	0.005	0.039	2.695	1.890	1.890	1.890	1.909	1.904	1.899
-0.005	-0.005	0.010	-0.005	-0.010	0.000	0.039	2.676	1.885	1.890	1.895	1.909	1.904	1.899
-0.005	0.000	0.005	-0.010	0.000	0.000	0.039	2.671	1.890	1.890	1.890	1.909	1.904	1.904
-0.010	-0.005	0.000	-0.005	0.005	0.000	0.039	2.690	1.890	1.890	1.890	1.909	1.909	1.904
-0.005	0.015	-0.005	0.000	0.010	-0.005	0.039	2.700	1.895	1.895	1.890	1.909	1.909	1.904
-0.010	0.005	-0.005	0.000	0.010	0.005	0.039	2.705	1.895	1.890	1.890	1.909	1.909	1.909
-0.010	0.000	0.000	0.005	0.005	0.010	0.039	2.676	1.895	1.890	1.890	1.909	1.904	1.909
-0.005	0.005	0.000	0.015	0.000	-0.010	0.039	2.671	1.895	1.890	1.890	1.914	1.904	1.904
-0.005	0.000	0.005	0.015	0.000	-0.020	0.039	2.695	1.895	1.890	1.890	1.909	1.904	1.899
0.005	0.000	-0.005	0.005	0.000	0.010	0.039	2.656	1.895	1.895	1.890	1.904	1.904	1.909
0.000	0.005	-0.005	-0.005	0.010	0.005	0.039	2.671	1.890	1.890	1.890	1.904	1.904	1.909
-0.005	-0.005	-0.005	-0.005	0.015	0.005	0.039	2.661	1.890	1.890	1.890	1.904	1.904	1.904
0.005	0.000	0.000	0.005	0.005	0.000	0.039	2.666	1.885	1.890	1.885	1.909	1.904	1.904
-0.005	0.000	0.000	0.005	0.005	-0.020	0.039	2.661	1.885	1.885	1.890	1.904	1.904	1.899
-0.015	0.010	0.005	-0.005	0.000	0.000	0.039	2.651	1.885	1.890	1.890	1.904	1.899	1.904
0.010	0.000	-0.005	-0.005	0.000	-0.010	0.039	2.642	1.885	1.885	1.885	1.904	1.899	1.904
0.000	0.005	0.005	0.000	0.000	0.000	0.039	2.681	1.890	1.885	1.890	1.904	1.899	1.899
-0.005	0.000	0.005	0.005	0.000	-0.005	0.044	2.642	1.885	1.890	1.885	1.904	1.904	1.899
-0.010	-0.005	0.000	0.000	0.000	-0.010	0.039	2.622	1.880	1.885	1.890	1.904	1.899	1.899
-0.005	0.005	0.000	0.005	-0.005	0.005	0.039	2.656	1.880	1.885	1.885	1.904	1.899	1.904
0.000	0.005	-0.005	0.000	-0.005	0.000	0.039	2.681	1.885	1.880	1.885	1.904	1.904	1.904
0.005	0.005	-0.005	-0.005	0.000	-0.005	0.039	2.744	1.890	1.885	1.880	1.904	1.899	1.899
-0.005	0.000	0.005	0.000	-0.005	0.005	0.039	2.656	1.885	1.885	1.880	1.899	1.899	1.904
-0.010	-0.005	0.005	-0.005	0.000	0.000	0.039	2.651	1.880	1.880	1.885	1.904	1.899	1.899
-0.005	-0.005	0.000	-0.005	-0.005	0.010	0.039	2.690	1.890	1.880	1.880	1.899	1.899	1.899
0.000	-0.005	0.005	0.000	0.000	0.000	0.039	2.651	1.890	1.880	1.885	1.899	1.899	1.899
-0.005	0.005	0.000	0.010	0.005	0.010	0.039	2.705	1.890	1.885	1.880	1.904	1.895	1.899
-0.005	0.010	-0.005	0.010	0.015	0.000	0.039	2.729	1.890	1.885	1.885	1.904	1.899	1.899
0.005	-0.005	0.000	0.015	0.010	0.000	0.039	2.671	1.890	1.885	1.880	1.904	1.899	1.899
0.000	0.000	0.000	0.020	-0.005	-0.020	0.039	2.681	1.895	1.885	1.880	1.904	1.895	1.895
0.005	0.005	0.005	0.024	0.005	-0.005	0.039	2.666	1.890	1.890	1.885	1.904	1.899	1.899
0.000	0.005	0.005	0.005	0.005	0.010	0.039	2.681	1.895	1.885	1.885	1.899	1.899	1.904
0.005	0.000	0.005	0.000	-0.005	0.010	0.039	2.695	1.895	1.890	1.885	1.899	1.895	1.899
0.000	0.000	0.000	-0.005	-0.005	-0.010	0.039	2.705	1.899	1.890	1.885	1.899	1.895	1.890
-0.005	0.000	0.000	-0.015	0.000	0.015	0.039	2.695	1.895	1.895	1.885	1.899	1.899	1.899
0.000	-0.005	0.000	-0.010	0.010	0.010	0.039	2.710	1.899	1.890	1.890	1.904	1.899	1.899
0.000	0.000	0.000	0.000	0.005	-0.015	0.039	2.695	1.895	1.895	1.890	1.904	1.899	1.890
0.000	0.005	0.000	0.000	0.000	0.020	0.039	2.695	1.899	1.895	1.890	1.904	1.899	1.899
-0.005	0.010	0.005	-0.005	0.000	0.005	0.039	2.681	1.895	1.895	1.890	1.904	1.899	1.895
0.005	0.015	0.000	-0.005	0.005	-0.005	0.039	2.671	1.895	1.895	1.895	1.909	1.904	1.895
0.005	0.000	0.000	0.000	0.010	0.010	0.039	2.690	1.895	1.890	1.890	1.909	1.904	1.904
0.024	0.000	0.000	0.005	0.005	0.005	0.039	2.695	1.899	1.890	1.890	1.909	1.899	1.899
0.020	-0.005	0.005	-0.005	-0.005	0.010	0.039	2.705	1.899	1.895	1.890	1.909	1.899	1.904
0.024	-0.005	0.005	0.005	-0.005	0.010	0.039	2.700	1.899	1.890	1.890	1.909	1.899	1.904
0.024	-0.005	0.005	0.000	0.000	-0.005	0.039	2.686	1.899	1.890	1.890	1.909	1.904	1.899
0.024	0.000	0.005	0.000	0.000	0.005	0.039	2.686	1.895	1.895	1.890	1.909	1.904	1.899
0.020	-0.005	0.005	0.005	-0.010	0.020	0.039	2.705	1.890	1.890	1.890	1.909	1.904	1.904
0.010	0.005	0.000	0.005	-0.015	0.000	0.039	2.690	1.890	1.890	1.890	1.909	1.899	1.899
0.000	0.000	0.000	0.005	-0.020	-0.005	0.039	2.676	1.890	1.890	1.890	1.909	1.899	1.899
-0.010	0.010	0.005	0.005	-0.010	-0.015	0.039	2.671	1.885	1.890	1.890	1.909	1.904	1.895
0.000	0.000	0.005	0.005	0.010	-0.010	0.039	2.686	1.895	1.885	1.890	1.909	1.909	1.899
-0.005	-0.005	-0.005	0.005	0.015	0.000	0.039	2.646	1.890	1.885	1.885	1.909	1.909	1.909
-0.005	0.005	-0.005	0.005	0.005	-0.020	0.039	2.656	1.885	1.890	1.885	1.904	1.904	1.904
-0.005	0.005	-0.005	0.005	-0.010	-0.005	0.039	2.666	1.885	1.890	1.885	1.904	1.899	1.904
-0.005	0.005	0.000	0.005	0.000	0.005	0.039	2.773	1.899	1.890	1.890	1.904	1.899	1.904
0.000	0.015	0.005	0.005	-0.005	0.015	0.039	2.710	1.904	1.899	1.890	1.904	1.904	1.909
-0.005	0.005	0.000	0.005	-0.005	0.010	0.039	2.637	1.895	1.895	1.890	1.909	1.904	1.904
-0.010	-0.005	0.000	0.000	0.005	0.005	0.039	2.754	1.904	1.895	1.890	1.909	1.904	1.904
0.000	-0.005	0.000	0.000	0.024	0.010	0.039	2.612	1.895	1.895	1.890	1.904	1.909	1.904
-0.005	0.005	-0.005	-0.005	0.015	0.005	0.039	2.739	1.899	1.895	1.890	1.904	1.904	1.904
-0.010	0.000	0.000	-0.005	0.005	0.000	0.039	2.671	1.895	1.890	1.890	1.904	1.899	1.904
-0.010	0.000	0.005	0.005	0.010	0.005	0.044	2.734	1.899	1.895	1.890	1.909	1.899	1.899
0.000	0.000	0.000	0.005	0.005	0.005	0.039	2.671	1.899	1.895	1.890	1.909	1.904	1.899
0.000	0.000	0.000	0.010	0.010	-0.010	0.039	2.720	1.899	1.899	1.890	1.909	1.904	1.899
0.005	0.010	0.005	0.000	0.010	-0.005	0.039	2.676	1.899	1.899	1.890	1.909	1.904	1.904
0.005	0.005	0.000	0.000	-0.005	0.005	0.039	2.642	1.895	1.895	1.890	1.909	1.904	1.904
0.000	0.005	0.000	-0.005	0.000	0.005	0.039	2.715	1.890	1.895	1.895	1.904	1.899	1.904
0.000	-0.005	-0.005	-0.015	0.000	-0.005	0.039	2.710	1.895	1.890	1.895	1.904	1.899	1.899
0.000	0.000	0.000	-0.010	-0.005	-0.010	0.039	2.671	1.899	1.895	1.890	1.909	1.904	1.904
0.000	0.000	0.000	-0.010	0.000	-0.005	0.039	2.710	1.899	1.895	1.895	1.909	1.904	1.899
0.005	0.005	0.000	-0.005	-0.005	0.005	0.039	2.676	1.895	1.895	1.895	1.909	1.904	1.909
0.005	-0.005	0.000	0.000	-0.005	0.000	0.039	2.676	1.895	1.895	1.895	1.914	1.904	1.904
0.000	-0.010	0.000	0.000	0.000	0.005	0.039	2.676	1.890	1.890	1.890	1.914	1.909	1.909
-0.005	-0.020	0.000	0.000	0.000	0.010	0.039	2.676	1.895	1.885	1.890	1.914	1.909	1.909
-0.005	-0.015	0.005	0.015	-0.005	-0.015	0.039	2.695	1.899	1.890	1.890	1.914	1.909	1.899
0.000	0.000	-0.005	0.010	0.000	0.005	0.039	2.676	1.895	1.890	1.890	1.914	1.909	1.909
-0.005	-0.010	0.000	0.005	0.005	0.000	0.039	2.695	1.895	1.890	1.890	1.909	1.909	1.909
0.000	-0.005	0.000	-0.005	0.000	0.000	0.039	2.671	1.895	1.890	1.890	1.904	1.904	1.909
0.005	-0.005	0.005	-0.005	-0.005	0.010	0.039	2.681	1.895	1.890	1.895	1.904	1.904	1.909
0.000	0.020	0.000	-0.005	0.005	-0.005	0.034	2.681	1.890	1.895	1.890	1.909	1.904	1.904
0.005	0.010	0.000	0.000	0.000	0.010	0.039	2.666	1.890	1.895	1.890	1.909	1.904	1.904
0.000	0.015	0.000	0.000	0.000	-0.020	0.039	2.700	1.890	1.890	1.890	1.909	1.904	1.899
0.005	0.005	-0.005	0.005	0.000	0.015	0.039	2.681	1.895	1.890	1.890	1.909	1.904	1.909
0.000	0.010	0.000	0.010	0.010	0.010	0.039	2.676	1.895	1.895	1.895	1.914	1.909	1.909
-0.005	0.010	0.000	0.010	0.000	0.000	0.039	2.686	1.895	1.890	1.890	1.914	1.904	1.904
0.000	0.010	0.000	0.005	0.005	0.010	0.039	2.690	1.895	1.890	1.890	1.909	1.909	1.909
0.005	0.010	-0.005	0.005	-0.005	0.005	0.039	2.695	1.899	1.895	1.890	1.909	1.904	1.909
0.005	0.005	0.000	0.000	0.000	0.005	0.039	2.695	1.899	1.895	1.895	1.909	1.909	1.909
0.010	-0.010	0.005	0.000	0.000	0.005	0.039	2.700	1.899	1.890	1.890	1.909	1.904	1.904
0.005	-0.005	0.000	-0.005	0.000	0.005	0.039	2.671	1.890	1.890	1.895	1.909	1.904	1.909
0.015	0.005	0.005	0.000	0.000	0.005	0.039	2.686	1.895	1.895	1.895	1.909	1.904	1.904
0.010	-0.005	0.005	0.000	0.005	-0.020	0.039	2.671	1.895	1.895	1.895	1.909	1.904	1.899
0.000	-0.015	0.005	-0.005	0.000	0.010	0.039	2.793	1.880	1.885	1.890	1.909	1.904	1.909
0.005	-0.005	0.000	0.005	0.000	0.010	0.039	2.661	1.885	1.885	1.885	1.909	1.904	1.904
0.000	-0.015	0.000	0.005	0.000	0.010	0.039	2.656	1.885	1.880	1.885	1.909	1.904	1.904
0.000	-0.005	0.000	0.005	0.005	0.000	0.039	2.720	1.880	1.885	1.880	1.904	1.904	1.904
0.000	0.000	0.000	0.000	0.000	0.010	0.039	2.646	1.880	1.885	1.880	1.904	1.899	1.904
-0.005	0.000	0.000	0.000	0.000	0.005	0.039	2.651	1.880	1.880	1.885	1.904	1.904	1.904
-0.005	0.000	0.000	0.005	0.005	-0.015	0.039	2.715	1.890	1.880	1.885	1.904	1.899	1.899
-0.005	0.005	0.000	0.010	0.000	0.000	0.039	2.632	1.895	1.890	1.885	1.904	1.899	1.904
-0.005	0.020	0.005	0.005	0.000	-0.005	0.039	2.646	1.895	1.895	1.890	1.904	1.899	1.904
-0.010	0.010	0.005	0.005	0.000	0.000	0.039	2.759	1.899	1.895	1.885	1.904	1.899	1.899
-0.034	0.005	0.005	-0.005	0.000	0.000	0.039	2.695	1.890	1.890	1.885	1.904	1.899	1.899
-0.024	0.020	0.000	-0.015	0.005	0.000	0.039	2.744	1.904	1.895	1.885	1.899	1.899	1.899
-0.015	0.000	0.000	-0.020	0.000	0.015	0.039	2.681	1.909	1.895	1.890	1.904	1.899	1.904
0.005	-0.010	0.000	-0.015	0.000	0.000	0.039	2.676	1.899	1.895	1.890	1.904	1.899	1.899
0.024	-0.005	0.000	0.000	0.000	0.010	0.039	2.734	1.909	1.895	1.895	1.909	1.899	1.904
0.024	-0.010	0.000	0.020	0.000	-0.015	0.039	2.637	1.909	1.899	1.895	1.914	1.904	1.895
0.029	0.000	0.000	0.020	0.005	0.000	0.039	2.671	1.904	1.904	1.899	1.914	1.904	1.904
0.015	0.000	0.005	0.020	0.005	0.010	0.039	2.671	1.895	1.899	1.899	1.919	1.909	1.904
0.020	-0.005	0.000	0.015	0.005	0.005	0.039	2.671	1.885	1.890	1.895	1.914	1.904	1.904
0.005	0.005	0.005	0.005	0.000	-0.015	0.039	2.686	1.890	1.895	1.890	1.914	1.904	1.899
0.010	-0.005	0.000	-0.005	0.005	0.000	0.039	2.700	1.895	1.890	1.890	1.904	1.904	1.904
0.000	0.015	0.005	-0.010	0.005	0.005	0.039	2.690	1.890	1.899	1.895	1.904	1.904	1.909
-0.010	0.005	0.005	-0.005	0.000	0.015	0.039	2.705	1.895	1.890	1.890	1.909	1.904	1.909
-0.020	0.005	0.005	0.000	0.000	0.005	0.039	2.686	1.890	1.890	1.895	1.909	1.904	1.904
-0.029	0.005	0.000	0.005	0.005	0.010	0.039	2.686	1.890	1.890	1.890	1.909	1.909	1.904
-0.020	0.005	-0.005	0.005	0.005	0.005	0.039	2.681	1.895	1.890	1.890	1.914	1.904	1.909
0.000	0.005	0.000	0.005	0.005	-0.010	0.039	2.690	1.899	1.895	1.890	1.909	1.904	1.904
0.005	0.005	-0.005	0.000	0.000	0.005	0.039	2.676	1.899	1.895	1.890	1.909	1.904	1.904
0.005	0.000	0.000	0.000	0.000	0.005	0.039	2.666	1.899	1.895	1.890	1.909	1.904	1.904
0.015	0.000	-0.005	0.010	0.005	-0.005	0.039	2.705	1.904	1.895	1.895	1.914	1.909	1.904
0.015	0.005	0.005	0.005	0.000	-0.020	0.039	2.676	1.899	1.899	1.895	1.909	1.904	1.899
0.015	0.000	0.005	0.005	0.005	0.005	0.039	2.705	1.899	1.895	1.895	1.909	1.909	1.909
0.005	0.000	0.005	-0.010	0.000	0.015	0.039	2.695	1.895	1.895	1.895	1.909	1.909	1.909
0.010	-0.005	0.005	-0.010	0.010	0.010	0.039	2.695	1.895	1.895	1.890	1.909	1.904	1.909
-0.005	-0.005	0.005	-0.010	0.005	-0.010	0.039	2.700	1.890	1.890	1.890	1.909	1.904	1.899
0.000	0.000	0.000	0.005	0.000	0.010	0.039	2.671	1.895	1.895	1.890	1.909	1.904	1.909
-0.005	-0.005	0.000	0.010	0.005	0.000	0.039	2.690	1.895	1.890	1.890	1.914	1.909	1.904
0.000	-0.005	0.005	0.010	0.005	0.005	0.039	2.676	1.890	1.890	1.890	1.909	1.909	1.904
0.000	-0.010	0.005	0.010	0.000	0.000	0.039	2.695	1.895	1.890	1.890	1.909	1.904	1.909
0.010	-0.005	0.005	0.005	-0.005	0.005	0.039	2.676	1.895	1.895	1.890	1.909	1.904	1.909
-0.015	0.000	0.000	-0.005	-0.005	0.010	0.039	2.744	1.885	1.895	1.890	1.904	1.904	1.904
-0.005	-0.005	0.000	-0.010	0.000	0.010	0.039	2.666	1.890	1.890	1.890	1.904	1.904	1.904
0.000	0.000	-0.005	0.000	0.000	0.005	0.034	2.642	1.890	1.890	1.890	1.909	1.904	1.904
0.000	0.000	0.000	0.000	0.000	0.000	0.039	2.646	1.885	1.890	1.890	1.904	1.904	1.904
0.000	0.000	0.000	0.000	0.000	-0.010	0.039	2.739	1.890	1.885	1.890	1.909	1.904	1.899
0.005	0.000	0.000	0.005	0.000	0.000	0.039	2.739	1.899	1.890	1.890	1.909	1.904	1.904
0.024	0.000	0.000	0.015	0.000	-0.005	0.039	2.739	1.909	1.895	1.890	1.914	1.904	1.904
0.024	0.000	0.000	0.010	0.000	-0.005	0.039	2.632	1.899	1.895	1.890	1.914	1.904	1.904
0.015	0.000	0.000	0.010	-0.005	0.010	0.039	2.651	1.890	1.895	1.890	1.909	1.904	1.909
0.024	0.000	0.005	0.010	-0.005	0.000	0.039	2.671	1.890	1.895	1.890	1.904	1.904	1.904
0.020	-0.005	0.000	0.005	-0.005	0.005	0.039	2.695	1.885	1.890	1.890	1.909	1.904	1.904
0.010	-0.005	0.005	0.005	0.000	0.005	0.039	2.710	1.890	1.890	1.890	1.904	1.904	1.904
0.010	0.000	0.000	0.000	0.000	0.000	0.039	2.671	1.885	1.890	1.890	1.904	1.904	1.899
0.000	0.000	0.005	-0.005	0.000	0.010	0.039	2.749	1.899	1.890	1.890	1.904	1.904	1.904
-0.010	-0.005	0.000	-0.005	0.000	0.000	0.039	2.715	1.895	1.890	1.890	1.904	1.904	1.904
-0.010	0.005	0.000	-0.005	0.005	-0.005	0.039	2.715	1.899	1.895	1.890	1.904	1.899	1.899
-0.010	0.000	0.005	0.000	0.005	-0.010	0.039	2.671	1.899	1.895	1.890	1.909	1.904	1.904
-0.015	0.000	0.000	-0.005	0.000	0.005	0.039	2.695	1.895	1.895	1.890	1.909	1.899	1.904
-0.010	0.005	0.000	0.000	0.010	0.000	0.039	2.671	1.895	1.899	1.895	1.909	1.904	1.904
-0.010	0.005	0.000	0.005	0.005	-0.015	0.039	2.676	1.895	1.895	1.895	1.909	1.904	1.899
-0.010	0.005	0.000	0.005	0.000	-0.010	0.039	2.700	1.895	1.895	1.895	1.914	1.904	1.904
-0.005	0.005	0.000	0.015	0.000	0.000	0.039	2.686	1.895	1.895	1.890	1.914	1.909	1.904
-0.010	0.010	0.000	0.015	0.005	0.005	0.039	2.700	1.899	1.895	1.895	1.914	1.909	1.909
-0.024	0.000	0.005	0.005	0.005	-0.005	0.039	2.676	1.890	1.890	1.890	1.909	1.909	1.904
-0.010	0.005	-0.005	0.005	0.000	0.015	0.039	2.690	1.895	1.890	1.895	1.909	1.909	1.914
-0.010	-0.005	0.000	0.000	0.005	0.010	0.039	2.671	1.890	1.890	1.890	1.909	1.904	1.909
-0.010	0.000	-0.005	-0.010	0.005	0.005	0.039	2.695	1.895	1.890	1.890	1.904	1.904	1.904
0.000	-0.005	0.000	-0.020	0.000	0.005	0.039	2.695	1.904	1.895	1.890	1.904	1.899	1.904
0.005	-0.005	0.000	-0.020	0.000	0.000	0.039	2.690	1.899	1.890	1.890	1.904	1.899	1.899
0.010	0.005	0.000	-0.010	0.000	0.005	0.039	2.676	1.895	1.899	1.890	1.909	1.904	1.899
0.010	-0.005	0.000	0.000	0.000	-0.010	0.039	2.671	1.895	1.895	1.895	1.909	1.904	1.899
0.005	-0.005	0.000	0.005	0.000	-0.010	0.039	2.695	1.895	1.895	1.890	1.909	1.904	1.899
-0.024	0.000	0.005	0.015	-0.005	-0.024	0.039	2.676	1.880	1.890	1.890	1.914	1.904	1.895
-0.054	0.000	0.005	0.015	0.000	0.000	0.039	2.676	1.875	1.885	1.890	1.914	1.904	1.899
-0.034	0.000	0.005	0.005	0.000	0.010	0.039	2.710	1.885	1.885	1.890	1.909	1.909	1.909
-0.010	0.005	0.005	0.010	0.000	0.005	0.039	2.681	1.895	1.890	1.890	1.909	1.909	1.904
0.029	0.005	0.005	0.000	-0.005	0.010	0.039	2.700	1.909	1.895	1.890	1.904	1.904	1.909
0.029	0.015	0.000	-0.005	0.000	0.005	0.039	2.666	1.904	1.899	1.895	1.904	1.904	1.909
0.020	0.020	-0.005	-0.005	0.000	0.005	0.039	2.686	1.899	1.899	1.895	1.909	1.904	1.904
0.034	0.020	0.005	-0.005	0.005	-0.005	0.039	2.661	1.904	1.899	1.899	1.914	1.904	1.904
0.049	0.015	0.005	0.000	0.000	-0.005	0.039	2.651	1.899	1.899	1.899	1.914	1.904	1.904
0.054	0.005	-0.005	0.010	0.000	-0.005	0.039	2.666	1.899	1.895	1.895	1.919	1.909	1.909
0.034	-0.010	0.000	0.010	0.005	0.005	0.039	2.646	1.890	1.890	1.895	1.914	1.909	1.909
0.024	-0.015	0.000	0.005	0.005	0.010	0.039	2.642	1.885	1.885	1.890	1.914	1.909	1.909
0.020	-0.005	0.005	0.000	0.000	-0.005	0.039	2.627	1.880	1.885	1.890	1.909	1.904	1.904
0.015	0.005	0.000	0.005	0.000	0.000	0.039	2.656	1.890	1.890	1.890	1.909	1.904	1.904
0.015	0.015	0.000	0.005	0.000	-0.010	0.039	2.734	1.899	1.895	1.885	1.909	1.904	1.899
0.000	0.005	-0.005	0.000	0.000	0.005	0.039	2.715	1.895	1.890	1.890	1.909	1.904	1.909
0.005	-0.005	0.000	0.005	0.000	0.000	0.039	2.646	1.890	1.890	1.885	1.904	1.904	1.904
0.005	-0.005	0.000	0.010	0.000	-0.020	0.039	2.642	1.890	1.890	1.890	1.909	1.904	1.899
0.005	0.005	0.000	0.010	0.005	0.010	0.039	2.671	1.890	1.890	1.890	1.909	1.904	1.909
0.005	0.000	0.005	0.005	0.005	0.010	0.039	2.749	1.899	1.890	1.890	1.909	1.904	1.904
0.000	0.000	0.005	0.005	0.000	0.005	0.039	2.681	1.895	1.890	1.890	1.909	1.904	1.904
-0.010	0.005	0.000	0.000	-0.005	-0.005	0.039	2.715	1.895	1.895	1.890	1.904	1.904	1.904
-0.049	0.000	0.000	0.005	0.000	-0.005	0.039	2.715	1.890	1.890	1.890	1.909	1.904	1.899
-0.078	-0.010	0.005	0.015	-0.005	0.000	0.039	2.754	1.890	1.885	1.890	1.909	1.904	1.904
-0.049	-0.005	0.000	0.024	0.000	-0.010	0.039	2.676	1.899	1.890	1.890	1.909	1.904	1.904
-0.024	-0.005	0.005	0.005	0.000	0.010	0.039	2.700	1.904	1.895	1.890	1.909	1.904	1.909
0.005	-0.005	0.000	-0.005	0.005	0.005	0.039	2.686	1.909	1.899	1.890	1.904	1.904	1.904
0.010	-0.005	0.005	-0.005	0.000	-0.020	0.039	2.681	1.909	1.899	1.890	1.909	1.899	1.895
0.020	0.000	0.005	-0.005	-0.005	0.000	0.044	2.710	1.904	1.904	1.895	1.909	1.899	1.904
0.034	0.005	0.000	0.000	0.000	0.005	0.039	2.671	1.904	1.904	1.895	1.909	1.904	1.904
0.029	-0.005	-0.005	0.000	-0.005	-0.005	0.039	2.686	1.899	1.899	1.895	1.909	1.904	1.899
0.024	-0.010	0.005	0.005	-0.005	-0.005	0.039	2.695	1.895	1.895	1.899	1.914	1.904	1.904
0.010	0.000	0.000	0.000	0.000	0.020	0.039	2.695	1.895	1.899	1.895	1.914	1.909	1.909
-0.010	-0.005	0.005	-0.005	0.000	0.015	0.039	2.676	1.885	1.895	1.895	1.914	1.909	1.909
-0.049	-0.005	0.005	-0.005	0.000	0.010	0.039	2.705	1.880	1.885	1.895	1.914	1.909	1.904
-0.049	0.005	0.000	-0.005	0.005	0.005	0.039	2.700	1.885	1.890	1.890	1.909	1.909	1.909
-0.044	0.010	0.000	0.005	0.000	-0.005	0.039	2.700	1.890	1.890	1.890	1.914	1.909	1.904
-0.044	0.010	-0.005	0.005	0.005	-0.015	0.039	2.661	1.890	1.890	1.890	1.909	1.909	1.904
-0.029	-0.005	-0.005	-0.005	0.005	0.000	0.044	2.700	1.899	1.890	1.890	1.909	1.909	1.909
-0.005	0.015	0.000	-0.010	0.000	0.005	0.039	2.705	1.909	1.899	1.890	1.909	1.904	1.909
0.029	0.005	0.005	-0.010	0.000	0.010	0.039	2.690	1.914	1.904	1.895	1.909	1.904	1.909
0.054	0.000	0.005	-0.005	0.000	-0.020	0.039	2.671	1.909	1.904	1.895	1.909	1.904	1.899
0.054	0.010	0.000	-0.010	0.000	0.010	0.039	2.700	1.914	1.909	1.899	1.909	1.909	1.909
0.078	-0.005	0.000	-0.010	0.000	0.000	0.034	2.686	1.914	1.904	1.899	1.909	1.909	1.909
0.063	0.000	0.000	-0.005	0.005	-0.010	0.039	2.676	1.904	1.904	1.899	1.914	1.909	1.904
0.039	0.000	-0.005	-0.010	0.005	-0.020	0.039	2.661	1.890	1.899	1.899	1.914	1.909	1.904
0.010	0.010	0.000	-0.010	0.000	-0.010	0.039	2.690	1.890	1.895	1.895	1.914	1.904	1.909
0.000	-0.005	0.000	-0.020	0.000	0.015	0.044	2.661	1.880	1.890	1.895	1.914	1.904	1.914
-0.015	0.005	0.005	-0.020	0.005	0.015	0.039	2.661	1.875	1.890	1.890	1.914	1.904	1.909
-0.020	0.000	0.005	-0.020	0.005	-0.005	0.039	2.671	1.875	1.885	1.890	1.909	1.904	1.904
-0.020	0.005	0.005	-0.020	0.000	0.015	0.039	2.642	1.875	1.880	1.890	1.909	1.904	1.909
-0.010	0.000	0.005	-0.015	0.005	0.005	0.039	2.642	1.880	1.880	1.885	1.909	1.909	1.909
-0.010	0.005	-0.005	0.000	0.000	0.010	0.039	2.651	1.875	1.880	1.880	1.909	1.904	1.909
-0.020	0.000	-0.005	0.010	0.000	0.000	0.039	2.661	1.880	1.880	1.885	1.909	1.909	1.904
-0.020	0.005	0.000	0.020	-0.005	0.005	0.039	2.729	1.890	1.885	1.880	1.909	1.904	1.904
-0.020	-0.005	0.000	0.020	0.005	0.010	0.039	2.749	1.904	1.880	1.880	1.909	1.909	1.909
0.000	0.010	0.005	0.015	0.000	0.005	0.039	2.686	1.909	1.895	1.885	1.904	1.904	1.909
-0.010	0.005	0.000	0.015	0.000	-0.010	0.039	2.646	1.904	1.895	1.885	1.909	1.904	1.904
-0.005	0.005	0.000	0.024	0.000	0.000	0.039	2.656	1.895	1.895	1.890	1.909	1.904	1.909
-0.005	0.005	0.005	0.010	0.000	0.000	0.039	2.715	1.899	1.895	1.890	1.904	1.904	1.904
-0.015	0.000	0.005	0.015	0.000	-0.020	0.039	2.700	1.895	1.890	1.890	1.909	1.904	1.895
-0.020	0.000	0.005	0.015	0.000	-0.010	0.039	2.612	1.880	1.890	1.890	1.909	1.904	1.899
-0.029	0.000	0.005	0.005	0.000	0.015	0.039	2.725	1.890	1.885	1.885	1.904	1.904	1.909
-0.015	-0.010	0.005	0.000	0.000	0.010	0.039	2.622	1.885	1.885	1.890	1.904	1.899	1.904
0.005	-0.010	0.010	0.005	0.005	-0.010	0.039	2.666	1.895	1.890	1.890	1.904	1.899	1.899
0.015	0.005	0.010	0.005	0.000	0.005	0.039	2.676	1.895	1.890	1.890	1.904	1.899	1.904
0.015	0.005	0.005	0.010	0.005	-0.010	0.039	2.671	1.904	1.895	1.890	1.904	1.899	1.899
0.015	0.000	0.005	0.010	0.000	0.010	0.039	2.700	1.899	1.895	1.890	1.909	1.899	1.904
0.015	0.005	0.005	0.010	0.000	0.005	0.039	2.700	1.899	1.895	1.895	1.909	1.899	1.904
0.010	0.005	0.000	0.000	-0.005	0.000	0.039	2.681	1.895	1.895	1.890	1.904	1.899	1.899
0.000	0.015	-0.005	0.010	0.005	0.000	0.044	2.700	1.895	1.895	1.890	1.909	1.904	1.904
0.010	0.005	0.000	0.020	0.005	0.005	0.039	2.705	1.899	1.895	1.895	1.914	1.904	1.904
0.005	0.000	0.000	0.020	0.005	0.005	0.039	2.690	1.899	1.895	1.895	1.914	1.904	1.904
0.000	0.015	0.000	0.010	0.000	0.000	0.039	2.700	1.899	1.904	1.895	1.909	1.909	1.904
-0.010	0.020	0.005	-0.005	0.000	0.000	0.039	2.671	1.890	1.895	1.895	1.909	1.904	1.899
-0.010	0.010	0.005	-0.020	-0.005	0.005	0.039	2.695	1.890	1.890	1.890	1.904	1.904	1.904
-0.005	0.005	0.005	-0.020	0.000	0.005	0.039	2.671	1.890	1.895	1.890	1.904	1.904	1.904
-0.005	0.000	0.005	-0.005	0.000	0.010	0.039	2.686	1.895	1.890	1.890	1.909	1.904	1.904
-0.005	0.005	0.000	0.000	0.005	0.000	0.039	2.666	1.890	1.890	1.890	1.914	1.904	1.904
0.010	0.000	0.005	0.005	-0.005	0.005	0.039	2.705	1.895	1.890	1.890	1.914	1.904	1.904
0.005	-0.005	0.005	0.015	0.000	0.005	0.039	2.671	1.895	1.890	1.890	1.914	1.904	1.904
0.000	-0.005	0.000	0.020	0.000	-0.005	0.039	2.676	1.895	1.890	1.890	1.914	1.904	1.899
-0.005	0.005	0.000	0.034	-0.005	-0.005	0.039	2.666	1.890	1.895	1.890	1.914	1.904	1.904
0.000	0.005	0.005	0.029	-0.005	0.010	0.039	2.700	1.895	1.895	1.890	1.909	1.909	1.909
0.005	-0.005	0.000	0.029	0.000	0.010	0.039	2.671	1.895	1.895	1.885	1.909	1.909	1.909
-0.005	0.000	0.005	0.005	0.005	0.000	0.039	2.676	1.890	1.890	1.890	1.904	1.909	1.904
-0.010	0.000	0.005	0.000	0.005	0.000	0.039	2.676	1.890	1.890	1.890	1.899	1.904	1.904
-0.005	0.000	0.000	-0.010	0.010	0.000	0.039	2.666	1.890	1.890	1.890	1.899	1.904	1.904
-0.005	-0.005	-0.005	-0.024	0.005	-0.010	0.039	2.749	1.890	1.890	1.885	1.899	1.899	1.904
-0.005	0.000	0.000	-0.024	0.000	-0.005	0.039	2.666	1.890	1.890	1.890	1.899	1.899	1.904
-0.005	0.005	0.000	-0.020	0.010	0.005	0.039	2.642	1.890	1.890	1.890	1.904	1.899	1.904
0.010	0.005	0.000	-0.010	0.005	0.000	0.039	2.637	1.890	1.890	1.890	1.909	1.899	1.904
0.015	0.005	0.000	-0.005	0.010	0.010	0.044	2.642	1.885	1.890	1.890	1.909	1.899	1.904
0.010	0.005	0.000	-0.005	0.005	-0.005	0.039	2.759	1.899	1.890	1.890	1.909	1.899	1.899
0.020	0.000	0.005	0.000	0.000	0.005	0.039	2.725	1.899	1.890	1.890	1.909	1.904	1.904
0.010	0.000	0.000	0.010	0.000	0.005	0.039	2.720	1.904	1.895	1.890	1.909	1.904	1.904
0.015	-0.005	0.000	0.015	0.010	0.005	0.039	2.671	1.899	1.895	1.890	1.914	1.904	1.904
0.010	-0.005	0.005	0.015	0.010	0.000	0.039	2.656	1.895	1.895	1.890	1.909	1.899	1.899
0.010	-0.005	0.005	0.005	0.005	0.010	0.039	2.695	1.890	1.890	1.890	1.909	1.904	1.904
-0.020	-0.005	0.005	0.005	0.000	0.000	0.039	2.729	1.890	1.890	1.890	1.909	1.899	1.899
-0.024	0.010	0.000	0.020	0.000	0.005	0.039	2.671	1.885	1.890	1.890	1.914	1.904	1.899
-0.059	-0.010	0.005	0.020	-0.005	0.000	0.039	2.627	1.870	1.880	1.885	1.909	1.904	1.899
-0.073	-0.010	-0.005	0.010	0.000	-0.010	0.039	2.715	1.880	1.880	1.880	1.904	1.899	1.899
-0.039	0.000	0.000	0.005	-0.005	-0.024	0.039	2.715	1.895	1.885	1.880	1.899	1.899	1.899
-0.015	0.010	0.000	-0.005	0.000	-0.020	0.039	2.676	1.904	1.895	1.885	1.899	1.899	1.895
0.020	0.020	0.005	-0.020	-0.005	0.005	0.039	2.686	1.919	1.904	1.890	1.899	1.899	1.899
0.063	0.010	0.000	-0.020	-0.020	0.010	0.039	2.661	1.919	1.909	1.890	1.899	1.895	1.904
0.098	0.005	0.000	-0.029	-0.015	-0.005	0.039	2.676	1.919	1.909	1.899	1.904	1.895	1.895
0.093	0.010	0.005	-0.020	-0.005	0.010	0.039	2.710	1.914	1.909	1.899	1.909	1.904	1.904
0.093	0.000	0.000	-0.020	-0.005	0.020	0.039	2.695	1.909	1.909	1.904	1.914	1.904	1.904
0.068	0.005	0.000	-0.015	-0.005	0.015	0.039	2.695	1.899	1.904	1.899	1.914	1.904	1.899
0.034	-0.005	0.000	0.005	0.000	0.015	0.039	2.700	1.890	1.899	1.899	1.924	1.909	1.904
0.024	0.005	0.000	0.010	-0.005	0.015	0.039	2.695	1.890	1.895	1.899	1.924	1.909	1.909
0.000	0.000	0.005	0.010	-0.005	0.024	0.039	2.695	1.885	1.890	1.895	1.919	1.914	1.909
0.005	0.000	0.000	0.015	0.000	-0.015	0.039	2.671	1.885	1.890	1.895	1.919	1.914	1.904
-0.010	-0.005	0.000	0.015	0.015	0.015	0.039	2.710	1.885	1.885	1.890	1.919	1.919	1.914
-0.024	0.005	0.000	0.020	0.054	0.010	0.039	2.695	1.885	1.885	1.890	1.919	1.924	1.919
-0.029	0.005	0.005	0.020	0.044	0.010	0.039	2.676	1.890	1.890	1.885	1.909	1.919	1.919
-0.039	0.000	0.005	0.010	0.010	0.005	0.039	2.671	1.885	1.885	1.885	1.904	1.904	1.909
-0.039	0.010	0.000	0.000	0.000	-0.005	0.039	2.705	1.890	1.890	1.890	1.904	1.899	1.904
-0.049	-0.010	0.000	-0.005	0.010	0.015	0.039	2.690	1.890	1.880	1.885	1.899	1.899	1.909
-0.034	-0.020	0.000	-0.005	0.029	0.005	0.039	2.695	1.895	1.885	1.885	1.904	1.909	1.909
-0.024	-0.010	-0.005	-0.005	0.029	-0.020	0.039	2.700	1.904	1.895	1.885	1.904	1.904	1.899
-0.039	0.015	0.000	0.000	0.024	0.000	0.039	2.695	1.895	1.899	1.890	1.904	1.899	1.904
-0.044	0.005	0.005	0.010	0.010	0.005	0.039	2.686	1.899	1.895	1.890	1.909	1.899	1.899
-0.029	0.005	0.005	0.020	-0.005	0.000	0.039	2.671	1.895	1.895	1.895	1.909	1.899	1.899
-0.010	0.005	0.005	0.015	-0.015	0.010	0.039	2.686	1.899	1.895	1.890	1.909	1.899	1.899
-0.005	0.010	0.000	0.015	-0.010	0.000	0.039	2.651	1.895	1.895	1.895	1.914	1.899	1.899
0.010	0.005	0.005	0.005	-0.015	-0.005	0.039	2.651	1.895	1.895	1.895	1.909	1.899	1.895
0.015	-0.005	0.000	-0.005	-0.020	0.005	0.039	2.671	1.895	1.890	1.890	1.904	1.895	1.899
0.024	-0.005	0.000	-0.005	-0.015	0.005	0.039	2.778	1.909	1.895	1.890	1.904	1.899	1.899
0.015	-0.015	-0.005	0.000	-0.015	-0.005	0.039	2.715	1.904	1.895	1.890	1.904	1.899	1.899
0.000	0.005	-0.005	0.000	0.000	-0.020	0.039	2.637	1.890	1.895	1.890	1.904	1.904	1.895
-0.029	0.000	0.000	-0.005	0.005	0.005	0.039	2.754	1.890	1.890	1.890	1.904	1.904	1.904
-0.024	0.010	-0.005	-0.005	0.000	-0.005	0.039	2.632	1.885	1.895	1.890	1.909	1.904	1.904
0.000	0.005	0.005	-0.010	0.000	0.000	0.039	2.720	1.899	1.895	1.895	1.904	1.904	1.904
0.015	-0.005	0.005	-0.020	-0.005	0.000	0.034	2.642	1.895	1.890	1.895	1.904	1.899	1.904
0.024	-0.005	0.000	-0.010	-0.010	0.005	0.039	2.734	1.904	1.899	1.895	1.909	1.899	1.904
0.049	0.000	0.000	0.000	-0.005	0.000	0.039	2.666	1.904	1.895	1.895	1.914	1.904	1.904
0.015	-0.005	0.000	0.000	-0.005	-0.010	0.039	2.754	1.899	1.899	1.895	1.909	1.904	1.904
0.005	0.010	0.000	-0.005	0.000	-0.005	0.039	2.676	1.895	1.899	1.895	1.914	1.904	1.904
0.005	0.010	0.005	-0.005	-0.005	0.000	0.039	2.749	1.904	1.899	1.895	1.914	1.904	1.904
0.024	0.010	0.005	-0.005	-0.010	0.005	0.039	2.715	1.909	1.904	1.895	1.914	1.909	1.909
0.010	0.000	0.000	0.005	-0.005	-0.005	0.039	2.739	1.909	1.899	1.899	1.919	1.909	1.909
-0.010	0.005	0.000	0.015	0.000	-0.010	0.039	2.676	1.899	1.899	1.899	1.919	1.909	1.904
-0.015	0.015	0.005	0.029	0.005	-0.005	0.039	2.695	1.890	1.895	1.899	1.919	1.914	1.909
-0.010	-0.005	0.000	0.029	0.000	0.015	0.039	2.671	1.895	1.890	1.895	1.919	1.914	1.909
0.005	-0.005	0.005	0.029	0.005	-0.005	0.039	2.681	1.895	1.895	1.895	1.914	1.914	1.909
0.005	-0.005	0.005	0.010	0.005	0.015	0.039	2.671	1.895	1.895	1.890	1.909	1.914	1.914
0.020	0.015	0.005	0.015	0.000	0.010	0.039	2.690	1.904	1.899	1.895	1.909	1.909	1.914
0.029	0.005	0.000	0.010	0.005	-0.005	0.039	2.710	1.904	1.899	1.895	1.914	1.909	1.909
0.024	0.000	0.000	0.010	0.010	0.010	0.039	2.710	1.904	1.895	1.895	1.909	1.909	1.914
0.020	0.000	0.005	0.005	-0.005	0.010	0.039	2.705	1.899	1.899	1.895	1.909	1.904	1.909
0.015	0.005	0.000	-0.005	-0.010	0.005	0.039	2.705	1.904	1.899	1.895	1.909	1.904	1.904
0.005	0.000	0.000	-0.005	-0.005	-0.005	0.039	2.695	1.895	1.899	1.895	1.909	1.904	1.904
0.000	0.015	0.000	0.000	-0.005	-0.020	0.039	2.705	1.899	1.899	1.899	1.914	1.909	1.899
-0.015	0.010	0.000	0.000	-0.015	-0.015	0.039	2.695	1.895	1.899	1.899	1.914	1.904	1.899
-0.068	0.005	0.005	-0.005	-0.029	0.020	0.039	2.686	1.880	1.890	1.895	1.914	1.899	1.914
-0.034	0.000	0.000	-0.010	-0.024	-0.005	0.039	2.661	1.890	1.890	1.890	1.909	1.904	1.899
-0.024	0.000	0.000	-0.010	-0.020	0.005	0.039	2.681	1.895	1.890	1.895	1.909	1.904	1.909
-0.010	-0.005	0.005	-0.005	-0.015	0.010	0.039	2.671	1.899	1.895	1.890	1.909	1.909	1.904
0.015	-0.010	0.000	-0.005	0.005	0.000	0.039	2.695	1.899	1.895	1.890	1.909	1.909	1.904
0.024	-0.005	0.005	0.000	0.010	-0.015	0.039	2.666	1.904	1.895	1.895	1.914	1.909	1.904
0.039	-0.010	0.005	0.010	0.024	0.000	0.039	2.686	1.904	1.899	1.895	1.914	1.914	1.909
0.044	-0.005	0.000	0.000	0.029	0.005	0.039	2.700	1.899	1.899	1.895	1.914	1.914	1.914
0.044	-0.010	0.005	0.005	0.024	0.010	0.039	2.661	1.895	1.895	1.895	1.909	1.909	1.914
0.020	-0.010	-0.005	-0.005	0.029	0.015	0.039	2.690	1.890	1.895	1.895	1.909	1.914	1.914
0.005	-0.015	0.000	0.000	0.059	0.000	0.039	2.666	1.890	1.895	1.895	1.914	1.919	1.914
-0.005	-0.005	-0.005	0.000	0.073	0.010	0.039	2.793	1.890	1.890	1.890	1.909	1.919	1.914
-0.010	0.000	-0.005	0.005	0.049	0.005	0.039	2.671	1.890	1.890	1.890	1.909	1.909	1.914
-0.015	0.000	-0.005	0.000	0.015	0.010	0.039	2.632	1.885	1.890	1.890	1.909	1.899	1.909
-0.020	0.005	0.005	0.005	0.010	0.010	0.039	2.705	1.880	1.890	1.890	1.909	1.899	1.904
-0.020	0.000	0.005	0.010	0.010	0.005	0.034	2.720	1.890	1.885	1.890	1.909	1.904	1.909
-0.015	0.015	0.000	0.005	0.010	0.010	0.039	2.769	1.904	1.895	1.890	1.909	1.904	1.904
-0.015	0.005	0.000	-0.005	0.000	-0.010	0.039	2.720	1.904	1.890	1.890	1.904	1.899	1.899
-0.015	0.000	-0.005	-0.024	-0.010	-0.005	0.039	2.622	1.895	1.890	1.890	1.904	1.895	1.899
-0.005	-0.005	0.000	-0.020	-0.015	0.000	0.039	2.646	1.890	1.890	1.890	1.904	1.895	1.895
-0.010	0.000	-0.005	-0.020	-0.005	0.005	0.039	2.690	1.885	1.890	1.890	1.904	1.899	1.899
0.005	-0.005	0.000	-0.015	0.010	0.000	0.039	2.666	1.890	1.890	1.885	1.909	1.904	1.899
-0.005	0.010	0.000	0.000	-0.024	0.005	0.039	2.749	1.904	1.890	1.890	1.909	1.895	1.899
-0.029	0.000	0.005	0.005	-0.015	0.000	0.039	2.705	1.890	1.890	1.890	1.909	1.899	1.899
-0.029	0.005	0.010	0.005	-0.020	0.000	0.039	2.651	1.885	1.890	1.885	1.909	1.899	1.899
-0.015	0.000	0.000	0.015	-0.039	0.000	0.039	2.739	1.899	1.895	1.885	1.909	1.895	1.895
-0.015	-0.005	0.000	0.015	-0.044	-0.020	0.039	2.720	1.904	1.890	1.890	1.909	1.895	1.895
0.000	0.000	0.000	0.015	-0.029	-0.024	0.039	2.686	1.904	1.895	1.890	1.909	1.904	1.895
0.015	0.000	0.000	0.015	-0.029	-0.005	0.039	2.676	1.899	1.895	1.890	1.909	1.904	1.904
-0.005	0.005	0.000	0.024	-0.015	-0.005	0.039	2.671	1.895	1.899	1.895	1.909	1.909	1.904
-0.005	-0.005	0.000	0.029	-0.024	-0.024	0.039	2.666	1.890	1.895	1.895	1.909	1.904	1.904
0.005	0.005	0.005	0.010	-0.020	0.005	0.039	2.705	1.899	1.895	1.895	1.909	1.909	1.904
0.015	0.000	0.005	0.020	0.005	0.010	0.039	2.681	1.899	1.895	1.895	1.914	1.919	1.914
0.029	0.005	0.005	0.010	0.029	0.015	0.039	2.700	1.909	1.899	1.895	1.909	1.919	1.914
0.034	-0.010	0.005	0.000	0.024	0.000	0.039	2.695	1.904	1.899	1.895	1.909	1.914	1.914
0.039	-0.010	0.000	0.000	0.034	-0.005	0.039	2.695	1.904	1.899	1.895	1.909	1.914	1.909
0.044	0.005	-0.005	-0.005	0.034	0.015	0.039	2.676	1.899	1.904	1.899	1.909	1.909	1.919
0.020	0.010	0.005	-0.005	0.034	0.020	0.034	2.700	1.899	1.899	1.899	1.909	1.909	1.914
0.029	0.000	0.005	-0.005	0.024	0.020	0.039	2.705	1.904	1.899	1.899	1.914	1.909	1.914
0.020	0.000	0.010	0.000	0.010	0.015	0.039	2.695	1.899	1.895	1.895	1.914	1.904	1.909
0.020	0.000	0.000	0.015	0.000	0.000	0.039	2.671	1.895	1.895	1.895	1.914	1.904	1.904
0.015	0.005	0.005	0.015	0.000	0.010	0.039	2.695	1.895	1.895	1.895	1.919	1.904	1.904
0.005	0.015	0.005	0.029	-0.010	0.010	0.039	2.710	1.899	1.899	1.895	1.919	1.904	1.904
0.005	0.024	0.000	0.024	-0.010	0.005	0.039	2.681	1.899	1.899	1.895	1.914	1.904	1.904
0.005	0.010	0.005	0.005	-0.005	-0.005	0.039	2.700	1.895	1.895	1.895	1.909	1.909	1.904
-0.005	0.000	0.000	-0.005	-0.015	-0.029	0.039	2.671	1.890	1.885	1.890	1.904	1.904	1.899
-0.015	-0.005	0.005	-0.020	-0.005	-0.005	0.039	2.700	1.895	1.885	1.890	1.904	1.904	1.904
-0.010	-0.005	0.005	-0.024	-0.005	0.000	0.039	2.710	1.895	1.885	1.890	1.904	1.904	1.904
-0.029	-0.010	0.000	-0.005	-0.005	0.015	0.039	2.676	1.890	1.885	1.885	1.909	1.904	1.909
-0.098	-0.005	0.000	0.000	-0.005	0.000	0.039	2.695	1.875	1.880	1.885	1.909	1.904	1.899
-0.088	-0.015	0.005	-0.010	-0.005	0.000	0.039	2.656	1.880	1.880	1.885	1.904	1.904	1.904
-0.039	-0.010	0.000	-0.015	0.005	0.000	0.039	2.661	1.895	1.885	1.885	1.904	1.904	1.904
-0.010	-0.010	0.005	-0.015	0.000	0.000	0.039	2.666	1.899	1.890	1.885	1.904	1.899	1.904
0.015	-0.005	0.000	-0.020	0.010	-0.024	0.039	2.642	1.904	1.895	1.885	1.904	1.899	1.895
0.044	-0.010	0.000	-0.005	0.005	0.005	0.039	2.637	1.904	1.895	1.885	1.904	1.904	1.904
0.054	0.005	0.000	0.005	0.005	0.005	0.039	2.715	1.909	1.904	1.895	1.914	1.904	1.904
0.054	0.005	0.000	0.010	0.005	0.010	0.039	2.651	1.899	1.899	1.895	1.914	1.904	1.909
0.039	0.015	0.000	0.020	0.010	0.005	0.039	2.637	1.885	1.899	1.895	1.914	1.909	1.904
0.024	0.010	0.005	0.020	0.010	-0.015	0.039	2.651	1.880	1.895	1.895	1.914	1.904	1.899
0.010	0.005	0.005	0.015	0.005	-0.005	0.039	2.671	1.880	1.885	1.890	1.909	1.909	1.904
0.005	0.000	-0.005	0.005	0.015	0.000	0.039	2.734	1.880	1.885	1.885	1.904	1.909	1.909
-0.005	0.010	-0.005	-0.015	0.010	0.010	0.039	2.700	1.885	1.885	1.885	1.904	1.904	1.909
-0.039	0.005	0.000	-0.020	0.000	0.010	0.039	2.749	1.885	1.880	1.880	1.899	1.899	1.904
-0.078	0.005	0.000	-0.020	0.005	-0.020	0.044	2.676	1.875	1.880	1.880	1.899	1.899	1.895
-0.103	-0.005	0.005	-0.015	-0.005	0.010	0.039	2.725	1.880	1.875	1.880	1.904	1.895	1.904
-0.039	0.005	0.005	0.010	-0.005	0.010	0.039	2.715	1.909	1.890	1.885	1.909	1.904	1.899
0.000	0.000	0.000	0.015	0.000	0.005	0.039	2.622	1.914	1.895	1.885	1.904	1.899	1.904
0.049	-0.005	0.005	0.015	0.000	-0.020	0.039	2.681	1.924	1.904	1.890	1.904	1.899	1.895
0.063	0.005	0.000	0.010	0.000	0.010	0.039	2.666	1.914	1.909	1.895	1.909	1.904	1.904
0.068	0.015	0.000	0.000	-0.005	-0.020	0.039	2.671	1.914	1.914	1.899	1.904	1.899	1.895
0.063	0.005	-0.005	0.000	0.000	-0.005	0.039	2.676	1.904	1.909	1.899	1.909	1.899	1.899
0.063	0.015	0.000	-0.005	0.000	0.015	0.039	2.695	1.899	1.904	1.899	1.914	1.904	1.909
0.034	-0.010	0.005	0.000	0.000	0.015	0.039	2.681	1.890	1.895	1.899	1.914	1.904	1.904
0.024	-0.010	0.005	0.000	0.005	0.015	0.039	2.705	1.890	1.890	1.895	1.914	1.904	1.904
0.005	-0.010	0.000	0.000	-0.005	0.015	0.039	2.690	1.885	1.885	1.890	1.909	1.904	1.904
0.000	0.000	-0.005	0.000	0.000	-0.005	0.039	2.686	1.885	1.885	1.890	1.909	1.904	1.904
0.005	-0.005	0.000	0.005	0.005	0.010	0.039	2.676	1.890	1.885	1.890	1.909	1.904	1.909
-0.015	-0.005	0.000	0.000	0.005	0.005	0.039	2.700	1.885	1.885	1.890	1.909	1.909	1.904
-0.020	0.000	0.005	0.005	0.000	-0.010	0.039	2.710	1.890	1.885	1.885	1.909	1.904	1.904
-0.049	-0.015	0.000	0.000	0.000	-0.005	0.039	2.695	1.880	1.880	1.885	1.909	1.904	1.899
-0.078	-0.015	0.000	0.000	0.000	0.000	0.039	2.686	1.880	1.880	1.880	1.904	1.904	1.904
-0.054	0.005	-0.005	0.000	0.005	-0.005	0.039	2.676	1.890	1.890	1.885	1.904	1.904	1.904
-0.020	0.005	-0.005	0.000	0.000	0.000	0.039	2.690	1.904	1.895	1.885	1.904	1.904	1.909
-0.005	-0.005	-0.005	0.000	0.000	0.000	0.039	2.700	1.904	1.895	1.890	1.904	1.899	1.904
0.015	0.010	0.000	0.000	0.010	0.005	0.039	2.700	1.914	1.904	1.895	1.909	1.904	1.904
0.024	-0.020	0.005	0.000	0.000	-0.015	0.039	2.705	1.909	1.899	1.895	1.909	1.904	1.895
0.034	-0.005	0.005	0.000	0.000	0.000	0.039	2.690	1.909	1.904	1.895	1.909	1.904	1.904
0.024	-0.010	0.000	0.000	0.000	0.010	0.039	2.695	1.899	1.899	1.895	1.909	1.904	1.904
0.029	0.005	-0.005	0.005	0.000	0.005	0.039	2.661	1.899	1.904	1.895	1.909	1.904	1.904
0.010	0.005	0.000	0.005	-0.005	-0.015	0.039	2.686	1.890	1.899	1.899	1.914	1.904	1.899
0.015	0.020	0.005	0.005	-0.029	0.005	0.039	2.661	1.890	1.899	1.895	1.914	1.899	1.904
0.005	0.024	0.000	0.005	-0.044	0.005	0.039	2.671	1.880	1.895	1.895	1.914	1.895	1.899
-0.005	0.015	0.000	0.005	-0.039	-0.020	0.039	2.651	1.880	1.890	1.895	1.914	1.899	1.895
-0.020	0.020	0.000	0.000	-0.039	-0.005	0.039	2.646	1.875	1.885	1.890	1.909	1.904	1.899
-0.015	0.020	0.005	0.005	-0.034	-0.005	0.039	2.642	1.875	1.880	1.885	1.909	1.904	1.899
-0.010	0.010	0.000	-0.005	-0.020	0.005	0.039	2.646	1.880	1.880	1.885	1.909	1.909	1.909
-0.010	0.000	0.005	-0.005	-0.015	-0.005	0.039	2.646	1.890	1.880	1.880	1.904	1.904	1.904
0.005	0.010	0.000	-0.005	-0.034	-0.010	0.039	2.734	1.904	1.890	1.885	1.904	1.899	1.899
0.000	0.010	0.000	-0.005	-0.020	-0.020	0.039	2.759	1.904	1.890	1.885	1.904	1.904	1.899
0.000	0.005	0.000	0.000	-0.015	-0.005	0.039	2.656	1.899	1.890	1.885	1.904	1.904	1.904
-0.010	0.000	0.000	0.005	0.005	-0.005	0.039	2.651	1.895	1.890	1.890	1.909	1.914	1.909
-0.010	0.005	0.000	0.015	0.020	-0.005	0.039	2.666	1.890	1.895	1.890	1.909	1.914	1.914
0.000	0.034	0.005	0.010	0.054	0.015	0.039	2.715	1.899	1.899	1.895	1.909	1.924	1.919
0.005	0.054	0.005	0.015	0.107	0.005	0.039	2.661	1.899	1.904	1.899	1.914	1.934	1.919
-0.005	0.059	0.010	0.015	0.137	0.015	0.039	2.725	1.899	1.904	1.899	1.914	1.934	1.929
-0.029	0.024	0.010	0.010	0.151	0.029	0.039	2.749	1.904	1.890	1.895	1.914	1.934	1.929
0.000	0.015	0.010	0.010	0.107	0.029	0.039	2.651	1.909	1.895	1.895	1.909	1.909	1.924
-0.015	0.020	0.010	0.010	0.068	0.029	0.039	2.671	1.895	1.895	1.890	1.909	1.899	1.914
-0.044	-0.005	0.005	0.000	0.010	0.034	0.039	2.676	1.890	1.885	1.885	1.909	1.885	1.909
-0.039	-0.010	0.005	-0.005	0.020	0.024	0.039	2.671	1.890	1.885	1.885	1.904	1.890	1.899
-0.020	-0.039	0.005	0.000	0.083	0.020	0.039	2.681	1.895	1.880	1.885	1.904	1.914	1.904
-0.010	-0.049	-0.005	-0.010	0.171	-0.010	0.039	2.705	1.899	1.880	1.880	1.904	1.934	1.904
-0.005	-0.059	-0.005	0.000	0.137	0.020	0.039	2.676	1.904	1.885	1.880	1.904	1.909	1.914
0.029	-0.044	-0.005	0.005	0.020	0.010	0.039	2.710	1.914	1.895	1.880	1.899	1.875	1.899
0.044	-0.039	-0.005	0.000	-0.044	0.015	0.039	2.686	1.914	1.904	1.890	1.899	1.870	1.890
0.063	-0.029	-0.005	-0.005	-0.098	0.005	0.039	2.700	1.909	1.909	1.890	1.899	1.855	1.875
0.063	-0.015	-0.005	-0.010	-0.132	0.000	0.039	2.705	1.909	1.909	1.899	1.904	1.865	1.875
0.049	0.005	-0.005	-0.015	-0.122	0.005	0.039	2.671	1.895	1.914	1.904	1.904	1.875	1.875
0.044	0.029	-0.005	-0.020	-0.132	-0.005	0.039	2.671	1.885	1.909	1.904	1.909	1.880	1.870
0.010	0.020	0.000	0.000	-0.103	-0.005	0.039	2.666	1.875	1.899	1.904	1.919	1.899	1.875
0.010	0.029	0.000	0.005	-0.073	-0.015	0.039	2.676	1.885	1.895	1.904	1.924	1.909	1.885
0.005	0.034	0.010	0.015	-0.034	-0.015	0.039	2.666	1.880	1.895	1.899	1.924	1.924	1.895
0.000	0.024	0.010	0.015	-0.010	-0.010	0.039	2.695	1.880	1.890	1.899	1.924	1.929	1.904
-0.020	0.015	0.005	0.010	0.005	-0.010	0.039	2.676	1.875	1.875	1.890	1.919	1.929	1.914
-0.015	0.010	0.010	0.000	0.015	0.000	0.039	2.676	1.880	1.875	1.885	1.909	1.929	1.919
-0.020	-0.034	0.005	0.000	0.010	-0.005	0.039	2.681	1.880	1.870	1.880	1.904	1.919	1.919
-0.020	-0.039	0.000	-0.005	0.005	-0.010	0.039	2.695	1.885	1.870	1.875	1.899	1.909	1.909
0.000	-0.020	-0.005	0.005	-0.015	-0.005	0.039	2.700	1.895	1.880	1.875	1.899	1.904	1.914
-0.015	-0.020	-0.005	0.015	-0.020	-0.015	0.039	2.666	1.895	1.880	1.875	1.899	1.899	1.909
-0.020	-0.005	0.000	0.020	-0.020	0.005	0.039	2.681	1.895	1.890	1.880	1.904	1.899	1.909
-0.015	0.010	0.005	0.020	-0.020	0.005	0.039	2.681	1.895	1.895	1.885	1.904	1.899	1.909
-0.020	0.015	0.000	0.015	-0.024	0.005	0.039	2.661	1.895	1.895	1.885	1.904	1.899	1.904
-0.005	0.029	0.000	0.010	0.000	-0.005	0.039	2.666	1.895	1.899	1.890	1.904	1.904	1.904
0.000	0.010	-0.005	0.005	0.024	-0.015	0.039	2.637	1.890	1.895	1.890	1.904	1.909	1.904
0.010	-0.005	0.005	0.000	0.015	0.005	0.039	2.642	1.885	1.885	1.890	1.904	1.904	1.909
0.015	-0.005	-0.005	-0.010	-0.005	0.010	0.039	2.637	1.885	1.885	1.885	1.899	1.895	1.904
0.020	-0.010	0.000	-0.010	-0.010	0.005	0.039	2.642	1.890	1.890	1.885	1.899	1.895	1.899
0.020	-0.010	0.000	-0.010	-0.010	0.005	0.039	2.739	1.895	1.885	1.885	1.899	1.895	1.899
0.015	0.005	0.005	-0.010	0.000	0.005	0.039	2.612	1.885	1.890	1.885	1.904	1.899	1.899
0.010	0.029	0.000	0.000	0.010	0.005	0.039	2.656	1.885	1.890	1.890	1.909	1.904	1.899
0.020	0.034	0.000	0.000	0.015	0.005	0.039	2.729	1.899	1.895	1.885	1.904	1.904	1.899
0.024	0.044	0.005	0.005	0.015	0.005	0.039	2.686	1.895	1.899	1.890	1.909	1.899	1.899
0.010	0.024	0.005	0.005	0.010	0.000	0.039	2.734	1.895	1.890	1.890	1.909	1.899	1.899
-0.005	0.005	0.005	0.000	0.010	0.005	0.039	2.681	1.890	1.885	1.885	1.909	1.904	1.899
0.000	0.010	-0.005	0.000	0.000	-0.005	0.039	2.617	1.880	1.885	1.885	1.904	1.899	1.899
-0.005	-0.010	-0.005	0.000	0.005	0.005	0.039	2.700	1.885	1.875	1.880	1.904	1.899	1.904
0.000	-0.024	0.000	0.000	0.005	0.005	0.039	2.642	1.890	1.875	1.880	1.899	1.899	1.904
-0.010	-0.024	0.000	-0.005	0.000	0.005	0.039	2.676	1.890	1.880	1.880	1.904	1.899	1.899
-0.005	-0.039	0.000	0.000	0.005	0.000	0.039	2.695	1.895	1.880	1.880	1.899	1.899	1.899
0.005	-0.024	0.000	0.005	0.000	0.000	0.039	2.671	1.899	1.885	1.880	1.904	1.895	1.899
-0.015	-0.015	0.000	0.005	0.005	-0.010	0.039	2.676	1.890	1.890	1.885	1.904	1.899	1.895
0.000	-0.015	0.000	0.010	0.005	0.005	0.039	2.700	1.895	1.890	1.885	1.904	1.899	1.904
0.000	0.000	0.005	0.010	0.010	0.010	0.039	2.700	1.895	1.895	1.890	1.904	1.899	1.904
0.000	0.015	0.000	0.005	0.005	0.005	0.039	2.695	1.890	1.899	1.890	1.904	1.899	1.899
-0.005	0.024	0.005	0.000	0.005	-0.010	0.039	2.705	1.895	1.899	1.890	1.904	1.899	1.895
-0.005	0.034	-0.005	0.005	0.005	0.005	0.034	2.690	1.895	1.899	1.895	1.909	1.899	1.899
0.000	0.024	0.005	-0.005	0.005	0.000	0.039	2.710	1.899	1.895	1.895	1.909	1.899	1.895
0.000	0.020	0.005	-0.005	0.005	-0.005	0.039	2.671	1.895	1.890	1.895	1.909	1.899	1.899
0.000	0.039	0.010	-0.005	0.000	0.005	0.039	2.666	1.895	1.895	1.895	1.909	1.899	1.899
0.010	0.049	0.005	-0.005	0.010	0.000	0.039	2.695	1.895	1.899	1.895	1.909	1.904	1.904
0.005	0.029	0.015	-0.005	0.005	0.015	0.039	2.690	1.890	1.895	1.895	1.909	1.904	1.904
0.015	0.029	0.015	0.000	0.005	0.000	0.039	2.671	1.895	1.890	1.895	1.914	1.904	1.899
0.010	-0.005	0.024	0.005	0.005	0.010	0.034	2.710	1.895	1.880	1.890	1.914	1.904	1.904
0.000	-0.015	0.024	0.010	0.000	0.000	0.039	2.695	1.890	1.880	1.890	1.914	1.904	1.899
-0.005	-0.010	0.034	0.010	0.000	0.010	0.039	2.681	1.895	1.885	1.890	1.909	1.909	1.904
0.005	-0.020	0.024	0.005	0.005	0.005	0.039	2.700	1.895	1.885	1.890	1.904	1.904	1.909
0.005	-0.034	0.020	-0.005	0.005	0.000	0.039	2.681	1.895	1.885	1.880	1.904	1.904	1.904
0.000	-0.020	0.015	-0.005	0.010	0.005	0.039	2.700	1.895	1.890	1.885	1.904	1.904	1.904
-0.005	-0.024	0.015	-0.015	0.005	0.005	0.039	2.666	1.890	1.885	1.885	1.899	1.899	1.904
0.000	-0.015	0.005	-0.015	0.005	0.005	0.039	2.681	1.890	1.895	1.880	1.895	1.904	1.899
0.005	-0.005	-0.005	-0.010	0.000	0.000	0.039	2.661	1.890	1.890	1.885	1.899	1.895	1.899
-0.005	-0.005	-0.015	-0.005	0.000	0.005	0.039	2.661	1.885	1.890	1.885	1.904	1.895	1.899
-0.005	0.024	-0.020	-0.010	0.000	0.005	0.039	2.661	1.885	1.895	1.885	1.899	1.895	1.899
0.000	0.015	-0.020	-0.005	0.005	0.005	0.039	2.651	1.880	1.885	1.880	1.904	1.895	1.895
-0.005	-0.005	-0.029	0.005	0.000	0.010	0.039	2.627	1.875	1.875	1.880	1.904	1.895	1.899
-0.015	-0.034	-0.024	0.005	0.000	0.010	0.039	2.637	1.870	1.865	1.875	1.899	1.895	1.895
0.000	-0.044	-0.029	0.015	-0.005	-0.005	0.039	2.749	1.885	1.870	1.875	1.899	1.895	1.890
-0.005	-0.039	-0.020	0.015	0.000	0.015	0.039	2.627	1.880	1.875	1.875	1.899	1.899	1.899
0.000	-0.029	-0.029	0.010	0.005	0.005	0.039	2.739	1.899	1.880	1.875	1.895	1.895	1.899
-0.005	-0.020	-0.020	0.000	0.005	0.005	0.039	2.666	1.890	1.885	1.880	1.895	1.895	1.895
0.015	-0.010	-0.020	-0.005	0.005	0.000	0.039	2.646	1.895	1.890	1.885	1.895	1.895	1.899
0.010	0.010	-0.020	0.005	0.005	0.000	0.039	2.690	1.895	1.899	1.885	1.899	1.895	1.890
0.015	0.000	-0.015	-0.005	0.000	0.005	0.039	2.744	1.904	1.895	1.890	1.899	1.895	1.895
0.010	0.005	-0.020	-0.005	0.005	0.000	0.034	2.808	1.904	1.899	1.890	1.904	1.895	1.895
-0.010	0.005	-0.015	0.000	0.000	0.000	0.039	2.632	1.890	1.895	1.890	1.909	1.895	1.895
0.010	0.005	-0.020	0.000	0.000	0.005	0.039	2.720	1.885	1.895	1.890	1.909	1.899	1.899
-0.005	0.000	-0.020	0.010	0.000	0.010	0.039	2.715	1.885	1.890	1.890	1.909	1.899	1.899
-0.010	0.005	-0.010	0.000	0.005	0.005	0.039	2.676	1.890	1.890	1.890	1.909	1.899	1.899
-0.005	0.024	-0.005	0.005	0.005	0.005	0.039	2.671	1.885	1.895	1.890	1.909	1.899	1.899
-0.005	0.029	-0.005	0.000	0.000	-0.024	0.039	2.676	1.885	1.890	1.890	1.904	1.899	1.890
0.010	0.005	0.000	0.000	-0.005	-0.020	0.039	2.695	1.895	1.885	1.890	1.909	1.899	1.895
0.005	0.005	0.000	0.000	-0.010	0.005	0.039	2.705	1.895	1.885	1.890	1.909	1.899	1.899
0.005	-0.005	0.000	0.010	0.000	-0.005	0.039	2.671	1.890	1.880	1.885	1.909	1.899	1.899
0.000	-0.010	0.005	0.005	-0.010	0.000	0.039	2.700	1.885	1.880	1.885	1.904	1.904	1.899
0.005	0.010	0.000	0.005	0.000	0.005	0.039	2.671	1.890	1.890	1.885	1.904	1.904	1.904
0.000	0.010	0.005	-0.005	0.000	-0.005	0.039	2.686	1.890	1.890	1.885	1.904	1.899	1.899
0.010	0.010	0.005	-0.010	0.000	-0.005	0.039	2.676	1.890	1.890	1.890	1.904	1.899	1.899
0.005	0.024	0.000	-0.005	0.010	0.005	0.039	2.681	1.890	1.895	1.890	1.909	1.904	1.904
0.000	0.005	0.000	0.000	0.000	-0.005	0.039	2.676	1.890	1.890	1.890	1.909	1.904	1.904
-0.005	0.010	0.005	0.010	-0.005	-0.005	0.039	2.705	1.895	1.890	1.890	1.909	1.899	1.899
0.000	0.024	0.005	0.010	-0.015	0.000	0.039	2.700	1.890	1.895	1.890	1.909	1.899	1.904
0.005	0.015	0.010	0.010	-0.005	-0.005	0.039	2.676	1.895	1.890	1.890	1.909	1.904	1.904
0.000	0.020	0.005	0.005	0.005	0.015	0.039	2.700	1.899	1.895	1.890	1.909	1.904	1.909
-0.005	0.024	0.010	0.000	0.005	0.005	0.039	2.700	1.899	1.895	1.890	1.909	1.904	1.904
0.000	0.005	0.005	0.005	0.000	0.000	0.039	2.695	1.890	1.885	1.890	1.909	1.904	1.899
-0.005	0.005	0.010	0.005	0.010	0.010	0.039	2.666	1.895	1.890	1.890	1.909	1.904	1.904
0.000	0.010	0.005	0.010	0.015	0.005	0.039	2.671	1.890	1.895	1.890	1.909	1.909	1.904
0.000	0.015	0.015	0.005	0.015	0.000	0.039	2.700	1.890	1.890	1.890	1.909	1.904	1.904
0.000	0.000	0.005	0.000	0.005	-0.010	0.039	2.671	1.890	1.885	1.885	1.904	1.899	1.899
0.000	0.015	0.005	-0.005	-0.005	0.005	0.039	2.681	1.890	1.890	1.885	1.904	1.899	1.904
0.005	0.015	0.005	-0.005	-0.010	0.015	0.039	2.651	1.890	1.890	1.885	1.904	1.895	1.904
0.010	0.020	0.015	-0.005	-0.005	0.000	0.039	2.666	1.890	1.890	1.890	1.909	1.899	1.899
0.005	0.005	0.010	0.000	0.000	0.010	0.039	2.676	1.885	1.885	1.885	1.904	1.899	1.904
0.010	0.010	0.005	-0.005	0.020	0.010	0.039	2.788	1.904	1.890	1.885	1.904	1.909	1.904
-0.005	0.005	0.010	-0.015	0.024	0.005	0.039	2.725	1.904	1.890	1.890	1.904	1.904	1.904
0.005	-0.010	0.005	-0.005	0.029	-0.010	0.039	2.637	1.895	1.890	1.885	1.904	1.904	1.899
0.000	-0.049	0.000	0.010	0.039	-0.015	0.039	2.646	1.890	1.880	1.885	1.909	1.909	1.904
0.000	-0.020	-0.005	0.015	0.049	0.000	0.039	2.656	1.895	1.890	1.885	1.909	1.909	1.909
-0.005	0.005	-0.005	0.020	0.029	0.005	0.039	2.734	1.899	1.899	1.885	1.909	1.904	1.904
0.000	-0.005	0.000	0.005	0.000	0.010	0.039	2.646	1.890	1.890	1.890	1.904	1.890	1.899
0.000	-0.005	0.000	0.000	-0.020	0.010	0.039	2.754	1.899	1.895	1.890	1.899	1.890	1.899
0.000	-0.020	0.010	-0.020	-0.020	-0.005	0.039	2.681	1.895	1.890	1.890	1.899	1.890	1.895
-0.005	-0.005	0.015	-0.010	-0.020	-0.005	0.039	2.642	1.890	1.895	1.895	1.904	1.895	1.890
-0.005	0.000	0.015	0.005	-0.020	-0.015	0.039	2.681	1.885	1.890	1.895	1.909	1.895	1.890
0.000	-0.005	0.020	0.029	-0.020	-0.010	0.039	2.607	1.890	1.890	1.895	1.919	1.904	1.895
0.000	-0.015	0.020	0.029	-0.015	0.005	0.039	2.627	1.880	1.885	1.890	1.914	1.904	1.899
0.000	-0.005	0.015	0.029	-0.020	0.005	0.039	2.734	1.890	1.890	1.890	1.909	1.904	1.904
-0.005	-0.005	0.010	0.020	-0.020	0.000	0.039	2.676	1.890	1.885	1.885	1.909	1.899	1.899
0.005	0.005	0.000	0.015	-0.010	-0.005	0.039	2.695	1.895	1.895	1.885	1.904	1.904	1.899
-0.005	0.005	0.005	0.015	-0.010	0.000	0.039	2.676	1.890	1.895	1.885	1.904	1.904	1.904
0.000	0.000	-0.005	0.005	-0.015	0.000	0.039	2.671	1.890	1.890	1.885	1.904	1.899	1.904
0.005	0.010	0.005	0.000	-0.015	-0.020	0.039	2.676	1.890	1.895	1.890	1.899	1.899	1.895
0.000	0.010	0.000	-0.010	-0.015	-0.015	0.039	2.676	1.890	1.890	1.890	1.904	1.899	1.895
0.005	0.010	0.005	-0.010	-0.010	-0.010	0.039	2.705	1.895	1.890	1.890	1.904	1.904	1.899
0.000	0.015	0.005	-0.015	-0.005	0.005	0.039	2.681	1.895	1.895	1.890	1.904	1.904	1.904
