-0.005	0.000	0.000	0.000	-0.005	-0.020	0.029	1.787	3.638	3.018	3.296	2.617	3.042	2.568
-0.005	0.000	0.000	0.005	0.005	-0.010	0.029	1.733	3.281	3.105	3.242	2.798	2.969	2.686
-0.005	0.005	0.000	0.000	-0.005	0.005	0.029	1.787	3.042	3.096	3.203	2.910	2.949	2.764
0.000	-0.005	0.000	-0.005	0.010	0.020	0.029	1.802	2.871	3.042	3.159	2.988	2.959	2.817
-0.010	0.000	0.000	-0.005	0.024	0.010	0.029	1.772	2.749	2.964	3.110	3.027	2.979	2.856
0.000	-0.005	-0.005	0.000	0.005	0.029	0.029	1.768	2.646	2.886	3.052	3.042	2.993	2.900
0.000	-0.010	0.000	-0.005	-0.010	0.034	0.029	1.772	2.588	2.808	2.983	3.032	2.998	2.930
0.000	0.010	-0.005	0.000	-0.010	0.024	0.029	1.763	2.539	2.744	2.920	3.008	2.998	2.944
0.005	0.010	0.000	0.005	-0.024	-0.005	0.029	1.729	2.505	2.686	2.856	2.974	2.988	2.954
-0.005	0.024	0.000	-0.005	-0.024	-0.010	0.029	1.792	2.480	2.637	2.798	2.930	2.974	2.954
0.000	0.015	-0.005	0.000	-0.010	-0.024	0.029	1.748	2.471	2.593	2.744	2.886	2.954	2.954
-0.005	0.015	0.000	0.000	0.010	-0.020	0.024	1.802	2.456	2.559	2.695	2.842	2.930	2.949
0.000	0.000	-0.005	0.005	0.005	-0.020	0.029	1.753	2.437	2.529	2.646	2.793	2.891	2.935
0.000	0.005	0.000	0.000	0.015	-0.005	0.029	1.777	2.427	2.500	2.607	2.749	2.856	2.920
0.005	-0.005	0.000	0.000	0.020	0.005	0.029	1.777	2.407	2.480	2.573	2.705	2.812	2.896
-0.010	-0.005	0.000	0.000	0.024	0.010	0.029	1.812	2.397	2.461	2.544	2.666	2.778	2.861
0.000	0.000	0.000	-0.005	0.005	0.005	0.029	1.792	2.388	2.446	2.515	2.627	2.729	2.822
0.005	-0.005	-0.005	0.000	-0.005	0.000	0.024	1.787	2.373	2.432	2.490	2.598	2.690	2.788
0.000	-0.010	-0.005	-0.005	-0.005	0.000	0.029	1.719	2.349	2.412	2.471	2.568	2.656	2.749
-0.005	0.000	0.000	0.000	0.005	0.000	0.029	1.768	2.334	2.397	2.451	2.539	2.622	2.720
-0.005	-0.015	-0.005	0.000	-0.010	-0.015	0.029	1.753	2.310	2.373	2.427	2.515	2.588	2.681
0.000	0.005	0.000	0.000	-0.005	0.010	0.029	1.787	2.300	2.358	2.412	2.490	2.563	2.651
-0.005	-0.015	0.000	0.000	-0.005	-0.010	0.029	1.797	2.285	2.339	2.388	2.466	2.534	2.617
0.000	-0.005	0.000	0.000	-0.010	0.015	0.029	1.772	2.271	2.329	2.373	2.446	2.510	2.593
0.000	-0.005	-0.005	0.005	-0.010	0.005	0.024	1.768	2.256	2.310	2.354	2.427	2.485	2.559
0.000	0.000	0.000	0.005	-0.010	-0.015	0.029	1.763	2.231	2.295	2.339	2.407	2.461	2.529
0.000	0.005	-0.005	0.000	0.000	0.005	0.024	1.748	2.212	2.275	2.324	2.388	2.446	2.510
0.000	-0.005	0.000	0.000	0.000	0.010	0.029	1.812	2.202	2.256	2.305	2.373	2.427	2.490
0.005	0.005	0.005	-0.005	-0.005	0.005	0.029	1.763	2.187	2.241	2.290	2.354	2.402	2.466
0.000	0.000	-0.005	-0.005	0.000	0.005	0.024	1.787	2.173	2.222	2.271	2.339	2.383	2.441
0.000	0.000	-0.005	-0.005	-0.005	-0.024	0.029	1.758	2.158	2.212	2.251	2.319	2.363	2.417
-0.010	0.005	-0.005	-0.005	-0.005	0.000	0.029	1.802	2.144	2.192	2.241	2.300	2.344	2.402
0.000	0.005	-0.005	0.000	-0.005	0.010	0.029	1.763	2.129	2.183	2.222	2.285	2.329	2.388
-0.005	-0.005	0.000	0.005	0.005	0.005	0.029	1.816	2.109	2.158	2.207	2.271	2.314	2.363
-0.005	-0.010	0.000	-0.005	0.005	0.010	0.024	1.777	2.095	2.144	2.187	2.251	2.295	2.349
-0.005	-0.010	0.000	0.000	0.000	0.005	0.029	1.748	2.080	2.129	2.173	2.231	2.275	2.329
0.000	-0.005	-0.005	0.000	0.000	0.000	0.024	1.782	2.065	2.114	2.158	2.217	2.261	2.310
0.005	-0.010	-0.005	0.000	0.005	0.005	0.024	1.763	2.046	2.100	2.139	2.197	2.241	2.295
0.000	-0.020	-0.005	0.000	0.005	-0.020	0.029	1.738	2.031	2.080	2.124	2.183	2.222	2.266
-0.005	-0.010	-0.005	0.000	0.000	-0.005	0.029	1.753	2.017	2.065	2.109	2.173	2.207	2.256
0.000	-0.005	-0.005	0.000	-0.005	0.000	0.029	1.797	2.007	2.051	2.095	2.153	2.192	2.236
0.000	-0.005	0.000	0.000	-0.005	-0.010	0.029	1.748	1.992	2.041	2.080	2.139	2.178	2.217
0.000	-0.005	-0.005	0.000	0.000	0.010	0.029	1.763	1.978	2.026	2.065	2.124	2.163	2.207
-0.005	0.000	0.000	0.000	-0.005	0.005	0.024	1.724	1.963	2.012	2.051	2.109	2.148	2.192
0.000	0.005	0.000	-0.005	0.000	0.005	0.024	1.787	1.953	1.997	2.041	2.095	2.134	2.178
0.005	0.005	-0.005	-0.005	-0.005	0.005	0.024	1.812	1.948	1.987	2.026	2.080	2.114	2.158
-0.005	0.005	0.000	-0.005	0.000	-0.015	0.024	1.797	1.943	1.978	2.012	2.070	2.104	2.139
0.000	0.000	-0.005	0.000	0.000	0.000	0.029	1.768	1.924	1.963	2.002	2.056	2.090	2.134
0.000	0.000	0.005	0.000	-0.005	0.005	0.024	1.792	1.914	1.948	1.987	2.041	2.075	2.119
0.005	-0.005	0.000	0.000	0.000	-0.010	0.029	1.792	1.895	1.934	1.973	2.026	2.061	2.100
-0.010	-0.005	0.005	0.005	0.000	0.000	0.029	1.753	1.880	1.924	1.958	2.017	2.046	2.090
-0.015	0.000	-0.010	0.000	0.000	-0.005	0.029	1.797	1.870	1.909	1.943	1.997	2.031	2.075
0.000	0.000	-0.005	0.000	-0.005	0.000	0.024	1.787	1.865	1.899	1.929	1.987	2.017	2.056
-0.010	0.005	-0.005	0.000	-0.005	-0.010	0.029	1.777	1.851	1.890	1.919	1.973	2.002	2.041
0.000	-0.005	0.000	0.000	-0.005	0.000	0.029	1.763	1.846	1.875	1.909	1.958	1.992	2.031
0.000	-0.010	-0.005	0.000	-0.005	0.000	0.024	1.802	1.836	1.865	1.895	1.948	1.978	2.017
0.010	-0.005	0.000	0.000	-0.005	-0.005	0.024	1.772	1.821	1.855	1.885	1.934	1.963	2.002
0.000	0.000	0.000	0.000	0.000	-0.005	0.029	1.787	1.807	1.846	1.875	1.924	1.953	1.987
0.000	0.005	0.000	0.000	0.010	-0.015	0.029	1.777	1.802	1.841	1.870	1.909	1.943	1.978
-0.005	0.000	0.000	-0.005	0.000	-0.005	0.029	1.772	1.787	1.826	1.855	1.899	1.929	1.968
0.005	0.000	-0.005	0.000	0.000	0.000	0.029	1.787	1.782	1.816	1.846	1.890	1.914	1.953
0.000	0.005	-0.005	0.000	-0.005	0.000	0.029	1.729	1.768	1.807	1.831	1.880	1.904	1.938
-0.005	0.005	-0.005	0.000	0.000	0.010	0.029	1.797	1.758	1.792	1.821	1.870	1.895	1.929
0.000	-0.005	0.000	-0.005	-0.010	-0.005	0.029	1.758	1.748	1.782	1.812	1.860	1.885	1.909
-0.005	0.000	-0.010	0.000	0.000	0.000	0.029	1.787	1.738	1.772	1.802	1.851	1.875	1.904
-0.005	-0.005	0.000	0.000	0.005	0.000	0.024	1.787	1.733	1.763	1.787	1.841	1.865	1.895
0.000	-0.010	0.000	0.000	0.010	-0.010	0.029	1.743	1.719	1.753	1.777	1.826	1.855	1.880
-0.015	0.000	0.000	-0.005	0.005	0.000	0.029	1.802	1.709	1.743	1.768	1.816	1.841	1.870
0.000	-0.005	-0.005	-0.005	0.005	-0.015	0.029	1.777	1.699	1.729	1.758	1.807	1.831	1.860
0.005	-0.010	0.005	-0.005	0.010	0.005	0.029	1.777	1.699	1.724	1.748	1.797	1.821	1.855
-0.005	-0.005	0.000	0.000	0.010	-0.005	0.024	1.782	1.685	1.714	1.738	1.787	1.812	1.836
-0.005	-0.005	0.000	0.000	0.000	-0.015	0.029	1.709	1.670	1.704	1.724	1.772	1.797	1.826
-0.005	-0.010	0.000	0.000	-0.005	0.000	0.029	1.753	1.660	1.689	1.719	1.763	1.787	1.816
0.000	-0.020	-0.005	0.000	-0.005	-0.010	0.029	1.807	1.655	1.680	1.709	1.753	1.772	1.807
-0.005	0.005	0.000	-0.005	-0.039	0.000	0.029	1.787	1.665	1.685	1.704	1.743	1.758	1.792
-0.005	0.005	0.000	0.005	-0.039	0.010	0.029	1.758	1.650	1.675	1.694	1.733	1.753	1.787
0.000	0.005	-0.005	0.005	-0.020	0.015	0.029	1.719	1.631	1.670	1.685	1.729	1.748	1.777
0.000	0.010	-0.005	0.000	-0.005	0.024	0.029	1.763	1.631	1.660	1.680	1.719	1.743	1.772
0.000	0.010	0.005	-0.005	0.020	0.015	0.029	1.772	1.626	1.655	1.675	1.714	1.738	1.763
-0.005	0.005	-0.005	-0.005	0.005	0.010	0.024	1.772	1.611	1.641	1.665	1.704	1.724	1.753
-0.005	0.015	-0.005	0.000	-0.005	0.000	0.029	1.807	1.606	1.636	1.655	1.694	1.714	1.738
0.000	-0.010	-0.005	0.000	-0.010	0.005	0.024	1.782	1.602	1.621	1.646	1.689	1.704	1.729
0.010	0.005	-0.005	0.000	-0.010	0.005	0.029	1.753	1.597	1.621	1.641	1.680	1.699	1.719
0.000	-0.020	0.000	0.000	0.000	-0.005	0.024	1.772	1.577	1.602	1.631	1.670	1.689	1.709
-0.015	-0.020	0.000	-0.005	0.000	-0.010	0.029	1.763	1.562	1.597	1.621	1.660	1.685	1.704
0.000	-0.010	0.000	0.000	0.005	0.005	0.029	1.782	1.562	1.587	1.611	1.655	1.675	1.699
-0.005	-0.010	-0.005	0.000	0.000	-0.005	0.029	1.733	1.558	1.582	1.602	1.646	1.665	1.685
0.000	-0.010	0.000	0.000	0.000	-0.029	0.024	1.812	1.558	1.572	1.597	1.636	1.655	1.670
0.000	-0.005	0.005	0.000	0.005	-0.005	0.029	1.753	1.543	1.567	1.587	1.626	1.650	1.675
0.000	0.000	0.000	0.000	0.005	-0.005	0.029	1.782	1.543	1.562	1.577	1.621	1.641	1.665
-0.005	-0.005	0.000	0.000	0.005	-0.005	0.024	1.763	1.538	1.553	1.572	1.611	1.631	1.655
0.000	0.010	0.005	0.005	0.000	-0.005	0.029	1.738	1.528	1.553	1.567	1.606	1.621	1.646
0.000	0.015	0.000	0.000	0.000	-0.005	0.029	1.777	1.523	1.543	1.558	1.597	1.616	1.641
0.000	0.010	-0.005	0.000	0.005	0.005	0.029	1.792	1.519	1.538	1.558	1.592	1.606	1.631
0.000	0.005	-0.005	0.000	0.000	-0.010	0.024	1.753	1.514	1.528	1.553	1.582	1.597	1.621
0.005	0.005	0.000	-0.005	-0.005	0.015	0.029	1.772	1.509	1.528	1.543	1.577	1.597	1.621
-0.005	0.005	-0.005	0.000	-0.005	0.015	0.024	1.792	1.499	1.523	1.538	1.572	1.587	1.611
0.000	0.020	0.000	0.000	0.000	-0.005	0.029	1.724	1.499	1.519	1.533	1.567	1.582	1.597
0.000	0.015	0.000	0.000	0.010	-0.005	0.024	1.812	1.499	1.514	1.528	1.562	1.577	1.597
-0.005	0.005	0.000	0.000	0.005	0.005	0.029	1.704	1.479	1.504	1.523	1.558	1.567	1.587
0.005	-0.005	-0.005	0.000	0.005	-0.015	0.029	1.777	1.475	1.489	1.514	1.553	1.558	1.572
0.000	-0.005	0.000	0.000	0.000	0.000	0.029	1.743	1.470	1.489	1.504	1.543	1.558	1.572
-0.010	-0.010	0.000	-0.005	0.005	-0.015	0.029	1.812	1.470	1.479	1.499	1.538	1.548	1.562
-0.005	-0.005	0.000	0.000	-0.005	-0.005	0.029	1.772	1.460	1.475	1.489	1.528	1.543	1.558
-0.005	-0.005	-0.005	0.000	0.000	0.010	0.029	1.758	1.455	1.470	1.489	1.523	1.538	1.558
0.005	-0.015	0.000	0.000	-0.005	0.000	0.029	1.748	1.445	1.465	1.479	1.514	1.528	1.548
0.000	-0.005	0.005	-0.005	0.000	0.015	0.024	1.797	1.450	1.460	1.479	1.509	1.523	1.543
0.000	-0.010	-0.005	0.005	0.000	-0.015	0.024	1.768	1.436	1.455	1.470	1.504	1.514	1.528
-0.005	-0.005	0.000	0.000	-0.005	-0.005	0.024	1.758	1.431	1.450	1.465	1.499	1.509	1.523
-0.005	0.005	-0.005	-0.005	0.000	-0.020	0.024	1.733	1.431	1.450	1.460	1.494	1.504	1.514
0.000	0.000	0.000	0.000	-0.024	-0.024	0.029	1.797	1.426	1.445	1.455	1.489	1.494	1.509
-0.005	0.010	-0.005	0.005	-0.020	-0.005	0.029	1.753	1.421	1.440	1.450	1.484	1.489	1.509
0.005	0.015	0.000	0.000	-0.005	-0.015	0.029	1.782	1.421	1.436	1.445	1.479	1.489	1.499
-0.005	0.000	0.000	0.000	-0.005	0.010	0.029	1.792	1.416	1.426	1.440	1.475	1.484	1.504
-0.005	-0.010	0.005	0.000	0.005	0.015	0.029	1.758	1.411	1.426	1.436	1.470	1.484	1.499
0.005	-0.010	-0.005	0.000	0.000	0.020	0.029	1.748	1.406	1.416	1.431	1.465	1.479	1.494
-0.005	-0.005	0.000	0.000	0.005	0.000	0.024	1.768	1.396	1.416	1.426	1.460	1.470	1.484
-0.005	-0.010	0.000	0.000	0.005	-0.005	0.024	1.733	1.392	1.406	1.421	1.450	1.465	1.475
0.000	0.000	0.005	0.000	0.005	0.000	0.029	1.797	1.392	1.406	1.421	1.450	1.460	1.475
0.000	-0.010	0.000	-0.005	0.000	0.010	0.029	1.787	1.392	1.396	1.411	1.445	1.455	1.470
-0.005	-0.015	0.000	-0.005	0.000	0.005	0.029	1.763	1.382	1.396	1.401	1.440	1.450	1.455
-0.005	-0.015	-0.005	0.000	0.000	0.010	0.029	1.729	1.372	1.392	1.401	1.431	1.445	1.460
0.000	-0.005	0.000	-0.005	0.005	0.005	0.029	1.782	1.377	1.392	1.396	1.431	1.440	1.450
-0.005	0.000	0.005	0.005	0.005	0.000	0.029	1.787	1.367	1.382	1.396	1.426	1.436	1.445
0.000	-0.010	0.000	0.000	-0.005	0.005	0.029	1.733	1.362	1.377	1.387	1.421	1.426	1.440
-0.005	0.005	-0.010	0.000	-0.010	-0.029	0.029	1.792	1.362	1.372	1.387	1.416	1.416	1.421
-0.005	0.010	0.000	0.000	0.000	0.005	0.029	1.792	1.362	1.372	1.382	1.411	1.421	1.436
0.000	0.005	-0.005	-0.005	0.005	-0.005	0.029	1.792	1.357	1.367	1.377	1.406	1.416	1.421
0.000	0.010	0.005	0.000	0.000	0.010	0.029	1.714	1.353	1.367	1.377	1.401	1.411	1.426
-0.005	0.005	0.000	-0.005	0.000	-0.005	0.024	1.748	1.343	1.357	1.367	1.401	1.411	1.421
0.005	0.005	0.005	0.000	-0.005	-0.010	0.029	1.807	1.348	1.357	1.367	1.401	1.401	1.416
-0.005	-0.005	0.005	0.000	-0.010	0.000	0.029	1.777	1.343	1.353	1.362	1.392	1.401	1.411
0.000	-0.005	0.000	0.000	0.000	-0.034	0.029	1.768	1.333	1.348	1.357	1.387	1.396	1.401
-0.005	-0.010	-0.005	0.005	-0.005	-0.020	0.029	1.758	1.333	1.343	1.353	1.387	1.392	1.401
0.000	0.000	0.000	0.000	0.000	-0.020	0.029	1.753	1.328	1.343	1.348	1.382	1.387	1.401
0.000	0.000	0.000	0.000	0.000	0.000	0.029	1.787	1.328	1.333	1.348	1.377	1.382	1.396
0.000	-0.005	-0.005	0.000	-0.005	0.010	0.029	1.665	1.313	1.333	1.338	1.372	1.382	1.396
0.000	0.005	0.000	0.000	-0.010	-0.010	0.024	1.802	1.318	1.328	1.338	1.367	1.372	1.382
0.005	-0.005	0.000	0.005	-0.010	0.029	0.029	1.777	1.318	1.323	1.333	1.362	1.372	1.392
0.000	0.000	0.000	0.000	-0.005	0.029	0.029	1.802	1.318	1.323	1.328	1.357	1.367	1.387
0.005	0.010	-0.005	-0.005	-0.005	0.005	0.024	1.753	1.313	1.323	1.328	1.357	1.357	1.372
0.010	-0.005	0.000	0.000	-0.005	0.000	0.029	1.719	1.304	1.318	1.323	1.353	1.357	1.362
-0.005	0.005	-0.005	-0.005	-0.010	0.010	0.024	1.777	1.304	1.313	1.318	1.348	1.353	1.367
0.005	-0.005	-0.005	-0.005	-0.010	0.000	0.029	1.802	1.304	1.309	1.318	1.348	1.353	1.357
-0.005	-0.005	0.000	0.000	0.029	-0.005	0.029	1.787	1.299	1.309	1.318	1.343	1.362	1.357
0.000	0.000	-0.005	0.000	0.044	-0.005	0.029	1.763	1.299	1.304	1.313	1.343	1.357	1.357
-0.005	0.005	-0.005	0.000	0.029	-0.005	0.029	1.748	1.294	1.304	1.309	1.338	1.348	1.353
0.000	0.000	-0.005	0.000	0.010	0.000	0.029	1.782	1.294	1.304	1.309	1.333	1.338	1.348
0.000	0.005	-0.005	-0.005	0.005	0.010	0.029	1.797	1.294	1.299	1.304	1.333	1.333	1.348
-0.005	-0.005	-0.005	0.000	-0.005	-0.005	0.024	1.724	1.284	1.294	1.304	1.328	1.328	1.338
0.000	-0.005	-0.005	-0.005	-0.005	-0.005	0.024	1.777	1.279	1.289	1.299	1.323	1.328	1.333
0.000	-0.005	0.000	0.000	0.000	-0.005	0.024	1.772	1.274	1.289	1.299	1.323	1.328	1.338
-0.005	-0.005	0.000	0.000	-0.005	-0.005	0.029	1.748	1.274	1.284	1.294	1.318	1.323	1.328
0.000	-0.005	0.005	0.000	-0.005	-0.005	0.029	1.772	1.274	1.279	1.289	1.313	1.318	1.323
0.000	-0.005	0.000	0.000	-0.005	0.005	0.029	1.753	1.270	1.274	1.284	1.313	1.318	1.323
0.000	-0.005	0.000	0.005	-0.005	-0.015	0.029	1.753	1.265	1.274	1.284	1.309	1.313	1.313
0.000	-0.010	-0.005	0.005	0.000	0.005	0.029	1.777	1.270	1.265	1.279	1.309	1.309	1.318
-0.005	-0.015	-0.005	0.000	0.005	0.005	0.029	1.768	1.265	1.270	1.274	1.304	1.309	1.318
-0.010	0.000	0.000	0.000	0.000	0.000	0.029	1.787	1.265	1.270	1.274	1.299	1.304	1.313
0.000	0.000	0.000	-0.005	-0.010	0.005	0.029	1.787	1.265	1.270	1.274	1.299	1.299	1.309
0.000	0.010	0.000	0.000	-0.024	0.000	0.029	1.719	1.260	1.274	1.274	1.294	1.294	1.304
-0.005	0.000	-0.005	0.000	-0.010	0.000	0.029	1.768	1.260	1.265	1.274	1.294	1.299	1.304
0.000	0.000	0.000	0.000	-0.005	-0.005	0.024	1.787	1.245	1.260	1.270	1.294	1.294	1.299
0.005	0.000	0.000	0.000	-0.005	-0.005	0.029	1.812	1.260	1.260	1.265	1.289	1.289	1.294
0.000	0.005	-0.005	0.000	-0.020	-0.010	0.029	1.802	1.255	1.260	1.265	1.289	1.289	1.294
-0.005	0.000	0.005	-0.005	-0.024	-0.015	0.029	1.782	1.255	1.255	1.260	1.289	1.284	1.289
0.010	0.000	0.000	-0.005	-0.010	-0.015	0.029	1.792	1.255	1.260	1.260	1.284	1.289	1.289
0.005	-0.005	-0.005	0.000	0.005	0.005	0.029	1.787	1.250	1.255	1.260	1.284	1.289	1.294
0.000	-0.005	-0.005	0.000	0.000	0.010	0.029	1.763	1.245	1.250	1.255	1.279	1.284	1.289
-0.005	-0.005	0.000	0.000	0.005	-0.015	0.029	1.768	1.245	1.245	1.255	1.279	1.284	1.284
0.000	-0.010	0.000	0.000	0.010	0.000	0.029	1.729	1.226	1.245	1.250	1.274	1.279	1.284
-0.005	-0.020	-0.005	0.005	0.015	0.000	0.024	1.797	1.230	1.235	1.245	1.274	1.279	1.284
0.000	-0.010	0.000	0.000	0.010	0.005	0.029	1.763	1.235	1.240	1.245	1.270	1.274	1.284
-0.005	-0.005	0.000	-0.005	0.015	0.005	0.029	1.768	1.230	1.235	1.240	1.265	1.274	1.279
-0.005	-0.015	-0.005	-0.005	0.015	-0.005	0.029	1.758	1.226	1.230	1.235	1.265	1.270	1.274
-0.005	0.010	0.000	0.000	0.000	-0.010	0.029	1.738	1.226	1.240	1.235	1.260	1.265	1.270
0.000	0.000	0.000	0.000	-0.005	0.005	0.029	1.763	1.226	1.230	1.235	1.260	1.255	1.270
-0.005	0.010	-0.010	0.000	-0.024	-0.015	0.029	1.753	1.221	1.230	1.235	1.255	1.250	1.260
0.000	0.005	-0.005	0.000	-0.015	0.010	0.029	1.792	1.221	1.226	1.230	1.255	1.255	1.265
0.000	0.010	0.000	-0.005	-0.005	0.005	0.029	1.802	1.226	1.230	1.230	1.255	1.255	1.260
0.000	0.000	0.000	0.000	0.000	0.015	0.029	1.772	1.221	1.230	1.230	1.250	1.255	1.265
-0.010	0.005	0.000	-0.005	0.005	0.005	0.024	1.748	1.221	1.226	1.226	1.250	1.255	1.260
0.005	0.005	0.000	0.000	-0.005	-0.005	0.029	1.768	1.221	1.221	1.230	1.250	1.245	1.245
0.005	0.005	0.000	0.000	-0.005	0.000	0.029	1.719	1.211	1.221	1.226	1.245	1.250	1.250
-0.005	-0.005	0.000	-0.005	0.005	-0.015	0.029	1.782	1.211	1.211	1.221	1.245	1.245	1.250
0.000	-0.015	0.000	0.000	0.005	0.005	0.029	1.787	1.211	1.211	1.216	1.240	1.245	1.250
0.005	-0.005	-0.005	0.000	0.005	-0.010	0.029	1.787	1.216	1.211	1.216	1.240	1.240	1.245
-0.005	-0.005	0.000	0.000	0.000	-0.005	0.029	1.719	1.206	1.211	1.216	1.240	1.240	1.245
-0.005	-0.005	-0.005	0.000	0.000	-0.005	0.029	1.768	1.206	1.206	1.211	1.235	1.235	1.240
0.000	-0.005	-0.005	-0.005	0.005	-0.015	0.029	1.787	1.211	1.206	1.211	1.235	1.240	1.235
0.000	0.005	-0.005	-0.005	0.005	0.005	0.029	1.797	1.211	1.206	1.211	1.235	1.235	1.240
-0.005	0.005	-0.005	0.000	0.005	0.005	0.024	1.777	1.201	1.206	1.211	1.230	1.235	1.240
-0.005	-0.005	-0.005	-0.005	0.010	0.010	0.024	1.758	1.206	1.206	1.206	1.230	1.235	1.240
0.000	-0.005	0.000	0.000	0.010	0.000	0.029	1.787	1.206	1.206	1.206	1.230	1.230	1.235
0.000	0.005	-0.005	0.000	0.000	-0.024	0.029	1.748	1.201	1.211	1.211	1.226	1.226	1.226
0.005	0.020	-0.005	0.000	-0.015	-0.010	0.029	1.772	1.201	1.211	1.206	1.226	1.226	1.230
-0.005	0.010	-0.005	-0.005	-0.015	0.000	0.029	1.782	1.196	1.201	1.206	1.226	1.221	1.230
-0.005	0.015	0.000	0.000	-0.020	-0.005	0.029	1.777	1.167	1.196	1.206	1.226	1.221	1.230
0.005	-0.005	0.005	0.000	-0.005	0.010	0.029	1.797	1.182	1.187	1.196	1.226	1.226	1.230
0.000	-0.005	0.005	-0.005	0.005	0.010	0.024	1.792	1.187	1.182	1.196	1.226	1.226	1.230
0.000	-0.010	0.000	0.000	0.000	0.000	0.029	1.792	1.187	1.182	1.191	1.221	1.221	1.221
-0.005	-0.020	0.005	0.000	0.000	-0.005	0.029	1.787	1.187	1.182	1.187	1.216	1.221	1.216
0.005	-0.010	0.000	0.000	-0.015	0.000	0.029	1.738	1.187	1.182	1.187	1.211	1.211	1.221
-0.005	0.000	-0.005	0.000	-0.015	-0.005	0.029	1.772	1.196	1.191	1.187	1.211	1.211	1.216
-0.005	-0.010	0.000	0.000	0.005	0.010	0.029	1.748	1.191	1.187	1.187	1.211	1.216	1.216
-0.010	-0.010	-0.005	0.000	0.020	0.005	0.029	1.792	1.191	1.187	1.187	1.206	1.216	1.216
-0.005	0.005	0.005	0.000	0.015	-0.020	0.029	1.787	1.191	1.191	1.187	1.211	1.211	1.206
-0.005	-0.005	-0.005	0.000	0.010	-0.005	0.029	1.797	1.187	1.191	1.187	1.206	1.206	1.211
0.005	0.000	-0.005	0.000	0.000	0.005	0.029	1.753	1.187	1.187	1.187	1.206	1.206	1.211
0.005	0.010	-0.005	0.000	0.000	0.000	0.029	1.768	1.177	1.187	1.191	1.206	1.201	1.211
-0.005	0.005	0.000	0.000	0.000	-0.010	0.029	1.777	1.177	1.187	1.187	1.206	1.201	1.201
0.000	0.000	0.000	-0.005	-0.005	-0.024	0.029	1.797	1.182	1.182	1.187	1.206	1.201	1.201
-0.005	0.005	-0.005	0.005	-0.010	0.000	0.029	1.772	1.177	1.182	1.187	1.206	1.201	1.206
-0.005	0.000	0.000	0.005	-0.015	-0.005	0.024	1.763	1.177	1.182	1.182	1.206	1.201	1.206
0.000	0.000	0.000	0.000	-0.005	0.010	0.029	1.743	1.172	1.182	1.182	1.206	1.201	1.206
0.000	0.000	0.000	-0.005	0.000	0.015	0.029	1.792	1.177	1.177	1.182	1.201	1.201	1.206
-0.005	-0.015	0.000	0.000	0.000	0.005	0.029	1.763	1.167	1.172	1.177	1.201	1.201	1.201
-0.005	-0.020	0.000	0.000	0.010	0.000	0.024	1.787	1.172	1.172	1.172	1.201	1.201	1.201
-0.005	-0.005	-0.005	0.000	0.010	0.015	0.029	1.787	1.172	1.172	1.177	1.196	1.201	1.206
0.000	-0.010	0.000	0.000	0.005	0.010	0.029	1.738	1.167	1.172	1.172	1.196	1.196	1.201
-0.005	-0.005	0.000	-0.005	-0.005	0.000	0.029	1.792	1.172	1.172	1.172	1.196	1.191	1.191
0.000	-0.005	0.000	0.000	-0.015	-0.005	0.024	1.807	1.172	1.172	1.172	1.191	1.187	1.191
0.000	-0.005	0.000	0.000	-0.015	0.000	0.029	1.797	1.172	1.172	1.172	1.191	1.187	1.191
0.005	-0.010	-0.005	0.000	-0.005	0.005	0.029	1.772	1.172	1.167	1.172	1.191	1.191	1.191
0.000	0.000	0.000	0.000	0.000	0.005	0.024	1.782	1.172	1.177	1.172	1.191	1.191	1.187
-0.005	0.000	-0.005	-0.005	0.005	-0.020	0.024	1.777	1.167	1.172	1.172	1.191	1.187	1.182
0.005	0.010	-0.005	0.000	-0.005	0.000	0.029	1.787	1.167	1.172	1.172	1.187	1.187	1.191
0.000	0.005	0.000	0.000	-0.024	0.010	0.029	1.738	1.162	1.172	1.172	1.191	1.182	1.187
-0.005	0.010	0.000	0.000	-0.020	0.005	0.024	1.782	1.167	1.167	1.172	1.191	1.187	1.187
0.000	0.005	0.000	0.000	0.005	0.005	0.029	1.782	1.167	1.167	1.172	1.191	1.191	1.187
0.000	0.005	0.000	0.000	0.005	-0.005	0.029	1.782	1.167	1.167	1.167	1.191	1.191	1.187
0.000	0.000	-0.005	0.000	0.010	-0.020	0.029	1.802	1.162	1.167	1.167	1.187	1.187	1.187
0.000	-0.005	0.000	-0.005	0.005	-0.015	0.029	1.787	1.162	1.157	1.167	1.187	1.187	1.182
0.000	0.000	-0.005	0.000	-0.005	-0.010	0.029	1.812	1.162	1.162	1.162	1.187	1.182	1.187
-0.015	-0.005	-0.005	0.000	0.005	-0.005	0.029	1.738	1.152	1.157	1.162	1.182	1.182	1.187
0.010	-0.010	0.000	0.005	0.005	-0.010	0.024	1.758	1.162	1.157	1.162	1.182	1.187	1.187
-0.005	-0.005	0.005	0.000	0.005	0.015	0.029	1.724	1.152	1.157	1.162	1.182	1.182	1.187
-0.010	-0.010	0.005	0.000	0.005	-0.015	0.024	1.772	1.147	1.152	1.157	1.182	1.177	1.177
-0.005	-0.010	0.000	-0.005	0.000	0.005	0.029	1.802	1.157	1.152	1.157	1.177	1.177	1.182
0.005	-0.005	-0.005	0.005	-0.005	0.005	0.029	1.777	1.162	1.162	1.152	1.177	1.177	1.182
0.000	0.000	0.000	0.005	0.005	0.005	0.029	1.787	1.172	1.162	1.157	1.177	1.177	1.177
0.005	0.000	-0.005	-0.005	-0.005	-0.010	0.029	1.792	1.167	1.162	1.157	1.172	1.172	1.172
0.000	0.000	-0.010	0.000	-0.005	-0.020	0.024	1.748	1.157	1.162	1.157	1.177	1.172	1.172
0.000	0.005	-0.005	-0.005	-0.005	0.000	0.029	1.768	1.152	1.162	1.162	1.172	1.172	1.177
-0.010	0.005	0.005	-0.005	-0.005	-0.005	0.024	1.807	1.152	1.157	1.162	1.182	1.172	1.172
0.000	0.005	0.000	0.000	-0.005	0.005	0.024	1.772	1.157	1.162	1.157	1.177	1.177	1.177
0.005	0.000	0.000	0.000	-0.010	0.010	0.029	1.719	1.157	1.157	1.157	1.177	1.172	1.177
-0.005	0.000	0.000	-0.005	-0.005	0.010	0.029	1.782	1.152	1.152	1.157	1.177	1.172	1.177
-0.005	0.005	0.000	0.000	0.000	0.010	0.029	1.733	1.147	1.152	1.157	1.177	1.177	1.177
0.000	0.000	0.000	0.000	0.034	0.010	0.029	1.782	1.147	1.147	1.152	1.177	1.182	1.182
0.000	-0.010	0.000	0.005	0.029	-0.005	0.029	1.738	1.143	1.147	1.152	1.177	1.182	1.177
-0.005	-0.005	0.000	0.000	0.024	0.005	0.029	1.821	1.147	1.147	1.152	1.172	1.172	1.177
0.000	0.000	0.000	0.000	0.015	-0.010	0.029	1.772	1.147	1.147	1.152	1.172	1.167	1.172
-0.005	-0.010	0.005	0.000	-0.005	-0.010	0.029	1.782	1.143	1.143	1.147	1.172	1.162	1.167
-0.005	-0.010	-0.005	0.000	-0.010	-0.010	0.024	1.782	1.147	1.143	1.143	1.167	1.162	1.167
-0.005	0.000	-0.005	-0.005	-0.015	-0.005	0.029	1.782	1.152	1.147	1.143	1.167	1.162	1.162
-0.005	0.005	0.000	0.000	-0.015	-0.010	0.029	1.797	1.147	1.147	1.147	1.167	1.157	1.162
-0.005	-0.005	0.000	0.000	-0.020	0.015	0.029	1.768	1.147	1.147	1.147	1.167	1.162	1.167
0.000	0.000	-0.005	0.000	-0.020	0.010	0.029	1.782	1.147	1.143	1.147	1.167	1.157	1.167
0.005	0.000	0.000	0.005	-0.029	0.015	0.029	1.714	1.143	1.147	1.143	1.167	1.162	1.162
-0.005	0.005	-0.005	0.000	-0.005	0.010	0.029	1.792	1.143	1.143	1.147	1.167	1.167	1.167
0.005	0.005	0.000	0.000	-0.005	0.005	0.029	1.738	1.138	1.143	1.147	1.162	1.162	1.162
-0.005	0.005	0.000	0.000	0.000	-0.005	0.029	1.792	1.138	1.138	1.143	1.162	1.167	1.157
0.000	0.000	0.000	0.000	0.005	0.000	0.024	1.719	1.138	1.143	1.143	1.162	1.167	1.167
-0.005	0.000	0.000	0.000	0.005	-0.005	0.024	1.753	1.133	1.138	1.143	1.162	1.162	1.162
0.000	0.000	-0.005	0.000	0.010	-0.005	0.024	1.777	1.133	1.138	1.138	1.162	1.162	1.162
0.000	0.000	0.000	0.005	0.005	0.005	0.029	1.772	1.143	1.138	1.138	1.162	1.162	1.162
-0.010	-0.010	-0.005	-0.005	0.005	-0.005	0.029	1.792	1.138	1.133	1.138	1.157	1.157	1.157
-0.005	-0.005	0.000	0.005	0.000	0.000	0.029	1.738	1.143	1.138	1.138	1.162	1.157	1.157
0.000	-0.015	0.000	0.000	-0.005	-0.010	0.029	1.753	1.133	1.133	1.133	1.157	1.152	1.152
0.005	-0.005	-0.005	0.000	0.000	-0.015	0.029	1.758	1.133	1.133	1.133	1.152	1.152	1.152
-0.010	-0.005	-0.005	0.000	0.000	-0.010	0.024	1.768	1.128	1.133	1.133	1.152	1.152	1.152
0.000	-0.010	-0.005	0.000	0.000	0.005	0.024	1.787	1.133	1.128	1.133	1.152	1.152	1.157
-0.005	-0.005	-0.005	0.000	-0.005	0.000	0.029	1.748	1.128	1.133	1.133	1.152	1.152	1.152
0.005	-0.005	0.000	0.000	-0.005	0.000	0.024	1.763	1.133	1.133	1.133	1.152	1.152	1.152
0.000	-0.005	-0.005	-0.005	-0.005	0.000	0.029	1.753	1.133	1.133	1.133	1.152	1.147	1.152
0.000	0.000	0.000	-0.005	-0.005	0.005	0.029	1.787	1.133	1.133	1.133	1.152	1.147	1.152
0.000	0.015	0.000	0.000	0.000	0.000	0.029	1.763	1.128	1.138	1.133	1.152	1.147	1.152
0.000	0.020	0.000	-0.005	-0.005	0.000	0.029	1.733	1.133	1.138	1.133	1.152	1.147	1.147
0.000	0.010	0.000	0.000	0.000	0.000	0.029	1.782	1.128	1.133	1.133	1.152	1.147	1.147
0.005	0.000	-0.005	0.000	0.000	0.000	0.029	1.748	1.128	1.128	1.133	1.152	1.152	1.152
-0.005	0.000	0.000	0.005	0.000	-0.005	0.029	1.777	1.128	1.128	1.128	1.152	1.152	1.147
0.000	-0.015	0.000	-0.005	0.005	0.000	0.024	1.802	1.133	1.123	1.128	1.152	1.152	1.152
-0.005	-0.005	0.005	-0.005	0.000	-0.005	0.024	1.792	1.133	1.128	1.128	1.147	1.147	1.147
-0.005	-0.005	0.000	-0.005	0.005	0.010	0.029	1.782	1.133	1.128	1.128	1.147	1.147	1.152
0.000	0.000	0.000	0.000	-0.005	0.005	0.029	1.714	1.128	1.128	1.128	1.147	1.143	1.147
0.000	0.000	0.000	0.000	-0.010	0.000	0.029	1.787	1.128	1.128	1.128	1.147	1.143	1.147
0.005	0.000	-0.005	0.005	-0.005	0.010	0.029	1.792	1.133	1.128	1.128	1.147	1.143	1.147
0.005	-0.010	0.000	0.000	0.000	0.010	0.029	1.772	1.128	1.128	1.128	1.147	1.143	1.143
0.010	0.000	0.000	0.000	0.000	0.000	0.024	1.807	1.133	1.128	1.128	1.147	1.143	1.143
0.005	-0.005	-0.005	0.005	0.000	0.005	0.024	1.743	1.128	1.128	1.128	1.147	1.143	1.143
-0.005	0.000	0.000	-0.005	0.000	0.005	0.024	1.807	1.133	1.128	1.128	1.143	1.143	1.143
-0.005	-0.005	0.000	0.000	0.000	-0.010	0.029	1.758	1.128	1.128	1.123	1.147	1.143	1.138
-0.010	0.010	0.000	0.000	0.000	-0.015	0.029	1.787	1.128	1.133	1.128	1.147	1.143	1.138
0.005	0.000	0.000	0.000	-0.005	0.005	0.029	1.772	1.138	1.133	1.128	1.147	1.143	1.143
-0.015	0.005	-0.005	0.000	0.000	0.000	0.029	1.792	1.133	1.133	1.128	1.147	1.143	1.143
0.005	0.010	0.000	0.000	-0.005	0.005	0.029	1.743	1.128	1.133	1.128	1.147	1.143	1.143
0.005	-0.005	0.000	0.000	-0.005	0.005	0.029	1.797	1.128	1.128	1.133	1.147	1.143	1.143
0.000	0.000	0.005	0.000	0.005	0.000	0.024	1.772	1.128	1.128	1.133	1.147	1.147	1.143
-0.005	0.000	0.000	-0.005	0.005	0.000	0.029	1.777	1.128	1.128	1.128	1.147	1.143	1.143
-0.005	-0.005	0.000	0.000	0.005	0.005	0.024	1.768	1.118	1.128	1.128	1.147	1.147	1.143
0.000	0.000	0.000	0.005	0.000	-0.015	0.029	1.782	1.128	1.123	1.128	1.152	1.143	1.138
0.005	-0.005	-0.005	-0.005	0.000	0.000	0.029	1.787	1.128	1.128	1.128	1.147	1.143	1.143
-0.005	-0.005	-0.005	0.000	0.000	0.000	0.029	1.699	1.113	1.123	1.123	1.143	1.143	1.143
0.000	-0.005	0.000	0.000	0.000	-0.010	0.029	1.772	1.118	1.118	1.123	1.147	1.143	1.138
-0.005	-0.010	-0.005	0.000	0.005	-0.010	0.029	1.743	1.118	1.118	1.123	1.143	1.143	1.143
-0.005	0.000	0.000	-0.005	0.005	-0.005	0.029	1.797	1.123	1.118	1.123	1.143	1.143	1.143
0.005	-0.005	0.000	0.000	0.005	-0.010	0.029	1.748	1.118	1.118	1.123	1.138	1.138	1.138
0.000	0.010	0.000	0.000	0.010	0.000	0.029	1.768	1.123	1.123	1.118	1.143	1.138	1.138
0.000	0.000	0.000	0.000	0.000	-0.020	0.029	1.729	1.118	1.123	1.123	1.138	1.138	1.133
-0.005	-0.005	-0.005	0.000	0.005	0.000	0.024	1.792	1.123	1.118	1.118	1.138	1.138	1.143
-0.010	0.000	0.000	-0.005	-0.005	-0.015	0.024	1.802	1.123	1.118	1.118	1.138	1.133	1.133
0.000	-0.005	-0.005	0.000	-0.010	0.000	0.029	1.772	1.123	1.123	1.123	1.138	1.133	1.138
0.005	0.005	-0.005	0.000	-0.034	0.005	0.029	1.782	1.128	1.128	1.123	1.138	1.128	1.133
0.005	0.005	-0.005	0.000	-0.024	0.005	0.029	1.802	1.128	1.123	1.123	1.143	1.133	1.133
0.000	0.005	-0.005	0.000	-0.005	-0.015	0.029	1.724	1.118	1.123	1.128	1.143	1.143	1.133
0.005	0.000	-0.005	0.000	0.000	0.005	0.029	1.733	1.123	1.118	1.123	1.143	1.143	1.143
0.000	0.000	-0.005	0.000	-0.010	0.015	0.029	1.738	1.118	1.118	1.118	1.138	1.138	1.138
-0.005	-0.005	-0.005	0.000	-0.005	-0.005	0.029	1.812	1.123	1.113	1.118	1.138	1.138	1.133
-0.005	-0.015	-0.005	-0.005	0.005	0.005	0.029	1.758	1.118	1.113	1.113	1.138	1.138	1.138
0.005	-0.010	0.000	0.000	0.005	-0.005	0.029	1.782	1.123	1.118	1.118	1.138	1.133	1.138
-0.005	-0.010	0.000	0.000	0.005	-0.005	0.024	1.787	1.123	1.118	1.113	1.138	1.138	1.133
-0.010	0.000	-0.005	-0.005	0.000	0.005	0.024	1.792	1.123	1.118	1.113	1.138	1.133	1.138
0.000	-0.005	0.000	0.000	0.010	-0.010	0.029	1.758	1.123	1.123	1.113	1.138	1.133	1.133
0.000	0.005	0.000	-0.005	0.005	0.000	0.029	1.758	1.123	1.123	1.118	1.138	1.133	1.138
-0.005	0.000	0.005	0.000	0.005	-0.005	0.029	1.792	1.118	1.118	1.118	1.138	1.133	1.133
-0.005	0.010	0.000	-0.005	0.010	-0.005	0.029	1.787	1.123	1.123	1.118	1.138	1.133	1.133
0.000	0.010	0.000	0.000	0.010	-0.020	0.029	1.787	1.123	1.123	1.118	1.138	1.133	1.128
0.010	0.000	-0.005	-0.005	0.005	-0.005	0.029	1.772	1.123	1.123	1.118	1.138	1.133	1.133
0.005	-0.010	0.000	0.000	0.000	-0.010	0.029	1.758	1.123	1.118	1.123	1.138	1.133	1.133
0.000	0.000	0.000	0.000	-0.005	-0.005	0.024	1.782	1.128	1.123	1.123	1.138	1.133	1.133
0.010	-0.010	-0.005	0.000	0.000	-0.010	0.029	1.772	1.123	1.123	1.118	1.138	1.133	1.133
-0.010	0.000	0.000	0.000	0.000	-0.005	0.024	1.797	1.118	1.123	1.123	1.143	1.133	1.133
0.000	-0.005	0.000	0.000	-0.005	0.005	0.029	1.772	1.118	1.118	1.118	1.138	1.133	1.133
-0.005	-0.005	-0.005	0.000	-0.005	0.010	0.029	1.763	1.113	1.118	1.118	1.138	1.138	1.133
-0.005	-0.010	0.000	-0.005	0.005	-0.010	0.029	1.777	1.118	1.113	1.118	1.138	1.133	1.133
0.005	-0.005	-0.010	0.000	0.000	0.005	0.029	1.758	1.113	1.118	1.118	1.138	1.133	1.133
0.000	-0.005	-0.005	0.000	0.000	0.010	0.029	1.753	1.113	1.113	1.113	1.133	1.133	1.133
-0.005	0.000	-0.005	-0.005	0.000	0.000	0.029	1.807	1.118	1.113	1.113	1.138	1.128	1.128
0.000	-0.005	-0.005	0.000	0.000	-0.005	0.029	1.777	1.118	1.118	1.113	1.133	1.133	1.133
0.000	-0.005	0.000	0.000	-0.005	0.000	0.029	1.738	1.113	1.113	1.113	1.133	1.133	1.133
-0.005	0.000	-0.005	0.000	0.000	0.000	0.024	1.782	1.113	1.113	1.113	1.133	1.133	1.128
0.000	0.010	-0.005	0.005	0.000	-0.010	0.024	1.777	1.118	1.118	1.118	1.133	1.128	1.133
0.000	0.015	0.000	0.000	-0.005	0.000	0.029	1.753	1.118	1.123	1.118	1.133	1.133	1.133
0.005	0.010	0.005	0.000	0.000	0.000	0.029	1.802	1.123	1.113	1.118	1.138	1.133	1.128
0.000	0.010	-0.005	0.000	0.000	0.005	0.029	1.743	1.113	1.118	1.118	1.133	1.133	1.133
-0.005	0.000	0.000	0.000	0.000	0.005	0.024	1.782	1.118	1.113	1.118	1.138	1.133	1.133
-0.005	0.000	0.000	0.000	0.000	-0.005	0.029	1.753	1.113	1.113	1.113	1.133	1.128	1.128
-0.005	0.010	-0.005	0.000	-0.005	-0.010	0.029	1.782	1.118	1.113	1.113	1.133	1.128	1.128
0.000	0.000	-0.005	-0.005	-0.005	0.015	0.024	1.738	1.118	1.118	1.113	1.133	1.128	1.133
-0.005	0.000	0.000	0.000	0.000	0.005	0.029	1.802	1.118	1.113	1.113	1.133	1.128	1.128
0.000	0.000	0.000	0.000	0.005	-0.015	0.029	1.777	1.108	1.113	1.113	1.133	1.128	1.128
-0.005	-0.010	0.000	-0.005	0.000	0.005	0.029	1.763	1.104	1.108	1.113	1.133	1.128	1.133
0.000	-0.010	0.000	-0.005	-0.005	-0.010	0.024	1.743	1.108	1.108	1.108	1.128	1.128	1.123
-0.005	-0.005	0.000	0.000	0.000	0.005	0.024	1.768	1.108	1.108	1.108	1.128	1.128	1.128
-0.005	-0.015	0.000	0.000	0.000	-0.005	0.029	1.724	1.104	1.104	1.108	1.128	1.128	1.128
0.005	0.000	-0.005	0.000	0.000	0.010	0.029	1.777	1.118	1.108	1.108	1.128	1.123	1.128
0.000	0.000	-0.005	0.000	-0.005	-0.015	0.029	1.768	1.108	1.113	1.108	1.128	1.123	1.118
0.000	0.000	-0.005	0.000	-0.005	-0.015	0.029	1.797	1.113	1.113	1.108	1.128	1.123	1.118
0.000	0.000	0.000	-0.005	-0.005	0.010	0.029	1.792	1.113	1.108	1.108	1.128	1.123	1.128
0.010	0.005	0.000	0.000	0.005	0.005	0.024	1.768	1.118	1.113	1.108	1.128	1.128	1.128
0.005	0.015	0.000	0.000	-0.005	0.010	0.029	1.772	1.123	1.118	1.113	1.128	1.123	1.123
-0.005	0.000	0.000	0.000	-0.005	0.010	0.024	1.787	1.118	1.113	1.113	1.128	1.123	1.123
0.005	-0.005	0.000	0.000	0.000	0.005	0.024	1.768	1.113	1.113	1.113	1.128	1.128	1.128
0.005	-0.005	0.000	0.000	-0.005	0.005	0.029	1.772	1.123	1.118	1.113	1.133	1.128	1.123
-0.005	-0.005	-0.005	0.000	0.000	-0.015	0.024	1.777	1.118	1.113	1.113	1.133	1.123	1.118
0.000	-0.005	0.000	0.000	0.000	-0.010	0.029	1.792	1.118	1.108	1.113	1.133	1.128	1.123
0.000	-0.020	0.000	0.000	0.000	0.000	0.029	1.792	1.113	1.108	1.113	1.128	1.128	1.128
0.000	-0.015	0.000	0.000	0.005	0.000	0.029	1.763	1.118	1.113	1.113	1.133	1.128	1.128
-0.005	-0.010	-0.005	-0.005	0.000	-0.005	0.029	1.807	1.118	1.113	1.113	1.128	1.128	1.123
-0.005	0.005	0.005	0.000	-0.005	-0.005	0.029	1.782	1.118	1.118	1.113	1.133	1.123	1.123
0.005	-0.005	-0.005	0.000	0.005	-0.010	0.029	1.768	1.113	1.113	1.113	1.133	1.128	1.123
0.000	0.010	0.000	0.000	0.005	0.005	0.024	1.802	1.118	1.118	1.113	1.128	1.128	1.123
0.000	0.005	0.000	0.000	0.010	0.000	0.024	1.797	1.118	1.118	1.113	1.128	1.128	1.123
0.000	0.005	-0.005	0.000	-0.005	0.000	0.029	1.782	1.118	1.113	1.113	1.133	1.123	1.123
0.000	0.000	0.000	0.000	-0.005	0.005	0.029	1.797	1.113	1.113	1.113	1.133	1.123	1.123
-0.005	0.000	0.000	0.000	-0.005	0.000	0.029	1.699	1.108	1.113	1.113	1.133	1.128	1.128
-0.005	0.005	-0.005	-0.005	-0.005	0.000	0.029	1.792	1.113	1.113	1.113	1.133	1.128	1.123
0.000	-0.005	-0.005	0.000	-0.005	0.000	0.029	1.733	1.108	1.108	1.113	1.133	1.128	1.123
0.000	0.000	-0.005	-0.005	-0.005	-0.010	0.029	1.792	1.113	1.113	1.113	1.133	1.128	1.123
0.005	-0.005	0.000	0.000	0.000	0.000	0.029	1.787	1.113	1.108	1.113	1.133	1.128	1.128
-0.005	0.010	0.005	0.000	0.000	0.005	0.029	1.753	1.108	1.113	1.113	1.133	1.128	1.128
0.005	0.005	0.000	0.000	0.000	-0.005	0.029	1.772	1.113	1.113	1.113	1.133	1.128	1.123
0.000	0.024	-0.005	0.000	0.000	0.005	0.024	1.807	1.113	1.118	1.113	1.133	1.128	1.128
-0.005	0.015	-0.005	0.005	0.000	-0.005	0.024	1.758	1.108	1.113	1.113	1.133	1.128	1.128
-0.005	-0.005	0.000	0.005	0.000	0.005	0.029	1.738	1.108	1.108	1.108	1.133	1.128	1.128
-0.005	-0.020	0.000	-0.005	0.000	-0.005	0.029	1.782	1.108	1.099	1.108	1.128	1.123	1.128
-0.005	-0.005	-0.005	0.000	-0.005	0.000	0.029	1.787	1.108	1.108	1.108	1.128	1.123	1.128
-0.005	-0.020	0.000	0.000	0.000	0.005	0.029	1.743	1.108	1.104	1.104	1.128	1.123	1.128
0.000	-0.010	0.005	0.005	-0.005	0.000	0.029	1.743	1.108	1.108	1.108	1.128	1.123	1.123
0.000	-0.005	0.000	-0.005	0.000	-0.010	0.024	1.797	1.108	1.108	1.108	1.123	1.123	1.123
0.005	-0.005	0.000	0.000	-0.005	-0.005	0.024	1.797	1.113	1.108	1.108	1.128	1.123	1.123
0.005	-0.005	-0.005	0.000	0.000	-0.010	0.029	1.724	1.104	1.108	1.108	1.123	1.123	1.123
-0.005	0.005	0.000	-0.005	-0.005	0.005	0.029	1.807	1.108	1.113	1.113	1.123	1.123	1.128
0.005	0.010	0.000	0.005	-0.005	0.005	0.029	1.748	1.108	1.113	1.108	1.128	1.123	1.123
-0.005	0.010	0.000	-0.005	0.005	0.005	0.029	1.787	1.108	1.113	1.108	1.128	1.123	1.123
-0.005	0.015	0.000	0.000	-0.005	0.005	0.029	1.719	1.108	1.113	1.113	1.128	1.123	1.123
-0.005	0.015	0.000	-0.005	0.000	-0.005	0.029	1.743	1.108	1.108	1.108	1.128	1.123	1.123
0.000	0.000	0.000	0.000	-0.005	0.000	0.029	1.797	1.113	1.108	1.113	1.128	1.123	1.128
-0.005	0.005	0.000	0.000	0.000	-0.005	0.024	1.763	1.108	1.108	1.108	1.128	1.128	1.123
-0.005	-0.010	0.000	-0.005	0.000	-0.024	0.024	1.768	1.108	1.104	1.104	1.128	1.123	1.118
0.000	-0.005	-0.005	0.000	0.005	0.010	0.029	1.743	1.118	1.108	1.108	1.128	1.128	1.128
0.005	-0.005	0.000	-0.005	0.005	0.000	0.024	1.841	1.123	1.108	1.108	1.128	1.128	1.123
0.000	-0.015	0.000	0.005	0.000	0.005	0.029	1.772	1.113	1.108	1.108	1.133	1.123	1.123
0.010	0.005	0.000	0.000	0.005	-0.005	0.029	1.763	1.118	1.113	1.108	1.128	1.123	1.123
-0.005	-0.005	0.000	0.000	-0.005	0.000	0.029	1.758	1.113	1.113	1.108	1.123	1.123	1.123
-0.005	0.000	-0.005	0.000	0.000	-0.005	0.029	1.797	1.118	1.113	1.108	1.128	1.118	1.118
0.005	-0.005	0.000	-0.005	-0.005	0.005	0.029	1.753	1.118	1.113	1.108	1.128	1.123	1.123
-0.005	0.005	-0.005	-0.010	0.005	0.005	0.024	1.802	1.123	1.118	1.108	1.128	1.123	1.123
0.000	0.005	-0.005	0.000	0.000	0.000	0.024	1.787	1.123	1.118	1.113	1.128	1.123	1.123
-0.005	0.005	0.000	0.000	0.000	-0.005	0.029	1.758	1.113	1.113	1.118	1.133	1.123	1.123
0.010	-0.005	0.005	0.005	0.000	-0.005	0.029	1.768	1.113	1.113	1.113	1.133	1.128	1.123
-0.005	0.005	0.000	-0.005	-0.005	0.010	0.029	1.797	1.113	1.113	1.113	1.133	1.123	1.128
-0.005	-0.005	0.005	0.000	-0.010	0.015	0.029	1.743	1.108	1.113	1.113	1.133	1.128	1.123
0.000	-0.005	-0.005	-0.005	-0.005	0.010	0.029	1.792	1.108	1.108	1.113	1.133	1.128	1.128
0.000	-0.005	0.000	0.000	0.000	-0.010	0.024	1.782	1.113	1.108	1.113	1.133	1.128	1.123
-0.010	0.000	-0.005	-0.005	0.000	0.010	0.029	1.797	1.113	1.108	1.108	1.128	1.128	1.128
0.000	0.000	0.000	0.000	0.010	0.000	0.024	1.782	1.118	1.108	1.113	1.128	1.128	1.123
0.005	-0.005	0.005	0.000	0.000	0.005	0.029	1.743	1.113	1.113	1.113	1.133	1.128	1.128
0.005	-0.005	0.000	0.000	0.005	0.000	0.029	1.797	1.118	1.108	1.113	1.128	1.128	1.128
0.015	-0.005	0.000	0.000	0.000	0.000	0.024	1.792	1.118	1.113	1.108	1.128	1.123	1.123
0.005	-0.005	-0.005	-0.005	0.000	-0.005	0.029	1.807	1.118	1.108	1.108	1.128	1.123	1.118
0.000	0.000	0.000	0.000	-0.005	-0.024	0.024	1.792	1.113	1.113	1.108	1.128	1.123	1.118
0.000	0.005	-0.005	0.000	0.000	0.015	0.029	1.758	1.108	1.113	1.108	1.128	1.128	1.128
0.000	0.010	0.000	0.000	0.000	0.005	0.029	1.772	1.108	1.108	1.108	1.128	1.123	1.128
0.010	-0.005	0.000	0.000	-0.005	0.005	0.029	1.719	1.108	1.108	1.113	1.128	1.123	1.123
0.000	0.005	-0.005	-0.005	-0.005	0.010	0.029	1.768	1.108	1.108	1.108	1.128	1.123	1.128
-0.005	0.000	-0.005	0.000	-0.005	0.000	0.029	1.763	1.108	1.108	1.108	1.128	1.123	1.123
-0.005	-0.005	0.000	0.000	-0.005	0.005	0.029	1.675	1.099	1.108	1.108	1.128	1.128	1.123
-0.005	0.000	0.000	0.005	0.005	-0.020	0.029	1.763	1.099	1.104	1.108	1.133	1.128	1.123
-0.010	0.000	0.000	0.000	0.005	-0.005	0.029	1.792	1.104	1.104	1.108	1.128	1.123	1.123
-0.005	0.000	0.010	-0.005	0.000	0.010	0.029	1.797	1.113	1.104	1.108	1.128	1.123	1.128
-0.005	0.000	0.000	-0.005	0.000	-0.005	0.024	1.792	1.118	1.108	1.104	1.123	1.123	1.123
0.000	-0.005	0.000	0.000	0.000	-0.005	0.024	1.758	1.104	1.108	1.108	1.128	1.123	1.123
-0.005	0.005	0.005	-0.005	0.000	-0.005	0.029	1.768	1.104	1.108	1.108	1.128	1.123	1.123
-0.010	0.000	0.000	0.000	0.000	-0.029	0.029	1.772	1.099	1.104	1.104	1.128	1.123	1.113
-0.010	-0.005	0.000	-0.005	0.000	0.005	0.029	1.772	1.099	1.099	1.104	1.123	1.123	1.123
-0.010	-0.010	-0.005	-0.005	0.000	-0.005	0.029	1.797	1.104	1.099	1.099	1.123	1.123	1.123
-0.005	-0.010	-0.005	0.000	0.000	0.005	0.029	1.748	1.099	1.099	1.099	1.118	1.118	1.123
0.005	-0.010	-0.005	0.005	0.000	0.010	0.029	1.763	1.113	1.104	1.099	1.123	1.118	1.123
0.005	-0.010	0.000	0.000	-0.005	-0.005	0.024	1.777	1.094	1.104	1.104	1.118	1.118	1.113
-0.010	0.020	0.000	0.000	-0.005	0.000	0.029	1.787	1.094	1.104	1.104	1.118	1.118	1.118
-0.005	0.010	0.000	0.000	-0.005	0.000	0.029	1.772	1.099	1.099	1.104	1.123	1.118	1.118
-0.015	0.020	0.000	-0.005	-0.005	0.005	0.024	1.802	1.104	1.104	1.104	1.118	1.113	1.113
-0.010	0.010	-0.005	-0.005	0.000	0.000	0.029	1.724	1.104	1.099	1.099	1.118	1.118	1.118
0.010	0.010	0.000	0.000	-0.005	0.005	0.029	1.763	1.113	1.104	1.104	1.123	1.118	1.118
-0.005	-0.005	-0.005	0.000	-0.005	0.000	0.029	1.777	1.108	1.104	1.104	1.123	1.118	1.118
0.000	-0.015	0.000	0.000	-0.005	0.005	0.029	1.768	1.113	1.099	1.099	1.123	1.118	1.118
-0.005	-0.010	-0.005	0.000	0.000	0.000	0.029	1.782	1.108	1.104	1.104	1.118	1.118	1.118
0.005	-0.005	0.005	-0.005	0.005	0.000	0.029	1.792	1.113	1.104	1.104	1.123	1.118	1.118
0.005	-0.005	0.000	0.000	0.005	-0.005	0.024	1.787	1.113	1.108	1.104	1.118	1.118	1.113
0.000	-0.010	0.000	0.000	0.000	-0.010	0.024	1.758	1.108	1.108	1.104	1.123	1.118	1.108
0.000	-0.010	0.000	-0.005	0.005	0.005	0.029	1.782	1.113	1.108	1.104	1.118	1.118	1.118
-0.005	-0.010	0.000	-0.005	0.000	0.010	0.024	1.782	1.108	1.104	1.104	1.123	1.113	1.118
0.005	-0.015	-0.005	0.000	0.005	0.000	0.024	1.787	1.108	1.108	1.104	1.123	1.113	1.113
-0.015	-0.005	0.000	-0.005	0.000	0.010	0.029	1.777	1.108	1.108	1.104	1.123	1.118	1.118
-0.015	0.000	0.005	0.000	0.000	0.005	0.029	1.797	1.108	1.108	1.108	1.123	1.118	1.118
-0.010	0.010	0.000	-0.005	0.000	0.005	0.029	1.797	1.113	1.113	1.104	1.123	1.118	1.113
0.000	0.000	-0.005	-0.005	0.000	-0.010	0.029	1.787	1.113	1.108	1.108	1.123	1.113	1.113
0.005	-0.005	0.000	0.000	0.000	0.005	0.029	1.743	1.108	1.108	1.108	1.123	1.118	1.118
-0.005	0.000	0.000	0.000	-0.010	0.005	0.024	1.802	1.108	1.108	1.108	1.128	1.118	1.118
0.000	0.000	0.000	0.005	-0.005	0.000	0.024	1.743	1.104	1.108	1.108	1.123	1.123	1.113
0.010	0.010	-0.005	0.000	-0.005	-0.005	0.029	1.792	1.113	1.113	1.108	1.128	1.123	1.118
0.015	0.000	0.000	0.000	-0.010	-0.005	0.024	1.748	1.108	1.108	1.108	1.128	1.123	1.118
0.010	-0.010	-0.005	-0.005	0.000	-0.015	0.024	1.797	1.108	1.104	1.108	1.128	1.123	1.113
0.024	-0.010	-0.005	0.000	0.000	-0.005	0.029	1.758	1.104	1.108	1.108	1.128	1.123	1.123
0.015	-0.015	0.000	-0.005	-0.005	0.010	0.029	1.763	1.108	1.104	1.108	1.128	1.123	1.123
0.010	-0.010	-0.005	0.005	0.000	0.000	0.029	1.782	1.104	1.104	1.104	1.128	1.123	1.123
0.010	-0.015	-0.005	0.000	0.000	-0.005	0.029	1.743	1.104	1.104	1.104	1.123	1.123	1.118
0.000	0.005	-0.005	0.000	0.000	-0.005	0.029	1.763	1.099	1.104	1.104	1.123	1.118	1.118
-0.005	0.000	0.000	0.000	0.000	-0.005	0.029	1.782	1.099	1.099	1.104	1.123	1.118	1.118
-0.005	-0.005	0.000	0.000	0.000	0.005	0.024	1.792	1.104	1.104	1.104	1.123	1.123	1.123
-0.005	0.005	0.000	-0.005	-0.005	0.000	0.024	1.802	1.113	1.104	1.099	1.118	1.118	1.118
0.000	0.010	0.000	0.000	0.000	0.005	0.029	1.743	1.108	1.108	1.104	1.123	1.123	1.118
0.000	0.005	0.005	0.000	0.000	-0.015	0.029	1.787	1.108	1.108	1.104	1.123	1.118	1.113
-0.010	0.020	0.005	0.000	0.005	0.010	0.029	1.797	1.113	1.108	1.108	1.123	1.118	1.118
-0.010	0.020	-0.005	0.000	0.000	-0.015	0.029	1.787	1.108	1.108	1.108	1.123	1.118	1.118
-0.005	0.020	-0.005	0.000	0.000	0.000	0.029	1.787	1.108	1.108	1.108	1.123	1.123	1.123
-0.005	0.010	0.000	0.000	0.000	0.000	0.029	1.768	1.113	1.108	1.108	1.128	1.118	1.118
-0.010	0.005	-0.005	0.000	-0.005	0.000	0.029	1.758	1.108	1.104	1.108	1.123	1.118	1.118
-0.005	-0.005	-0.005	0.000	-0.005	0.000	0.029	1.792	1.113	1.104	1.108	1.128	1.123	1.118
-0.005	-0.005	0.000	0.000	-0.005	0.000	0.029	1.758	1.113	1.108	1.108	1.123	1.123	1.118
-0.015	-0.010	0.000	0.005	0.000	0.005	0.024	1.792	1.113	1.104	1.104	1.128	1.123	1.123
-0.024	-0.010	0.005	0.000	0.005	0.000	0.024	1.807	1.108	1.104	1.108	1.128	1.123	1.118
-0.029	-0.015	0.000	0.000	0.000	0.000	0.029	1.743	1.099	1.099	1.104	1.123	1.123	1.118
-0.020	-0.005	0.000	0.005	0.000	-0.020	0.029	1.743	1.099	1.104	1.104	1.123	1.118	1.113
-0.005	-0.005	-0.005	0.000	0.000	0.000	0.029	1.787	1.108	1.104	1.104	1.123	1.118	1.123
-0.024	-0.005	0.000	0.000	0.005	0.000	0.029	1.763	1.104	1.104	1.104	1.123	1.123	1.118
0.000	-0.010	-0.005	-0.005	0.010	0.005	0.029	1.768	1.108	1.104	1.099	1.118	1.118	1.123
0.015	-0.005	-0.005	-0.005	0.005	0.000	0.029	1.714	1.108	1.108	1.104	1.118	1.118	1.118
0.020	0.000	-0.005	-0.010	0.000	0.000	0.029	1.787	1.113	1.108	1.104	1.118	1.113	1.113
0.029	0.000	0.000	-0.005	-0.005	-0.005	0.029	1.743	1.108	1.108	1.108	1.123	1.113	1.113
0.034	0.005	-0.005	-0.005	-0.005	-0.010	0.029	1.797	1.108	1.108	1.108	1.123	1.113	1.113
0.024	0.000	0.000	-0.005	-0.005	-0.005	0.029	1.797	1.108	1.108	1.108	1.128	1.118	1.113
0.020	0.000	-0.005	0.005	-0.005	0.000	0.029	1.787	1.108	1.108	1.108	1.123	1.118	1.123
0.000	0.000	0.000	-0.005	0.000	0.010	0.029	1.763	1.104	1.108	1.108	1.128	1.123	1.123
0.005	0.000	-0.005	0.005	-0.005	-0.005	0.029	1.763	1.104	1.104	1.108	1.128	1.123	1.118
-0.010	0.000	-0.005	-0.005	-0.005	-0.010	0.024	1.816	1.108	1.104	1.104	1.123	1.118	1.118
-0.010	0.010	-0.005	-0.005	0.000	0.005	0.029	1.787	1.108	1.108	1.108	1.123	1.123	1.123
-0.020	0.005	-0.005	-0.005	0.000	-0.010	0.029	1.792	1.108	1.104	1.104	1.123	1.123	1.113
-0.015	0.000	-0.005	0.000	0.005	-0.039	0.024	1.763	1.104	1.104	1.104	1.123	1.123	1.108
-0.015	-0.005	0.005	-0.005	0.000	-0.005	0.029	1.768	1.108	1.104	1.104	1.123	1.123	1.123
-0.015	-0.005	-0.005	-0.005	0.000	0.010	0.024	1.792	1.108	1.104	1.104	1.123	1.123	1.128
-0.010	-0.015	0.005	0.000	0.000	0.000	0.029	1.768	1.113	1.104	1.104	1.123	1.118	1.118
-0.005	-0.005	-0.005	-0.005	-0.005	-0.020	0.029	1.792	1.108	1.104	1.104	1.123	1.118	1.113
0.000	-0.010	0.000	0.005	-0.005	0.015	0.029	1.733	1.113	1.108	1.104	1.123	1.118	1.123
-0.005	-0.010	0.000	0.005	0.000	0.005	0.029	1.797	1.113	1.108	1.108	1.123	1.118	1.118
0.000	0.000	0.000	0.000	0.000	-0.024	0.024	1.772	1.113	1.108	1.108	1.123	1.118	1.108
0.005	0.000	-0.005	0.000	0.000	0.000	0.029	1.782	1.113	1.108	1.108	1.123	1.118	1.123
0.000	0.000	0.000	-0.005	-0.005	-0.005	0.029	1.782	1.113	1.113	1.108	1.123	1.118	1.118
0.000	0.010	0.000	-0.005	0.000	0.005	0.024	1.772	1.108	1.113	1.108	1.128	1.123	1.123
0.005	0.020	0.000	0.000	0.000	0.005	0.029	1.782	1.108	1.113	1.108	1.128	1.123	1.123
0.000	0.010	0.000	0.000	-0.005	-0.010	0.029	1.792	1.108	1.108	1.108	1.128	1.123	1.118
0.000	0.000	0.000	0.000	-0.005	0.010	0.029	1.753	1.104	1.108	1.108	1.128	1.123	1.128
-0.005	-0.005	-0.005	0.000	0.000	0.010	0.029	1.787	1.113	1.104	1.108	1.128	1.123	1.123
0.005	0.000	-0.005	-0.005	0.000	-0.005	0.029	1.797	1.113	1.104	1.108	1.123	1.123	1.123
0.020	-0.010	0.000	0.000	0.000	-0.010	0.029	1.763	1.108	1.104	1.108	1.128	1.123	1.118
0.000	-0.005	0.000	0.000	-0.005	-0.010	0.029	1.782	1.108	1.108	1.108	1.128	1.123	1.118
-0.005	-0.010	-0.005	0.000	0.000	0.010	0.029	1.787	1.108	1.104	1.104	1.128	1.123	1.123
0.005	-0.010	0.000	0.000	0.000	-0.005	0.024	1.797	1.113	1.104	1.104	1.123	1.118	1.118
-0.005	-0.010	-0.005	0.000	-0.005	-0.010	0.029	1.807	1.108	1.104	1.104	1.123	1.118	1.118
-0.005	-0.005	0.000	0.000	-0.010	-0.010	0.029	1.738	1.108	1.108	1.104	1.123	1.118	1.118
-0.005	-0.005	0.000	0.000	-0.005	-0.005	0.029	1.782	1.104	1.108	1.104	1.123	1.118	1.123
-0.005	-0.005	0.000	-0.005	-0.010	0.015	0.029	1.777	1.104	1.104	1.104	1.123	1.118	1.123
0.005	0.000	0.000	0.000	-0.020	0.000	0.029	1.763	1.108	1.108	1.108	1.123	1.113	1.113
0.000	0.005	0.000	0.000	-0.015	-0.020	0.029	1.782	1.108	1.108	1.108	1.128	1.118	1.113
-0.005	0.015	0.000	0.000	-0.005	0.020	0.024	1.733	1.104	1.108	1.108	1.123	1.123	1.123
-0.010	0.010	-0.005	-0.005	0.005	0.015	0.029	1.782	1.104	1.108	1.104	1.128	1.128	1.123
0.010	0.010	-0.005	0.000	0.029	0.005	0.024	1.787	1.113	1.108	1.108	1.123	1.133	1.123
0.005	0.005	0.000	0.000	0.044	0.000	0.024	1.777	1.113	1.108	1.108	1.128	1.133	1.123
-0.005	0.015	0.000	0.000	0.034	-0.005	0.024	1.787	1.113	1.108	1.108	1.128	1.128	1.123
0.000	0.000	0.000	0.005	0.029	0.010	0.029	1.729	1.099	1.104	1.108	1.128	1.128	1.128
-0.005	0.005	0.000	-0.005	0.015	0.000	0.029	1.777	1.099	1.104	1.104	1.123	1.118	1.123
-0.010	-0.005	-0.005	0.005	0.000	-0.005	0.029	1.763	1.099	1.099	1.104	1.123	1.113	1.118
-0.005	-0.015	-0.005	0.000	-0.010	-0.005	0.029	1.743	1.099	1.094	1.099	1.123	1.113	1.118
0.005	-0.010	-0.005	0.000	-0.015	0.000	0.024	1.792	1.108	1.099	1.099	1.118	1.113	1.113
0.000	-0.005	0.000	0.000	-0.020	0.005	0.029	1.772	1.104	1.104	1.099	1.118	1.113	1.118
0.005	-0.010	-0.005	-0.005	-0.020	0.015	0.024	1.802	1.113	1.099	1.099	1.118	1.113	1.118
-0.005	0.000	-0.005	0.000	-0.020	0.015	0.024	1.772	1.108	1.108	1.104	1.118	1.113	1.118
-0.010	0.005	0.000	0.000	-0.005	0.010	0.024	1.787	1.108	1.108	1.104	1.123	1.118	1.113
0.000	0.010	0.000	0.000	-0.005	0.000	0.029	1.792	1.104	1.108	1.108	1.123	1.118	1.113
-0.010	0.010	0.000	-0.005	-0.005	-0.020	0.029	1.807	1.113	1.108	1.104	1.118	1.118	1.108
-0.015	-0.020	0.000	-0.005	0.000	-0.010	0.029	1.768	1.108	1.099	1.104	1.118	1.118	1.113
-0.024	-0.010	-0.005	0.000	0.005	-0.020	0.029	1.782	1.104	1.104	1.104	1.123	1.118	1.118
-0.039	-0.010	0.000	0.000	-0.005	-0.005	0.029	1.743	1.099	1.104	1.104	1.123	1.118	1.113
-0.039	0.000	-0.005	-0.005	-0.024	-0.034	0.029	1.763	1.104	1.104	1.104	1.118	1.108	1.104
-0.034	0.015	0.000	-0.005	-0.020	-0.024	0.024	1.797	1.113	1.113	1.108	1.118	1.113	1.113
-0.005	0.015	0.000	0.000	0.000	-0.020	0.029	1.772	1.113	1.113	1.108	1.128	1.123	1.118
0.010	0.010	0.000	0.000	0.000	-0.010	0.024	1.777	1.118	1.113	1.108	1.128	1.123	1.123
0.029	0.000	0.000	-0.005	0.010	0.005	0.029	1.777	1.123	1.118	1.108	1.128	1.128	1.128
0.049	0.015	-0.005	0.000	-0.005	0.020	0.029	1.748	1.123	1.118	1.113	1.128	1.118	1.123
0.063	0.000	-0.005	0.000	-0.010	0.005	0.029	1.772	1.118	1.113	1.113	1.128	1.118	1.118
0.044	-0.005	0.000	0.000	0.000	0.015	0.029	1.763	1.113	1.113	1.113	1.128	1.123	1.123
0.039	-0.010	-0.005	0.005	0.005	0.005	0.029	1.763	1.108	1.108	1.108	1.128	1.123	1.118
0.034	-0.005	0.000	0.000	0.000	0.005	0.024	1.821	1.108	1.108	1.108	1.128	1.123	1.118
0.020	-0.005	0.000	0.000	0.005	-0.010	0.029	1.792	1.108	1.104	1.108	1.128	1.123	1.118
0.010	-0.005	0.000	0.000	0.005	0.005	0.029	1.753	1.104	1.108	1.108	1.128	1.123	1.123
0.000	0.000	0.000	0.000	0.000	-0.010	0.029	1.768	1.104	1.104	1.108	1.123	1.123	1.118
-0.005	0.000	0.000	0.000	0.000	0.010	0.029	1.777	1.104	1.104	1.108	1.123	1.118	1.123
-0.010	-0.015	-0.005	-0.005	0.010	-0.005	0.024	1.777	1.104	1.099	1.104	1.128	1.123	1.118
-0.005	0.000	0.000	-0.005	-0.010	0.010	0.029	1.787	1.108	1.104	1.104	1.123	1.118	1.123
-0.005	0.005	0.000	-0.005	-0.010	0.010	0.029	1.797	1.118	1.108	1.108	1.123	1.123	1.123
0.005	0.015	0.000	-0.005	-0.005	-0.005	0.029	1.758	1.118	1.113	1.108	1.128	1.123	1.118
0.005	0.000	0.000	0.000	0.005	0.010	0.029	1.724	1.089	1.104	1.104	1.128	1.123	1.123
-0.005	0.010	-0.005	0.000	0.010	0.010	0.029	1.787	1.094	1.104	1.104	1.123	1.123	1.123
-0.010	0.000	-0.005	-0.005	0.000	-0.005	0.029	1.782	1.099	1.099	1.104	1.123	1.123	1.118
0.000	-0.005	-0.005	0.005	0.005	-0.005	0.029	1.782	1.108	1.099	1.104	1.123	1.118	1.118
-0.034	0.000	0.000	0.000	0.000	-0.010	0.024	1.753	1.094	1.099	1.099	1.123	1.123	1.118
-0.044	0.000	0.000	0.000	0.000	0.000	0.024	1.782	1.099	1.099	1.099	1.123	1.118	1.118
-0.034	-0.010	0.000	0.005	0.005	-0.010	0.029	1.777	1.104	1.094	1.099	1.123	1.118	1.118
-0.020	-0.005	0.005	0.000	0.000	0.000	0.029	1.758	1.108	1.099	1.099	1.123	1.113	1.118
-0.005	0.000	-0.005	0.000	-0.010	-0.010	0.029	1.792	1.113	1.104	1.099	1.118	1.108	1.113
0.000	0.005	-0.005	0.000	-0.015	0.000	0.029	1.787	1.113	1.104	1.099	1.118	1.113	1.113
0.024	0.000	-0.005	0.005	-0.010	0.000	0.029	1.768	1.118	1.104	1.099	1.118	1.113	1.113
0.020	-0.005	0.000	0.000	-0.005	-0.024	0.029	1.768	1.113	1.108	1.104	1.118	1.113	1.108
0.015	0.000	0.000	0.000	0.005	-0.005	0.029	1.787	1.104	1.108	1.104	1.118	1.118	1.118
0.005	0.000	0.000	0.000	0.005	0.005	0.029	1.797	1.108	1.108	1.104	1.123	1.118	1.118
-0.010	-0.010	0.000	-0.005	0.005	-0.020	0.024	1.792	1.108	1.104	1.104	1.123	1.118	1.113
-0.020	0.000	0.000	-0.005	0.000	-0.005	0.029	1.792	1.108	1.108	1.104	1.123	1.118	1.113
-0.005	0.000	0.000	-0.005	-0.005	0.015	0.029	1.802	1.118	1.108	1.108	1.123	1.118	1.118
0.000	0.005	0.000	0.000	0.000	0.015	0.029	1.807	1.118	1.113	1.108	1.123	1.118	1.123
0.005	-0.010	0.000	-0.005	0.005	0.010	0.029	1.792	1.118	1.108	1.108	1.128	1.118	1.118
0.005	-0.005	-0.005	0.000	0.005	0.005	0.029	1.777	1.118	1.113	1.108	1.128	1.123	1.118
0.010	0.000	-0.005	0.000	0.000	0.005	0.029	1.792	1.113	1.113	1.108	1.128	1.123	1.118
0.010	-0.005	0.000	0.000	0.010	-0.005	0.029	1.777	1.108	1.108	1.113	1.128	1.123	1.118
-0.005	-0.010	0.000	0.005	0.000	-0.020	0.029	1.748	1.104	1.108	1.108	1.128	1.118	1.113
-0.010	-0.005	0.000	-0.005	-0.005	0.010	0.024	1.797	1.104	1.104	1.108	1.128	1.118	1.123
-0.005	-0.029	0.000	0.000	-0.005	0.010	0.024	1.792	1.104	1.099	1.104	1.128	1.118	1.118
-0.005	-0.015	0.000	-0.005	-0.010	-0.005	0.029	1.772	1.113	1.108	1.104	1.123	1.118	1.113
-0.010	-0.005	-0.005	0.000	-0.005	-0.005	0.029	1.768	1.104	1.108	1.104	1.123	1.118	1.118
0.000	0.000	-0.005	0.000	-0.005	0.010	0.029	1.763	1.108	1.108	1.104	1.123	1.118	1.123
0.000	0.005	-0.005	0.000	-0.005	-0.005	0.029	1.763	1.104	1.108	1.108	1.123	1.118	1.113
-0.005	0.000	0.000	0.010	0.000	-0.015	0.029	1.758	1.113	1.108	1.108	1.128	1.123	1.113
-0.005	0.015	0.000	-0.005	0.010	-0.010	0.029	1.807	1.113	1.108	1.108	1.128	1.123	1.118
-0.010	0.010	0.000	0.000	0.000	-0.010	0.029	1.743	1.108	1.113	1.108	1.128	1.123	1.123
-0.005	0.015	0.000	0.000	0.000	0.000	0.024	1.768	1.094	1.108	1.108	1.128	1.123	1.123
0.000	0.015	-0.005	0.000	-0.005	0.005	0.029	1.787	1.104	1.108	1.108	1.128	1.123	1.123
-0.015	0.005	-0.005	0.000	-0.020	-0.005	0.024	1.777	1.099	1.104	1.104	1.123	1.118	1.118
-0.005	0.005	0.000	0.000	-0.005	-0.005	0.024	1.792	1.104	1.104	1.108	1.123	1.123	1.118
0.000	0.000	0.000	0.000	0.000	0.010	0.029	1.748	1.104	1.099	1.104	1.123	1.123	1.123
0.000	0.000	0.000	-0.005	0.000	0.005	0.029	1.802	1.108	1.099	1.104	1.123	1.123	1.123
0.000	-0.005	-0.005	0.000	-0.010	0.005	0.029	1.797	1.113	1.104	1.104	1.123	1.118	1.118
0.005	-0.010	0.000	0.000	-0.020	-0.005	0.029	1.787	1.108	1.104	1.099	1.123	1.113	1.118
0.005	-0.015	0.005	0.000	-0.010	-0.005	0.029	1.777	1.108	1.104	1.099	1.118	1.118	1.118
-0.010	-0.020	0.000	0.000	-0.005	-0.005	0.029	1.792	1.108	1.099	1.099	1.118	1.118	1.118
-0.005	0.000	0.000	0.000	0.005	-0.020	0.024	1.758	1.108	1.108	1.099	1.118	1.123	1.113
0.000	-0.005	0.000	0.005	0.010	0.000	0.024	1.763	1.104	1.104	1.104	1.118	1.118	1.118
-0.010	0.010	0.000	-0.005	0.000	0.010	0.029	1.777	1.108	1.108	1.104	1.118	1.118	1.118
0.000	0.010	0.005	0.000	0.005	0.005	0.024	1.792	1.108	1.113	1.108	1.123	1.118	1.118
0.000	0.010	0.000	0.000	-0.005	0.000	0.029	1.787	1.113	1.108	1.104	1.123	1.113	1.113
0.005	0.005	-0.005	-0.005	-0.010	-0.010	0.029	1.777	1.108	1.108	1.108	1.118	1.113	1.118
0.005	0.015	0.000	-0.005	-0.010	-0.010	0.029	1.729	1.108	1.113	1.108	1.123	1.118	1.113
-0.005	0.010	-0.005	-0.005	0.005	0.000	0.024	1.768	1.104	1.104	1.104	1.128	1.123	1.118
-0.005	0.000	-0.005	0.000	0.010	0.000	0.029	1.768	1.104	1.108	1.104	1.128	1.123	1.123
0.000	-0.005	-0.005	-0.005	0.010	-0.024	0.029	1.758	1.108	1.104	1.104	1.123	1.118	1.113
0.000	0.000	-0.005	0.000	0.010	0.005	0.024	1.782	1.108	1.104	1.108	1.123	1.118	1.123
-0.005	-0.005	-0.005	0.000	0.015	0.010	0.029	1.763	1.108	1.104	1.104	1.123	1.128	1.123
0.000	-0.010	-0.005	-0.005	0.029	0.015	0.024	1.782	1.108	1.104	1.104	1.123	1.123	1.128
0.000	-0.005	0.000	-0.005	0.029	0.015	0.029	1.768	1.104	1.108	1.104	1.123	1.123	1.123
-0.034	0.000	0.000	0.000	0.015	0.005	0.029	1.787	1.094	1.104	1.104	1.123	1.118	1.118
-0.063	0.005	0.000	0.000	0.000	-0.015	0.024	1.758	1.094	1.099	1.099	1.123	1.113	1.108
-0.034	-0.005	-0.005	0.000	0.000	-0.034	0.029	1.792	1.104	1.094	1.099	1.123	1.113	1.104
-0.020	-0.005	0.000	0.000	-0.010	-0.015	0.029	1.719	1.099	1.099	1.099	1.123	1.113	1.113
0.005	0.000	-0.005	0.000	-0.010	-0.049	0.029	1.782	1.113	1.099	1.099	1.118	1.108	1.104
0.039	-0.010	-0.005	0.000	-0.015	-0.020	0.029	1.719	1.113	1.104	1.099	1.118	1.113	1.113
0.049	0.000	-0.005	0.000	0.005	-0.010	0.029	1.777	1.118	1.113	1.104	1.118	1.118	1.118
0.049	-0.005	0.000	0.005	0.015	0.005	0.029	1.733	1.108	1.108	1.108	1.123	1.123	1.123
0.054	-0.005	0.000	0.000	0.015	0.000	0.024	1.768	1.108	1.108	1.104	1.123	1.118	1.123
0.044	-0.015	0.000	0.000	0.005	-0.010	0.024	1.807	1.108	1.104	1.108	1.123	1.113	1.118
0.034	-0.015	0.000	0.000	-0.010	0.005	0.029	1.763	1.104	1.104	1.104	1.123	1.113	1.118
0.020	-0.005	0.000	0.000	0.000	0.010	0.029	1.792	1.099	1.104	1.104	1.123	1.118	1.123
0.000	-0.005	0.000	0.000	-0.005	0.000	0.029	1.777	1.099	1.104	1.104	1.123	1.118	1.118
-0.010	0.000	0.005	0.000	-0.005	0.000	0.024	1.787	1.104	1.104	1.104	1.123	1.118	1.118
-0.010	0.000	0.005	0.000	0.015	-0.010	0.029	1.797	1.108	1.104	1.104	1.123	1.123	1.113
-0.015	0.000	0.005	0.000	0.010	0.015	0.029	1.792	1.108	1.099	1.104	1.123	1.118	1.123
-0.024	-0.005	0.000	0.000	-0.015	0.015	0.029	1.729	1.113	1.104	1.099	1.123	1.113	1.118
-0.034	-0.005	-0.005	0.005	-0.005	0.015	0.024	1.792	1.113	1.104	1.104	1.123	1.113	1.118
-0.029	-0.005	-0.005	0.000	0.015	0.010	0.029	1.812	1.108	1.104	1.104	1.123	1.123	1.118
-0.020	-0.005	-0.005	-0.005	0.029	0.005	0.024	1.772	1.108	1.108	1.104	1.118	1.123	1.118
-0.015	0.005	-0.005	0.000	0.010	0.010	0.024	1.772	1.113	1.108	1.104	1.118	1.118	1.118
-0.005	0.000	-0.010	0.000	-0.015	0.010	0.029	1.807	1.118	1.108	1.104	1.123	1.108	1.113
0.005	0.000	-0.005	0.000	-0.024	0.005	0.024	1.787	1.118	1.108	1.108	1.123	1.108	1.113
0.000	0.005	-0.005	0.000	-0.024	0.000	0.029	1.782	1.113	1.113	1.108	1.123	1.108	1.113
-0.010	0.000	0.000	-0.005	-0.024	-0.005	0.024	1.772	1.108	1.113	1.108	1.123	1.113	1.108
-0.005	0.024	-0.005	-0.005	-0.020	-0.015	0.029	1.802	1.118	1.118	1.113	1.128	1.118	1.108
0.005	0.024	-0.005	-0.005	-0.020	-0.010	0.029	1.802	1.108	1.118	1.113	1.128	1.118	1.113
-0.005	0.015	-0.005	-0.005	-0.024	-0.005	0.029	1.782	1.104	1.108	1.113	1.128	1.118	1.118
0.000	0.010	0.005	-0.005	-0.024	0.005	0.029	1.758	1.108	1.108	1.113	1.128	1.123	1.118
0.000	0.005	0.000	-0.005	-0.015	0.000	0.029	1.792	1.108	1.108	1.113	1.128	1.123	1.118
-0.015	0.010	0.000	-0.005	-0.020	-0.015	0.029	1.733	1.099	1.104	1.108	1.128	1.123	1.113
-0.015	-0.005	-0.005	-0.005	-0.015	0.000	0.029	1.777	1.104	1.099	1.104	1.128	1.123	1.123
-0.010	-0.010	0.000	-0.005	0.010	0.015	0.024	1.763	1.108	1.104	1.104	1.128	1.133	1.128
-0.015	-0.005	-0.005	-0.005	0.029	0.020	0.024	1.787	1.108	1.099	1.104	1.123	1.133	1.133
-0.005	-0.010	0.000	0.000	0.010	-0.005	0.024	1.772	1.104	1.104	1.099	1.123	1.123	1.123
0.000	-0.015	0.000	-0.005	0.000	0.015	0.029	1.802	1.113	1.099	1.104	1.123	1.118	1.123
0.005	-0.015	0.000	0.000	0.000	0.010	0.029	1.753	1.108	1.104	1.104	1.123	1.118	1.123
0.010	-0.010	-0.005	-0.010	0.000	0.005	0.029	1.782	1.113	1.104	1.099	1.123	1.118	1.118
0.010	0.000	0.000	0.000	-0.005	0.005	0.029	1.802	1.108	1.108	1.104	1.123	1.118	1.123
-0.015	-0.005	0.010	0.000	-0.005	0.005	0.029	1.768	1.104	1.104	1.104	1.123	1.118	1.118
-0.010	0.000	0.005	0.000	-0.005	0.005	0.029	1.782	1.108	1.108	1.108	1.123	1.118	1.118
-0.010	-0.005	0.000	0.000	-0.005	0.005	0.029	1.768	1.108	1.108	1.104	1.128	1.118	1.118
-0.005	-0.005	-0.005	-0.005	0.000	0.000	0.024	1.763	1.104	1.108	1.104	1.123	1.118	1.118
0.000	-0.015	0.000	0.000	-0.005	-0.005	0.024	1.797	1.108	1.104	1.104	1.123	1.118	1.118
0.010	-0.005	-0.005	0.000	0.000	-0.005	0.029	1.733	1.108	1.108	1.104	1.123	1.118	1.118
0.015	-0.010	0.000	0.000	0.000	-0.005	0.029	1.802	1.113	1.108	1.108	1.123	1.118	1.118
0.024	0.010	0.000	0.000	-0.005	0.005	0.029	1.763	1.113	1.113	1.108	1.123	1.118	1.118
0.024	0.000	0.000	-0.005	0.005	0.005	0.029	1.792	1.113	1.108	1.108	1.128	1.123	1.118
0.020	-0.010	-0.005	0.005	0.000	-0.015	0.029	1.729	1.108	1.108	1.108	1.128	1.123	1.118
0.020	0.000	0.000	-0.005	0.000	0.005	0.029	1.777	1.108	1.108	1.108	1.128	1.123	1.123
0.020	-0.010	-0.005	0.005	0.000	-0.005	0.029	1.753	1.104	1.108	1.108	1.128	1.123	1.118
0.020	0.000	0.000	0.000	0.000	-0.010	0.029	1.758	1.104	1.108	1.108	1.128	1.123	1.118
0.000	-0.005	0.000	0.000	-0.005	0.005	0.024	1.768	1.099	1.104	1.104	1.123	1.123	1.123
-0.005	-0.005	0.000	0.000	0.000	-0.005	0.024	1.782	1.099	1.104	1.104	1.123	1.118	1.123
-0.005	0.015	-0.005	0.000	0.000	0.000	0.029	1.743	1.094	1.108	1.104	1.123	1.123	1.123
-0.005	0.020	0.000	0.000	0.000	-0.010	0.024	1.772	1.104	1.108	1.104	1.123	1.118	1.118
-0.020	0.020	0.000	0.000	0.005	-0.010	0.029	1.772	1.089	1.099	1.104	1.123	1.123	1.118
-0.020	0.005	0.005	0.005	-0.005	-0.010	0.029	1.787	1.089	1.094	1.099	1.123	1.118	1.118
-0.020	-0.015	0.000	0.000	0.005	-0.005	0.024	1.758	1.094	1.089	1.094	1.118	1.118	1.118
-0.015	-0.010	-0.005	0.000	-0.005	-0.005	0.029	1.787	1.104	1.089	1.094	1.118	1.118	1.123
-0.029	-0.005	0.005	0.000	0.000	-0.015	0.029	1.758	1.099	1.099	1.094	1.118	1.118	1.113
-0.049	-0.005	-0.005	0.000	-0.005	0.000	0.029	1.738	1.094	1.094	1.094	1.118	1.113	1.118
-0.034	0.005	-0.005	0.000	0.000	0.000	0.029	1.714	1.094	1.094	1.094	1.113	1.118	1.118
-0.005	-0.005	0.000	0.000	0.000	0.000	0.029	1.772	1.108	1.099	1.094	1.113	1.113	1.113
0.010	0.000	-0.005	-0.005	0.010	0.000	0.024	1.797	1.118	1.104	1.099	1.113	1.118	1.113
0.020	-0.010	0.000	0.000	0.010	0.000	0.024	1.777	1.113	1.104	1.099	1.113	1.113	1.113
0.029	-0.005	0.000	-0.005	0.000	-0.029	0.029	1.748	1.113	1.104	1.104	1.113	1.108	1.104
0.020	-0.005	0.000	0.000	0.000	-0.024	0.029	1.802	1.108	1.104	1.099	1.118	1.108	1.108
0.029	-0.010	0.000	0.000	-0.005	0.005	0.029	1.733	1.104	1.108	1.104	1.118	1.113	1.118
0.020	0.005	-0.005	0.000	0.000	0.005	0.029	1.792	1.104	1.104	1.104	1.123	1.113	1.113
0.029	-0.020	-0.005	0.000	0.005	0.005	0.029	1.787	1.108	1.104	1.104	1.118	1.113	1.113
0.010	-0.005	0.000	0.000	-0.010	0.000	0.029	1.787	1.104	1.104	1.104	1.123	1.108	1.108
-0.005	0.005	0.000	0.000	-0.015	-0.010	0.029	1.753	1.099	1.104	1.104	1.123	1.108	1.108
-0.005	0.010	0.000	-0.005	-0.020	0.000	0.029	1.758	1.099	1.104	1.099	1.118	1.113	1.108
-0.010	0.020	0.000	0.000	-0.015	-0.005	0.029	1.797	1.099	1.104	1.104	1.123	1.113	1.108
-0.010	0.010	-0.005	0.000	-0.005	-0.005	0.024	1.758	1.099	1.104	1.104	1.118	1.118	1.113
-0.020	0.000	0.000	0.000	0.005	-0.024	0.029	1.797	1.104	1.099	1.104	1.123	1.118	1.108
-0.020	0.000	0.000	0.000	0.015	0.005	0.029	1.753	1.099	1.099	1.099	1.123	1.123	1.118
-0.039	0.010	-0.005	0.000	0.015	0.000	0.029	1.797	1.099	1.099	1.104	1.123	1.123	1.118
-0.029	0.000	-0.005	0.000	0.015	0.000	0.029	1.748	1.104	1.099	1.099	1.123	1.123	1.123
-0.024	-0.005	0.000	0.000	0.015	0.015	0.029	1.797	1.108	1.104	1.099	1.123	1.118	1.123
0.005	-0.010	0.000	0.000	0.005	-0.020	0.029	1.733	1.108	1.099	1.099	1.118	1.113	1.113
0.010	-0.005	0.000	-0.005	-0.010	0.010	0.029	1.797	1.113	1.108	1.099	1.118	1.113	1.118
0.024	-0.005	0.000	0.000	-0.005	-0.015	0.029	1.777	1.123	1.108	1.104	1.118	1.113	1.113
0.020	-0.005	0.000	0.000	-0.015	0.005	0.024	1.758	1.113	1.108	1.104	1.123	1.108	1.113
0.015	-0.005	-0.005	0.000	-0.015	0.005	0.029	1.777	1.108	1.108	1.104	1.118	1.113	1.113
0.005	0.005	0.000	0.000	-0.005	0.005	0.029	1.797	1.104	1.108	1.108	1.123	1.113	1.113
0.000	0.005	0.000	0.000	0.005	-0.005	0.029	1.772	1.108	1.108	1.108	1.123	1.118	1.113
0.000	0.000	0.000	-0.005	0.005	-0.005	0.029	1.787	1.108	1.104	1.104	1.123	1.118	1.113
-0.005	0.005	-0.005	0.000	0.005	-0.020	0.029	1.787	1.104	1.104	1.104	1.123	1.118	1.113
-0.010	0.024	0.000	-0.005	0.000	-0.010	0.029	1.743	1.104	1.113	1.108	1.128	1.118	1.113
-0.010	0.024	0.000	0.000	-0.015	0.005	0.029	1.792	1.104	1.108	1.108	1.123	1.113	1.118
0.000	0.015	-0.005	0.000	0.000	-0.005	0.029	1.753	1.104	1.104	1.104	1.123	1.123	1.118
-0.005	0.000	0.000	0.000	0.005	0.010	0.029	1.714	1.094	1.099	1.104	1.123	1.123	1.123
-0.005	0.015	0.000	0.000	0.005	0.005	0.024	1.797	1.104	1.104	1.108	1.123	1.118	1.123
0.000	-0.005	0.000	-0.005	0.000	-0.010	0.024	1.792	1.113	1.099	1.104	1.123	1.118	1.113
0.005	-0.005	-0.005	0.000	0.015	-0.005	0.029	1.709	1.104	1.104	1.104	1.123	1.123	1.118
0.000	-0.010	0.000	0.000	0.015	0.000	0.029	1.719	1.094	1.099	1.099	1.123	1.123	1.118
-0.015	-0.010	0.005	-0.005	0.005	0.000	0.029	1.797	1.099	1.099	1.099	1.123	1.118	1.118
-0.010	-0.005	-0.005	-0.005	0.000	0.015	0.029	1.797	1.104	1.099	1.099	1.118	1.113	1.123
-0.010	-0.005	0.005	-0.005	-0.005	0.015	0.029	1.772	1.104	1.099	1.099	1.118	1.113	1.118
-0.015	-0.005	-0.005	0.000	-0.015	0.010	0.029	1.748	1.099	1.099	1.099	1.118	1.113	1.113
-0.005	-0.010	-0.005	0.000	-0.020	0.005	0.029	1.763	1.099	1.094	1.094	1.118	1.113	1.113
0.000	-0.010	-0.005	-0.005	-0.010	0.005	0.029	1.763	1.099	1.094	1.094	1.113	1.113	1.108
0.000	0.000	0.000	0.005	-0.005	0.005	0.029	1.797	1.104	1.104	1.099	1.118	1.113	1.113
0.005	-0.005	-0.005	0.005	-0.005	0.000	0.024	1.729	1.099	1.099	1.099	1.113	1.113	1.113
0.005	-0.010	-0.005	0.000	-0.010	-0.010	0.024	1.768	1.099	1.099	1.094	1.113	1.108	1.108
0.024	-0.005	0.000	0.000	-0.010	-0.010	0.029	1.777	1.108	1.099	1.099	1.113	1.108	1.104
0.005	-0.005	-0.005	0.000	0.000	-0.005	0.029	1.782	1.104	1.104	1.099	1.113	1.113	1.113
0.010	0.005	0.000	0.005	0.005	-0.020	0.029	1.787	1.108	1.104	1.099	1.118	1.118	1.108
0.010	0.000	-0.005	0.000	0.010	-0.010	0.029	1.772	1.108	1.104	1.099	1.118	1.113	1.113
0.005	0.000	0.000	0.000	0.015	0.000	0.029	1.768	1.104	1.108	1.104	1.118	1.118	1.118
0.000	0.005	0.000	-0.005	0.015	-0.015	0.029	1.797	1.108	1.104	1.104	1.118	1.118	1.113
0.000	0.000	0.000	-0.005	0.010	0.010	0.029	1.753	1.099	1.104	1.104	1.118	1.113	1.123
-0.010	0.005	0.000	0.000	0.000	0.015	0.024	1.777	1.104	1.104	1.104	1.118	1.113	1.118
0.000	-0.010	0.005	-0.005	0.005	0.015	0.024	1.753	1.099	1.099	1.104	1.118	1.113	1.118
-0.005	-0.005	-0.005	0.000	0.010	0.015	0.024	1.797	1.104	1.099	1.099	1.123	1.118	1.118
0.000	-0.010	-0.005	0.000	0.015	-0.005	0.029	1.787	1.099	1.099	1.099	1.118	1.118	1.113
0.000	-0.005	-0.005	-0.005	-0.005	0.015	0.029	1.797	1.104	1.099	1.099	1.118	1.108	1.113
-0.010	0.000	-0.005	0.000	-0.010	0.000	0.029	1.802	1.104	1.099	1.099	1.118	1.108	1.108
-0.005	0.000	0.000	0.000	-0.005	0.000	0.029	1.787	1.104	1.099	1.104	1.118	1.113	1.108
0.005	0.010	-0.005	0.000	0.000	-0.015	0.029	1.768	1.104	1.104	1.099	1.118	1.113	1.108
0.005	0.000	-0.005	0.000	0.000	-0.005	0.029	1.777	1.104	1.104	1.104	1.118	1.113	1.113
-0.005	0.000	0.000	-0.005	0.000	-0.005	0.029	1.792	1.108	1.104	1.099	1.118	1.113	1.113
0.000	0.010	0.000	0.005	-0.005	-0.005	0.029	1.719	1.104	1.108	1.104	1.118	1.113	1.113
0.005	0.005	0.000	0.000	0.000	0.000	0.029	1.792	1.108	1.104	1.108	1.118	1.118	1.118
-0.005	0.010	0.000	-0.005	-0.005	-0.015	0.029	1.807	1.113	1.108	1.104	1.123	1.113	1.108
-0.005	-0.010	-0.005	-0.005	-0.024	0.000	0.029	1.768	1.108	1.104	1.104	1.118	1.108	1.113
0.005	-0.010	0.000	-0.005	-0.034	-0.005	0.024	1.743	1.104	1.104	1.104	1.118	1.108	1.113
0.005	-0.005	0.000	0.000	-0.010	0.005	0.029	1.792	1.104	1.104	1.104	1.123	1.118	1.113
-0.010	-0.005	0.000	-0.005	0.010	0.005	0.029	1.753	1.104	1.104	1.104	1.123	1.123	1.118
-0.005	-0.010	0.000	0.000	0.015	0.005	0.029	1.763	1.108	1.104	1.104	1.123	1.123	1.123
-0.005	-0.015	0.000	0.000	0.005	0.015	0.024	1.797	1.108	1.104	1.099	1.118	1.118	1.123
-0.005	0.010	0.000	0.000	0.005	-0.005	0.029	1.797	1.108	1.108	1.104	1.118	1.118	1.113
0.000	0.015	-0.005	-0.005	0.000	0.000	0.029	1.792	1.108	1.108	1.104	1.123	1.118	1.113
-0.005	0.000	0.000	0.000	0.000	-0.015	0.024	1.782	1.108	1.104	1.104	1.118	1.118	1.113
-0.005	-0.010	0.000	0.005	0.005	0.015	0.029	1.792	1.104	1.099	1.104	1.128	1.118	1.118
-0.005	-0.010	-0.005	0.005	0.000	0.015	0.029	1.743	1.104	1.099	1.104	1.123	1.118	1.118
-0.010	0.005	0.000	-0.005	0.005	0.015	0.024	1.797	1.104	1.104	1.104	1.123	1.118	1.118
-0.015	0.020	0.000	0.000	-0.005	-0.010	0.029	1.792	1.104	1.108	1.104	1.123	1.113	1.108
0.000	0.005	0.000	0.000	-0.005	-0.015	0.029	1.763	1.128	1.108	1.104	1.123	1.113	1.108
0.000	0.010	-0.005	-0.005	-0.010	-0.024	0.029	1.763	1.118	1.108	1.108	1.123	1.113	1.108
0.000	0.005	-0.005	0.000	-0.024	-0.039	0.029	1.724	1.113	1.108	1.104	1.123	1.113	1.108
0.000	0.005	0.000	-0.005	-0.024	-0.024	0.029	1.787	1.113	1.108	1.108	1.123	1.113	1.113
0.005	0.000	-0.005	-0.005	0.005	-0.010	0.029	1.753	1.104	1.108	1.108	1.128	1.123	1.118
0.010	-0.005	-0.005	-0.005	0.034	-0.015	0.029	1.777	1.099	1.104	1.108	1.128	1.133	1.123
0.005	-0.005	-0.010	0.000	0.034	0.005	0.029	1.782	1.094	1.099	1.104	1.128	1.128	1.133
0.010	-0.005	0.000	0.000	0.010	0.015	0.029	1.748	1.104	1.099	1.104	1.123	1.118	1.128
-0.005	-0.010	0.005	-0.005	0.000	0.010	0.029	1.763	1.099	1.099	1.104	1.123	1.118	1.123
-0.005	-0.015	0.000	0.000	-0.005	0.015	0.029	1.787	1.099	1.094	1.099	1.118	1.113	1.123
-0.005	-0.020	0.005	0.000	-0.015	0.020	0.029	1.768	1.104	1.099	1.099	1.118	1.113	1.123
-0.005	-0.010	0.000	-0.005	-0.015	0.010	0.029	1.792	1.104	1.099	1.099	1.118	1.113	1.113
-0.005	-0.005	0.000	0.000	0.000	0.000	0.029	1.787	1.104	1.104	1.099	1.118	1.118	1.113
0.000	0.000	0.000	-0.005	0.024	0.005	0.029	1.782	1.104	1.104	1.099	1.118	1.123	1.118
0.000	0.000	-0.005	0.000	0.024	0.000	0.029	1.748	1.104	1.104	1.099	1.118	1.118	1.118
0.000	0.000	0.005	0.000	-0.005	0.015	0.029	1.719	1.104	1.104	1.099	1.118	1.108	1.118
-0.005	0.005	0.005	0.000	-0.029	0.005	0.029	1.797	1.104	1.099	1.104	1.118	1.104	1.108
0.010	-0.005	0.000	0.000	-0.020	-0.005	0.029	1.743	1.104	1.104	1.099	1.118	1.113	1.108
-0.005	0.000	-0.005	0.000	-0.005	-0.005	0.029	1.797	1.104	1.099	1.104	1.118	1.113	1.113
-0.005	0.005	0.000	0.000	-0.010	0.005	0.029	1.763	1.104	1.108	1.104	1.123	1.113	1.113
0.000	0.000	-0.005	0.000	0.000	-0.010	0.029	1.768	1.104	1.104	1.104	1.123	1.118	1.113
0.000	0.005	-0.005	-0.005	0.005	-0.005	0.029	1.797	1.108	1.108	1.104	1.123	1.118	1.113
-0.005	0.010	-0.005	-0.005	0.015	-0.005	0.029	1.802	1.113	1.108	1.104	1.123	1.123	1.118
-0.005	0.005	0.000	0.000	0.020	0.000	0.029	1.753	1.108	1.108	1.104	1.123	1.123	1.118
0.000	0.015	0.000	0.005	0.015	-0.010	0.029	1.782	1.108	1.108	1.108	1.123	1.118	1.118
0.000	0.000	-0.005	0.000	0.005	-0.005	0.029	1.772	1.104	1.099	1.104	1.123	1.118	1.118
0.000	0.000	0.000	-0.005	0.005	0.000	0.029	1.812	1.113	1.104	1.099	1.123	1.118	1.118
0.005	-0.005	0.000	0.000	0.000	-0.005	0.029	1.797	1.113	1.104	1.104	1.123	1.118	1.113
-0.005	-0.010	0.000	0.000	0.005	0.010	0.029	1.709	1.094	1.099	1.099	1.118	1.118	1.118
0.000	-0.005	0.000	0.000	0.005	0.005	0.024	1.782	1.104	1.104	1.104	1.123	1.118	1.118
-0.005	0.005	-0.005	-0.005	0.000	-0.005	0.029	1.777	1.108	1.108	1.104	1.118	1.113	1.113
-0.005	-0.010	0.005	-0.005	-0.015	0.005	0.024	1.802	1.104	1.104	1.104	1.118	1.108	1.113
-0.005	0.005	-0.005	0.000	-0.015	-0.005	0.024	1.792	1.108	1.104	1.104	1.123	1.108	1.108
0.005	0.005	0.000	0.000	-0.020	-0.015	0.029	1.797	1.113	1.108	1.104	1.118	1.113	1.108
-0.005	0.010	0.000	0.000	-0.034	-0.020	0.029	1.787	1.113	1.108	1.108	1.123	1.108	1.108
0.000	0.010	-0.005	0.000	-0.034	-0.020	0.024	1.777	1.108	1.108	1.104	1.123	1.113	1.108
0.010	0.005	-0.005	0.005	-0.029	-0.010	0.029	1.733	1.089	1.104	1.108	1.123	1.113	1.113
0.000	0.010	0.000	0.000	-0.029	-0.005	0.029	1.787	1.094	1.099	1.108	1.123	1.113	1.113
-0.005	-0.005	0.000	0.005	-0.020	-0.005	0.024	1.777	1.099	1.099	1.104	1.123	1.123	1.118
-0.005	0.010	0.005	-0.005	-0.010	-0.015	0.024	1.802	1.104	1.099	1.104	1.123	1.123	1.118
0.000	-0.010	0.000	0.000	0.010	0.010	0.024	1.768	1.104	1.099	1.099	1.123	1.128	1.123
0.000	-0.005	0.005	0.000	0.034	0.010	0.029	1.787	1.104	1.099	1.104	1.123	1.128	1.128
-0.010	-0.010	0.000	-0.005	0.024	0.010	0.029	1.768	1.104	1.099	1.099	1.118	1.128	1.128
-0.010	0.000	0.005	-0.005	0.029	0.015	0.029	1.777	1.104	1.099	1.099	1.118	1.123	1.128
0.000	-0.010	-0.005	0.000	0.034	-0.005	0.029	1.748	1.104	1.099	1.099	1.118	1.123	1.123
-0.005	-0.005	-0.005	0.000	0.020	-0.005	0.029	1.758	1.104	1.099	1.099	1.113	1.113	1.113
0.005	-0.005	0.000	0.000	0.005	0.000	0.029	1.782	1.108	1.104	1.104	1.113	1.108	1.118
0.000	0.010	-0.005	-0.005	0.005	0.000	0.024	1.797	1.108	1.108	1.099	1.118	1.108	1.113
0.005	0.000	-0.005	0.000	0.005	0.005	0.024	1.792	1.104	1.104	1.104	1.118	1.113	1.118
-0.005	-0.005	0.005	0.000	0.010	0.015	0.029	1.797	1.108	1.104	1.104	1.118	1.113	1.118
0.005	-0.005	0.000	0.000	0.005	0.000	0.024	1.782	1.108	1.104	1.104	1.123	1.113	1.108
-0.010	0.000	0.000	0.000	-0.010	-0.005	0.029	1.729	1.099	1.104	1.104	1.118	1.108	1.108
0.000	0.010	-0.005	-0.005	-0.005	0.010	0.029	1.802	1.108	1.108	1.104	1.118	1.113	1.108
0.000	0.005	0.000	0.000	-0.010	0.015	0.029	1.797	1.108	1.108	1.108	1.123	1.113	1.113
0.000	0.005	0.005	0.000	-0.010	0.005	0.029	1.782	1.108	1.108	1.108	1.123	1.118	1.113
-0.005	0.000	-0.005	0.000	-0.010	0.005	0.029	1.812	1.108	1.104	1.104	1.123	1.118	1.113
0.005	-0.005	-0.005	-0.005	-0.010	0.005	0.029	1.782	1.108	1.104	1.104	1.123	1.118	1.113
-0.005	-0.015	-0.005	0.000	-0.015	-0.005	0.029	1.743	1.104	1.104	1.104	1.123	1.118	1.108
0.000	-0.005	-0.005	0.000	-0.005	0.000	0.024	1.782	1.108	1.104	1.104	1.123	1.118	1.118
0.005	-0.015	0.005	0.000	-0.005	-0.010	0.029	1.792	1.108	1.104	1.104	1.123	1.118	1.113
0.005	-0.015	0.005	0.000	-0.005	0.005	0.024	1.797	1.108	1.104	1.104	1.123	1.118	1.118
-0.005	-0.020	0.000	0.000	0.005	0.005	0.029	1.729	1.094	1.099	1.099	1.123	1.123	1.118
-0.005	-0.010	0.000	0.000	0.005	0.000	0.024	1.763	1.099	1.099	1.099	1.118	1.118	1.113
-0.005	-0.005	-0.010	-0.005	0.015	-0.029	0.029	1.802	1.099	1.104	1.099	1.118	1.118	1.113
0.005	-0.005	0.005	0.000	0.010	0.005	0.029	1.753	1.104	1.104	1.104	1.118	1.118	1.123
-0.005	0.005	0.000	0.000	0.010	0.015	0.029	1.792	1.108	1.104	1.099	1.123	1.118	1.118
0.000	0.010	-0.005	0.000	0.000	0.015	0.029	1.768	1.104	1.108	1.104	1.118	1.113	1.118
0.000	0.000	-0.005	0.000	-0.005	-0.015	0.029	1.792	1.108	1.104	1.104	1.123	1.113	1.108
0.000	0.005	0.000	0.005	-0.005	0.000	0.029	1.768	1.108	1.104	1.104	1.123	1.113	1.113
0.000	0.000	-0.005	0.000	0.010	-0.005	0.024	1.782	1.108	1.108	1.104	1.118	1.118	1.113
0.005	0.000	0.000	-0.005	0.000	-0.005	0.024	1.792	1.108	1.108	1.108	1.123	1.118	1.113
0.005	-0.005	0.000	0.000	-0.024	0.000	0.024	1.797	1.108	1.104	1.108	1.123	1.113	1.113
0.010	-0.005	0.000	0.000	-0.020	0.005	0.029	1.797	1.113	1.108	1.108	1.123	1.113	1.118
-0.005	-0.005	0.000	0.000	-0.024	0.010	0.029	1.748	1.104	1.104	1.104	1.123	1.113	1.113
0.000	-0.010	-0.005	-0.005	-0.015	0.005	0.029	1.787	1.104	1.104	1.104	1.118	1.118	1.113
0.005	-0.010	0.000	-0.005	-0.010	-0.005	0.029	1.758	1.104	1.104	1.099	1.123	1.118	1.113
-0.005	-0.010	0.000	-0.005	0.000	-0.020	0.029	1.748	1.104	1.104	1.104	1.123	1.118	1.108
-0.005	-0.010	-0.005	0.000	-0.005	-0.049	0.029	1.758	1.104	1.104	1.099	1.123	1.118	1.108
-0.005	-0.015	-0.005	0.000	0.000	-0.005	0.029	1.816	1.104	1.104	1.099	1.123	1.118	1.118
0.000	-0.010	-0.005	-0.005	0.020	0.005	0.029	1.797	1.104	1.104	1.104	1.118	1.123	1.123
-0.005	0.000	0.000	0.000	0.020	0.000	0.029	1.816	1.108	1.104	1.104	1.123	1.123	1.123
0.005	0.010	0.000	0.000	0.000	0.010	0.029	1.768	1.108	1.108	1.104	1.123	1.113	1.123
0.000	0.005	-0.005	0.000	-0.020	-0.005	0.029	1.758	1.104	1.108	1.104	1.123	1.108	1.113
-0.005	0.005	0.000	0.000	-0.029	0.005	0.029	1.782	1.104	1.104	1.108	1.118	1.113	1.118
-0.005	0.005	0.000	-0.005	-0.005	0.010	0.029	1.797	1.108	1.104	1.104	1.123	1.118	1.118
-0.005	0.010	-0.005	0.010	0.005	0.020	0.029	1.738	1.099	1.104	1.104	1.123	1.123	1.123
-0.005	0.010	0.000	0.000	0.024	0.015	0.029	1.758	1.094	1.104	1.108	1.123	1.128	1.123
0.000	0.015	0.000	0.005	0.044	0.005	0.029	1.733	1.099	1.104	1.104	1.123	1.133	1.123
0.000	0.005	0.000	-0.005	0.039	-0.010	0.029	1.787	1.104	1.099	1.104	1.123	1.123	1.113
-0.005	0.005	0.000	0.000	0.005	-0.015	0.029	1.777	1.099	1.099	1.104	1.123	1.113	1.118
-0.005	0.000	0.000	0.000	-0.005	-0.020	0.029	1.768	1.104	1.099	1.099	1.123	1.113	1.108
-0.005	0.005	0.000	0.000	-0.005	-0.005	0.029	1.777	1.099	1.099	1.104	1.118	1.113	1.118
-0.010	0.005	-0.005	-0.005	-0.024	-0.010	0.029	1.782	1.104	1.104	1.099	1.118	1.104	1.113
-0.005	-0.015	0.000	-0.005	-0.044	-0.010	0.029	1.758	1.104	1.094	1.094	1.118	1.104	1.108
-0.005	-0.015	0.000	-0.005	-0.034	-0.044	0.024	1.792	1.104	1.099	1.099	1.118	1.104	1.099
-0.005	-0.005	-0.010	0.000	-0.015	-0.010	0.029	1.763	1.099	1.099	1.094	1.118	1.113	1.113
-0.005	-0.010	0.000	-0.005	0.005	-0.034	0.029	1.807	1.104	1.099	1.094	1.118	1.118	1.113
0.000	-0.005	0.000	0.005	0.024	-0.005	0.029	1.777	1.104	1.099	1.099	1.118	1.123	1.123
-0.005	-0.010	-0.005	0.000	0.020	-0.010	0.029	1.807	1.108	1.099	1.099	1.118	1.118	1.118
0.000	-0.010	-0.005	0.000	0.010	0.010	0.029	1.772	1.108	1.104	1.099	1.113	1.113	1.123
0.000	-0.005	0.000	0.000	0.024	0.024	0.029	1.782	1.113	1.104	1.104	1.118	1.118	1.123
0.000	0.005	-0.005	0.000	0.020	0.005	0.024	1.758	1.108	1.108	1.104	1.118	1.118	1.118
0.005	0.015	0.010	0.000	0.020	0.015	0.024	1.772	1.113	1.113	1.108	1.118	1.118	1.118
0.000	0.015	-0.005	0.000	0.015	-0.010	0.029	1.782	1.104	1.113	1.108	1.123	1.113	1.113
0.000	0.020	0.005	0.000	0.029	0.010	0.024	1.782	1.108	1.113	1.108	1.123	1.123	1.118
-0.005	0.024	-0.005	0.000	0.034	0.010	0.029	1.792	1.108	1.108	1.108	1.123	1.123	1.118
0.000	0.010	0.000	-0.005	0.005	0.005	0.029	1.763	1.108	1.108	1.104	1.123	1.113	1.113
0.000	0.005	-0.005	-0.005	-0.010	0.010	0.029	1.787	1.104	1.104	1.104	1.123	1.108	1.118
-0.005	0.005	0.000	0.000	-0.015	-0.005	0.029	1.748	1.104	1.104	1.104	1.123	1.113	1.108
-0.005	-0.005	-0.005	0.000	-0.024	0.010	0.029	1.758	1.104	1.099	1.104	1.128	1.113	1.113
-0.005	-0.010	0.000	0.000	-0.020	0.005	0.029	1.738	1.099	1.099	1.104	1.123	1.118	1.113
0.005	0.000	0.000	-0.005	-0.015	0.005	0.029	1.772	1.108	1.099	1.099	1.118	1.118	1.108
-0.005	-0.010	-0.005	-0.005	-0.024	-0.010	0.029	1.792	1.108	1.099	1.099	1.118	1.113	1.108
0.000	-0.010	-0.005	0.000	-0.010	0.005	0.024	1.787	1.108	1.099	1.099	1.118	1.113	1.113
-0.010	-0.010	0.005	-0.005	-0.015	0.000	0.024	1.777	1.104	1.104	1.099	1.118	1.118	1.113
-0.005	-0.005	0.000	0.000	-0.015	-0.005	0.029	1.807	1.108	1.104	1.099	1.118	1.113	1.113
-0.005	-0.005	0.000	0.000	-0.015	-0.024	0.024	1.719	1.104	1.104	1.104	1.118	1.113	1.108
-0.005	0.005	0.000	0.000	-0.010	-0.005	0.029	1.753	1.099	1.104	1.104	1.118	1.118	1.113
0.000	0.000	0.000	0.005	-0.010	-0.015	0.029	1.787	1.104	1.104	1.104	1.123	1.113	1.113
0.000	-0.010	0.005	0.005	-0.005	-0.015	0.029	1.797	1.108	1.104	1.104	1.118	1.118	1.113
0.005	-0.005	-0.005	0.000	-0.005	-0.020	0.029	1.724	1.104	1.104	1.104	1.118	1.118	1.113
0.000	0.000	0.000	0.000	-0.010	-0.010	0.029	1.777	1.104	1.104	1.104	1.118	1.118	1.118
0.000	-0.005	0.000	-0.005	-0.005	0.000	0.024	1.782	1.123	1.104	1.104	1.123	1.118	1.123
0.005	-0.010	0.000	-0.005	-0.005	-0.010	0.024	1.748	1.118	1.104	1.104	1.123	1.118	1.113
-0.005	-0.005	-0.005	0.005	0.015	-0.005	0.029	1.763	1.113	1.108	1.104	1.123	1.123	1.118
-0.005	-0.005	0.005	-0.005	0.010	0.015	0.029	1.807	1.113	1.108	1.108	1.123	1.118	1.123
0.000	-0.005	0.000	0.000	0.010	0.005	0.029	1.733	1.108	1.104	1.104	1.123	1.123	1.123
-0.005	-0.010	0.000	0.000	-0.010	-0.005	0.029	1.748	1.104	1.104	1.104	1.123	1.113	1.113
-0.010	-0.010	-0.005	-0.005	-0.010	-0.010	0.029	1.797	1.104	1.099	1.104	1.123	1.113	1.113
-0.005	-0.010	-0.005	0.000	-0.005	0.024	0.029	1.753	1.099	1.104	1.104	1.123	1.118	1.123
-0.005	-0.005	0.005	-0.005	-0.010	0.020	0.029	1.792	1.104	1.104	1.104	1.123	1.113	1.113
0.005	-0.005	0.000	0.000	-0.010	0.015	0.024	1.782	1.108	1.104	1.104	1.118	1.118	1.118
-0.005	0.000	0.000	-0.005	0.024	0.015	0.029	1.792	1.113	1.108	1.104	1.123	1.128	1.118
0.000	0.005	0.000	0.000	0.039	0.005	0.029	1.777	1.108	1.108	1.108	1.123	1.128	1.118
-0.005	0.010	0.000	0.000	0.034	0.005	0.029	1.787	1.108	1.108	1.108	1.123	1.123	1.118
-0.005	0.020	0.000	-0.005	0.010	-0.015	0.029	1.787	1.108	1.113	1.108	1.123	1.113	1.113
-0.005	0.015	0.000	0.005	-0.005	0.000	0.029	1.738	1.113	1.113	1.108	1.128	1.118	1.113
0.010	0.015	-0.005	-0.005	-0.005	-0.005	0.029	1.802	1.113	1.108	1.108	1.123	1.113	1.113
0.010	0.005	0.000	0.000	-0.010	0.005	0.024	1.753	1.108	1.108	1.108	1.123	1.118	1.118
-0.005	-0.010	0.000	-0.005	0.005	0.000	0.029	1.802	1.108	1.104	1.104	1.128	1.118	1.113
0.000	-0.005	-0.005	0.000	0.015	-0.020	0.029	1.748	1.104	1.104	1.104	1.123	1.123	1.113
-0.005	-0.010	0.000	0.000	0.010	-0.015	0.029	1.772	1.104	1.104	1.104	1.123	1.123	1.113
-0.005	-0.010	0.000	0.000	0.010	0.005	0.029	1.792	1.104	1.104	1.104	1.123	1.118	1.118
0.000	-0.010	-0.005	0.000	0.005	-0.005	0.029	1.748	1.104	1.099	1.099	1.123	1.118	1.118
-0.005	-0.005	0.000	-0.005	0.000	0.010	0.029	1.772	1.108	1.104	1.104	1.123	1.113	1.118
-0.005	-0.020	-0.005	0.000	-0.005	0.005	0.029	1.772	1.104	1.094	1.099	1.118	1.113	1.118
-0.005	-0.024	-0.005	-0.005	-0.010	0.005	0.029	1.802	1.104	1.094	1.099	1.118	1.108	1.118
-0.005	-0.020	0.000	0.000	-0.015	0.005	0.029	1.792	1.108	1.099	1.099	1.118	1.113	1.113
0.005	-0.005	-0.005	0.000	-0.010	-0.010	0.024	1.777	1.108	1.104	1.099	1.118	1.108	1.113
0.005	-0.005	-0.005	0.000	-0.015	0.000	0.029	1.782	1.108	1.108	1.099	1.118	1.113	1.113
0.005	0.000	0.000	0.000	-0.010	0.005	0.029	1.758	1.108	1.108	1.104	1.123	1.118	1.113
0.000	0.020	-0.005	0.000	0.000	0.015	0.024	1.787	1.108	1.113	1.108	1.118	1.118	1.118
-0.005	0.029	-0.005	0.000	0.005	-0.005	0.029	1.812	1.108	1.113	1.108	1.123	1.118	1.113
0.000	0.015	-0.005	0.000	0.005	0.005	0.029	1.772	1.104	1.108	1.108	1.123	1.118	1.113
0.000	0.015	0.000	0.000	-0.005	-0.005	0.029	1.777	1.104	1.108	1.108	1.123	1.118	1.118
0.000	0.005	-0.005	0.000	-0.010	-0.010	0.029	1.743	1.104	1.104	1.104	1.123	1.118	1.113
0.000	0.000	-0.005	0.005	-0.005	-0.039	0.029	1.797	1.104	1.104	1.108	1.128	1.118	1.108
-0.005	-0.010	0.000	0.000	-0.010	-0.029	0.029	1.807	1.108	1.099	1.104	1.123	1.118	1.113
0.000	-0.010	0.000	-0.005	-0.010	-0.020	0.024	1.782	1.108	1.104	1.104	1.123	1.118	1.118
0.010	-0.015	0.000	0.000	-0.005	-0.005	0.029	1.753	1.108	1.104	1.104	1.123	1.118	1.123
-0.005	-0.005	0.000	0.000	-0.015	-0.015	0.024	1.802	1.108	1.104	1.104	1.123	1.118	1.118
-0.010	-0.005	0.000	0.000	-0.015	-0.015	0.029	1.826	1.108	1.104	1.099	1.123	1.118	1.113
-0.010	-0.005	0.000	0.000	-0.005	-0.005	0.024	1.768	1.108	1.108	1.104	1.118	1.118	1.123
0.000	0.005	0.005	-0.005	0.000	-0.010	0.029	1.753	1.113	1.113	1.104	1.123	1.118	1.118
-0.010	0.000	-0.005	-0.005	-0.020	0.005	0.029	1.768	1.108	1.108	1.104	1.118	1.113	1.123
0.000	0.010	-0.005	0.000	-0.020	0.005	0.029	1.748	1.108	1.113	1.104	1.123	1.118	1.118
-0.010	0.000	-0.005	0.000	-0.015	-0.010	0.029	1.758	1.104	1.108	1.104	1.123	1.113	1.113
-0.005	0.005	0.000	0.005	-0.039	0.005	0.029	1.787	1.108	1.108	1.108	1.123	1.113	1.118
-0.010	0.005	0.005	0.005	0.024	0.015	0.029	1.777	1.108	1.108	1.108	1.128	1.133	1.123
0.005	0.010	-0.005	0.000	0.059	0.000	0.029	1.792	1.113	1.108	1.108	1.128	1.138	1.128
0.000	-0.005	0.000	0.000	0.068	0.015	0.029	1.729	1.104	1.108	1.108	1.128	1.138	1.133
-0.005	0.000	0.000	-0.005	0.044	-0.005	0.029	1.797	1.118	1.108	1.108	1.128	1.128	1.123
0.000	0.000	0.000	0.000	-0.005	0.005	0.029	1.772	1.113	1.108	1.108	1.123	1.113	1.123
0.005	0.005	-0.005	0.010	-0.020	0.005	0.029	1.792	1.108	1.108	1.108	1.128	1.113	1.118
0.000	-0.005	0.000	0.000	-0.024	0.000	0.029	1.772	1.108	1.108	1.108	1.128	1.113	1.118
0.000	-0.005	0.000	-0.005	-0.010	0.005	0.029	1.777	1.108	1.108	1.108	1.123	1.118	1.118
-0.005	-0.005	0.000	-0.005	0.010	0.010	0.024	1.816	1.108	1.104	1.104	1.128	1.128	1.123
-0.005	-0.005	0.000	-0.005	0.024	-0.010	0.029	1.777	1.104	1.108	1.104	1.123	1.128	1.118
0.000	-0.015	-0.005	0.000	0.020	0.015	0.029	1.738	1.108	1.104	1.104	1.123	1.123	1.128
-0.005	0.000	0.000	0.000	0.000	0.010	0.029	1.782	1.108	1.104	1.104	1.123	1.113	1.118
-0.005	-0.010	0.000	-0.005	0.000	0.020	0.029	1.807	1.108	1.104	1.104	1.123	1.118	1.123
0.000	-0.010	0.000	0.000	-0.005	0.010	0.029	1.777	1.108	1.104	1.104	1.123	1.118	1.118
0.005	-0.015	-0.005	-0.005	-0.005	0.000	0.024	1.792	1.113	1.108	1.104	1.118	1.113	1.113
-0.010	-0.010	0.000	0.000	-0.005	0.000	0.024	1.782	1.108	1.108	1.104	1.123	1.118	1.113
0.010	0.005	-0.005	0.000	0.010	0.000	0.024	1.777	1.108	1.113	1.108	1.123	1.123	1.118
-0.005	0.005	0.000	0.000	0.005	-0.029	0.029	1.748	1.104	1.113	1.108	1.123	1.118	1.113
0.000	0.005	-0.005	0.000	-0.020	-0.015	0.029	1.787	1.108	1.108	1.108	1.123	1.113	1.113
0.000	0.000	-0.005	0.000	-0.029	-0.010	0.029	1.753	1.104	1.108	1.108	1.128	1.113	1.113
-0.005	0.000	0.000	0.000	-0.049	-0.005	0.029	1.768	1.104	1.104	1.108	1.128	1.108	1.113
-0.005	0.000	-0.005	0.000	-0.049	0.005	0.029	1.768	1.104	1.104	1.104	1.128	1.113	1.118
-0.005	-0.015	0.000	0.000	-0.010	0.015	0.029	1.709	1.099	1.099	1.104	1.128	1.128	1.123
-0.005	-0.005	0.005	0.000	0.000	-0.005	0.029	1.763	1.104	1.104	1.104	1.123	1.128	1.118
0.000	-0.005	0.000	0.000	-0.010	-0.005	0.029	1.802	1.108	1.104	1.104	1.123	1.123	1.118
-0.005	0.000	0.000	0.005	-0.015	-0.005	0.029	1.743	1.104	1.104	1.099	1.123	1.123	1.118
0.000	-0.010	0.005	0.000	0.005	-0.029	0.029	1.758	1.099	1.104	1.104	1.118	1.123	1.113
-0.010	0.000	-0.005	0.000	0.059	0.000	0.024	1.792	1.104	1.104	1.099	1.123	1.138	1.128
0.005	0.005	0.000	0.000	0.068	0.000	0.029	1.724	1.108	1.108	1.104	1.123	1.133	1.128
-0.005	0.000	-0.010	0.000	0.083	0.000	0.029	1.748	1.099	1.104	1.099	1.123	1.133	1.133
-0.005	0.005	-0.005	-0.005	0.078	0.005	0.029	1.777	1.104	1.104	1.104	1.123	1.123	1.128
0.005	0.000	0.000	-0.005	0.073	0.000	0.029	1.714	1.099	1.104	1.104	1.118	1.123	1.123
-0.005	0.005	-0.005	0.005	0.044	-0.024	0.029	1.772	1.099	1.104	1.099	1.123	1.113	1.113
0.005	0.000	0.000	0.000	0.005	-0.010	0.029	1.758	1.104	1.104	1.104	1.118	1.104	1.113
0.000	0.010	0.000	-0.005	-0.024	0.000	0.024	1.802	1.108	1.104	1.104	1.118	1.099	1.108
0.000	0.010	-0.005	0.000	-0.020	0.010	0.029	1.792	1.108	1.104	1.104	1.123	1.108	1.108
0.005	-0.005	0.000	0.000	-0.020	0.005	0.029	1.748	1.108	1.104	1.104	1.123	1.108	1.108
-0.005	-0.005	0.000	-0.005	-0.044	0.000	0.029	1.787	1.113	1.104	1.104	1.123	1.104	1.108
-0.005	-0.010	0.000	-0.005	-0.059	0.005	0.029	1.763	1.113	1.104	1.099	1.118	1.104	1.108
0.000	0.000	0.000	0.000	-0.049	-0.005	0.029	1.758	1.113	1.113	1.104	1.118	1.108	1.099
0.000	0.010	0.000	0.000	-0.029	0.010	0.024	1.807	1.108	1.108	1.104	1.123	1.118	1.108
0.000	-0.005	-0.005	-0.005	-0.020	0.005	0.029	1.772	1.113	1.104	1.104	1.123	1.118	1.113
-0.005	0.000	-0.005	0.000	-0.015	-0.015	0.029	1.787	1.108	1.108	1.108	1.123	1.118	1.108
-0.005	-0.010	0.000	-0.005	0.000	-0.010	0.029	1.797	1.108	1.104	1.104	1.123	1.123	1.113
-0.005	0.000	0.000	0.000	-0.010	0.000	0.029	1.763	1.104	1.108	1.108	1.123	1.123	1.123
-0.005	-0.015	0.000	-0.005	-0.010	0.010	0.024	1.807	1.108	1.099	1.104	1.123	1.118	1.118
-0.005	0.010	0.005	0.000	-0.010	0.000	0.029	1.802	1.108	1.108	1.104	1.123	1.118	1.118
-0.005	0.010	0.000	0.000	-0.015	0.005	0.024	1.758	1.108	1.108	1.104	1.123	1.118	1.118
0.005	0.015	0.000	0.000	-0.010	0.000	0.029	1.787	1.108	1.108	1.108	1.123	1.118	1.118
-0.005	0.015	0.000	0.000	-0.015	-0.020	0.029	1.738	1.104	1.108	1.108	1.123	1.118	1.113
-0.005	0.010	0.000	-0.005	-0.010	0.010	0.029	1.797	1.108	1.104	1.104	1.123	1.118	1.123
0.005	0.000	0.000	0.000	-0.010	0.000	0.029	1.743	1.104	1.104	1.104	1.123	1.123	1.118
0.010	0.000	0.000	0.005	-0.005	0.000	0.029	1.753	1.108	1.104	1.104	1.123	1.123	1.118
0.000	0.000	0.000	0.000	-0.005	-0.005	0.029	1.743	1.104	1.104	1.104	1.123	1.123	1.118
0.000	0.000	0.000	0.000	-0.005	0.000	0.029	1.807	1.108	1.104	1.104	1.123	1.123	1.118
0.005	-0.005	-0.005	0.000	0.000	0.000	0.029	1.797	1.108	1.104	1.104	1.123	1.123	1.123
-0.005	-0.005	0.000	0.000	0.000	0.000	0.029	1.772	1.113	1.104	1.104	1.123	1.123	1.118
-0.005	-0.010	-0.005	0.000	0.005	-0.020	0.029	1.812	1.113	1.104	1.104	1.123	1.118	1.113
-0.005	-0.005	0.000	0.000	0.005	0.010	0.024	1.768	1.108	1.108	1.104	1.123	1.118	1.123
0.000	-0.010	0.005	-0.005	0.005	0.010	0.029	1.709	1.108	1.108	1.104	1.123	1.123	1.123
-0.005	-0.015	0.000	-0.005	0.005	0.005	0.029	1.807	1.104	1.104	1.104	1.123	1.118	1.118
0.005	0.005	0.000	0.000	0.000	-0.005	0.029	1.758	1.108	1.108	1.104	1.123	1.118	1.118
0.005	0.000	-0.005	0.000	0.000	-0.010	0.029	1.772	1.104	1.104	1.104	1.123	1.118	1.113
0.000	0.000	0.000	-0.005	0.000	-0.010	0.029	1.782	1.104	1.104	1.104	1.123	1.113	1.113
0.000	0.000	0.000	0.000	0.000	0.005	0.029	1.768	1.104	1.104	1.104	1.123	1.118	1.113
0.005	0.000	0.000	0.000	0.000	0.005	0.029	1.768	1.104	1.104	1.104	1.118	1.118	1.118
0.005	0.000	0.000	-0.005	-0.005	0.000	0.029	1.787	1.108	1.108	1.104	1.123	1.118	1.118
0.000	0.005	0.000	-0.005	0.000	-0.010	0.024	1.787	1.108	1.104	1.108	1.123	1.118	1.113
0.010	0.010	-0.005	0.000	0.000	0.000	0.024	1.738	1.104	1.108	1.104	1.123	1.123	1.118
0.000	0.005	0.000	-0.005	0.000	-0.015	0.029	1.792	1.108	1.104	1.108	1.123	1.118	1.118
-0.010	-0.005	0.000	-0.005	0.005	-0.005	0.029	1.753	1.118	1.104	1.104	1.123	1.118	1.118
-0.005	-0.005	0.000	0.000	0.000	-0.020	0.029	1.748	1.108	1.104	1.099	1.123	1.123	1.118
-0.010	-0.005	-0.005	0.000	0.005	-0.005	0.029	1.772	1.108	1.104	1.104	1.123	1.123	1.123
-0.010	-0.005	-0.005	0.000	0.000	0.010	0.029	1.792	1.113	1.104	1.104	1.123	1.118	1.123
0.000	-0.010	-0.005	0.000	0.010	-0.005	0.024	1.782	1.113	1.104	1.104	1.123	1.118	1.118
-0.005	-0.010	-0.005	0.000	0.005	0.005	0.024	1.743	1.104	1.108	1.104	1.123	1.118	1.123
0.000	-0.005	0.005	0.000	-0.005	0.005	0.029	1.777	1.108	1.104	1.108	1.123	1.118	1.118
-0.005	0.000	0.000	0.000	0.000	0.010	0.024	1.797	1.099	1.104	1.104	1.123	1.118	1.118
-0.005	-0.010	0.000	0.000	0.000	0.005	0.024	1.807	1.104	1.104	1.099	1.123	1.118	1.113
-0.005	-0.010	0.000	-0.005	0.000	-0.010	0.024	1.797	1.104	1.104	1.104	1.118	1.118	1.113
-0.005	0.000	-0.005	-0.005	-0.005	0.005	0.024	1.802	1.108	1.104	1.099	1.118	1.118	1.113
-0.010	0.000	-0.005	0.000	0.005	0.005	0.029	1.787	1.108	1.104	1.104	1.123	1.118	1.118
0.010	-0.010	0.000	0.000	0.000	0.005	0.029	1.763	1.108	1.108	1.104	1.123	1.118	1.118
0.000	0.000	0.000	0.000	-0.005	-0.015	0.029	1.787	1.113	1.108	1.104	1.123	1.118	1.108
0.005	0.005	-0.010	0.000	0.000	-0.005	0.029	1.782	1.113	1.108	1.108	1.123	1.113	1.113
0.005	0.005	0.000	0.000	-0.005	0.005	0.029	1.729	1.108	1.113	1.108	1.123	1.118	1.118
0.005	0.000	-0.005	-0.005	0.005	0.000	0.024	1.772	1.108	1.108	1.108	1.123	1.118	1.118
-0.010	0.005	0.000	0.000	-0.005	0.010	0.024	1.787	1.104	1.108	1.108	1.128	1.118	1.123
0.010	0.005	-0.005	0.000	-0.005	0.000	0.029	1.758	1.113	1.108	1.108	1.123	1.118	1.118
-0.005	-0.029	-0.005	0.000	0.005	-0.005	0.029	1.753	1.104	1.099	1.104	1.123	1.123	1.113
-0.005	-0.020	-0.005	0.000	0.005	0.000	0.029	1.743	1.099	1.099	1.104	1.123	1.123	1.118
-0.005	-0.020	-0.005	0.000	0.005	0.000	0.029	1.782	1.099	1.099	1.104	1.123	1.118	1.118
-0.005	-0.015	0.000	0.000	0.005	0.000	0.029	1.758	1.104	1.104	1.104	1.123	1.118	1.118
-0.005	-0.010	-0.005	0.005	-0.005	0.000	0.029	1.758	1.108	1.104	1.099	1.123	1.118	1.118
0.000	-0.005	-0.005	0.000	0.000	0.000	0.024	1.753	1.104	1.104	1.099	1.123	1.118	1.118
-0.010	0.005	-0.005	0.000	-0.005	-0.015	0.029	1.772	1.099	1.104	1.099	1.123	1.113	1.108
0.000	0.015	0.005	0.005	-0.020	-0.005	0.029	1.807	1.108	1.108	1.104	1.123	1.108	1.113
0.005	0.000	-0.005	0.000	-0.005	-0.005	0.029	1.743	1.108	1.104	1.104	1.118	1.118	1.113
0.010	0.005	0.000	0.000	-0.005	0.005	0.029	1.792	1.108	1.104	1.108	1.123	1.118	1.118
0.000	0.005	0.010	-0.005	0.000	0.005	0.029	1.797	1.108	1.104	1.104	1.123	1.118	1.118
0.000	0.000	0.000	0.000	-0.005	-0.005	0.029	1.758	1.108	1.108	1.104	1.123	1.118	1.118
0.000	0.020	-0.005	-0.005	0.005	-0.015	0.024	1.787	1.104	1.108	1.108	1.123	1.118	1.113
0.000	0.024	0.000	-0.005	0.000	0.000	0.024	1.768	1.104	1.113	1.108	1.123	1.118	1.118
0.000	0.015	0.000	-0.005	0.010	0.005	0.024	1.787	1.108	1.104	1.108	1.128	1.123	1.123
-0.005	0.015	-0.005	0.000	0.010	0.000	0.029	1.787	1.104	1.108	1.104	1.128	1.123	1.118
-0.015	0.000	0.000	-0.005	0.000	0.000	0.029	1.792	1.104	1.099	1.104	1.123	1.118	1.113
-0.005	-0.005	-0.005	0.000	0.015	0.005	0.029	1.802	1.133	1.104	1.104	1.128	1.123	1.123
0.000	-0.005	-0.005	-0.005	0.024	0.005	0.029	1.777	1.123	1.108	1.104	1.123	1.123	1.123
-0.005	0.000	-0.005	-0.005	0.010	0.005	0.029	1.797	1.118	1.113	1.104	1.123	1.118	1.118
-0.005	-0.005	0.000	0.000	0.005	0.000	0.029	1.753	1.113	1.113	1.108	1.123	1.118	1.118
0.000	-0.010	-0.005	-0.005	0.024	0.000	0.029	1.768	1.113	1.108	1.104	1.123	1.123	1.118
0.000	-0.010	0.010	-0.005	0.005	-0.010	0.029	1.777	1.113	1.113	1.108	1.123	1.113	1.113
0.010	-0.010	0.000	0.000	0.000	-0.039	0.029	1.763	1.108	1.108	1.108	1.128	1.113	1.104
-0.010	-0.005	-0.005	0.000	0.000	-0.010	0.024	1.797	1.104	1.108	1.108	1.123	1.118	1.118
-0.005	-0.005	-0.005	0.000	-0.010	-0.015	0.024	1.772	1.104	1.108	1.104	1.123	1.113	1.113
0.005	0.020	0.000	-0.005	-0.029	-0.010	0.029	1.797	1.104	1.113	1.108	1.128	1.113	1.113
-0.005	0.015	-0.010	-0.005	-0.044	-0.020	0.029	1.709	1.104	1.108	1.108	1.123	1.108	1.113
-0.005	0.015	-0.005	0.000	-0.024	-0.005	0.029	1.758	1.108	1.108	1.108	1.123	1.118	1.118
-0.005	0.010	-0.005	0.005	-0.020	0.000	0.029	1.763	1.104	1.108	1.108	1.128	1.123	1.118
-0.005	0.005	-0.005	0.000	-0.020	0.024	0.029	1.792	1.108	1.104	1.108	1.128	1.123	1.128
0.005	0.000	-0.005	-0.005	-0.039	0.015	0.029	1.782	1.113	1.104	1.104	1.128	1.118	1.118
0.005	-0.005	0.000	0.000	-0.029	0.010	0.029	1.787	1.113	1.108	1.104	1.128	1.123	1.123
0.010	-0.005	0.000	-0.005	0.029	0.015	0.029	1.782	1.113	1.108	1.104	1.128	1.138	1.128
0.000	-0.005	0.000	0.000	0.073	0.010	0.029	1.787	1.113	1.108	1.108	1.128	1.143	1.133
0.000	-0.010	0.005	0.000	0.054	0.005	0.029	1.719	1.108	1.108	1.108	1.128	1.133	1.133
-0.005	-0.005	0.000	0.000	0.044	0.000	0.024	1.792	1.108	1.108	1.104	1.128	1.128	1.128
-0.005	-0.010	0.000	0.000	0.024	-0.005	0.029	1.724	1.099	1.104	1.104	1.123	1.123	1.118
-0.010	-0.005	0.000	0.000	0.024	-0.010	0.029	1.787	1.099	1.104	1.108	1.128	1.118	1.123
-0.010	0.005	-0.005	0.000	0.015	-0.005	0.029	1.758	1.104	1.104	1.104	1.123	1.118	1.118
-0.005	0.000	-0.005	-0.005	0.000	-0.005	0.029	1.787	1.104	1.099	1.104	1.118	1.108	1.118
0.005	-0.005	0.000	0.000	-0.015	-0.020	0.029	1.758	1.104	1.104	1.104	1.123	1.108	1.108
0.000	0.000	-0.005	-0.005	-0.015	0.005	0.024	1.782	1.108	1.104	1.104	1.118	1.108	1.118
0.000	-0.010	0.000	0.000	-0.024	-0.005	0.024	1.748	1.099	1.099	1.104	1.118	1.113	1.113
-0.005	0.000	0.000	-0.005	-0.020	-0.005	0.029	1.792	1.108	1.104	1.104	1.123	1.113	1.108
-0.005	0.010	0.005	-0.005	-0.010	-0.010	0.029	1.792	1.108	1.108	1.104	1.123	1.113	1.113
-0.005	0.000	0.005	-0.005	-0.020	0.005	0.024	1.802	1.108	1.108	1.104	1.123	1.118	1.113
-0.010	0.000	0.000	-0.005	-0.029	0.005	0.029	1.768	1.108	1.104	1.104	1.123	1.113	1.118
-0.010	0.005	0.005	-0.005	-0.029	0.005	0.029	1.772	1.108	1.104	1.104	1.123	1.113	1.113
-0.005	-0.005	-0.005	0.005	-0.020	0.015	0.029	1.787	1.108	1.104	1.104	1.123	1.118	1.118
-0.020	0.005	0.000	0.000	0.000	0.000	0.029	1.763	1.104	1.104	1.104	1.123	1.123	1.118
0.000	-0.010	0.005	-0.005	0.015	0.010	0.029	1.709	1.108	1.104	1.104	1.118	1.128	1.123
0.010	-0.024	-0.005	-0.010	0.020	0.005	0.029	1.782	1.104	1.094	1.099	1.118	1.123	1.123
0.000	-0.015	0.000	-0.005	0.024	0.000	0.029	1.768	1.104	1.099	1.099	1.123	1.123	1.118
0.015	-0.015	0.000	-0.005	0.010	0.000	0.029	1.729	1.104	1.099	1.099	1.118	1.113	1.118
0.010	-0.010	-0.005	-0.005	0.005	-0.024	0.029	1.777	1.104	1.104	1.099	1.118	1.113	1.108
0.005	0.000	-0.005	-0.010	-0.005	0.005	0.029	1.743	1.099	1.104	1.099	1.113	1.108	1.118
0.010	-0.005	0.000	-0.010	-0.020	0.000	0.029	1.782	1.099	1.099	1.099	1.118	1.108	1.113
0.005	0.000	-0.005	0.000	-0.015	-0.010	0.029	1.777	1.099	1.099	1.099	1.118	1.108	1.108
0.005	-0.005	0.000	-0.005	-0.005	-0.029	0.029	1.768	1.113	1.104	1.099	1.118	1.113	1.104
0.010	0.000	0.000	0.000	0.005	-0.020	0.029	1.797	1.113	1.108	1.099	1.118	1.118	1.113
0.015	0.005	0.005	0.005	0.015	0.005	0.029	1.719	1.108	1.108	1.104	1.123	1.123	1.123
0.005	0.005	0.000	0.010	0.010	-0.005	0.029	1.802	1.108	1.104	1.104	1.123	1.118	1.118
0.005	0.000	0.000	0.010	0.010	0.000	0.029	1.802	1.113	1.104	1.108	1.123	1.118	1.118
0.000	0.000	0.005	0.005	-0.005	-0.005	0.024	1.777	1.113	1.104	1.104	1.123	1.113	1.113
-0.010	-0.015	0.005	0.010	-0.010	0.000	0.029	1.743	1.094	1.099	1.104	1.123	1.118	1.118
-0.039	0.000	0.000	0.005	-0.005	0.005	0.029	1.807	1.099	1.099	1.104	1.123	1.118	1.118
-0.034	0.000	0.005	0.005	0.000	0.005	0.029	1.797	1.104	1.104	1.104	1.123	1.118	1.118
-0.029	-0.010	-0.005	0.015	0.000	-0.024	0.024	1.787	1.104	1.099	1.099	1.123	1.118	1.108
-0.024	-0.015	0.000	0.024	0.000	0.005	0.029	1.797	1.104	1.099	1.099	1.123	1.118	1.118
-0.020	0.000	0.000	0.010	0.000	0.010	0.029	1.792	1.113	1.104	1.099	1.118	1.118	1.118
0.000	0.010	-0.005	0.000	-0.005	0.005	0.029	1.772	1.108	1.108	1.104	1.113	1.113	1.118
0.020	0.024	-0.005	-0.015	-0.005	-0.005	0.029	1.807	1.123	1.118	1.108	1.113	1.108	1.113
0.015	0.005	-0.005	-0.020	-0.005	-0.005	0.029	1.743	1.108	1.108	1.104	1.113	1.113	1.113
0.020	0.000	-0.005	-0.034	-0.005	0.010	0.024	1.816	1.113	1.108	1.108	1.113	1.108	1.113
0.024	0.005	-0.005	-0.029	-0.005	0.010	0.029	1.777	1.113	1.108	1.104	1.118	1.108	1.113
0.015	0.000	0.005	-0.015	-0.010	0.000	0.029	1.758	1.104	1.108	1.108	1.123	1.113	1.108
0.000	-0.005	0.000	-0.005	-0.005	-0.024	0.029	1.802	1.104	1.104	1.104	1.128	1.113	1.104
0.000	-0.005	0.000	0.020	-0.005	-0.005	0.029	1.758	1.104	1.104	1.108	1.133	1.118	1.113
0.000	-0.005	-0.005	0.029	-0.005	-0.005	0.024	1.807	1.108	1.104	1.104	1.133	1.123	1.118
0.010	-0.010	-0.005	0.029	-0.005	0.000	0.029	1.768	1.104	1.104	1.104	1.133	1.128	1.118
-0.010	-0.005	0.000	0.020	0.000	0.005	0.024	1.792	1.108	1.104	1.104	1.128	1.128	1.123
0.000	-0.015	-0.005	0.020	-0.005	0.000	0.029	1.768	1.108	1.104	1.104	1.123	1.118	1.118
-0.010	-0.005	0.000	0.000	-0.005	0.005	0.029	1.787	1.108	1.108	1.104	1.118	1.123	1.123
0.000	0.000	-0.005	-0.005	0.000	0.005	0.024	1.787	1.113	1.108	1.104	1.118	1.118	1.118
-0.005	-0.010	0.000	-0.005	0.000	-0.010	0.029	1.729	1.104	1.104	1.104	1.118	1.118	1.118
-0.005	-0.005	0.000	0.000	0.005	0.005	0.024	1.782	1.108	1.104	1.108	1.123	1.118	1.123
-0.005	-0.005	0.000	0.005	0.010	0.000	0.029	1.748	1.104	1.104	1.104	1.123	1.118	1.118
-0.005	-0.005	0.000	-0.005	0.000	0.015	0.024	1.792	1.108	1.104	1.104	1.118	1.113	1.118
0.000	-0.010	0.000	-0.024	-0.005	0.005	0.029	1.738	1.104	1.104	1.099	1.113	1.113	1.113
-0.015	0.000	-0.005	-0.039	-0.034	0.010	0.029	1.777	1.104	1.099	1.104	1.108	1.104	1.108
0.000	0.010	-0.005	-0.029	-0.039	-0.024	0.024	1.768	1.104	1.104	1.099	1.113	1.104	1.104
-0.015	0.010	0.000	-0.020	-0.068	-0.020	0.029	1.792	1.104	1.104	1.104	1.123	1.094	1.099
-0.015	0.010	-0.005	0.000	-0.088	-0.015	0.029	1.743	1.094	1.104	1.104	1.123	1.099	1.099
-0.039	0.005	0.000	0.005	-0.054	-0.034	0.029	1.768	1.094	1.094	1.104	1.123	1.113	1.099
-0.049	0.005	-0.005	0.010	-0.039	-0.020	0.024	1.807	1.099	1.094	1.099	1.128	1.118	1.108
-0.029	0.010	0.000	0.010	-0.034	-0.010	0.024	1.777	1.104	1.099	1.099	1.128	1.123	1.113
-0.005	0.010	0.000	0.015	-0.034	-0.010	0.024	1.797	1.108	1.104	1.104	1.123	1.123	1.118
0.010	-0.005	0.000	0.024	0.005	0.010	0.029	1.743	1.099	1.104	1.104	1.128	1.133	1.133
0.029	-0.005	-0.005	0.029	0.059	0.015	0.029	1.768	1.108	1.104	1.104	1.128	1.147	1.138
0.034	-0.005	0.000	0.015	0.054	0.020	0.024	1.792	1.113	1.099	1.099	1.123	1.133	1.138
0.024	-0.005	-0.005	0.010	0.024	0.020	0.029	1.782	1.108	1.104	1.099	1.118	1.123	1.133
0.005	-0.010	0.000	0.005	0.039	0.005	0.029	1.748	1.099	1.099	1.104	1.118	1.123	1.128
0.000	-0.015	-0.005	0.000	0.117	0.000	0.029	1.714	1.094	1.099	1.099	1.118	1.143	1.128
0.015	-0.010	0.000	-0.010	0.132	0.000	0.029	1.729	1.099	1.099	1.099	1.113	1.138	1.133
0.020	-0.020	-0.005	-0.015	0.171	-0.005	0.029	1.782	1.108	1.094	1.094	1.113	1.143	1.133
0.020	-0.015	-0.005	-0.020	0.137	-0.015	0.029	1.782	1.108	1.099	1.099	1.113	1.118	1.128
0.020	-0.015	-0.005	-0.020	0.068	-0.020	0.024	1.758	1.113	1.104	1.094	1.113	1.099	1.118
0.020	0.005	-0.005	-0.015	0.098	0.015	0.024	1.768	1.113	1.108	1.099	1.118	1.108	1.123
0.015	-0.005	0.000	-0.010	0.098	0.000	0.029	1.777	1.108	1.108	1.104	1.118	1.113	1.113
0.000	0.005	-0.005	-0.010	0.083	0.020	0.029	1.787	1.108	1.108	1.104	1.123	1.108	1.118
-0.015	0.000	0.000	0.000	0.020	0.010	0.029	1.733	1.099	1.104	1.104	1.123	1.094	1.108
-0.020	-0.005	0.000	0.010	-0.059	0.010	0.029	1.743	1.099	1.104	1.104	1.123	1.079	1.099
-0.020	0.010	-0.005	-0.005	-0.103	0.005	0.029	1.797	1.104	1.108	1.104	1.118	1.079	1.094
-0.029	0.005	0.005	-0.010	-0.112	0.010	0.029	1.787	1.099	1.104	1.104	1.118	1.084	1.089
-0.010	0.010	0.000	-0.015	-0.107	-0.010	0.029	1.787	1.099	1.104	1.104	1.118	1.094	1.089
-0.010	-0.010	0.005	-0.015	-0.093	0.015	0.024	1.743	1.099	1.099	1.099	1.118	1.104	1.099
-0.005	0.000	0.000	-0.015	-0.083	0.015	0.029	1.782	1.113	1.104	1.099	1.118	1.108	1.099
0.005	-0.010	0.000	-0.015	-0.073	0.015	0.029	1.782	1.108	1.104	1.104	1.118	1.113	1.104
0.000	0.005	0.000	-0.015	-0.039	0.015	0.029	1.772	1.108	1.104	1.104	1.123	1.123	1.108
0.000	0.000	0.000	-0.010	-0.024	0.000	0.029	1.777	1.099	1.104	1.104	1.118	1.123	1.108
0.005	-0.005	0.000	-0.005	-0.020	-0.005	0.024	1.787	1.113	1.104	1.104	1.123	1.123	1.108
0.010	0.000	-0.005	0.000	-0.024	-0.015	0.029	1.753	1.108	1.108	1.104	1.123	1.118	1.108
0.010	0.000	0.000	0.005	-0.015	-0.029	0.029	1.812	1.108	1.108	1.104	1.128	1.123	1.108
-0.010	0.005	0.000	0.020	-0.020	-0.044	0.029	1.787	1.099	1.104	1.104	1.128	1.123	1.108
-0.029	0.010	0.000	0.020	-0.015	-0.020	0.029	1.748	1.094	1.104	1.104	1.123	1.123	1.118
-0.029	0.015	-0.005	0.015	-0.015	-0.024	0.024	1.777	1.099	1.099	1.099	1.123	1.123	1.118
-0.020	0.000	0.005	0.015	-0.015	-0.020	0.029	1.782	1.104	1.099	1.104	1.123	1.123	1.123
-0.024	0.015	0.000	0.020	-0.015	-0.010	0.029	1.831	1.113	1.104	1.104	1.128	1.123	1.123
-0.005	0.010	-0.005	0.024	-0.015	-0.010	0.029	1.753	1.113	1.108	1.104	1.123	1.123	1.123
0.020	0.010	0.000	0.015	-0.015	-0.010	0.029	1.787	1.123	1.113	1.108	1.123	1.123	1.123
0.029	0.010	0.000	0.005	-0.010	-0.010	0.029	1.704	1.108	1.113	1.104	1.118	1.123	1.123
0.024	0.010	-0.005	0.000	0.005	0.000	0.029	1.787	1.113	1.108	1.108	1.123	1.123	1.123
0.020	0.000	-0.005	-0.010	-0.005	0.005	0.024	1.787	1.113	1.108	1.108	1.123	1.118	1.123
0.020	0.000	-0.005	-0.010	0.000	0.005	0.029	1.792	1.108	1.108	1.108	1.123	1.118	1.123
0.015	-0.005	-0.005	-0.015	-0.005	0.000	0.029	1.768	1.104	1.104	1.108	1.123	1.113	1.118
0.000	0.000	-0.005	-0.005	0.005	0.005	0.029	1.743	1.099	1.108	1.108	1.123	1.118	1.123
-0.005	-0.005	0.005	0.005	-0.005	0.005	0.029	1.768	1.099	1.099	1.104	1.128	1.118	1.118
0.000	-0.005	0.000	-0.005	0.000	0.005	0.029	1.807	1.104	1.099	1.104	1.123	1.118	1.118
-0.020	-0.010	0.000	-0.010	0.005	0.005	0.029	1.743	1.099	1.099	1.099	1.118	1.118	1.118
-0.005	0.005	-0.005	-0.020	0.010	-0.015	0.029	1.802	1.108	1.104	1.104	1.118	1.118	1.113
-0.020	0.000	-0.005	-0.020	0.010	0.010	0.029	1.753	1.108	1.099	1.099	1.118	1.118	1.118
-0.015	0.005	-0.005	-0.020	0.005	0.005	0.029	1.787	1.104	1.104	1.104	1.118	1.113	1.118
-0.020	-0.005	-0.005	-0.015	0.005	0.000	0.029	1.748	1.104	1.099	1.099	1.123	1.118	1.113
-0.015	-0.005	-0.005	0.000	0.005	-0.005	0.029	1.733	1.104	1.104	1.099	1.123	1.118	1.113
-0.005	0.005	0.000	0.005	0.010	0.000	0.029	1.768	1.113	1.104	1.104	1.123	1.118	1.118
-0.005	-0.010	0.000	0.010	0.000	0.005	0.029	1.758	1.104	1.099	1.099	1.128	1.118	1.118
-0.005	0.000	0.000	0.015	0.010	0.000	0.029	1.807	1.104	1.104	1.104	1.123	1.123	1.118
0.005	-0.005	0.000	0.015	0.005	0.005	0.024	1.768	1.108	1.108	1.104	1.123	1.118	1.118
-0.005	0.000	-0.005	0.010	0.010	-0.005	0.029	1.807	1.113	1.104	1.104	1.123	1.123	1.113
0.005	0.000	-0.005	0.005	0.005	0.000	0.029	1.772	1.108	1.108	1.104	1.123	1.118	1.118
-0.005	-0.015	0.005	0.000	0.000	0.005	0.029	1.777	1.104	1.104	1.104	1.123	1.118	1.118
-0.005	-0.010	-0.005	0.005	0.005	0.000	0.029	1.782	1.108	1.104	1.099	1.118	1.113	1.118
0.010	-0.010	-0.005	0.000	0.005	-0.005	0.029	1.787	1.108	1.104	1.104	1.118	1.113	1.113
0.015	-0.015	0.000	0.010	0.000	-0.005	0.029	1.787	1.108	1.104	1.104	1.123	1.118	1.113
0.000	-0.005	0.005	0.015	0.005	0.000	0.024	1.792	1.104	1.104	1.108	1.128	1.118	1.118
0.020	-0.010	-0.005	0.010	0.000	-0.015	0.029	1.782	1.108	1.108	1.104	1.118	1.113	1.113
0.000	-0.020	0.000	0.000	0.000	0.000	0.029	1.768	1.108	1.099	1.104	1.118	1.118	1.118
0.005	-0.015	0.000	-0.005	0.000	-0.020	0.029	1.763	1.104	1.104	1.104	1.113	1.113	1.108
0.005	-0.010	0.005	-0.015	0.000	0.005	0.024	1.792	1.104	1.104	1.104	1.118	1.113	1.118
0.010	0.000	-0.005	-0.015	0.000	0.005	0.029	1.797	1.108	1.108	1.104	1.118	1.113	1.118
0.000	0.010	-0.005	-0.010	-0.005	0.005	0.029	1.782	1.108	1.108	1.104	1.123	1.113	1.113
0.005	0.010	0.000	-0.005	0.005	0.005	0.029	1.748	1.104	1.108	1.108	1.123	1.118	1.118
-0.005	0.010	-0.005	0.000	0.005	0.000	0.029	1.802	1.104	1.108	1.104	1.123	1.118	1.113
-0.005	0.010	0.000	0.015	0.000	-0.020	0.024	1.792	1.104	1.104	1.108	1.128	1.118	1.108
-0.029	0.000	0.000	0.015	-0.005	0.005	0.029	1.729	1.089	1.099	1.104	1.128	1.123	1.118
-0.044	0.000	0.000	0.000	0.005	-0.010	0.024	1.802	1.094	1.094	1.104	1.123	1.123	1.118
-0.020	-0.005	-0.005	-0.010	0.005	0.000	0.024	1.733	1.094	1.094	1.099	1.118	1.118	1.118
-0.005	-0.005	0.000	-0.024	0.010	0.000	0.029	1.812	1.104	1.094	1.099	1.113	1.118	1.113
0.005	0.000	-0.010	-0.020	0.010	0.005	0.024	1.797	1.113	1.104	1.099	1.113	1.113	1.118
0.024	0.005	0.000	-0.029	-0.005	0.005	0.029	1.768	1.113	1.108	1.099	1.113	1.108	1.113
0.024	-0.005	0.000	-0.024	0.000	0.000	0.029	1.768	1.108	1.104	1.099	1.113	1.108	1.113
0.024	0.000	-0.005	-0.010	0.005	0.000	0.029	1.743	1.104	1.104	1.099	1.118	1.113	1.113
0.000	-0.015	-0.005	-0.005	0.005	-0.020	0.029	1.812	1.104	1.099	1.099	1.123	1.113	1.104
-0.005	-0.005	0.000	0.010	-0.024	0.010	0.024	1.802	1.104	1.099	1.099	1.123	1.108	1.113
-0.010	0.005	0.000	0.010	-0.029	0.005	0.029	1.772	1.099	1.099	1.099	1.123	1.113	1.113
0.000	0.000	-0.005	0.015	-0.034	0.000	0.024	1.763	1.108	1.104	1.099	1.123	1.113	1.108
-0.010	0.005	0.000	0.024	-0.034	0.000	0.029	1.787	1.104	1.104	1.099	1.123	1.113	1.113
-0.005	0.005	0.005	0.049	-0.044	0.010	0.024	1.748	1.108	1.104	1.104	1.128	1.118	1.113
-0.005	0.010	0.000	0.044	-0.049	0.005	0.029	1.777	1.108	1.108	1.104	1.128	1.118	1.108
-0.005	0.010	0.000	0.029	-0.039	0.000	0.029	1.763	1.104	1.108	1.108	1.118	1.118	1.113
-0.010	0.005	0.000	0.010	0.015	0.000	0.029	1.787	1.108	1.108	1.104	1.118	1.133	1.118
-0.010	0.000	-0.005	-0.029	0.059	-0.005	0.029	1.797	1.108	1.104	1.104	1.108	1.133	1.128
-0.005	-0.010	-0.005	-0.049	0.063	0.000	0.029	1.787	1.108	1.099	1.099	1.108	1.123	1.128
-0.005	0.015	-0.005	-0.049	0.073	-0.005	0.029	1.787	1.113	1.113	1.104	1.113	1.123	1.123
-0.005	0.000	0.000	-0.020	0.068	0.000	0.029	1.782	1.113	1.108	1.104	1.123	1.123	1.123
0.010	0.000	-0.005	0.000	0.054	-0.005	0.029	1.772	1.113	1.108	1.108	1.128	1.118	1.118
0.000	0.005	0.005	0.005	0.059	-0.005	0.029	1.743	1.113	1.108	1.108	1.128	1.123	1.118
-0.005	-0.005	0.010	0.010	0.059	-0.015	0.029	1.816	1.113	1.108	1.108	1.128	1.118	1.113
0.005	0.005	0.005	0.010	0.044	-0.005	0.029	1.743	1.108	1.113	1.108	1.128	1.118	1.123
0.005	0.000	0.005	0.005	0.010	0.005	0.024	1.792	1.104	1.104	1.108	1.123	1.108	1.118
-0.005	0.000	0.005	-0.005	-0.020	0.000	0.029	1.782	1.108	1.108	1.104	1.123	1.104	1.113
-0.005	-0.005	0.000	-0.015	-0.034	0.005	0.024	1.787	1.108	1.104	1.104	1.118	1.104	1.113
0.005	0.010	0.000	-0.020	-0.020	0.015	0.029	1.719	1.099	1.108	1.104	1.118	1.108	1.113
0.000	0.000	0.000	-0.020	-0.020	0.000	0.029	1.787	1.099	1.104	1.104	1.123	1.108	1.108
-0.005	0.005	0.000	-0.005	-0.034	0.015	0.029	1.729	1.094	1.104	1.104	1.123	1.108	1.113
-0.005	0.010	-0.005	0.005	-0.054	0.015	0.029	1.816	1.104	1.099	1.104	1.128	1.108	1.108
-0.005	0.000	-0.005	0.020	-0.039	0.010	0.029	1.792	1.104	1.099	1.104	1.128	1.118	1.113
-0.015	0.000	0.000	0.029	-0.024	0.000	0.029	1.748	1.099	1.099	1.104	1.128	1.123	1.108
-0.034	0.000	0.000	0.039	-0.005	0.000	0.024	1.782	1.094	1.094	1.099	1.128	1.128	1.118
-0.034	0.005	0.000	0.034	0.000	0.000	0.029	1.733	1.094	1.099	1.099	1.123	1.128	1.118
-0.020	0.000	0.000	0.029	-0.005	-0.005	0.024	1.797	1.104	1.094	1.099	1.118	1.118	1.113
-0.029	-0.005	0.000	0.024	-0.010	-0.005	0.024	1.714	1.089	1.094	1.099	1.113	1.118	1.118
-0.010	-0.020	-0.005	0.015	-0.015	-0.029	0.029	1.733	1.099	1.089	1.094	1.108	1.113	1.108
-0.010	-0.015	0.000	-0.010	-0.015	0.000	0.029	1.763	1.099	1.094	1.094	1.104	1.108	1.118
0.020	-0.010	0.000	-0.024	-0.020	0.000	0.029	1.782	1.113	1.099	1.094	1.104	1.104	1.113
0.049	-0.015	0.005	-0.020	-0.020	0.005	0.029	1.724	1.113	1.104	1.094	1.104	1.104	1.113
0.068	-0.010	0.000	-0.034	-0.020	0.000	0.029	1.777	1.123	1.108	1.099	1.108	1.104	1.104
0.073	-0.010	0.005	-0.029	-0.015	0.005	0.029	1.758	1.113	1.108	1.099	1.108	1.104	1.108
0.063	-0.005	-0.005	-0.020	-0.005	-0.010	0.029	1.777	1.104	1.108	1.104	1.113	1.108	1.104
0.049	-0.005	0.000	-0.005	0.000	-0.024	0.029	1.787	1.099	1.108	1.104	1.118	1.113	1.104
0.029	-0.010	0.000	-0.010	0.000	0.000	0.029	1.777	1.094	1.104	1.104	1.118	1.113	1.108
0.000	0.000	-0.005	-0.015	0.005	0.005	0.029	1.768	1.094	1.099	1.099	1.118	1.118	1.113
-0.015	0.000	-0.005	-0.010	0.020	0.010	0.029	1.797	1.089	1.094	1.104	1.118	1.123	1.118
-0.044	0.000	0.000	0.000	0.010	0.010	0.024	1.787	1.089	1.089	1.099	1.123	1.118	1.118
-0.044	-0.005	0.000	0.015	-0.010	0.010	0.024	1.792	1.099	1.089	1.099	1.123	1.113	1.113
-0.039	-0.015	0.000	0.039	0.015	-0.005	0.024	1.777	1.099	1.094	1.094	1.128	1.123	1.113
-0.015	-0.010	0.000	0.024	-0.005	0.000	0.024	1.772	1.108	1.094	1.094	1.123	1.113	1.113
-0.015	-0.010	0.005	0.010	-0.005	-0.010	0.024	1.763	1.118	1.104	1.094	1.113	1.113	1.108
-0.015	-0.010	0.000	0.000	0.015	0.000	0.029	1.777	1.113	1.108	1.099	1.108	1.118	1.113
-0.010	-0.015	0.000	-0.020	0.005	0.010	0.029	1.729	1.108	1.104	1.099	1.104	1.113	1.113
-0.005	-0.015	-0.005	-0.029	0.000	-0.010	0.029	1.777	1.113	1.108	1.099	1.104	1.104	1.108
0.000	-0.015	0.000	-0.034	0.000	0.005	0.029	1.733	1.108	1.108	1.099	1.108	1.104	1.113
0.005	-0.005	-0.005	0.000	-0.005	-0.015	0.029	1.743	1.099	1.108	1.104	1.123	1.104	1.104
0.000	0.005	0.000	0.029	-0.005	0.005	0.029	1.758	1.089	1.108	1.108	1.128	1.113	1.113
0.000	0.005	0.000	0.034	0.000	0.005	0.029	1.787	1.094	1.099	1.104	1.128	1.118	1.108
-0.039	0.005	0.005	0.015	0.005	-0.015	0.029	1.777	1.089	1.099	1.104	1.123	1.118	1.104
-0.020	0.010	0.000	0.000	0.005	-0.005	0.024	1.772	1.094	1.099	1.099	1.113	1.118	1.118
-0.015	0.010	-0.005	-0.029	0.000	-0.020	0.029	1.812	1.104	1.099	1.099	1.108	1.113	1.108
-0.020	0.024	0.000	-0.029	0.000	-0.024	0.029	1.758	1.079	1.099	1.099	1.113	1.108	1.108
0.005	-0.005	0.005	-0.024	0.000	0.010	0.029	1.768	1.089	1.089	1.099	1.113	1.108	1.118
0.005	-0.005	0.000	-0.020	-0.005	-0.010	0.029	1.787	1.094	1.089	1.094	1.113	1.108	1.113
0.015	-0.005	0.000	-0.005	0.010	0.000	0.029	1.768	1.099	1.094	1.094	1.118	1.113	1.118
0.015	0.005	-0.005	0.005	0.024	-0.010	0.029	1.797	1.108	1.099	1.094	1.123	1.118	1.113
0.010	0.000	-0.005	0.020	0.000	0.000	0.029	1.743	1.104	1.099	1.099	1.123	1.113	1.113
0.005	0.000	-0.005	0.024	-0.005	0.015	0.029	1.807	1.108	1.099	1.094	1.123	1.113	1.113
0.015	-0.005	0.000	0.029	-0.010	0.010	0.029	1.743	1.099	1.099	1.099	1.118	1.113	1.113
-0.010	-0.010	0.000	0.024	-0.010	0.010	0.029	1.768	1.094	1.094	1.094	1.118	1.113	1.113
-0.010	0.000	-0.005	0.005	-0.010	0.000	0.029	1.777	1.094	1.094	1.094	1.108	1.108	1.108
0.000	-0.005	0.000	-0.020	-0.015	0.000	0.024	1.797	1.104	1.094	1.094	1.104	1.104	1.104
-0.005	-0.005	-0.005	-0.020	-0.005	0.010	0.024	1.787	1.099	1.094	1.094	1.104	1.104	1.108
0.010	-0.005	-0.005	-0.015	-0.005	0.000	0.029	1.768	1.108	1.099	1.094	1.108	1.104	1.104
0.015	0.010	0.000	-0.015	-0.005	0.005	0.029	1.797	1.113	1.104	1.099	1.113	1.104	1.104
0.010	0.000	-0.005	-0.010	-0.010	0.000	0.029	1.743	1.104	1.104	1.099	1.113	1.108	1.104
0.020	0.000	-0.005	-0.005	-0.005	-0.010	0.029	1.792	1.108	1.104	1.099	1.118	1.108	1.104
0.020	0.000	-0.005	0.000	-0.010	-0.005	0.029	1.714	1.099	1.104	1.099	1.118	1.108	1.104
0.000	0.005	-0.010	0.005	0.000	-0.010	0.029	1.812	1.104	1.104	1.099	1.123	1.113	1.108
-0.010	0.010	-0.015	0.010	0.000	-0.015	0.029	1.748	1.089	1.099	1.099	1.118	1.113	1.108
-0.005	0.005	-0.005	0.000	-0.010	-0.005	0.024	1.753	1.094	1.099	1.104	1.118	1.113	1.108
-0.010	-0.005	0.000	-0.005	-0.005	0.005	0.029	1.772	1.094	1.099	1.099	1.118	1.113	1.113
-0.015	-0.010	0.000	-0.005	0.000	0.010	0.024	1.797	1.099	1.094	1.099	1.118	1.113	1.113
0.000	0.000	0.000	-0.005	0.010	0.000	0.029	1.782	1.108	1.099	1.099	1.113	1.118	1.113
0.000	-0.005	0.000	-0.005	0.010	0.005	0.024	1.753	1.104	1.099	1.094	1.118	1.113	1.113
0.000	0.000	0.000	0.005	0.005	-0.015	0.024	1.802	1.104	1.099	1.099	1.118	1.113	1.108
0.000	0.000	0.005	0.005	0.005	0.000	0.024	1.724	1.094	1.099	1.099	1.118	1.113	1.113
-0.015	-0.005	0.010	0.000	-0.005	-0.005	0.029	1.772	1.094	1.094	1.099	1.113	1.108	1.108
-0.010	0.015	0.010	-0.005	-0.010	-0.005	0.029	1.777	1.094	1.094	1.099	1.113	1.108	1.108
-0.005	0.005	0.005	-0.005	-0.005	0.010	0.029	1.782	1.099	1.094	1.094	1.113	1.108	1.113
-0.005	0.010	0.005	-0.005	0.000	0.000	0.029	1.748	1.074	1.094	1.094	1.113	1.108	1.108
-0.005	0.000	0.010	-0.010	0.005	0.005	0.029	1.787	1.084	1.089	1.089	1.113	1.108	1.113
-0.005	-0.005	0.005	-0.010	-0.005	0.000	0.029	1.768	1.094	1.089	1.089	1.108	1.104	1.108
0.010	0.000	0.005	-0.005	0.000	0.005	0.024	1.768	1.089	1.094	1.089	1.108	1.108	1.108
0.010	0.005	0.000	0.005	-0.010	-0.005	0.029	1.797	1.094	1.094	1.094	1.113	1.104	1.108
0.000	0.005	0.005	0.020	-0.005	0.005	0.024	1.772	1.104	1.094	1.094	1.118	1.108	1.108
0.000	0.005	-0.005	0.020	0.005	-0.015	0.024	1.733	1.099	1.094	1.094	1.113	1.113	1.108
0.000	-0.005	0.000	0.015	0.010	-0.005	0.024	1.763	1.099	1.094	1.094	1.113	1.113	1.108
-0.005	0.000	0.005	0.015	0.020	0.000	0.029	1.772	1.099	1.094	1.094	1.108	1.113	1.113
0.000	-0.010	-0.005	0.005	0.005	0.005	0.024	1.782	1.099	1.094	1.089	1.108	1.108	1.108
-0.005	0.000	-0.005	-0.005	0.000	-0.015	0.029	1.729	1.099	1.094	1.089	1.104	1.104	1.104
-0.005	-0.005	0.000	-0.015	-0.005	0.005	0.029	1.733	1.094	1.094	1.094	1.104	1.099	1.108
0.000	-0.020	-0.005	-0.020	-0.015	0.010	0.029	1.768	1.099	1.094	1.089	1.104	1.094	1.104
0.005	-0.015	0.000	-0.020	0.000	-0.010	0.029	1.758	1.099	1.094	1.089	1.104	1.104	1.099
-0.005	-0.015	-0.005	-0.015	-0.010	0.005	0.029	1.782	1.099	1.094	1.094	1.108	1.099	1.099
0.020	-0.010	0.000	-0.015	-0.010	0.005	0.029	1.807	1.108	1.099	1.094	1.108	1.099	1.099
0.010	-0.005	-0.005	-0.005	-0.010	0.000	0.024	1.743	1.099	1.099	1.094	1.108	1.099	1.099
-0.015	-0.010	0.000	-0.010	-0.010	-0.029	0.024	1.787	1.094	1.094	1.094	1.113	1.104	1.094
-0.015	-0.010	0.000	0.005	-0.024	0.005	0.029	1.763	1.089	1.094	1.094	1.113	1.104	1.104
-0.029	0.000	-0.005	0.015	-0.034	0.005	0.024	1.787	1.094	1.094	1.094	1.118	1.104	1.104
-0.024	0.005	0.000	0.010	-0.024	-0.024	0.029	1.782	1.099	1.099	1.094	1.118	1.108	1.099
-0.015	0.000	0.005	0.005	-0.005	-0.010	0.029	1.763	1.099	1.099	1.094	1.118	1.113	1.104
-0.005	0.020	-0.005	0.000	0.005	-0.024	0.029	1.787	1.099	1.099	1.099	1.113	1.113	1.104
0.005	-0.024	0.000	0.000	0.024	-0.029	0.029	1.738	1.099	1.094	1.094	1.113	1.123	1.108
0.015	-0.010	-0.005	0.005	0.059	0.000	0.029	1.802	1.108	1.099	1.094	1.113	1.128	1.123
0.000	0.005	-0.005	0.010	0.059	0.005	0.029	1.748	1.099	1.104	1.094	1.118	1.123	1.123
-0.010	-0.005	0.000	0.005	0.044	0.015	0.029	1.787	1.094	1.094	1.099	1.118	1.113	1.118
-0.005	-0.005	-0.005	0.010	0.015	0.010	0.029	1.743	1.094	1.099	1.099	1.113	1.108	1.118
-0.005	-0.010	-0.005	0.000	0.020	0.000	0.029	1.772	1.104	1.094	1.094	1.113	1.108	1.108
0.005	-0.005	-0.005	0.000	0.044	0.010	0.029	1.792	1.099	1.099	1.099	1.113	1.113	1.113
-0.005	-0.005	-0.005	-0.015	0.029	0.005	0.024	1.782	1.099	1.094	1.094	1.108	1.108	1.108
0.010	-0.010	-0.005	-0.020	0.000	0.010	0.024	1.777	1.104	1.094	1.094	1.108	1.099	1.104
0.015	0.000	0.000	-0.020	-0.020	-0.005	0.029	1.777	1.113	1.104	1.094	1.108	1.094	1.099
0.029	-0.005	-0.010	-0.005	-0.034	0.000	0.029	1.792	1.108	1.104	1.099	1.113	1.094	1.099
0.005	0.005	-0.010	0.010	-0.020	0.015	0.029	1.733	1.094	1.104	1.094	1.123	1.104	1.104
0.005	0.000	-0.005	0.015	-0.005	0.020	0.029	1.768	1.099	1.099	1.099	1.118	1.118	1.108
0.005	0.000	0.000	0.020	0.049	0.000	0.029	1.787	1.099	1.099	1.099	1.123	1.128	1.108
0.000	0.010	-0.010	0.015	0.059	0.000	0.029	1.772	1.094	1.094	1.099	1.123	1.128	1.113
-0.005	0.010	-0.005	0.005	0.034	-0.010	0.029	1.797	1.099	1.099	1.094	1.113	1.113	1.108
-0.005	0.010	-0.005	0.000	-0.010	-0.034	0.029	1.782	1.099	1.099	1.099	1.113	1.099	1.104
0.000	0.000	0.000	0.015	-0.049	-0.010	0.029	1.802	1.104	1.094	1.099	1.118	1.099	1.104
-0.005	0.010	0.000	0.024	-0.063	-0.005	0.024	1.812	1.104	1.104	1.099	1.118	1.099	1.104
0.000	-0.005	-0.005	0.029	-0.078	-0.010	0.024	1.777	1.099	1.094	1.099	1.118	1.099	1.104
-0.029	-0.010	0.000	0.015	-0.034	-0.015	0.029	1.782	1.089	1.094	1.094	1.113	1.113	1.104
-0.112	-0.010	-0.005	-0.005	0.005	-0.020	0.029	1.719	1.060	1.084	1.094	1.108	1.123	1.104
-0.088	-0.020	-0.005	-0.024	0.059	-0.010	0.029	1.782	1.079	1.079	1.089	1.104	1.128	1.118
-0.049	-0.010	0.000	-0.034	0.020	-0.010	0.029	1.797	1.104	1.089	1.089	1.104	1.108	1.113
-0.029	0.010	0.005	-0.020	0.000	0.005	0.029	1.777	1.108	1.099	1.089	1.108	1.104	1.113
0.015	0.000	0.000	0.005	-0.020	0.010	0.029	1.787	1.123	1.099	1.094	1.113	1.099	1.108
0.034	0.000	0.000	0.005	-0.029	0.015	0.029	1.763	1.118	1.108	1.094	1.113	1.099	1.108
0.059	0.005	-0.005	0.000	-0.020	0.005	0.029	1.763	1.113	1.108	1.099	1.113	1.104	1.104
0.088	0.000	-0.005	-0.015	0.000	0.024	0.029	1.748	1.113	1.108	1.099	1.113	1.113	1.113
0.088	0.005	-0.005	-0.015	0.015	-0.005	0.029	1.777	1.108	1.113	1.104	1.113	1.113	1.108
0.088	0.000	0.000	-0.010	0.010	0.015	0.024	1.772	1.108	1.108	1.108	1.118	1.113	1.113
0.068	0.010	-0.005	0.005	0.020	0.015	0.024	1.792	1.104	1.104	1.108	1.128	1.118	1.113
0.039	-0.005	0.000	0.005	0.039	0.005	0.024	1.772	1.099	1.099	1.104	1.128	1.128	1.113
0.010	0.005	-0.005	0.005	0.049	-0.010	0.029	1.787	1.089	1.094	1.104	1.128	1.123	1.118
-0.029	0.000	0.000	0.005	0.029	-0.005	0.029	1.763	1.084	1.094	1.099	1.123	1.118	1.113
-0.044	-0.005	0.000	0.005	0.010	0.010	0.029	1.792	1.084	1.089	1.094	1.118	1.113	1.118
-0.044	-0.010	0.000	0.010	0.010	0.010	0.029	1.753	1.089	1.089	1.094	1.118	1.113	1.113
-0.029	-0.010	0.005	-0.005	-0.020	0.010	0.029	1.782	1.094	1.089	1.089	1.113	1.104	1.113
-0.039	-0.024	0.000	-0.020	-0.029	0.005	0.024	1.802	1.089	1.079	1.084	1.104	1.099	1.104
-0.078	-0.029	0.000	-0.034	-0.054	0.000	0.029	1.753	1.079	1.079	1.084	1.099	1.089	1.099
-0.063	-0.010	0.000	-0.034	-0.063	-0.029	0.024	1.792	1.094	1.089	1.084	1.099	1.089	1.089
-0.024	0.000	0.005	-0.024	-0.054	0.000	0.029	1.758	1.104	1.099	1.089	1.104	1.094	1.099
0.015	-0.010	0.005	-0.015	-0.049	-0.020	0.024	1.797	1.113	1.099	1.094	1.108	1.099	1.089
0.024	-0.005	0.005	0.000	-0.024	0.000	0.029	1.787	1.108	1.104	1.094	1.113	1.108	1.104
0.034	0.024	0.010	0.010	-0.024	0.005	0.029	1.792	1.113	1.113	1.099	1.118	1.113	1.104
0.044	0.020	0.005	0.015	-0.010	-0.034	0.029	1.763	1.108	1.108	1.104	1.118	1.113	1.099
0.034	0.015	0.005	0.020	0.000	0.000	0.029	1.782	1.104	1.108	1.104	1.123	1.118	1.113
0.024	0.010	0.000	0.024	0.015	-0.020	0.029	1.768	1.104	1.104	1.104	1.123	1.123	1.113
0.005	0.005	0.000	0.010	0.010	0.000	0.029	1.782	1.099	1.099	1.104	1.118	1.118	1.123
0.000	0.005	0.010	0.000	0.010	0.010	0.024	1.748	1.104	1.099	1.104	1.118	1.118	1.123
0.005	0.000	0.000	0.005	0.005	-0.020	0.029	1.787	1.099	1.099	1.099	1.118	1.113	1.113
0.005	-0.005	0.000	0.000	-0.005	0.005	0.029	1.748	1.099	1.099	1.099	1.118	1.113	1.118
-0.010	-0.010	0.000	-0.010	0.000	0.010	0.029	1.768	1.094	1.094	1.099	1.113	1.113	1.118
-0.010	0.000	-0.005	-0.010	0.015	-0.005	0.029	1.743	1.094	1.094	1.094	1.113	1.113	1.108
-0.005	-0.020	0.005	-0.010	0.020	0.010	0.029	1.768	1.094	1.089	1.094	1.113	1.113	1.113
-0.010	-0.010	0.000	-0.015	-0.005	0.000	0.029	1.782	1.094	1.094	1.094	1.108	1.104	1.108
-0.020	-0.015	-0.005	-0.015	-0.005	-0.005	0.029	1.763	1.099	1.089	1.089	1.108	1.104	1.104
-0.020	-0.010	0.000	-0.010	-0.015	-0.010	0.029	1.753	1.099	1.094	1.089	1.108	1.104	1.104
-0.029	-0.010	-0.005	-0.005	-0.015	0.015	0.029	1.792	1.099	1.094	1.089	1.113	1.104	1.108
-0.020	0.000	0.000	0.005	-0.015	0.005	0.029	1.738	1.099	1.099	1.094	1.113	1.108	1.108
-0.024	0.005	-0.005	0.010	-0.010	-0.005	0.029	1.797	1.104	1.099	1.094	1.118	1.108	1.104
-0.015	0.005	-0.005	0.010	-0.010	-0.010	0.024	1.748	1.104	1.099	1.094	1.113	1.108	1.104
-0.005	0.015	-0.005	0.020	-0.005	0.000	0.024	1.797	1.108	1.104	1.094	1.118	1.113	1.108
-0.005	0.015	-0.005	0.020	-0.005	-0.010	0.024	1.753	1.108	1.104	1.099	1.118	1.113	1.108
-0.010	0.010	-0.005	0.015	0.005	-0.015	0.029	1.792	1.113	1.108	1.099	1.118	1.118	1.104
-0.015	0.000	-0.005	0.005	0.005	-0.005	0.029	1.787	1.108	1.104	1.099	1.113	1.113	1.113
-0.005	0.005	-0.005	-0.020	0.010	0.000	0.024	1.753	1.104	1.104	1.099	1.108	1.113	1.113
-0.010	0.000	-0.005	-0.029	0.015	-0.015	0.029	1.768	1.108	1.104	1.099	1.108	1.113	1.108
0.010	0.010	-0.005	-0.020	0.010	-0.005	0.024	1.782	1.113	1.108	1.104	1.113	1.113	1.113
0.034	-0.005	-0.010	-0.005	0.010	-0.005	0.029	1.748	1.108	1.108	1.104	1.123	1.113	1.108
0.000	-0.015	-0.005	-0.005	0.010	0.005	0.029	1.753	1.099	1.099	1.104	1.123	1.113	1.113
-0.010	-0.005	-0.005	0.010	0.024	0.005	0.029	1.802	1.099	1.104	1.104	1.123	1.118	1.113
-0.020	-0.005	-0.005	0.020	0.015	0.005	0.029	1.797	1.099	1.099	1.099	1.128	1.118	1.113
-0.010	0.005	-0.010	0.024	0.005	-0.005	0.029	1.782	1.104	1.099	1.099	1.128	1.113	1.113
