-0.010	0.005	0.005	0.005	0.000	-0.005	0.029	2.700	4.263	2.969	2.695	2.363	2.437	2.314
0.000	0.015	-0.005	0.000	-0.005	-0.010	0.029	2.690	3.721	3.198	2.827	2.490	2.446	2.349
-0.010	0.005	0.000	0.000	-0.005	-0.015	0.029	2.695	3.325	3.242	2.944	2.617	2.490	2.383
-0.010	-0.015	0.000	0.000	0.005	0.005	0.029	2.671	3.037	3.193	3.013	2.729	2.554	2.432
0.000	0.000	0.000	0.000	0.020	0.010	0.029	2.671	2.832	3.105	3.047	2.817	2.627	2.490
-0.005	0.000	-0.005	0.000	0.029	0.010	0.029	2.681	2.690	2.998	3.037	2.886	2.700	2.539
-0.010	0.000	0.005	-0.005	0.029	0.015	0.029	2.666	2.588	2.886	3.003	2.925	2.759	2.603
0.005	-0.005	0.000	0.000	0.005	0.000	0.029	2.671	2.524	2.788	2.944	2.935	2.803	2.651
0.010	-0.005	0.000	0.000	-0.024	0.000	0.029	2.671	2.480	2.705	2.881	2.925	2.827	2.700
0.010	-0.010	0.005	0.000	-0.039	0.020	0.029	2.700	2.451	2.637	2.817	2.905	2.847	2.744
0.010	-0.010	0.005	0.000	-0.039	0.005	0.029	2.666	2.432	2.583	2.749	2.871	2.852	2.773
0.010	-0.005	0.005	0.005	0.000	0.005	0.029	2.686	2.422	2.544	2.695	2.827	2.856	2.793
0.005	0.005	0.000	0.005	0.010	-0.005	0.029	2.686	2.412	2.510	2.646	2.783	2.837	2.808
0.005	-0.005	0.005	0.000	0.005	-0.010	0.029	2.646	2.412	2.485	2.603	2.739	2.808	2.803
0.000	-0.005	0.000	0.000	0.005	-0.015	0.029	2.798	2.422	2.471	2.563	2.695	2.778	2.798
0.000	0.010	0.000	0.000	0.010	0.005	0.029	2.671	2.422	2.461	2.534	2.656	2.744	2.788
0.000	0.015	-0.005	0.005	0.000	0.000	0.029	2.646	2.417	2.456	2.510	2.622	2.710	2.769
0.000	0.015	-0.005	0.000	0.000	0.005	0.029	2.734	2.417	2.451	2.495	2.593	2.676	2.744
-0.015	0.005	0.000	0.000	-0.005	0.005	0.029	2.690	2.417	2.437	2.476	2.568	2.646	2.720
-0.010	0.020	-0.005	0.000	0.000	-0.005	0.029	2.686	2.417	2.441	2.466	2.544	2.617	2.686
-0.005	0.000	0.000	0.005	0.005	0.000	0.029	2.671	2.412	2.432	2.456	2.524	2.593	2.661
0.000	0.000	0.000	0.000	0.000	0.010	0.029	2.739	2.412	2.427	2.446	2.505	2.568	2.642
-0.005	-0.005	0.000	0.000	0.005	-0.005	0.029	2.783	2.417	2.422	2.441	2.495	2.544	2.612
0.005	-0.005	0.000	0.005	0.005	0.010	0.029	2.617	2.397	2.422	2.437	2.485	2.524	2.593
0.010	-0.015	0.005	0.005	0.000	0.005	0.029	2.646	2.388	2.412	2.427	2.471	2.510	2.568
0.005	0.000	0.005	0.000	-0.005	-0.005	0.024	2.749	2.388	2.407	2.422	2.461	2.495	2.549
0.010	-0.005	0.005	0.000	0.000	0.010	0.029	2.642	2.373	2.402	2.417	2.451	2.485	2.529
0.000	-0.010	0.005	0.000	0.000	0.010	0.029	2.720	2.373	2.393	2.407	2.446	2.471	2.515
0.005	-0.005	0.000	0.000	-0.005	0.005	0.029	2.744	2.368	2.383	2.402	2.437	2.461	2.500
0.005	0.005	0.005	0.005	0.020	-0.010	0.029	2.656	2.358	2.383	2.397	2.437	2.456	2.485
0.000	0.005	0.000	0.010	0.015	0.010	0.029	2.690	2.349	2.373	2.388	2.427	2.446	2.480
-0.005	0.010	0.000	0.000	0.005	0.020	0.029	2.676	2.344	2.368	2.383	2.422	2.437	2.471
0.000	0.005	0.000	0.005	0.010	0.005	0.029	2.661	2.334	2.358	2.373	2.412	2.432	2.456
-0.010	0.005	-0.005	0.005	0.005	0.000	0.029	2.671	2.324	2.349	2.368	2.407	2.422	2.446
-0.020	0.010	-0.005	0.000	0.000	0.010	0.029	2.681	2.319	2.344	2.358	2.397	2.412	2.437
-0.010	0.005	0.000	0.000	0.000	0.015	0.029	2.676	2.314	2.334	2.354	2.393	2.407	2.432
-0.010	0.015	0.000	-0.005	-0.010	0.010	0.029	2.671	2.310	2.334	2.349	2.383	2.393	2.417
-0.005	0.000	0.000	0.000	-0.024	-0.024	0.029	2.676	2.305	2.324	2.339	2.378	2.383	2.397
-0.005	-0.005	0.000	0.005	-0.005	-0.015	0.029	2.705	2.300	2.314	2.334	2.373	2.388	2.402
0.005	0.010	0.000	0.005	0.000	-0.015	0.029	2.661	2.290	2.314	2.329	2.363	2.378	2.393
0.005	0.010	0.000	0.000	0.000	-0.010	0.029	2.690	2.285	2.310	2.324	2.358	2.373	2.388
0.010	0.010	0.000	0.000	-0.005	-0.010	0.029	2.695	2.285	2.300	2.319	2.349	2.363	2.383
0.005	-0.015	0.005	0.005	-0.005	-0.015	0.029	2.705	2.280	2.290	2.305	2.344	2.358	2.373
0.015	-0.005	0.005	0.000	0.024	-0.005	0.029	2.671	2.266	2.285	2.300	2.334	2.358	2.373
0.015	-0.010	0.005	0.000	0.029	0.010	0.029	2.695	2.266	2.280	2.295	2.334	2.354	2.373
0.010	-0.005	0.010	0.000	0.015	0.015	0.029	2.686	2.256	2.275	2.290	2.324	2.339	2.358
0.005	-0.010	0.000	0.005	0.010	0.000	0.029	2.666	2.246	2.266	2.280	2.319	2.334	2.349
0.000	-0.005	0.005	0.000	0.005	0.024	0.029	2.681	2.246	2.261	2.275	2.310	2.324	2.349
0.000	-0.005	0.000	0.005	0.020	0.020	0.029	2.656	2.236	2.256	2.271	2.305	2.324	2.339
0.000	-0.005	0.000	0.000	0.005	0.010	0.029	2.676	2.236	2.251	2.266	2.300	2.310	2.329
-0.015	0.005	-0.005	0.000	-0.005	0.000	0.029	2.700	2.227	2.246	2.256	2.290	2.300	2.319
-0.010	0.005	-0.005	-0.005	-0.010	0.005	0.029	2.690	2.222	2.241	2.251	2.285	2.295	2.314
-0.010	0.005	-0.005	0.005	-0.010	0.000	0.029	2.681	2.222	2.236	2.251	2.280	2.290	2.305
-0.010	0.010	-0.005	0.000	-0.010	0.000	0.029	2.642	2.212	2.231	2.246	2.275	2.285	2.300
-0.015	0.020	0.000	0.000	-0.015	0.000	0.029	2.788	2.222	2.231	2.241	2.271	2.280	2.295
-0.005	0.020	-0.005	-0.005	-0.024	-0.005	0.029	2.661	2.207	2.227	2.236	2.266	2.271	2.290
0.000	0.010	0.000	-0.005	-0.010	0.000	0.029	2.642	2.197	2.217	2.231	2.261	2.271	2.285
0.000	0.005	0.005	-0.005	0.015	0.005	0.029	2.729	2.202	2.212	2.227	2.261	2.275	2.285
0.005	0.000	0.010	0.000	0.044	0.020	0.029	2.700	2.197	2.207	2.217	2.256	2.275	2.285
0.010	-0.010	0.005	0.005	0.010	0.005	0.029	2.656	2.187	2.202	2.212	2.246	2.256	2.271
0.015	-0.005	0.010	0.000	0.005	0.005	0.029	2.666	2.183	2.197	2.207	2.241	2.251	2.271
0.005	-0.005	0.000	0.000	0.010	0.010	0.029	2.739	2.183	2.192	2.202	2.236	2.246	2.266
0.005	0.000	0.005	0.005	0.010	0.005	0.029	2.788	2.187	2.192	2.202	2.231	2.241	2.256
-0.005	0.000	-0.005	0.000	0.000	0.010	0.029	2.637	2.173	2.187	2.192	2.227	2.231	2.251
0.005	-0.015	0.000	0.000	0.000	0.000	0.029	2.656	2.168	2.183	2.187	2.222	2.227	2.236
0.000	0.005	0.000	0.000	0.000	0.005	0.029	2.744	2.173	2.183	2.187	2.217	2.227	2.236
-0.005	0.010	0.000	0.000	-0.005	0.000	0.029	2.622	2.153	2.178	2.183	2.212	2.217	2.231
-0.005	0.010	-0.005	0.000	0.000	0.005	0.029	2.715	2.153	2.173	2.183	2.207	2.217	2.231
-0.005	0.005	0.000	0.000	-0.005	-0.010	0.029	2.754	2.158	2.168	2.178	2.202	2.212	2.222
-0.010	0.005	0.000	0.000	0.000	0.000	0.029	2.646	2.148	2.168	2.173	2.202	2.207	2.217
-0.010	0.005	-0.005	0.000	-0.005	0.005	0.029	2.671	2.139	2.158	2.173	2.197	2.202	2.217
-0.005	0.000	0.000	0.000	-0.005	-0.005	0.029	2.666	2.139	2.153	2.163	2.192	2.202	2.207
0.000	0.000	0.005	0.005	0.000	0.000	0.029	2.651	2.129	2.148	2.163	2.187	2.197	2.207
-0.005	-0.005	0.000	0.005	0.000	0.000	0.029	2.666	2.124	2.139	2.153	2.183	2.192	2.202
0.010	-0.010	0.010	0.000	0.000	0.005	0.029	2.671	2.129	2.134	2.148	2.183	2.187	2.197
0.010	-0.010	0.005	0.005	-0.005	0.005	0.029	2.666	2.124	2.134	2.144	2.178	2.183	2.197
0.015	-0.010	0.000	0.005	-0.005	0.000	0.029	2.666	2.119	2.129	2.139	2.173	2.178	2.187
0.020	0.000	0.010	0.000	0.005	-0.020	0.029	2.676	2.119	2.129	2.134	2.168	2.178	2.183
0.005	-0.010	0.000	0.000	0.005	0.005	0.029	2.700	2.114	2.124	2.129	2.163	2.173	2.183
0.005	0.000	0.000	0.000	0.005	-0.005	0.029	2.700	2.109	2.119	2.129	2.158	2.168	2.178
0.010	0.000	0.005	0.000	0.005	0.000	0.029	2.710	2.109	2.119	2.124	2.153	2.163	2.173
0.005	-0.005	0.000	0.000	0.005	-0.015	0.024	2.690	2.109	2.114	2.119	2.148	2.158	2.168
-0.005	0.010	0.005	0.000	0.000	-0.010	0.029	2.671	2.100	2.114	2.119	2.148	2.148	2.158
-0.010	0.010	-0.005	0.005	0.005	0.005	0.029	2.671	2.090	2.109	2.114	2.144	2.148	2.168
-0.005	0.015	0.000	0.000	0.000	-0.010	0.029	2.705	2.095	2.109	2.109	2.139	2.144	2.158
-0.010	0.010	-0.005	0.000	-0.005	0.010	0.029	2.705	2.100	2.100	2.109	2.139	2.139	2.158
-0.005	0.005	0.000	0.000	0.000	0.015	0.029	2.681	2.095	2.100	2.109	2.134	2.139	2.148
-0.005	0.010	-0.005	0.005	0.005	-0.015	0.029	2.671	2.085	2.100	2.100	2.129	2.134	2.139
0.000	0.000	0.000	0.005	0.005	0.010	0.024	2.666	2.085	2.095	2.100	2.129	2.134	2.144
0.005	0.000	0.005	0.005	0.005	0.005	0.029	2.695	2.080	2.090	2.100	2.124	2.129	2.139
0.005	-0.010	0.000	0.000	0.015	0.000	0.029	2.676	2.080	2.085	2.095	2.119	2.129	2.134
0.010	-0.005	0.005	0.005	0.005	0.005	0.029	2.690	2.075	2.080	2.090	2.119	2.124	2.134
0.015	0.000	0.000	0.000	-0.005	0.010	0.029	2.671	2.070	2.080	2.085	2.109	2.119	2.129
0.010	0.000	0.000	0.000	-0.005	0.015	0.029	2.627	2.061	2.075	2.085	2.109	2.109	2.124
0.010	-0.020	0.005	0.000	-0.024	0.010	0.029	2.793	2.061	2.065	2.075	2.104	2.104	2.119
0.015	-0.024	0.005	0.005	-0.005	0.005	0.029	2.671	2.061	2.065	2.070	2.104	2.109	2.114
0.010	-0.005	0.000	0.005	0.000	0.005	0.029	2.646	2.056	2.065	2.070	2.100	2.104	2.109
0.000	0.015	0.005	0.000	0.000	0.005	0.029	2.651	2.051	2.065	2.070	2.095	2.104	2.109
-0.005	0.015	0.000	0.005	0.005	0.005	0.029	2.695	2.051	2.061	2.065	2.095	2.100	2.104
-0.005	0.015	0.000	0.005	0.015	0.000	0.029	2.710	2.051	2.056	2.065	2.090	2.100	2.104
-0.010	0.015	0.000	0.000	0.015	-0.010	0.029	2.671	2.046	2.056	2.061	2.090	2.095	2.100
-0.005	0.015	0.000	0.000	0.000	0.010	0.029	2.739	2.051	2.056	2.056	2.085	2.085	2.100
-0.005	0.015	-0.005	0.000	-0.015	-0.010	0.029	2.783	2.061	2.056	2.056	2.080	2.080	2.090
-0.010	0.010	-0.005	0.005	-0.005	0.005	0.029	2.642	2.051	2.051	2.056	2.080	2.080	2.090
-0.010	0.010	0.000	0.000	0.005	0.005	0.029	2.661	2.046	2.051	2.056	2.080	2.080	2.085
-0.005	0.005	-0.005	-0.005	0.005	0.005	0.029	2.734	2.051	2.051	2.051	2.075	2.080	2.085
0.010	-0.010	0.000	0.005	-0.005	0.010	0.029	2.700	2.056	2.051	2.051	2.075	2.070	2.080
0.010	-0.010	0.005	0.000	0.005	0.015	0.029	2.681	2.046	2.051	2.051	2.070	2.075	2.085
0.015	0.000	0.005	0.000	0.015	0.010	0.024	2.744	2.046	2.051	2.051	2.070	2.075	2.080
0.015	-0.015	0.010	0.005	0.000	0.010	0.029	2.661	2.036	2.046	2.051	2.070	2.070	2.075
0.015	0.000	0.005	0.000	0.000	0.000	0.029	2.666	2.031	2.041	2.046	2.070	2.070	2.070
0.015	-0.005	0.010	0.000	0.020	-0.005	0.029	2.676	2.026	2.036	2.041	2.065	2.070	2.065
0.005	-0.005	0.005	0.005	0.010	-0.015	0.029	2.666	2.021	2.031	2.041	2.065	2.065	2.065
0.005	0.000	-0.005	0.000	0.005	0.005	0.029	2.671	2.017	2.031	2.031	2.061	2.061	2.070
-0.005	0.015	-0.005	0.000	0.000	0.015	0.029	2.671	2.017	2.026	2.031	2.056	2.061	2.070
0.000	0.010	0.000	0.000	-0.005	0.000	0.029	2.700	2.021	2.026	2.031	2.056	2.056	2.061
-0.010	0.010	-0.005	0.000	0.000	-0.010	0.029	2.671	2.021	2.021	2.026	2.051	2.051	2.056
-0.010	0.010	0.000	0.000	0.005	-0.005	0.029	2.681	2.017	2.021	2.021	2.051	2.051	2.056
-0.010	0.005	0.000	0.000	0.005	-0.015	0.029	2.695	2.017	2.017	2.021	2.046	2.051	2.051
-0.005	0.000	-0.005	0.000	-0.005	-0.005	0.029	2.695	2.012	2.017	2.021	2.046	2.046	2.051
0.000	0.015	-0.005	0.000	-0.005	-0.010	0.029	2.695	2.017	2.021	2.021	2.041	2.041	2.051
-0.005	0.005	0.000	-0.005	0.005	-0.010	0.029	2.710	2.017	2.017	2.021	2.041	2.046	2.051
0.010	-0.015	0.000	0.005	0.000	-0.005	0.029	2.661	2.012	2.012	2.017	2.041	2.041	2.046
0.005	-0.015	0.005	-0.005	0.000	0.015	0.029	2.671	2.007	2.002	2.017	2.036	2.036	2.046
0.005	-0.010	0.010	0.005	-0.010	0.010	0.029	2.666	2.002	2.007	2.012	2.036	2.036	2.041
0.010	-0.010	0.005	0.005	-0.010	-0.005	0.029	2.666	2.002	2.007	2.012	2.031	2.031	2.036
0.010	0.005	0.005	0.000	0.005	0.000	0.029	2.666	2.007	2.012	2.012	2.031	2.031	2.036
0.005	0.005	0.005	0.000	0.005	-0.005	0.029	2.705	2.002	2.007	2.007	2.031	2.036	2.031
0.005	0.005	0.005	0.005	0.005	0.010	0.029	2.705	2.002	2.007	2.007	2.026	2.031	2.036
0.005	0.010	0.005	0.005	0.005	0.005	0.029	2.671	1.997	2.002	2.007	2.026	2.026	2.031
0.000	0.005	0.005	0.000	0.005	-0.015	0.029	2.700	1.992	2.002	2.002	2.026	2.026	2.026
-0.010	0.005	0.000	0.000	0.010	0.010	0.029	2.700	1.992	2.002	1.997	2.021	2.026	2.031
0.005	0.000	0.000	0.005	-0.005	0.000	0.029	2.676	1.992	1.997	1.997	2.021	2.021	2.026
-0.010	0.020	-0.005	0.000	-0.010	0.005	0.029	2.646	1.982	1.992	1.997	2.021	2.017	2.021
-0.005	0.010	-0.005	0.000	0.000	0.000	0.029	2.798	1.997	1.992	1.992	2.017	2.017	2.021
-0.005	0.005	-0.005	0.005	0.010	-0.020	0.029	2.671	1.987	1.992	1.992	2.017	2.017	2.017
0.000	0.000	-0.005	0.000	0.010	-0.005	0.029	2.646	1.982	1.992	1.992	2.012	2.017	2.021
-0.010	0.005	0.000	0.000	-0.010	0.005	0.029	2.632	1.973	1.987	1.992	2.012	2.012	2.021
-0.010	-0.005	-0.005	0.000	-0.005	0.005	0.029	2.686	1.973	1.978	1.987	2.012	2.012	2.017
0.005	-0.010	0.000	0.000	0.005	0.010	0.034	2.715	1.987	1.982	1.982	2.012	2.012	2.017
0.005	-0.005	0.000	0.000	0.015	0.005	0.029	2.681	1.982	1.982	1.982	2.007	2.017	2.012
0.005	-0.005	0.005	0.000	0.000	0.005	0.029	2.744	1.987	1.982	1.982	2.007	2.002	2.012
0.020	-0.010	0.000	0.000	-0.010	0.024	0.029	2.778	1.992	1.982	1.982	2.007	2.002	2.012
0.010	-0.005	0.005	0.005	-0.010	0.010	0.029	2.646	1.978	1.982	1.982	2.002	1.997	2.007
0.010	0.010	0.005	0.005	-0.005	0.005	0.029	2.749	1.987	1.987	1.982	2.002	2.002	2.002
0.015	-0.015	0.010	0.000	0.005	0.005	0.029	2.749	1.987	1.982	1.982	2.002	2.002	2.002
0.000	-0.010	0.000	0.000	0.010	-0.005	0.029	2.720	1.982	1.978	1.978	2.002	2.002	2.002
-0.005	-0.010	0.005	0.000	0.000	-0.010	0.029	2.720	1.982	1.982	1.978	2.002	1.997	1.997
-0.005	0.000	0.000	0.005	0.005	-0.010	0.029	2.764	1.987	1.987	1.978	2.002	1.997	1.997
-0.005	0.010	0.005	-0.005	0.005	0.005	0.029	2.661	1.978	1.982	1.982	1.997	1.997	2.002
-0.005	0.015	0.000	-0.005	-0.005	0.010	0.029	2.671	1.968	1.982	1.982	1.997	1.992	2.002
-0.005	0.010	-0.005	0.000	-0.010	-0.005	0.029	2.666	1.968	1.978	1.978	1.997	1.992	1.997
-0.005	0.005	-0.005	0.000	-0.015	-0.005	0.029	2.676	1.963	1.973	1.978	1.997	1.992	1.997
-0.005	0.005	0.000	0.000	0.000	0.005	0.029	2.661	1.958	1.973	1.973	1.997	1.997	1.997
-0.010	0.015	-0.005	0.000	0.029	0.000	0.029	2.671	1.958	1.968	1.973	1.997	2.007	2.002
0.000	0.015	0.000	0.000	0.020	0.015	0.029	2.671	1.963	1.968	1.973	1.997	1.997	2.002
0.005	0.000	0.005	0.005	0.005	0.010	0.029	2.671	1.963	1.963	1.968	1.992	1.992	1.997
0.010	-0.010	0.005	0.005	0.000	0.015	0.029	2.666	1.958	1.958	1.963	1.992	1.987	1.992
0.010	-0.010	0.000	0.005	0.010	0.010	0.029	2.715	1.963	1.958	1.963	1.987	1.987	1.992
0.010	-0.005	0.010	0.000	0.000	0.010	0.029	2.700	1.963	1.958	1.963	1.987	1.987	1.987
0.000	-0.005	0.015	0.000	0.000	-0.005	0.029	2.700	1.963	1.958	1.963	1.982	1.982	1.982
0.005	-0.005	0.010	0.005	-0.005	0.005	0.029	2.700	1.963	1.958	1.958	1.982	1.978	1.982
0.015	0.000	0.005	0.000	-0.015	-0.020	0.029	2.676	1.958	1.958	1.958	1.978	1.973	1.978
0.005	0.000	0.005	0.005	0.005	-0.015	0.029	2.666	1.953	1.958	1.958	1.982	1.982	1.978
0.000	-0.005	0.000	0.005	0.015	-0.010	0.029	2.676	1.948	1.953	1.953	1.978	1.982	1.978
0.000	0.000	0.000	0.005	0.000	-0.005	0.029	2.676	1.948	1.953	1.953	1.978	1.973	1.978
-0.010	0.000	-0.005	0.000	-0.010	-0.010	0.029	2.676	1.943	1.948	1.948	1.973	1.968	1.978
-0.010	0.000	-0.005	0.005	-0.020	-0.015	0.029	2.671	1.943	1.948	1.948	1.973	1.968	1.973
-0.010	0.010	0.000	0.000	0.000	0.010	0.029	2.676	1.948	1.948	1.948	1.973	1.973	1.978
-0.020	0.005	0.000	0.000	0.005	-0.010	0.029	2.705	1.948	1.948	1.948	1.973	1.973	1.973
-0.005	0.005	0.000	0.000	0.015	0.024	0.029	2.666	1.948	1.948	1.948	1.968	1.973	1.978
0.000	0.000	0.005	0.000	0.005	0.000	0.029	2.666	1.948	1.948	1.948	1.968	1.973	1.973
0.015	0.000	0.005	0.000	0.005	0.015	0.029	2.686	1.948	1.948	1.948	1.968	1.968	1.973
-0.005	0.015	0.005	0.005	0.000	0.010	0.029	2.637	1.934	1.948	1.948	1.968	1.963	1.968
0.000	0.005	0.005	0.005	0.000	0.015	0.029	2.798	1.953	1.948	1.948	1.968	1.963	1.968
0.010	0.005	0.000	0.005	0.005	0.010	0.029	2.656	1.948	1.948	1.948	1.963	1.963	1.968
0.005	0.010	0.000	0.000	0.000	-0.020	0.029	2.637	1.938	1.943	1.943	1.968	1.958	1.953
0.015	0.000	0.010	-0.005	-0.010	0.000	0.029	2.725	1.943	1.943	1.943	1.963	1.958	1.963
0.015	-0.005	0.005	0.000	0.010	-0.010	0.029	2.700	1.943	1.938	1.943	1.963	1.963	1.958
0.010	-0.020	0.000	-0.005	0.010	0.005	0.029	2.754	1.948	1.938	1.938	1.963	1.963	1.963
0.005	0.000	0.005	-0.005	0.015	0.005	0.029	2.676	1.943	1.943	1.943	1.963	1.958	1.963
0.005	-0.015	0.005	0.000	0.005	0.000	0.029	2.739	1.948	1.938	1.938	1.958	1.958	1.958
-0.010	0.015	0.005	0.000	0.010	0.000	0.029	2.788	1.953	1.948	1.938	1.963	1.958	1.958
-0.010	0.010	-0.005	0.005	0.034	0.000	0.029	2.622	1.938	1.948	1.943	1.963	1.963	1.963
-0.010	0.005	-0.005	0.000	0.024	0.005	0.029	2.651	1.938	1.943	1.943	1.963	1.958	1.963
-0.010	0.005	0.000	0.000	0.010	0.000	0.029	2.749	1.938	1.938	1.943	1.958	1.953	1.958
-0.005	0.005	-0.005	0.005	0.005	0.000	0.029	2.710	1.938	1.943	1.938	1.958	1.953	1.958
-0.005	-0.005	0.000	0.005	0.015	-0.020	0.029	2.686	1.938	1.938	1.938	1.958	1.958	1.948
0.000	0.000	-0.005	0.005	0.005	0.005	0.029	2.749	1.943	1.938	1.938	1.958	1.953	1.958
-0.005	0.000	0.005	0.005	0.010	0.010	0.029	2.681	1.938	1.938	1.938	1.958	1.958	1.958
0.000	-0.005	0.000	0.000	0.010	0.000	0.029	2.666	1.938	1.938	1.938	1.958	1.953	1.953
0.000	0.000	0.005	0.005	0.005	0.000	0.029	2.666	1.934	1.938	1.938	1.958	1.953	1.953
0.010	-0.005	0.005	0.005	0.005	0.000	0.029	2.671	1.934	1.934	1.938	1.958	1.953	1.953
0.010	-0.010	0.000	0.005	0.000	0.000	0.029	2.666	1.929	1.934	1.934	1.953	1.948	1.953
0.015	-0.010	0.005	0.005	-0.010	0.000	0.029	2.671	1.929	1.929	1.934	1.953	1.948	1.948
0.010	-0.010	0.005	0.000	-0.010	0.000	0.029	2.666	1.924	1.929	1.934	1.953	1.948	1.948
0.010	-0.005	0.005	0.005	-0.005	0.000	0.029	2.671	1.924	1.929	1.929	1.948	1.948	1.948
0.010	0.010	0.005	0.005	0.000	-0.020	0.029	2.671	1.919	1.929	1.929	1.948	1.948	1.943
0.005	0.010	0.005	0.005	0.000	0.005	0.029	2.705	1.924	1.929	1.929	1.948	1.948	1.953
-0.005	0.010	-0.005	0.005	0.000	-0.010	0.029	2.695	1.924	1.924	1.924	1.948	1.948	1.948
-0.010	0.010	-0.005	0.005	-0.010	0.005	0.029	2.705	1.924	1.924	1.924	1.943	1.943	1.948
-0.005	0.005	0.000	0.005	-0.010	0.010	0.029	2.695	1.929	1.924	1.924	1.948	1.943	1.948
-0.005	0.010	-0.005	0.005	-0.015	0.000	0.029	2.681	1.924	1.929	1.924	1.943	1.943	1.943
-0.005	-0.005	-0.005	0.005	-0.015	0.015	0.029	2.705	1.929	1.924	1.919	1.943	1.943	1.943
-0.005	0.005	0.000	0.000	-0.005	0.010	0.029	2.681	1.929	1.929	1.924	1.943	1.943	1.943
0.005	0.000	0.000	0.000	0.010	0.015	0.029	2.686	1.929	1.924	1.924	1.943	1.943	1.943
0.000	0.005	0.005	-0.005	-0.010	0.005	0.029	2.671	1.924	1.924	1.924	1.943	1.938	1.943
0.010	-0.010	0.005	0.000	-0.015	0.020	0.029	2.700	1.929	1.924	1.924	1.943	1.938	1.943
0.005	0.000	0.005	0.000	-0.005	0.015	0.029	2.700	1.929	1.924	1.924	1.943	1.938	1.943
0.005	-0.010	0.010	0.000	0.000	0.015	0.029	2.710	1.929	1.924	1.924	1.943	1.938	1.938
0.015	-0.015	0.005	0.005	-0.010	-0.005	0.029	2.705	1.934	1.924	1.924	1.943	1.934	1.934
0.010	-0.005	0.005	-0.005	-0.020	0.000	0.029	2.686	1.929	1.924	1.924	1.938	1.934	1.934
0.015	0.005	0.010	-0.005	-0.015	0.010	0.029	2.690	1.924	1.929	1.924	1.938	1.934	1.934
-0.005	0.005	0.005	-0.005	-0.005	0.010	0.029	2.637	1.909	1.929	1.924	1.938	1.938	1.938
0.000	0.015	0.005	-0.005	-0.005	-0.010	0.029	2.656	1.909	1.924	1.924	1.938	1.934	1.929
0.000	0.000	0.000	-0.005	0.000	0.010	0.029	2.666	1.909	1.919	1.919	1.938	1.938	1.938
-0.010	0.010	0.000	0.000	-0.005	0.015	0.029	2.646	1.919	1.919	1.919	1.943	1.938	1.938
-0.005	0.000	-0.005	-0.005	0.000	-0.005	0.029	2.642	1.914	1.909	1.919	1.938	1.938	1.934
-0.010	0.000	-0.005	0.000	0.000	-0.015	0.029	2.671	1.919	1.914	1.914	1.938	1.934	1.934
-0.010	0.015	-0.005	0.000	0.005	0.005	0.029	2.739	1.929	1.919	1.914	1.934	1.938	1.938
0.000	0.005	-0.005	0.005	0.010	0.010	0.029	2.671	1.924	1.919	1.914	1.938	1.938	1.938
0.000	-0.005	0.000	0.000	0.010	0.005	0.029	2.642	1.929	1.919	1.914	1.938	1.934	1.934
0.010	0.000	0.000	0.000	0.000	0.005	0.029	2.749	1.938	1.924	1.919	1.938	1.934	1.934
0.000	-0.024	0.000	0.000	-0.005	-0.015	0.029	2.715	1.934	1.924	1.919	1.938	1.934	1.924
0.005	-0.015	0.005	0.005	-0.010	0.005	0.029	2.739	1.934	1.924	1.919	1.938	1.929	1.938
0.015	-0.010	0.010	0.005	-0.020	0.005	0.029	2.646	1.924	1.929	1.924	1.938	1.929	1.934
0.005	0.000	0.005	0.005	-0.005	0.005	0.029	2.651	1.919	1.924	1.924	1.938	1.934	1.929
0.005	0.005	0.005	0.000	-0.005	-0.010	0.029	2.744	1.924	1.929	1.924	1.938	1.934	1.929
0.005	0.000	0.005	0.000	0.010	0.005	0.029	2.749	1.919	1.919	1.919	1.938	1.938	1.934
0.010	0.010	0.000	0.000	0.010	0.005	0.029	2.651	1.909	1.919	1.919	1.938	1.938	1.938
-0.005	0.010	0.000	0.000	0.020	0.005	0.029	2.671	1.909	1.919	1.919	1.938	1.938	1.934
-0.005	0.000	0.005	0.005	0.010	0.005	0.029	2.676	1.909	1.914	1.919	1.938	1.934	1.934
-0.010	0.010	0.000	0.000	0.010	-0.010	0.029	2.671	1.904	1.909	1.919	1.934	1.934	1.929
-0.010	0.010	0.000	0.000	0.010	-0.005	0.029	2.671	1.904	1.909	1.909	1.938	1.929	1.934
-0.015	0.005	-0.005	0.000	0.005	0.000	0.029	2.671	1.909	1.909	1.909	1.934	1.929	1.934
-0.015	0.005	-0.005	0.005	0.000	0.000	0.029	2.700	1.909	1.909	1.909	1.929	1.929	1.934
-0.010	0.005	0.000	0.005	-0.010	-0.005	0.029	2.681	1.914	1.909	1.909	1.934	1.924	1.929
-0.005	0.010	-0.005	0.005	0.005	-0.005	0.029	2.676	1.909	1.909	1.909	1.934	1.929	1.924
-0.005	0.010	-0.005	0.000	0.005	0.010	0.029	2.676	1.914	1.909	1.909	1.929	1.929	1.934
0.000	-0.005	0.000	0.005	0.010	-0.005	0.029	2.671	1.909	1.909	1.909	1.929	1.929	1.929
0.010	-0.015	0.005	0.000	0.005	0.005	0.029	2.705	1.914	1.904	1.904	1.929	1.929	1.929
0.010	-0.034	0.010	0.005	0.000	0.005	0.029	2.695	1.914	1.904	1.904	1.929	1.924	1.929
0.010	-0.015	0.005	0.005	0.000	0.005	0.029	2.695	1.919	1.914	1.909	1.929	1.924	1.929
0.010	-0.015	0.005	0.005	-0.005	0.000	0.029	2.666	1.909	1.909	1.904	1.924	1.919	1.924
0.015	0.000	0.010	0.005	0.015	0.005	0.029	2.695	1.914	1.914	1.909	1.929	1.929	1.924
0.005	0.005	0.005	0.000	0.034	0.000	0.029	2.671	1.909	1.909	1.909	1.929	1.929	1.924
0.005	0.005	0.000	0.000	0.024	-0.005	0.029	2.666	1.909	1.914	1.909	1.924	1.924	1.924
-0.005	0.010	0.000	0.000	0.010	-0.020	0.029	2.676	1.909	1.909	1.909	1.924	1.919	1.919
0.000	0.010	-0.005	0.000	0.005	0.000	0.029	2.695	1.909	1.909	1.909	1.924	1.919	1.924
0.000	0.020	0.000	0.000	0.005	-0.015	0.029	2.676	1.909	1.909	1.909	1.929	1.919	1.919
-0.015	0.020	-0.005	0.005	0.005	0.010	0.029	2.695	1.904	1.909	1.909	1.929	1.924	1.924
-0.010	0.015	-0.005	0.000	0.000	0.005	0.029	2.690	1.909	1.909	1.909	1.929	1.919	1.924
-0.005	0.010	0.000	0.005	0.000	-0.010	0.029	2.686	1.904	1.904	1.909	1.924	1.919	1.919
-0.010	0.015	0.000	-0.005	-0.010	0.000	0.024	2.637	1.904	1.904	1.904	1.924	1.919	1.919
-0.005	0.005	-0.005	0.005	-0.024	0.010	0.029	2.803	1.919	1.909	1.904	1.929	1.914	1.919
0.000	0.000	-0.005	0.000	-0.005	0.000	0.029	2.651	1.909	1.904	1.904	1.924	1.924	1.919
0.010	0.000	0.000	0.000	0.000	0.010	0.029	2.656	1.909	1.904	1.904	1.929	1.924	1.924
0.005	-0.005	0.005	0.005	0.015	0.010	0.029	2.725	1.919	1.909	1.904	1.929	1.929	1.924
0.010	-0.005	0.005	0.000	0.015	-0.010	0.029	2.690	1.914	1.909	1.904	1.924	1.924	1.924
0.010	-0.005	0.000	0.000	0.010	-0.010	0.029	2.622	1.904	1.904	1.904	1.924	1.924	1.919
0.015	-0.005	0.005	0.000	0.000	0.005	0.029	2.676	1.904	1.909	1.904	1.924	1.919	1.924
0.010	-0.010	0.005	0.000	0.005	-0.005	0.029	2.739	1.909	1.904	1.904	1.924	1.919	1.919
-0.005	0.000	0.005	0.000	0.005	0.005	0.029	2.788	1.914	1.909	1.904	1.924	1.919	1.919
0.005	0.010	0.000	0.005	0.000	0.005	0.029	2.642	1.904	1.909	1.904	1.924	1.919	1.924
0.000	0.010	0.005	0.005	0.000	0.005	0.029	2.651	1.899	1.909	1.904	1.924	1.919	1.919
-0.005	0.005	0.000	0.000	-0.005	0.010	0.029	2.744	1.909	1.904	1.904	1.924	1.919	1.919
-0.005	0.010	-0.005	0.005	-0.005	0.005	0.029	2.739	1.914	1.909	1.904	1.924	1.919	1.919
-0.005	0.029	-0.005	0.000	-0.010	-0.010	0.029	2.720	1.919	1.919	1.909	1.924	1.914	1.909
-0.010	0.029	0.000	0.000	0.005	0.005	0.029	2.754	1.919	1.914	1.914	1.924	1.919	1.919
-0.005	0.000	0.000	0.000	-0.005	0.000	0.029	2.651	1.909	1.904	1.909	1.924	1.919	1.919
-0.010	-0.005	-0.005	0.000	0.000	-0.005	0.029	2.676	1.904	1.904	1.904	1.924	1.919	1.919
-0.005	-0.010	0.000	0.000	0.000	0.010	0.029	2.676	1.899	1.904	1.904	1.924	1.924	1.919
-0.005	-0.020	0.005	0.000	-0.005	0.010	0.029	2.671	1.899	1.899	1.904	1.924	1.919	1.924
0.010	-0.010	-0.005	0.005	0.000	0.000	0.029	2.661	1.904	1.904	1.904	1.924	1.919	1.919
0.005	-0.005	0.000	0.000	0.000	0.005	0.029	2.681	1.904	1.904	1.904	1.924	1.919	1.919
0.010	-0.010	0.005	0.000	-0.005	0.000	0.024	2.671	1.899	1.904	1.904	1.924	1.919	1.919
0.010	-0.010	0.005	0.000	0.000	0.010	0.029	2.681	1.899	1.899	1.904	1.919	1.919	1.919
0.015	-0.005	0.010	0.005	0.005	0.000	0.029	2.671	1.899	1.899	1.904	1.924	1.919	1.919
0.000	0.005	0.005	0.005	0.000	0.005	0.029	2.695	1.899	1.904	1.895	1.919	1.919	1.919
0.010	-0.005	-0.005	0.005	0.000	0.005	0.029	2.661	1.895	1.899	1.895	1.919	1.914	1.919
0.000	0.000	0.000	0.000	0.005	0.010	0.029	2.695	1.899	1.895	1.899	1.919	1.914	1.919
0.000	0.005	0.005	0.000	-0.005	-0.005	0.024	2.681	1.904	1.899	1.899	1.919	1.914	1.909
0.000	0.015	0.000	0.000	0.010	0.005	0.029	2.661	1.895	1.904	1.899	1.914	1.914	1.914
-0.005	0.005	-0.005	0.000	0.000	0.005	0.029	2.671	1.895	1.899	1.899	1.914	1.909	1.914
-0.010	0.010	-0.005	0.005	0.000	0.005	0.029	2.705	1.899	1.899	1.895	1.914	1.914	1.914
-0.010	0.000	0.000	0.000	0.005	0.005	0.029	2.666	1.895	1.895	1.895	1.914	1.909	1.914
0.000	0.010	-0.005	0.000	0.000	0.000	0.029	2.676	1.904	1.899	1.899	1.919	1.909	1.914
0.000	0.010	0.000	0.005	0.000	-0.005	0.029	2.666	1.899	1.899	1.895	1.919	1.914	1.909
0.000	-0.010	0.000	0.000	0.005	-0.015	0.029	2.700	1.899	1.895	1.899	1.914	1.914	1.909
0.000	0.000	0.000	0.000	0.000	0.005	0.029	2.671	1.899	1.895	1.895	1.914	1.914	1.914
-0.005	0.000	0.005	-0.005	0.005	-0.005	0.029	2.671	1.899	1.899	1.899	1.914	1.914	1.909
0.005	-0.005	0.000	0.000	0.005	0.005	0.029	2.690	1.899	1.895	1.895	1.914	1.914	1.914
0.010	0.010	0.000	0.000	0.005	0.005	0.029	2.681	1.899	1.899	1.895	1.914	1.909	1.914
0.005	0.010	0.005	0.005	0.000	0.010	0.029	2.632	1.895	1.895	1.899	1.914	1.909	1.914
0.010	0.010	0.010	0.000	-0.005	-0.015	0.029	2.803	1.909	1.899	1.895	1.914	1.909	1.904
0.000	0.000	0.005	0.000	0.000	0.010	0.029	2.676	1.899	1.895	1.895	1.914	1.909	1.909
0.000	0.000	0.005	0.000	-0.005	0.010	0.029	2.637	1.895	1.895	1.895	1.914	1.909	1.909
0.000	0.000	0.000	0.015	0.005	-0.010	0.029	2.627	1.890	1.895	1.895	1.914	1.909	1.909
-0.005	-0.005	0.000	0.000	0.000	0.005	0.029	2.700	1.890	1.890	1.890	1.909	1.909	1.909
-0.005	0.015	0.000	0.005	0.000	0.000	0.029	2.754	1.904	1.899	1.895	1.914	1.909	1.909
-0.005	0.010	-0.005	0.005	0.005	0.010	0.029	2.671	1.899	1.899	1.895	1.909	1.909	1.909
-0.010	0.005	-0.005	0.000	0.000	0.005	0.029	2.739	1.904	1.895	1.890	1.914	1.909	1.909
-0.010	-0.005	0.000	0.000	0.005	0.005	0.029	2.651	1.899	1.895	1.895	1.909	1.909	1.909
-0.010	-0.010	0.000	0.000	0.000	0.000	0.029	2.646	1.895	1.895	1.895	1.914	1.904	1.904
-0.005	-0.020	0.000	0.000	0.000	-0.005	0.029	2.729	1.904	1.890	1.895	1.914	1.904	1.904
0.000	-0.005	0.000	0.000	0.000	-0.015	0.029	2.744	1.909	1.899	1.895	1.914	1.909	1.904
0.005	-0.005	0.005	0.005	0.005	0.000	0.029	2.729	1.909	1.904	1.895	1.914	1.909	1.909
0.015	0.000	0.000	0.000	0.005	0.010	0.029	2.729	1.914	1.904	1.899	1.914	1.909	1.914
0.010	-0.005	0.005	0.000	0.005	0.000	0.029	2.739	1.914	1.904	1.904	1.914	1.909	1.909
0.015	-0.005	0.005	0.000	0.000	0.005	0.029	2.656	1.909	1.904	1.904	1.914	1.909	1.909
0.010	0.000	0.005	0.005	0.000	0.000	0.029	2.661	1.899	1.904	1.904	1.914	1.909	1.909
0.010	0.005	0.005	0.005	0.005	0.000	0.029	2.700	1.899	1.904	1.904	1.919	1.909	1.904
0.010	-0.005	0.005	0.000	0.000	0.000	0.029	2.666	1.895	1.899	1.899	1.914	1.914	1.909
0.000	0.000	0.005	0.005	0.005	0.005	0.029	2.671	1.890	1.899	1.899	1.919	1.909	1.909
0.000	0.010	0.000	0.005	0.005	0.000	0.029	2.666	1.890	1.895	1.899	1.919	1.909	1.909
-0.005	0.005	0.005	0.005	0.000	0.005	0.029	2.700	1.890	1.895	1.895	1.919	1.909	1.909
0.000	0.005	0.000	0.000	0.000	0.005	0.029	2.671	1.895	1.890	1.895	1.914	1.914	1.909
-0.015	0.010	0.000	0.000	0.005	-0.010	0.029	2.686	1.890	1.895	1.890	1.914	1.909	1.904
-0.005	0.000	-0.005	0.005	0.000	-0.010	0.029	2.695	1.895	1.890	1.895	1.914	1.909	1.909
-0.005	0.010	0.000	-0.005	0.000	-0.005	0.029	2.676	1.899	1.895	1.895	1.914	1.909	1.909
-0.005	0.015	-0.005	0.000	0.000	0.005	0.029	2.700	1.899	1.895	1.895	1.914	1.909	1.914
-0.005	0.005	-0.005	-0.005	0.005	0.005	0.029	2.695	1.904	1.895	1.895	1.914	1.909	1.909
0.005	-0.005	0.005	0.000	0.005	0.000	0.029	2.666	1.899	1.895	1.890	1.914	1.909	1.909
-0.005	-0.010	0.005	0.000	0.005	0.005	0.029	2.671	1.895	1.890	1.890	1.914	1.909	1.909
0.010	-0.020	0.005	0.005	0.000	-0.020	0.029	2.671	1.895	1.890	1.890	1.909	1.909	1.904
0.000	0.005	0.010	-0.005	0.005	0.000	0.029	2.686	1.895	1.895	1.890	1.909	1.904	1.904
0.015	-0.010	0.000	0.000	0.000	0.005	0.029	2.661	1.895	1.890	1.890	1.909	1.904	1.909
0.005	-0.005	0.000	0.005	0.000	-0.005	0.029	2.695	1.895	1.885	1.890	1.909	1.904	1.909
0.010	-0.020	0.005	0.005	0.000	0.000	0.029	2.700	1.899	1.885	1.890	1.909	1.904	1.904
0.000	-0.010	0.005	0.005	0.005	0.000	0.029	2.661	1.895	1.890	1.890	1.909	1.904	1.909
0.010	-0.010	0.000	0.005	0.000	0.015	0.029	2.705	1.899	1.895	1.885	1.909	1.904	1.909
0.000	-0.005	0.005	0.000	0.000	0.005	0.029	2.686	1.895	1.895	1.890	1.909	1.904	1.899
0.000	0.005	0.000	0.000	0.000	0.005	0.029	2.686	1.895	1.895	1.890	1.909	1.904	1.904
-0.010	0.010	-0.005	0.000	0.000	-0.005	0.029	2.637	1.885	1.895	1.890	1.909	1.904	1.899
-0.005	0.015	0.000	0.000	0.000	0.005	0.029	2.798	1.904	1.895	1.890	1.909	1.904	1.904
0.000	0.024	0.000	0.000	0.000	0.005	0.029	2.671	1.899	1.899	1.895	1.909	1.899	1.904
-0.010	0.005	-0.005	0.000	-0.005	0.010	0.029	2.646	1.895	1.890	1.890	1.909	1.904	1.904
-0.015	0.020	-0.005	0.000	-0.005	0.010	0.029	2.642	1.890	1.895	1.890	1.909	1.904	1.904
-0.005	0.020	0.005	0.000	0.000	0.005	0.029	2.705	1.895	1.895	1.895	1.914	1.904	1.904
0.000	0.020	0.000	0.000	0.005	-0.015	0.029	2.749	1.899	1.895	1.895	1.909	1.909	1.899
0.000	-0.010	0.000	0.005	0.005	-0.010	0.029	2.676	1.899	1.885	1.890	1.914	1.909	1.904
0.000	-0.015	0.000	0.000	0.000	0.000	0.029	2.744	1.899	1.890	1.890	1.909	1.904	1.904
0.010	-0.005	0.005	0.000	0.010	0.005	0.029	2.676	1.904	1.895	1.890	1.909	1.909	1.909
0.015	0.000	0.005	0.000	0.005	-0.005	0.029	2.646	1.899	1.895	1.890	1.909	1.904	1.899
0.015	-0.005	0.005	0.000	0.005	0.000	0.029	2.686	1.904	1.895	1.890	1.909	1.904	1.904
0.000	-0.005	0.005	0.000	-0.005	0.010	0.029	2.744	1.904	1.895	1.890	1.909	1.904	1.904
0.005	0.000	0.000	0.000	0.005	0.000	0.029	2.739	1.904	1.899	1.890	1.909	1.904	1.899
0.005	0.005	0.000	0.005	0.000	0.005	0.029	2.666	1.899	1.899	1.895	1.909	1.904	1.899
0.000	0.005	-0.005	0.000	0.000	-0.015	0.029	2.749	1.904	1.904	1.895	1.909	1.904	1.899
-0.010	0.005	0.005	0.000	0.000	0.005	0.029	2.661	1.895	1.899	1.899	1.914	1.909	1.904
-0.005	0.005	0.005	0.000	0.000	0.000	0.029	2.705	1.899	1.899	1.895	1.914	1.909	1.904
-0.015	0.015	-0.005	0.000	0.000	-0.015	0.024	2.681	1.890	1.895	1.895	1.914	1.909	1.899
-0.005	0.005	-0.005	-0.005	0.000	0.005	0.029	2.671	1.895	1.895	1.895	1.914	1.909	1.909
-0.015	0.015	0.000	-0.005	0.005	0.010	0.029	2.671	1.890	1.895	1.895	1.914	1.909	1.909
-0.010	0.000	0.000	0.000	0.000	0.000	0.029	2.666	1.890	1.890	1.895	1.914	1.909	1.909
0.000	0.000	-0.005	0.005	-0.005	0.005	0.029	2.690	1.895	1.895	1.895	1.914	1.909	1.909
0.000	-0.005	0.000	0.000	0.005	-0.015	0.029	2.671	1.895	1.890	1.895	1.914	1.909	1.904
0.005	0.015	0.000	0.005	0.000	0.005	0.029	2.671	1.890	1.899	1.895	1.914	1.909	1.909
0.010	0.010	0.005	0.005	0.000	0.005	0.029	2.700	1.895	1.890	1.895	1.909	1.909	1.909
0.020	-0.005	0.010	0.000	0.000	0.000	0.029	2.700	1.895	1.890	1.890	1.909	1.909	1.909
0.015	0.000	0.000	0.000	0.000	-0.024	0.029	2.695	1.895	1.895	1.890	1.909	1.904	1.899
0.010	0.000	0.000	0.005	0.000	0.005	0.029	2.661	1.890	1.890	1.895	1.909	1.909	1.909
0.015	-0.005	0.005	0.000	0.000	0.005	0.029	2.705	1.895	1.885	1.890	1.909	1.904	1.904
0.005	0.005	0.005	0.000	0.000	-0.020	0.029	2.695	1.895	1.895	1.890	1.909	1.904	1.899
-0.010	0.000	0.005	0.000	-0.005	0.010	0.029	2.705	1.890	1.890	1.890	1.909	1.904	1.909
-0.010	0.010	0.000	0.005	0.000	-0.005	0.029	2.705	1.895	1.895	1.890	1.909	1.904	1.904
-0.005	-0.005	0.000	0.000	0.000	0.010	0.029	2.681	1.890	1.890	1.885	1.909	1.904	1.909
-0.005	-0.005	-0.005	0.000	0.000	0.005	0.029	2.710	1.890	1.890	1.890	1.909	1.904	1.904
-0.005	0.000	-0.010	0.000	0.000	0.005	0.029	2.676	1.890	1.890	1.885	1.909	1.904	1.904
0.000	0.000	-0.005	0.000	-0.005	0.000	0.029	2.671	1.895	1.895	1.890	1.909	1.899	1.904
-0.005	0.000	0.000	0.000	0.010	0.000	0.029	2.671	1.890	1.890	1.890	1.904	1.904	1.899
-0.005	0.000	0.000	0.000	0.005	0.000	0.029	2.686	1.890	1.890	1.890	1.904	1.904	1.904
0.010	-0.010	0.000	0.000	0.005	0.005	0.029	2.681	1.895	1.890	1.890	1.909	1.904	1.904
0.010	-0.010	0.000	0.005	0.000	0.000	0.029	2.637	1.885	1.890	1.885	1.909	1.904	1.904
0.010	-0.015	0.005	0.005	0.000	-0.005	0.029	2.783	1.899	1.890	1.885	1.904	1.899	1.899
0.020	-0.010	0.005	0.005	0.000	0.005	0.029	2.661	1.899	1.890	1.890	1.909	1.899	1.904
0.010	-0.015	0.005	0.005	0.000	0.000	0.029	2.642	1.890	1.890	1.885	1.904	1.904	1.904
0.005	-0.015	0.010	0.000	0.005	-0.010	0.029	2.642	1.885	1.890	1.885	1.904	1.904	1.899
0.015	-0.005	0.005	0.000	0.000	0.015	0.029	2.690	1.890	1.890	1.890	1.904	1.904	1.909
0.000	-0.005	0.005	0.000	0.000	0.010	0.029	2.646	1.880	1.890	1.885	1.904	1.899	1.904
0.005	0.010	0.005	0.005	-0.005	0.005	0.029	2.671	1.890	1.890	1.890	1.909	1.899	1.899
0.000	0.015	0.000	0.000	0.000	0.000	0.029	2.734	1.890	1.890	1.885	1.904	1.899	1.899
-0.005	0.015	0.000	0.000	0.000	-0.005	0.029	2.808	1.904	1.890	1.890	1.904	1.899	1.899
-0.010	0.010	-0.005	0.005	0.000	-0.015	0.029	2.617	1.890	1.890	1.885	1.904	1.904	1.899
-0.020	0.015	0.000	0.000	0.005	0.015	0.029	2.671	1.890	1.890	1.890	1.909	1.904	1.904
-0.010	0.005	0.000	0.005	0.000	0.010	0.029	2.754	1.899	1.890	1.890	1.904	1.899	1.904
-0.015	0.005	-0.005	0.000	0.000	-0.020	0.029	2.744	1.899	1.895	1.890	1.904	1.899	1.895
-0.010	0.005	0.000	0.000	0.005	0.000	0.029	2.695	1.899	1.895	1.890	1.904	1.899	1.899
0.005	0.005	0.005	0.000	0.000	0.005	0.029	2.749	1.909	1.899	1.895	1.909	1.904	1.904
0.005	0.005	0.000	0.005	0.000	-0.005	0.029	2.651	1.899	1.895	1.895	1.909	1.904	1.899
0.010	-0.010	0.000	0.000	0.000	0.000	0.029	2.671	1.895	1.890	1.895	1.909	1.904	1.899
0.010	-0.015	0.005	0.000	0.000	0.005	0.029	2.671	1.895	1.890	1.895	1.914	1.904	1.904
0.010	-0.015	0.010	0.000	0.005	0.010	0.029	2.676	1.890	1.890	1.890	1.909	1.904	1.904
0.010	-0.020	0.005	0.000	0.000	0.005	0.029	2.661	1.890	1.890	1.890	1.909	1.904	1.904
0.005	0.000	0.005	0.000	0.000	-0.005	0.029	2.666	1.885	1.890	1.890	1.909	1.904	1.899
0.000	0.005	0.005	0.005	0.005	0.005	0.029	2.676	1.885	1.890	1.890	1.909	1.904	1.904
-0.005	-0.005	0.005	0.005	0.005	0.005	0.029	2.681	1.885	1.885	1.885	1.904	1.904	1.904
0.005	0.000	0.005	0.000	0.005	0.000	0.029	2.686	1.885	1.885	1.885	1.904	1.904	1.899
-0.010	0.000	0.000	0.005	0.000	0.005	0.029	2.710	1.885	1.880	1.880	1.904	1.899	1.899
-0.010	0.005	-0.005	0.000	0.005	0.000	0.029	2.710	1.895	1.890	1.885	1.904	1.899	1.899
-0.015	0.010	-0.005	0.000	0.005	0.000	0.029	2.705	1.895	1.890	1.885	1.904	1.899	1.904
-0.005	0.015	-0.005	0.000	0.000	0.000	0.029	2.705	1.895	1.890	1.885	1.904	1.899	1.899
-0.005	0.010	-0.005	0.005	0.000	-0.015	0.029	2.700	1.895	1.890	1.890	1.904	1.899	1.895
-0.005	0.015	-0.005	0.000	0.010	0.005	0.029	2.671	1.895	1.890	1.885	1.909	1.904	1.904
0.000	0.010	-0.005	0.000	0.005	0.005	0.029	2.671	1.899	1.890	1.890	1.904	1.899	1.904
0.020	0.010	0.000	0.000	0.000	-0.010	0.029	2.676	1.899	1.895	1.890	1.909	1.899	1.895
0.010	-0.020	0.005	0.000	0.005	0.000	0.029	2.666	1.890	1.885	1.890	1.909	1.904	1.904
0.010	-0.010	0.000	0.005	0.000	-0.010	0.029	2.695	1.890	1.890	1.885	1.904	1.899	1.899
0.015	-0.015	0.005	0.005	0.000	0.000	0.029	2.666	1.895	1.885	1.890	1.909	1.899	1.904
0.010	-0.015	0.005	0.000	0.005	0.005	0.029	2.700	1.890	1.890	1.890	1.904	1.904	1.904
0.005	-0.005	0.005	0.000	0.000	0.010	0.029	2.686	1.885	1.890	1.885	1.904	1.899	1.904
0.000	0.000	0.005	0.000	0.005	0.000	0.029	2.686	1.890	1.890	1.890	1.904	1.899	1.895
-0.015	-0.005	0.005	0.005	0.000	0.000	0.029	2.676	1.880	1.890	1.885	1.904	1.899	1.899
-0.010	0.005	0.000	0.005	0.000	0.005	0.029	2.642	1.885	1.885	1.885	1.904	1.899	1.899
0.000	0.015	0.000	0.005	0.010	0.005	0.029	2.788	1.899	1.890	1.885	1.904	1.899	1.899
-0.020	0.005	0.000	0.000	0.000	0.010	0.029	2.666	1.890	1.890	1.885	1.904	1.899	1.899
-0.020	0.000	0.000	0.000	0.005	0.005	0.029	2.646	1.890	1.885	1.885	1.904	1.899	1.899
-0.005	0.015	0.000	0.005	0.000	-0.010	0.029	2.642	1.890	1.890	1.885	1.904	1.899	1.895
-0.005	0.010	0.000	0.000	0.000	-0.015	0.029	2.700	1.890	1.890	1.890	1.904	1.899	1.890
-0.005	0.005	0.000	0.000	-0.005	-0.020	0.029	2.739	1.895	1.890	1.890	1.904	1.899	1.895
-0.010	0.005	0.000	0.005	0.000	0.010	0.029	2.666	1.890	1.890	1.890	1.904	1.904	1.904
-0.005	0.005	0.005	0.005	0.000	0.015	0.029	2.749	1.899	1.890	1.890	1.909	1.904	1.904
0.000	0.010	0.000	-0.005	0.010	0.015	0.029	2.671	1.899	1.895	1.890	1.904	1.904	1.904
0.010	0.000	0.000	0.000	0.000	0.005	0.029	2.666	1.895	1.890	1.890	1.904	1.899	1.899
0.020	0.000	0.010	0.000	0.005	0.000	0.029	2.661	1.904	1.895	1.890	1.909	1.904	1.899
0.029	0.000	0.010	-0.005	0.000	0.005	0.029	2.651	1.899	1.895	1.890	1.909	1.899	1.895
0.024	-0.010	0.005	0.005	0.000	-0.015	0.029	2.612	1.885	1.890	1.890	1.909	1.899	1.895
0.034	-0.005	0.010	0.000	0.000	0.005	0.029	2.715	1.895	1.895	1.890	1.909	1.899	1.904
0.024	0.005	0.005	0.000	0.010	0.000	0.029	2.744	1.895	1.895	1.890	1.909	1.904	1.904
0.024	0.005	0.005	0.000	0.005	0.005	0.034	2.651	1.890	1.895	1.890	1.909	1.899	1.904
0.005	0.000	0.005	0.000	-0.005	0.005	0.029	2.666	1.880	1.885	1.890	1.909	1.904	1.899
-0.005	0.000	0.000	0.000	0.000	0.010	0.029	2.705	1.885	1.885	1.885	1.909	1.904	1.904
0.000	0.005	-0.005	0.005	0.000	0.010	0.029	2.666	1.885	1.890	1.890	1.904	1.904	1.904
-0.015	0.010	0.000	0.005	0.000	0.005	0.029	2.676	1.880	1.885	1.885	1.904	1.899	1.899
-0.029	0.024	0.000	0.000	0.000	0.005	0.029	2.681	1.885	1.890	1.885	1.904	1.899	1.899
-0.005	0.015	-0.005	0.005	0.000	0.005	0.029	2.695	1.895	1.890	1.885	1.904	1.899	1.904
-0.005	0.010	-0.010	0.000	0.000	-0.010	0.029	2.671	1.890	1.885	1.885	1.904	1.899	1.895
-0.005	0.000	0.000	0.005	0.000	0.010	0.029	2.676	1.890	1.885	1.885	1.904	1.904	1.899
-0.005	0.000	-0.005	0.005	-0.005	0.005	0.029	2.695	1.890	1.885	1.885	1.904	1.899	1.899
-0.029	-0.005	0.000	0.000	0.005	0.010	0.029	2.666	1.885	1.880	1.885	1.904	1.899	1.899
-0.029	-0.005	0.005	0.000	0.005	0.005	0.029	2.705	1.885	1.880	1.880	1.904	1.899	1.899
-0.020	-0.020	0.010	0.005	0.000	0.000	0.029	2.666	1.885	1.875	1.880	1.904	1.899	1.899
0.015	-0.010	0.005	0.005	0.000	0.000	0.029	2.700	1.904	1.885	1.880	1.899	1.895	1.899
0.024	-0.010	0.005	0.000	0.000	0.000	0.029	2.671	1.899	1.890	1.880	1.899	1.899	1.895
0.034	-0.015	0.005	0.005	0.000	0.005	0.029	2.681	1.895	1.890	1.885	1.899	1.899	1.899
0.029	-0.005	0.005	-0.005	0.010	0.005	0.029	2.671	1.895	1.895	1.885	1.899	1.899	1.895
0.034	0.005	0.005	0.000	0.000	0.005	0.029	2.681	1.895	1.899	1.890	1.904	1.895	1.895
0.005	0.000	0.005	-0.005	0.000	-0.020	0.029	2.705	1.890	1.890	1.890	1.904	1.899	1.890
0.024	0.015	0.000	0.000	0.005	0.000	0.029	2.700	1.890	1.890	1.890	1.904	1.899	1.895
-0.010	0.005	0.005	0.000	-0.005	-0.005	0.029	2.705	1.885	1.890	1.885	1.904	1.899	1.895
-0.015	0.010	-0.005	0.005	0.000	0.005	0.029	2.666	1.880	1.890	1.885	1.904	1.899	1.899
-0.034	0.029	-0.005	0.005	0.000	0.005	0.029	2.686	1.880	1.890	1.885	1.904	1.899	1.899
-0.049	0.015	0.000	0.000	-0.005	0.005	0.029	2.690	1.880	1.885	1.885	1.904	1.899	1.899
-0.034	0.015	-0.005	0.005	0.000	0.005	0.029	2.642	1.880	1.885	1.885	1.904	1.899	1.899
-0.020	0.005	-0.010	0.000	0.000	-0.015	0.029	2.651	1.885	1.880	1.880	1.904	1.899	1.890
-0.015	0.005	0.000	0.000	0.000	0.005	0.029	2.676	1.890	1.880	1.880	1.899	1.899	1.899
-0.010	-0.015	-0.005	0.005	-0.005	0.000	0.029	2.632	1.890	1.880	1.880	1.904	1.899	1.899
0.005	-0.010	0.005	0.000	0.000	0.000	0.029	2.642	1.885	1.880	1.880	1.899	1.895	1.899
0.020	-0.005	0.005	0.005	0.000	0.005	0.029	2.671	1.895	1.885	1.880	1.904	1.899	1.899
0.024	-0.010	0.005	0.010	0.005	-0.005	0.029	2.734	1.890	1.885	1.880	1.899	1.899	1.895
0.029	-0.010	0.005	0.005	0.000	0.005	0.029	2.671	1.890	1.885	1.880	1.899	1.899	1.899
0.024	-0.005	0.010	0.000	0.005	0.010	0.029	2.642	1.880	1.885	1.885	1.899	1.895	1.899
0.024	0.005	0.000	0.005	0.005	0.000	0.029	2.671	1.885	1.885	1.880	1.899	1.895	1.899
0.010	0.005	0.000	0.000	0.005	0.005	0.029	2.734	1.890	1.885	1.880	1.899	1.895	1.895
0.010	0.005	0.000	0.000	0.000	0.005	0.029	2.725	1.890	1.885	1.880	1.895	1.895	1.895
0.000	0.000	0.000	-0.005	0.000	0.005	0.029	2.749	1.885	1.885	1.880	1.895	1.895	1.895
0.005	0.010	0.000	0.000	0.000	-0.020	0.029	2.656	1.885	1.885	1.885	1.899	1.895	1.890
0.000	0.000	0.000	0.005	0.000	0.005	0.029	2.720	1.890	1.885	1.880	1.904	1.895	1.895
-0.005	0.005	0.000	0.000	0.000	-0.005	0.029	2.661	1.885	1.885	1.880	1.899	1.895	1.895
-0.005	0.005	0.000	-0.010	0.000	0.020	0.029	2.681	1.885	1.885	1.880	1.899	1.895	1.899
-0.005	0.005	-0.005	-0.005	0.010	0.010	0.029	2.705	1.890	1.885	1.880	1.899	1.895	1.899
0.000	0.010	-0.005	-0.005	0.000	0.005	0.029	2.666	1.890	1.885	1.880	1.904	1.895	1.895
0.005	-0.005	0.000	0.000	0.005	0.005	0.029	2.676	1.890	1.885	1.885	1.904	1.899	1.895
0.010	-0.005	0.010	0.015	0.000	0.005	0.029	2.661	1.885	1.885	1.885	1.904	1.895	1.895
0.015	-0.015	0.000	0.015	0.010	-0.005	0.029	2.656	1.885	1.880	1.880	1.904	1.899	1.895
0.005	-0.015	0.015	0.005	0.000	0.000	0.029	2.695	1.885	1.880	1.880	1.904	1.899	1.895
0.020	-0.015	0.005	0.005	0.000	0.005	0.029	2.666	1.885	1.880	1.880	1.899	1.895	1.895
0.000	-0.010	0.000	0.000	0.000	0.000	0.029	2.666	1.875	1.880	1.880	1.899	1.895	1.899
0.005	-0.005	0.005	0.000	0.000	0.005	0.029	2.671	1.880	1.875	1.875	1.895	1.895	1.895
-0.005	0.005	0.010	0.005	0.000	0.005	0.029	2.671	1.880	1.880	1.875	1.899	1.895	1.895
-0.010	0.005	0.000	0.000	0.000	0.000	0.029	2.705	1.880	1.875	1.875	1.895	1.895	1.890
-0.010	0.005	0.000	0.000	0.005	-0.005	0.029	2.676	1.880	1.880	1.875	1.899	1.895	1.885
-0.020	0.000	-0.005	0.000	0.005	0.005	0.029	2.700	1.885	1.880	1.875	1.895	1.895	1.895
-0.010	0.010	-0.005	0.005	0.000	0.000	0.029	2.681	1.885	1.880	1.875	1.895	1.890	1.890
-0.010	0.010	-0.005	0.000	0.000	-0.015	0.029	2.690	1.885	1.880	1.875	1.895	1.890	1.890
-0.015	0.005	-0.005	0.000	0.005	0.005	0.029	2.705	1.890	1.885	1.875	1.895	1.895	1.890
-0.005	0.005	0.000	-0.005	-0.005	0.005	0.029	2.671	1.890	1.885	1.880	1.895	1.890	1.890
0.000	0.010	-0.005	-0.005	0.000	-0.005	0.029	2.695	1.890	1.890	1.880	1.895	1.890	1.890
0.005	0.005	0.000	-0.005	0.005	0.010	0.029	2.700	1.895	1.890	1.885	1.899	1.895	1.895
0.010	0.000	0.000	0.000	0.005	0.000	0.029	2.700	1.890	1.890	1.885	1.899	1.895	1.895
0.005	0.000	0.000	-0.005	0.005	-0.005	0.029	2.695	1.890	1.885	1.885	1.904	1.895	1.890
0.024	-0.005	0.005	0.000	-0.005	0.005	0.029	2.676	1.895	1.890	1.885	1.904	1.895	1.895
0.020	-0.010	0.010	0.005	0.000	0.010	0.029	2.690	1.890	1.885	1.885	1.904	1.895	1.895
0.010	-0.010	0.010	0.010	0.000	-0.005	0.029	2.642	1.880	1.885	1.885	1.904	1.895	1.890
0.010	0.000	0.000	0.005	0.005	0.005	0.029	2.778	1.890	1.890	1.880	1.904	1.899	1.895
0.010	0.005	0.005	0.000	0.005	-0.010	0.029	2.661	1.885	1.885	1.880	1.899	1.895	1.890
0.015	-0.005	0.000	0.000	0.005	-0.010	0.029	2.637	1.880	1.880	1.880	1.899	1.895	1.895
0.010	0.000	0.000	0.000	0.000	-0.010	0.029	2.705	1.885	1.885	1.880	1.899	1.895	1.895
0.015	0.015	0.005	-0.005	0.005	0.000	0.029	2.695	1.890	1.890	1.885	1.899	1.895	1.895
0.005	0.005	0.005	-0.005	-0.005	0.015	0.029	2.754	1.890	1.885	1.880	1.899	1.895	1.899
-0.005	0.010	0.000	0.005	0.000	0.000	0.029	2.681	1.890	1.890	1.880	1.904	1.895	1.895
-0.020	0.010	-0.005	0.000	0.000	0.000	0.029	2.744	1.890	1.885	1.880	1.899	1.895	1.895
-0.024	0.015	-0.005	0.000	0.000	-0.010	0.029	2.788	1.895	1.890	1.885	1.904	1.895	1.895
-0.024	0.015	-0.005	0.000	0.005	0.010	0.029	2.705	1.890	1.890	1.885	1.904	1.899	1.899
-0.029	0.005	-0.005	0.005	0.000	0.010	0.029	2.656	1.890	1.885	1.885	1.904	1.899	1.899
-0.020	0.000	0.000	0.005	0.000	0.010	0.029	2.759	1.899	1.890	1.885	1.904	1.899	1.899
-0.010	-0.005	0.000	0.005	0.005	0.010	0.029	2.627	1.890	1.890	1.890	1.904	1.899	1.899
-0.005	-0.005	0.010	0.015	0.010	-0.010	0.029	2.705	1.890	1.890	1.890	1.904	1.899	1.895
0.005	-0.005	0.005	0.000	0.000	0.000	0.029	2.749	1.899	1.890	1.885	1.904	1.899	1.899
0.005	-0.010	0.000	0.005	0.005	0.010	0.029	2.651	1.895	1.885	1.885	1.904	1.899	1.899
0.005	-0.010	0.010	0.005	-0.005	0.005	0.029	2.681	1.890	1.890	1.885	1.904	1.895	1.895
-0.005	-0.005	0.010	0.000	0.005	0.010	0.029	2.690	1.890	1.890	1.890	1.904	1.899	1.899
0.010	-0.005	0.005	0.000	0.000	-0.005	0.029	2.671	1.885	1.890	1.885	1.899	1.899	1.895
0.005	0.000	0.005	0.000	0.000	0.005	0.024	2.681	1.885	1.885	1.885	1.904	1.899	1.895
0.015	-0.005	0.005	0.005	-0.005	0.000	0.029	2.676	1.885	1.885	1.885	1.904	1.899	1.899
0.010	0.005	0.000	0.005	0.000	0.000	0.029	2.705	1.890	1.885	1.885	1.904	1.899	1.895
0.005	0.010	0.000	0.000	0.000	0.000	0.029	2.666	1.880	1.890	1.885	1.899	1.899	1.895
0.000	0.010	-0.005	0.000	0.000	-0.005	0.029	2.676	1.875	1.885	1.885	1.904	1.899	1.895
-0.005	0.015	-0.005	-0.005	0.005	0.000	0.029	2.705	1.885	1.885	1.885	1.904	1.899	1.899
-0.020	0.015	0.000	0.000	-0.005	-0.015	0.029	2.651	1.875	1.880	1.885	1.904	1.895	1.895
0.000	0.000	-0.005	0.000	0.000	0.005	0.029	2.700	1.885	1.880	1.880	1.904	1.899	1.899
-0.010	-0.005	-0.005	0.000	0.000	0.005	0.029	2.690	1.890	1.880	1.880	1.904	1.899	1.899
-0.005	0.000	0.000	0.005	-0.005	-0.010	0.029	2.700	1.890	1.880	1.880	1.904	1.899	1.895
0.000	-0.015	0.010	0.000	0.005	0.005	0.029	2.705	1.890	1.880	1.880	1.899	1.899	1.899
0.015	-0.024	0.005	0.000	0.000	0.000	0.029	2.676	1.890	1.880	1.880	1.899	1.895	1.895
0.020	-0.015	0.005	0.000	0.010	0.000	0.029	2.705	1.895	1.885	1.880	1.899	1.895	1.899
0.029	0.015	0.000	0.005	0.000	0.000	0.029	2.666	1.895	1.899	1.885	1.899	1.895	1.895
0.029	0.010	0.005	0.000	0.010	-0.005	0.029	2.695	1.890	1.890	1.885	1.899	1.899	1.895
0.024	0.005	0.005	0.000	0.000	0.000	0.029	2.700	1.890	1.890	1.885	1.899	1.895	1.899
0.015	0.005	0.005	0.005	0.000	0.010	0.029	2.710	1.890	1.890	1.885	1.904	1.895	1.899
0.010	0.010	0.005	0.000	-0.005	0.015	0.029	2.700	1.890	1.890	1.885	1.899	1.895	1.899
0.000	0.005	0.005	0.000	0.005	0.010	0.029	2.686	1.885	1.885	1.885	1.899	1.899	1.895
-0.010	0.005	-0.005	0.000	0.000	0.000	0.029	2.695	1.885	1.880	1.880	1.899	1.895	1.890
-0.020	0.015	-0.005	0.000	0.005	0.005	0.029	2.632	1.875	1.885	1.885	1.899	1.899	1.899
-0.020	0.015	-0.005	0.000	-0.005	0.000	0.029	2.793	1.895	1.885	1.885	1.899	1.895	1.895
-0.005	0.020	0.000	0.000	0.005	-0.015	0.029	2.671	1.895	1.885	1.885	1.904	1.895	1.895
-0.020	0.010	0.000	0.005	-0.005	0.005	0.029	2.642	1.880	1.880	1.885	1.904	1.899	1.899
-0.010	0.000	-0.005	0.000	0.000	0.005	0.029	2.720	1.890	1.880	1.880	1.904	1.895	1.899
-0.005	0.000	0.005	0.000	0.000	0.005	0.029	2.690	1.895	1.885	1.880	1.899	1.899	1.895
0.010	-0.005	0.000	0.000	0.000	0.005	0.029	2.715	1.904	1.885	1.885	1.904	1.899	1.899
0.000	-0.005	0.000	0.000	0.005	-0.024	0.029	2.676	1.895	1.885	1.885	1.904	1.899	1.890
0.010	-0.010	0.005	0.000	-0.005	0.000	0.029	2.734	1.899	1.890	1.885	1.904	1.899	1.899
0.015	-0.015	0.005	0.000	0.005	0.000	0.029	2.803	1.909	1.890	1.885	1.904	1.899	1.895
0.010	-0.005	0.000	0.000	0.000	0.010	0.029	2.627	1.890	1.895	1.890	1.904	1.895	1.899
0.015	0.000	0.005	-0.005	0.005	-0.005	0.029	2.676	1.899	1.895	1.890	1.904	1.899	1.895
0.020	-0.005	0.005	0.005	0.000	0.005	0.029	2.739	1.904	1.895	1.890	1.904	1.899	1.899
0.015	0.005	0.005	0.000	0.000	-0.010	0.029	2.607	1.885	1.895	1.890	1.904	1.899	1.895
0.010	0.000	0.000	0.005	0.000	0.010	0.029	2.690	1.885	1.890	1.890	1.904	1.899	1.899
-0.005	0.005	-0.005	0.005	0.005	0.005	0.029	2.764	1.890	1.890	1.890	1.909	1.899	1.895
0.000	0.000	0.000	0.000	0.000	0.005	0.029	2.651	1.890	1.890	1.885	1.904	1.899	1.899
-0.005	0.010	-0.005	0.000	0.000	0.005	0.029	2.676	1.885	1.890	1.890	1.904	1.899	1.899
-0.005	0.005	-0.005	0.005	0.000	-0.010	0.029	2.700	1.885	1.890	1.885	1.904	1.904	1.895
-0.005	0.010	0.000	0.000	-0.005	0.005	0.029	2.661	1.885	1.885	1.885	1.904	1.904	1.899
-0.010	0.010	-0.005	0.000	0.005	-0.010	0.029	2.676	1.885	1.885	1.885	1.904	1.899	1.899
-0.010	-0.005	0.000	0.005	0.000	-0.005	0.029	2.676	1.885	1.875	1.885	1.904	1.904	1.899
-0.005	-0.010	0.000	0.000	0.005	0.015	0.029	2.666	1.890	1.880	1.885	1.904	1.904	1.904
-0.010	-0.010	0.005	0.000	0.000	0.015	0.024	2.676	1.885	1.880	1.880	1.904	1.899	1.904
0.000	-0.005	0.010	0.000	0.005	0.005	0.029	2.676	1.890	1.885	1.880	1.904	1.899	1.899
0.005	0.000	0.010	0.005	-0.005	-0.010	0.029	2.690	1.890	1.885	1.880	1.904	1.895	1.895
0.005	0.000	0.010	0.000	-0.005	-0.015	0.029	2.695	1.890	1.885	1.885	1.899	1.895	1.895
0.010	0.005	0.005	0.000	0.005	0.005	0.029	2.690	1.890	1.890	1.885	1.899	1.899	1.899
0.000	0.010	0.000	0.000	0.010	0.000	0.029	2.676	1.890	1.885	1.885	1.899	1.899	1.899
0.005	-0.010	0.000	0.000	0.000	0.005	0.029	2.695	1.895	1.885	1.885	1.899	1.895	1.899
0.010	-0.005	0.000	0.005	0.005	0.000	0.029	2.695	1.890	1.885	1.885	1.899	1.895	1.895
0.005	-0.005	0.000	0.000	0.005	-0.005	0.029	2.671	1.885	1.890	1.880	1.899	1.895	1.895
-0.005	0.024	-0.005	0.005	0.005	0.005	0.029	2.676	1.885	1.895	1.885	1.899	1.895	1.895
-0.005	0.020	0.000	0.005	0.000	0.000	0.029	2.671	1.890	1.890	1.885	1.899	1.895	1.895
-0.010	0.005	-0.005	0.000	-0.005	0.010	0.029	2.700	1.885	1.885	1.885	1.904	1.895	1.899
-0.005	0.005	0.000	0.005	0.000	0.010	0.029	2.671	1.885	1.885	1.885	1.904	1.899	1.899
-0.010	0.005	-0.005	0.005	0.000	0.010	0.029	2.700	1.890	1.885	1.885	1.904	1.899	1.899
-0.015	0.010	0.005	0.000	0.000	0.000	0.029	2.700	1.890	1.890	1.885	1.904	1.895	1.895
-0.005	0.005	0.000	0.000	0.005	0.000	0.029	2.690	1.895	1.885	1.885	1.904	1.899	1.899
-0.005	-0.005	-0.005	0.000	0.005	0.020	0.029	2.686	1.890	1.885	1.885	1.904	1.899	1.899
-0.005	-0.010	0.005	0.000	0.005	0.010	0.029	2.637	1.885	1.880	1.885	1.904	1.899	1.899
0.010	-0.024	0.005	0.005	0.000	0.005	0.029	2.783	1.899	1.880	1.880	1.899	1.895	1.895
0.020	-0.024	0.005	0.005	0.005	0.005	0.029	2.661	1.895	1.885	1.885	1.899	1.899	1.895
0.020	-0.010	0.005	0.000	0.005	0.000	0.024	2.651	1.885	1.890	1.885	1.899	1.895	1.895
0.020	-0.020	0.005	0.005	0.000	0.005	0.029	2.637	1.885	1.885	1.885	1.899	1.895	1.895
0.020	0.000	0.010	0.000	0.000	-0.024	0.029	2.710	1.890	1.890	1.885	1.899	1.895	1.885
0.015	0.005	0.000	0.000	0.000	0.010	0.029	2.627	1.880	1.885	1.885	1.899	1.895	1.899
0.010	0.015	0.000	0.000	-0.005	0.015	0.029	2.681	1.880	1.885	1.885	1.904	1.895	1.899
-0.005	0.010	0.000	0.005	0.000	-0.015	0.029	2.739	1.885	1.880	1.885	1.904	1.895	1.890
-0.005	0.005	0.000	0.000	0.005	0.005	0.029	2.793	1.895	1.885	1.880	1.904	1.899	1.895
-0.010	0.005	0.000	0.000	0.000	0.010	0.024	2.627	1.880	1.885	1.880	1.904	1.899	1.899
-0.010	0.015	-0.005	0.000	0.005	0.005	0.029	2.754	1.890	1.890	1.880	1.904	1.899	1.899
-0.024	0.010	-0.005	0.000	0.000	0.010	0.029	2.725	1.890	1.885	1.885	1.899	1.899	1.899
-0.015	0.010	-0.005	0.000	0.000	0.005	0.029	2.725	1.899	1.890	1.885	1.899	1.895	1.895
-0.010	0.034	-0.005	0.000	0.000	0.005	0.029	2.676	1.899	1.899	1.890	1.904	1.899	1.895
-0.010	0.015	0.000	0.000	-0.005	0.010	0.029	2.749	1.899	1.895	1.890	1.904	1.899	1.895
-0.005	0.015	0.005	0.000	0.000	0.000	0.029	2.656	1.899	1.895	1.890	1.904	1.899	1.895
0.010	0.000	0.000	0.000	0.000	0.000	0.029	2.676	1.899	1.890	1.890	1.909	1.904	1.899
0.005	-0.010	0.005	0.000	0.005	0.010	0.029	2.676	1.890	1.885	1.890	1.904	1.899	1.899
0.010	-0.010	0.005	0.000	0.000	0.005	0.029	2.676	1.890	1.885	1.885	1.904	1.899	1.899
0.020	-0.015	0.010	0.000	0.000	0.000	0.029	2.671	1.890	1.885	1.890	1.904	1.899	1.899
0.020	0.005	0.005	0.005	-0.005	-0.005	0.029	2.671	1.890	1.890	1.885	1.904	1.899	1.895
0.015	-0.005	0.005	0.005	0.005	-0.020	0.029	2.661	1.880	1.885	1.885	1.904	1.899	1.895
0.010	0.005	-0.005	0.005	0.000	0.000	0.029	2.661	1.880	1.885	1.885	1.904	1.899	1.899
0.010	-0.010	0.000	0.005	0.005	0.000	0.029	2.671	1.880	1.880	1.885	1.904	1.904	1.899
0.005	-0.005	0.000	0.000	0.000	0.010	0.029	2.695	1.880	1.880	1.880	1.899	1.899	1.904
-0.005	-0.005	0.000	0.005	0.005	0.005	0.029	2.705	1.880	1.880	1.880	1.899	1.899	1.899
-0.005	0.005	-0.005	0.005	0.000	0.005	0.029	2.700	1.890	1.885	1.880	1.904	1.899	1.899
-0.010	0.000	-0.005	0.000	0.000	0.010	0.029	2.676	1.885	1.880	1.880	1.899	1.899	1.899
-0.005	0.000	0.000	0.005	0.000	-0.005	0.029	2.710	1.890	1.885	1.885	1.899	1.895	1.890
-0.005	-0.005	0.000	0.000	0.000	0.000	0.029	2.700	1.890	1.885	1.880	1.899	1.899	1.895
-0.005	0.005	0.000	0.000	0.005	0.000	0.029	2.681	1.890	1.885	1.885	1.899	1.899	1.895
0.005	-0.005	0.000	0.005	0.000	0.005	0.029	2.676	1.895	1.885	1.885	1.904	1.899	1.899
-0.005	0.000	0.000	0.005	0.000	0.000	0.029	2.681	1.890	1.890	1.885	1.904	1.895	1.895
0.005	-0.005	-0.005	0.000	0.005	0.005	0.029	2.671	1.885	1.885	1.885	1.904	1.895	1.899
0.010	-0.005	0.000	0.000	0.000	0.005	0.029	2.671	1.885	1.885	1.885	1.899	1.895	1.899
0.015	-0.010	0.005	0.000	-0.005	0.005	0.029	2.676	1.890	1.885	1.885	1.899	1.895	1.895
0.010	-0.005	0.010	0.000	-0.005	0.010	0.029	2.676	1.885	1.885	1.885	1.904	1.895	1.899
0.010	0.000	0.010	0.005	0.005	0.005	0.029	2.681	1.885	1.885	1.885	1.904	1.899	1.895
0.029	0.000	0.010	0.000	0.000	0.010	0.029	2.690	1.890	1.885	1.885	1.904	1.899	1.895
0.020	0.000	0.000	0.005	0.000	0.010	0.029	2.651	1.885	1.885	1.880	1.899	1.899	1.895
0.010	0.005	0.005	0.005	-0.005	0.005	0.029	2.798	1.890	1.885	1.885	1.904	1.895	1.895
-0.005	0.010	0.000	0.000	0.000	0.005	0.029	2.671	1.885	1.885	1.880	1.899	1.899	1.895
-0.010	0.015	0.000	0.000	0.000	0.000	0.029	2.651	1.880	1.885	1.885	1.899	1.899	1.895
-0.015	0.015	0.000	0.005	0.000	-0.005	0.029	2.632	1.875	1.885	1.885	1.899	1.899	1.895
-0.020	0.005	-0.005	0.000	0.000	-0.005	0.029	2.656	1.870	1.875	1.880	1.899	1.895	1.895
-0.015	0.010	-0.005	0.000	0.000	-0.005	0.029	2.632	1.885	1.880	1.880	1.899	1.895	1.895
-0.020	0.000	-0.005	0.000	-0.005	0.000	0.029	2.666	1.885	1.875	1.875	1.899	1.895	1.895
-0.020	0.005	0.000	0.000	0.000	-0.005	0.029	2.749	1.890	1.880	1.880	1.899	1.899	1.890
-0.005	-0.005	0.005	0.005	0.005	0.005	0.029	2.793	1.899	1.885	1.880	1.899	1.895	1.899
-0.005	0.005	0.000	0.000	0.005	0.000	0.029	2.651	1.890	1.885	1.880	1.899	1.895	1.895
-0.005	0.000	0.000	0.000	0.000	0.000	0.029	2.739	1.899	1.885	1.885	1.899	1.895	1.895
0.005	-0.015	0.005	0.000	0.005	0.010	0.029	2.720	1.899	1.890	1.885	1.899	1.895	1.899
0.039	-0.015	0.005	0.000	0.005	-0.005	0.029	2.646	1.899	1.890	1.885	1.899	1.895	1.895
0.049	-0.010	0.005	0.005	0.005	0.005	0.029	2.700	1.899	1.890	1.890	1.904	1.895	1.895
0.049	-0.015	0.005	0.000	0.000	0.005	0.029	2.739	1.904	1.895	1.885	1.904	1.895	1.899
0.039	-0.005	0.005	0.000	-0.005	-0.005	0.029	2.690	1.895	1.899	1.890	1.904	1.895	1.895
0.020	0.015	0.005	0.000	0.005	0.005	0.029	2.705	1.890	1.899	1.890	1.904	1.899	1.895
-0.015	0.005	0.000	0.005	0.005	0.000	0.029	2.671	1.870	1.890	1.890	1.904	1.899	1.895
-0.039	0.010	0.000	0.005	0.000	0.000	0.029	2.676	1.870	1.885	1.890	1.909	1.899	1.895
-0.024	0.005	0.000	0.005	0.005	-0.005	0.029	2.676	1.880	1.880	1.885	1.904	1.904	1.895
0.005	0.010	-0.005	0.000	0.010	-0.010	0.029	2.676	1.890	1.885	1.885	1.904	1.899	1.899
0.039	0.015	-0.005	-0.005	0.005	0.010	0.029	2.705	1.899	1.885	1.885	1.904	1.899	1.904
0.044	0.000	-0.005	0.000	0.010	-0.005	0.029	2.681	1.899	1.890	1.885	1.904	1.899	1.899
0.000	0.005	-0.010	0.005	0.005	0.005	0.029	2.681	1.880	1.885	1.885	1.904	1.899	1.904
-0.044	0.000	0.000	0.000	0.000	0.005	0.029	2.695	1.870	1.875	1.885	1.904	1.899	1.899
-0.059	0.000	0.000	0.005	0.005	0.010	0.029	2.700	1.875	1.875	1.885	1.899	1.899	1.904
-0.068	-0.005	0.000	0.000	0.005	0.000	0.029	2.705	1.880	1.875	1.880	1.899	1.899	1.899
-0.049	-0.005	0.005	0.010	0.000	0.015	0.029	2.676	1.885	1.875	1.880	1.899	1.899	1.899
-0.034	-0.005	0.005	0.005	0.005	-0.010	0.029	2.695	1.885	1.880	1.880	1.899	1.895	1.895
-0.039	-0.010	0.015	0.005	-0.005	0.005	0.029	2.710	1.885	1.880	1.875	1.899	1.895	1.895
-0.044	-0.005	0.005	0.005	-0.010	0.005	0.029	2.695	1.890	1.885	1.875	1.895	1.890	1.890
-0.039	0.005	0.005	-0.005	-0.010	0.005	0.029	2.695	1.890	1.885	1.880	1.895	1.890	1.895
-0.024	0.000	0.005	-0.010	-0.010	-0.015	0.029	2.671	1.895	1.890	1.880	1.895	1.890	1.885
-0.024	0.005	0.000	0.005	0.000	-0.005	0.029	2.666	1.885	1.885	1.880	1.899	1.895	1.890
-0.015	0.005	0.000	0.005	0.000	-0.024	0.029	2.700	1.895	1.890	1.885	1.899	1.895	1.885
0.005	0.015	-0.005	0.005	-0.005	0.010	0.029	2.671	1.890	1.890	1.880	1.899	1.895	1.899
0.020	0.010	-0.005	0.015	0.000	0.000	0.029	2.695	1.899	1.890	1.885	1.904	1.895	1.895
0.024	0.010	-0.005	0.005	-0.005	0.000	0.029	2.681	1.895	1.895	1.890	1.899	1.895	1.899
0.029	0.015	0.000	0.000	-0.005	0.005	0.029	2.690	1.899	1.895	1.890	1.904	1.895	1.895
0.049	0.010	0.000	0.005	0.005	0.000	0.029	2.651	1.899	1.895	1.890	1.904	1.899	1.895
0.044	0.000	0.000	0.005	0.010	0.005	0.029	2.793	1.904	1.895	1.890	1.904	1.904	1.899
0.044	0.000	0.000	0.000	0.034	-0.005	0.029	2.661	1.899	1.895	1.890	1.909	1.904	1.895
0.044	0.000	0.000	0.000	0.020	0.015	0.029	2.651	1.895	1.895	1.890	1.909	1.904	1.904
0.034	0.000	0.005	0.000	0.015	-0.015	0.029	2.637	1.885	1.890	1.890	1.909	1.899	1.895
0.029	0.000	0.000	0.000	0.024	0.010	0.029	2.695	1.885	1.885	1.890	1.909	1.904	1.904
0.029	-0.010	0.000	0.005	0.010	0.000	0.029	2.720	1.890	1.885	1.885	1.909	1.899	1.899
0.029	0.000	0.010	0.000	-0.010	0.015	0.029	2.676	1.890	1.885	1.885	1.904	1.895	1.904
0.020	0.000	0.005	-0.005	-0.015	0.005	0.029	2.744	1.890	1.885	1.885	1.904	1.895	1.899
0.015	-0.010	0.005	0.000	-0.015	-0.005	0.029	2.808	1.899	1.885	1.885	1.904	1.895	1.890
0.005	-0.005	0.005	0.000	-0.015	0.000	0.029	2.666	1.890	1.890	1.885	1.904	1.895	1.899
0.000	0.000	0.005	-0.005	-0.010	0.005	0.029	2.656	1.885	1.885	1.885	1.904	1.895	1.895
0.000	-0.005	0.000	0.000	-0.005	-0.024	0.029	2.725	1.890	1.885	1.885	1.904	1.899	1.890
-0.010	0.015	0.000	0.000	-0.005	0.010	0.029	2.632	1.880	1.890	1.885	1.904	1.899	1.904
-0.005	0.010	-0.005	0.000	-0.010	0.020	0.029	2.710	1.890	1.890	1.885	1.904	1.899	1.904
0.010	0.010	-0.005	0.000	-0.010	-0.005	0.029	2.759	1.904	1.895	1.885	1.904	1.895	1.895
0.010	0.015	-0.005	0.005	-0.005	0.005	0.029	2.695	1.899	1.895	1.885	1.904	1.899	1.899
0.005	0.005	-0.005	0.000	-0.010	0.005	0.029	2.666	1.895	1.890	1.890	1.904	1.899	1.899
0.005	-0.005	0.000	0.005	0.010	0.005	0.034	2.720	1.895	1.890	1.885	1.909	1.904	1.899
-0.005	-0.005	0.005	0.000	0.024	-0.005	0.029	2.666	1.890	1.890	1.890	1.904	1.909	1.904
-0.010	-0.010	0.005	0.000	0.010	0.005	0.029	2.676	1.885	1.885	1.890	1.904	1.904	1.904
-0.020	-0.005	0.005	0.000	0.005	0.005	0.029	2.676	1.885	1.885	1.890	1.904	1.899	1.899
-0.015	-0.020	0.005	0.005	0.005	0.005	0.029	2.695	1.885	1.880	1.885	1.904	1.904	1.904
-0.020	-0.005	0.000	0.000	0.005	0.005	0.029	2.666	1.885	1.885	1.885	1.904	1.899	1.899
-0.020	-0.020	0.005	0.005	0.029	-0.005	0.029	2.671	1.880	1.880	1.880	1.909	1.904	1.899
-0.005	-0.020	0.000	0.010	0.029	-0.024	0.029	2.686	1.885	1.880	1.880	1.904	1.904	1.895
-0.015	-0.010	0.005	0.010	0.015	0.005	0.029	2.715	1.890	1.885	1.880	1.899	1.899	1.899
-0.005	-0.005	0.005	0.000	0.010	0.000	0.029	2.700	1.895	1.890	1.885	1.899	1.895	1.899
0.005	0.015	0.000	-0.005	0.000	-0.020	0.029	2.671	1.895	1.895	1.885	1.899	1.890	1.890
0.005	0.005	0.000	0.000	0.000	0.005	0.029	2.695	1.890	1.890	1.885	1.899	1.895	1.899
0.000	0.010	0.000	-0.005	0.000	0.010	0.029	2.681	1.885	1.890	1.885	1.904	1.895	1.899
0.000	0.010	-0.005	0.000	0.000	0.005	0.029	2.695	1.890	1.890	1.885	1.904	1.895	1.899
-0.005	0.015	0.000	0.000	-0.005	0.010	0.029	2.705	1.890	1.890	1.890	1.904	1.895	1.895
-0.005	0.010	0.000	0.005	-0.010	0.010	0.029	2.676	1.890	1.890	1.885	1.904	1.899	1.899
0.000	0.005	-0.005	0.005	-0.010	0.005	0.029	2.671	1.885	1.885	1.885	1.904	1.895	1.895
-0.005	0.005	0.000	0.005	-0.015	0.015	0.029	2.671	1.885	1.885	1.885	1.904	1.899	1.895
0.010	0.010	0.000	0.005	-0.029	0.010	0.029	2.705	1.895	1.890	1.885	1.899	1.895	1.895
0.015	0.000	0.000	0.005	-0.024	0.000	0.029	2.690	1.890	1.885	1.885	1.904	1.895	1.895
0.015	0.000	0.005	0.000	-0.005	0.000	0.029	2.686	1.890	1.880	1.885	1.904	1.904	1.895
0.010	0.000	0.010	0.000	0.000	-0.024	0.029	2.686	1.890	1.885	1.885	1.904	1.904	1.890
0.005	-0.010	0.005	0.000	0.015	-0.020	0.029	2.646	1.875	1.880	1.885	1.904	1.904	1.899
0.015	0.000	0.005	0.000	0.020	0.005	0.029	2.651	1.880	1.885	1.885	1.899	1.904	1.904
0.005	0.010	0.005	0.005	0.015	-0.005	0.029	2.666	1.875	1.885	1.885	1.904	1.899	1.899
0.005	0.020	0.005	0.000	0.010	-0.029	0.029	2.637	1.880	1.885	1.880	1.899	1.899	1.890
0.034	0.015	0.000	0.000	0.005	0.000	0.029	2.637	1.880	1.880	1.880	1.899	1.899	1.904
0.020	0.010	0.000	0.000	0.000	-0.005	0.029	2.656	1.875	1.880	1.880	1.899	1.895	1.899
0.005	0.005	-0.005	0.000	0.000	-0.010	0.029	2.651	1.880	1.875	1.875	1.899	1.895	1.895
-0.010	-0.005	-0.005	0.005	0.000	0.015	0.029	2.671	1.875	1.870	1.875	1.899	1.895	1.899
-0.020	0.005	0.000	0.000	-0.005	0.005	0.029	2.651	1.875	1.875	1.875	1.895	1.895	1.895
-0.029	-0.005	-0.005	0.000	-0.005	0.005	0.029	2.666	1.875	1.870	1.875	1.895	1.895	1.895
-0.024	0.010	0.000	0.000	0.000	-0.010	0.029	2.715	1.885	1.875	1.875	1.895	1.890	1.890
-0.024	0.005	0.000	0.000	0.005	0.005	0.029	2.720	1.885	1.875	1.875	1.895	1.895	1.895
-0.015	-0.005	-0.005	0.005	0.000	0.000	0.029	2.739	1.880	1.875	1.875	1.895	1.890	1.895
-0.005	-0.005	0.000	0.005	0.000	0.010	0.029	2.627	1.880	1.875	1.875	1.895	1.890	1.895
0.000	-0.005	0.000	0.005	-0.005	0.010	0.029	2.715	1.890	1.880	1.875	1.895	1.890	1.895
0.015	-0.020	0.005	0.000	0.000	-0.005	0.029	2.705	1.895	1.880	1.875	1.895	1.890	1.885
0.010	-0.015	0.005	0.000	0.010	0.010	0.024	2.686	1.890	1.880	1.875	1.895	1.890	1.890
0.015	-0.010	0.005	0.000	0.000	-0.015	0.029	2.705	1.895	1.885	1.875	1.895	1.890	1.885
0.024	-0.005	0.005	0.000	0.005	0.010	0.029	2.700	1.899	1.890	1.880	1.895	1.890	1.895
0.034	0.000	0.000	0.000	0.005	-0.010	0.029	2.671	1.895	1.890	1.880	1.899	1.890	1.885
0.005	-0.005	0.000	0.000	-0.005	-0.015	0.029	2.676	1.880	1.885	1.880	1.895	1.890	1.890
-0.005	0.000	-0.005	-0.005	-0.005	0.000	0.029	2.695	1.875	1.885	1.880	1.895	1.890	1.890
-0.020	0.015	-0.005	-0.005	-0.005	0.010	0.029	2.686	1.880	1.890	1.880	1.899	1.890	1.890
-0.024	0.024	0.000	0.005	0.000	0.005	0.029	2.676	1.875	1.885	1.885	1.899	1.895	1.890
-0.024	0.010	-0.005	0.010	0.005	0.005	0.029	2.681	1.875	1.880	1.880	1.904	1.895	1.895
-0.020	0.015	0.000	0.010	0.015	0.005	0.029	2.676	1.880	1.880	1.880	1.904	1.899	1.895
-0.020	0.005	0.000	0.010	0.010	0.005	0.029	2.671	1.885	1.880	1.880	1.899	1.899	1.899
-0.015	0.010	0.000	0.005	0.044	0.000	0.029	2.705	1.885	1.880	1.880	1.899	1.904	1.899
-0.015	0.015	0.005	-0.005	0.044	0.010	0.029	2.710	1.890	1.880	1.880	1.899	1.904	1.899
0.005	0.000	0.000	0.000	0.020	0.005	0.029	2.700	1.895	1.885	1.880	1.895	1.895	1.899
0.010	0.000	0.000	0.005	0.005	0.010	0.029	2.671	1.895	1.885	1.880	1.899	1.890	1.899
0.034	-0.005	0.000	0.000	0.005	0.010	0.029	2.705	1.899	1.890	1.885	1.899	1.890	1.895
0.029	-0.005	0.010	0.000	0.000	0.005	0.029	2.695	1.895	1.885	1.885	1.899	1.890	1.895
0.024	-0.005	0.005	0.000	-0.015	0.000	0.029	2.690	1.890	1.885	1.885	1.899	1.885	1.890
0.020	-0.010	0.005	0.000	-0.020	-0.005	0.029	2.700	1.890	1.885	1.885	1.904	1.890	1.890
0.068	-0.005	0.000	-0.005	-0.015	-0.010	0.029	2.656	1.895	1.890	1.885	1.899	1.890	1.885
0.083	0.000	0.005	0.000	-0.015	-0.024	0.029	2.676	1.895	1.895	1.885	1.904	1.890	1.885
0.054	0.000	0.000	0.000	-0.024	0.010	0.029	2.700	1.890	1.890	1.885	1.904	1.890	1.895
0.015	0.000	0.000	0.000	0.000	0.010	0.029	2.681	1.870	1.885	1.885	1.904	1.899	1.899
-0.024	0.015	0.000	0.000	0.005	-0.005	0.029	2.681	1.865	1.880	1.885	1.904	1.899	1.895
-0.063	0.010	-0.005	0.000	0.000	0.005	0.029	2.646	1.855	1.870	1.875	1.904	1.899	1.899
-0.039	0.010	-0.005	0.000	0.005	0.005	0.029	2.788	1.885	1.875	1.875	1.899	1.899	1.895
-0.034	0.000	0.005	0.005	0.005	0.000	0.029	2.671	1.885	1.875	1.875	1.899	1.899	1.895
-0.093	0.005	-0.005	0.005	0.005	-0.020	0.029	2.651	1.865	1.870	1.875	1.899	1.895	1.890
-0.132	-0.005	-0.005	0.000	0.010	-0.005	0.029	2.617	1.855	1.865	1.870	1.895	1.895	1.895
-0.122	-0.005	0.000	0.000	0.000	0.005	0.029	2.695	1.870	1.860	1.870	1.890	1.890	1.899
-0.093	-0.010	0.000	-0.005	0.000	0.005	0.024	2.651	1.880	1.865	1.870	1.890	1.890	1.895
-0.029	-0.005	0.005	-0.005	-0.005	0.000	0.029	2.676	1.899	1.875	1.870	1.890	1.885	1.895
0.020	-0.010	0.005	0.000	-0.015	0.000	0.029	2.705	1.909	1.885	1.870	1.890	1.885	1.890
0.029	-0.010	0.000	0.005	-0.005	0.000	0.029	2.803	1.919	1.895	1.875	1.895	1.885	1.890
0.034	-0.010	-0.005	0.000	0.034	-0.010	0.029	2.739	1.909	1.899	1.880	1.895	1.899	1.890
0.049	0.000	0.005	0.000	0.034	0.000	0.029	2.651	1.899	1.904	1.890	1.899	1.895	1.890
0.049	0.005	0.000	-0.005	0.015	-0.015	0.029	2.749	1.904	1.899	1.890	1.895	1.890	1.890
0.029	-0.005	0.000	0.000	-0.005	0.005	0.029	2.656	1.890	1.895	1.890	1.899	1.885	1.890
0.015	-0.005	0.000	0.000	-0.005	0.005	0.029	2.715	1.885	1.890	1.895	1.904	1.890	1.890
0.015	0.000	-0.005	0.000	0.000	0.000	0.029	2.749	1.890	1.890	1.890	1.904	1.895	1.890
0.010	0.000	0.000	0.005	-0.005	0.005	0.029	2.656	1.885	1.890	1.890	1.909	1.895	1.895
0.005	0.000	-0.005	0.005	-0.005	-0.010	0.029	2.681	1.885	1.890	1.890	1.909	1.895	1.885
0.015	0.000	-0.005	0.005	0.000	0.010	0.029	2.681	1.885	1.885	1.885	1.909	1.899	1.895
0.015	0.010	0.000	0.005	-0.005	0.005	0.029	2.676	1.885	1.890	1.890	1.904	1.899	1.895
0.015	0.005	0.000	0.005	-0.010	0.005	0.029	2.676	1.880	1.885	1.890	1.904	1.899	1.899
0.015	0.010	0.000	0.005	-0.005	-0.010	0.029	2.671	1.885	1.885	1.885	1.909	1.904	1.899
0.024	0.000	0.000	0.005	-0.005	0.010	0.029	2.705	1.890	1.885	1.885	1.909	1.899	1.904
0.029	-0.005	0.000	0.005	-0.010	0.005	0.029	2.681	1.890	1.885	1.885	1.909	1.899	1.904
0.029	-0.010	0.000	0.000	0.000	-0.010	0.029	2.676	1.885	1.885	1.880	1.904	1.899	1.895
0.024	-0.010	0.010	0.000	0.010	0.015	0.029	2.705	1.890	1.880	1.880	1.904	1.904	1.904
0.015	0.010	0.005	0.000	0.000	0.015	0.029	2.676	1.885	1.890	1.885	1.904	1.899	1.904
0.020	0.005	0.005	0.000	-0.010	0.000	0.029	2.705	1.890	1.885	1.880	1.904	1.895	1.895
0.005	0.010	0.005	0.000	-0.015	-0.015	0.029	2.700	1.885	1.885	1.880	1.904	1.895	1.890
-0.005	-0.010	0.005	0.005	-0.010	0.010	0.029	2.705	1.885	1.880	1.880	1.899	1.895	1.899
0.005	0.010	0.005	0.000	-0.010	0.010	0.029	2.700	1.890	1.885	1.880	1.899	1.895	1.895
-0.005	0.010	0.000	0.005	-0.010	0.000	0.029	2.705	1.885	1.885	1.885	1.899	1.899	1.895
0.000	0.000	-0.005	0.005	0.000	-0.005	0.029	2.695	1.885	1.880	1.880	1.899	1.899	1.895
0.005	0.000	-0.005	0.000	0.015	-0.005	0.029	2.710	1.890	1.885	1.880	1.899	1.904	1.899
-0.005	0.020	-0.005	0.000	0.039	-0.005	0.029	2.671	1.885	1.890	1.885	1.899	1.909	1.899
-0.005	0.015	-0.010	0.000	0.029	-0.005	0.029	2.676	1.885	1.885	1.885	1.899	1.899	1.899
-0.010	0.015	-0.005	0.005	0.015	0.005	0.029	2.681	1.885	1.885	1.885	1.904	1.895	1.899
0.005	0.010	-0.005	0.000	0.005	0.005	0.029	2.705	1.890	1.885	1.885	1.904	1.895	1.899
-0.005	-0.005	-0.005	0.005	0.015	-0.005	0.029	2.686	1.890	1.880	1.885	1.904	1.895	1.899
0.005	-0.010	0.000	0.000	0.020	0.000	0.029	2.690	1.890	1.880	1.880	1.899	1.899	1.899
0.005	-0.005	0.005	0.000	0.010	-0.005	0.029	2.637	1.885	1.880	1.885	1.904	1.899	1.895
0.005	-0.005	0.000	0.005	0.015	0.010	0.029	2.778	1.899	1.885	1.885	1.904	1.899	1.899
0.000	-0.005	0.010	0.005	0.010	0.010	0.029	2.676	1.895	1.890	1.885	1.904	1.899	1.899
0.010	0.000	0.010	0.000	0.000	0.000	0.029	2.656	1.890	1.890	1.885	1.899	1.895	1.895
0.010	-0.034	0.005	0.005	-0.010	0.000	0.029	2.642	1.880	1.880	1.880	1.899	1.895	1.895
0.005	-0.005	0.000	0.005	-0.015	0.000	0.029	2.686	1.880	1.885	1.885	1.899	1.890	1.895
0.005	0.000	0.000	0.005	-0.010	0.005	0.029	2.715	1.880	1.885	1.880	1.899	1.895	1.895
0.010	0.005	0.000	0.005	-0.010	0.005	0.029	2.671	1.880	1.880	1.880	1.899	1.895	1.895
-0.005	-0.005	0.005	0.000	-0.010	0.005	0.029	2.734	1.885	1.880	1.880	1.899	1.895	1.890
-0.015	-0.005	0.000	0.000	-0.015	0.000	0.029	2.686	1.885	1.880	1.875	1.899	1.895	1.890
-0.010	0.000	0.000	0.000	-0.015	-0.005	0.029	2.739	1.880	1.885	1.880	1.899	1.895	1.890
-0.010	0.015	-0.005	0.000	-0.015	-0.005	0.029	2.661	1.880	1.890	1.880	1.899	1.895	1.890
-0.010	0.020	0.000	0.000	-0.020	0.000	0.029	2.749	1.890	1.885	1.880	1.899	1.895	1.895
-0.015	0.010	0.000	0.000	-0.020	-0.010	0.029	2.739	1.890	1.885	1.885	1.899	1.895	1.895
-0.005	0.010	0.000	0.000	-0.029	0.015	0.024	2.729	1.899	1.890	1.885	1.899	1.890	1.895
-0.005	-0.010	0.000	0.000	-0.034	0.010	0.029	2.749	1.904	1.885	1.885	1.899	1.895	1.890
0.000	-0.010	0.000	0.000	-0.024	-0.020	0.029	2.661	1.895	1.885	1.885	1.899	1.895	1.890
0.000	0.010	0.000	0.000	-0.020	-0.015	0.029	2.695	1.895	1.895	1.890	1.904	1.895	1.890
0.005	0.010	0.000	0.005	-0.010	-0.005	0.029	2.695	1.895	1.895	1.890	1.904	1.904	1.895
0.010	-0.005	0.005	0.000	-0.010	-0.005	0.029	2.661	1.890	1.890	1.890	1.904	1.899	1.895
0.010	-0.005	0.005	0.000	-0.005	-0.005	0.029	2.676	1.885	1.890	1.890	1.904	1.899	1.895
0.005	-0.010	0.005	0.000	0.024	0.000	0.029	2.671	1.880	1.885	1.885	1.904	1.909	1.899
0.005	-0.010	0.010	0.005	0.054	-0.010	0.029	2.700	1.885	1.885	1.885	1.909	1.914	1.904
0.005	-0.005	0.000	0.000	0.063	0.020	0.029	2.671	1.880	1.880	1.880	1.904	1.914	1.914
0.000	0.005	0.005	0.000	0.054	0.010	0.029	2.686	1.885	1.885	1.880	1.904	1.904	1.909
-0.005	0.015	0.000	0.005	0.049	0.010	0.029	2.710	1.890	1.885	1.880	1.904	1.904	1.909
0.000	0.015	0.000	0.000	0.049	0.020	0.029	2.671	1.890	1.890	1.885	1.899	1.899	1.909
-0.005	0.024	-0.005	0.000	0.059	0.020	0.029	2.705	1.890	1.890	1.885	1.904	1.904	1.909
-0.005	0.015	-0.005	0.000	0.068	0.010	0.029	2.700	1.890	1.890	1.885	1.904	1.904	1.904
-0.005	0.010	-0.010	0.000	0.073	0.010	0.029	2.695	1.895	1.890	1.885	1.904	1.904	1.899
-0.005	0.010	0.000	0.005	0.029	0.015	0.029	2.690	1.890	1.890	1.890	1.904	1.890	1.899
-0.005	0.005	0.000	0.005	-0.024	0.010	0.029	2.656	1.885	1.885	1.885	1.904	1.880	1.890
-0.005	0.000	0.005	0.005	-0.039	0.015	0.029	2.686	1.890	1.885	1.885	1.904	1.880	1.890
0.005	-0.010	0.000	0.005	-0.049	0.000	0.029	2.700	1.890	1.885	1.885	1.904	1.885	1.885
0.005	-0.015	0.005	0.005	-0.029	0.000	0.029	2.700	1.890	1.885	1.885	1.904	1.890	1.885
0.010	-0.005	0.000	0.005	-0.020	0.005	0.029	2.686	1.890	1.885	1.880	1.904	1.899	1.890
0.005	-0.010	0.005	0.000	-0.005	0.000	0.029	2.661	1.890	1.885	1.880	1.904	1.904	1.890
0.010	-0.010	0.010	0.005	-0.005	-0.015	0.029	2.700	1.890	1.885	1.885	1.904	1.899	1.890
0.015	-0.015	0.010	0.005	0.005	0.000	0.029	2.681	1.885	1.885	1.885	1.904	1.904	1.895
0.005	0.000	0.005	0.005	0.005	-0.005	0.029	2.690	1.885	1.890	1.885	1.904	1.899	1.895
0.005	0.000	0.000	0.000	-0.015	-0.005	0.024	2.632	1.880	1.885	1.885	1.899	1.895	1.895
0.000	0.000	0.000	0.000	-0.029	0.005	0.029	2.788	1.895	1.885	1.885	1.899	1.890	1.895
0.000	0.010	-0.005	0.005	-0.024	0.000	0.029	2.666	1.885	1.885	1.880	1.899	1.895	1.890
-0.015	0.015	-0.005	-0.005	-0.015	-0.015	0.029	2.651	1.880	1.885	1.885	1.899	1.895	1.890
-0.010	0.015	0.000	0.000	-0.010	0.010	0.029	2.646	1.880	1.885	1.885	1.904	1.899	1.899
-0.005	0.010	0.000	0.000	-0.005	0.010	0.029	2.666	1.880	1.880	1.885	1.904	1.899	1.895
-0.020	0.005	-0.005	0.000	-0.005	0.015	0.029	2.646	1.875	1.880	1.880	1.899	1.899	1.904
-0.015	0.005	0.000	0.000	-0.010	-0.005	0.029	2.676	1.880	1.880	1.880	1.899	1.899	1.895
-0.005	0.005	-0.005	0.000	0.005	-0.005	0.029	2.734	1.890	1.880	1.880	1.899	1.899	1.895
0.000	0.005	-0.005	0.000	0.015	0.000	0.029	2.808	1.899	1.885	1.880	1.899	1.899	1.899
0.010	0.000	0.000	0.000	0.010	-0.015	0.029	2.642	1.895	1.885	1.885	1.899	1.895	1.899
0.000	-0.005	0.005	0.000	-0.010	-0.005	0.029	2.671	1.890	1.890	1.885	1.899	1.895	1.895
0.015	-0.005	0.010	0.000	-0.020	-0.005	0.029	2.754	1.899	1.885	1.885	1.899	1.890	1.895
0.015	-0.010	0.005	0.000	-0.024	0.010	0.029	2.725	1.895	1.890	1.885	1.899	1.890	1.895
0.015	-0.005	0.005	0.000	-0.010	0.010	0.029	2.695	1.895	1.890	1.885	1.904	1.895	1.895
0.020	-0.010	0.005	0.005	-0.005	0.010	0.029	2.739	1.899	1.890	1.885	1.904	1.895	1.899
0.000	-0.005	0.010	0.000	-0.005	-0.005	0.034	2.656	1.885	1.890	1.890	1.904	1.899	1.890
0.000	-0.010	0.000	0.000	0.020	-0.034	0.029	2.671	1.885	1.890	1.885	1.904	1.904	1.890
-0.005	0.000	0.000	0.000	0.015	-0.010	0.029	2.676	1.880	1.885	1.885	1.904	1.899	1.895
-0.005	0.005	-0.005	0.005	-0.015	-0.020	0.029	2.666	1.885	1.890	1.885	1.904	1.895	1.890
-0.005	0.005	0.000	0.000	-0.020	-0.020	0.024	2.671	1.880	1.885	1.885	1.904	1.895	1.895
-0.005	0.010	-0.005	0.000	0.010	0.010	0.024	2.681	1.885	1.885	1.885	1.904	1.904	1.904
-0.010	-0.005	-0.005	0.000	0.029	0.015	0.029	2.676	1.880	1.880	1.885	1.904	1.909	1.909
-0.010	-0.005	-0.005	0.000	0.044	0.015	0.029	2.671	1.880	1.880	1.885	1.904	1.909	1.909
-0.010	0.005	0.000	0.000	0.063	0.015	0.029	2.681	1.890	1.885	1.885	1.904	1.914	1.914
0.000	0.000	-0.005	0.005	0.083	0.015	0.029	2.705	1.890	1.885	1.880	1.904	1.914	1.909
0.005	-0.010	0.005	0.000	0.049	0.005	0.029	2.671	1.890	1.885	1.885	1.899	1.899	1.909
0.005	0.000	0.005	0.000	0.010	-0.015	0.029	2.705	1.895	1.890	1.885	1.899	1.890	1.895
0.010	-0.005	0.005	0.000	-0.005	0.010	0.029	2.690	1.895	1.890	1.885	1.899	1.885	1.895
0.015	0.005	0.005	0.005	-0.020	0.015	0.029	2.686	1.895	1.890	1.885	1.904	1.885	1.895
0.020	-0.005	0.005	0.005	-0.024	0.010	0.029	2.666	1.890	1.890	1.890	1.904	1.885	1.890
0.015	-0.005	0.005	0.005	-0.029	0.015	0.029	2.695	1.890	1.890	1.885	1.904	1.890	1.890
0.000	0.015	0.005	0.000	-0.024	-0.015	0.029	2.700	1.890	1.890	1.885	1.904	1.890	1.885
0.010	0.015	0.005	0.000	-0.015	0.010	0.029	2.690	1.890	1.895	1.885	1.904	1.899	1.895
-0.005	0.015	0.000	0.000	-0.015	-0.005	0.029	2.700	1.885	1.885	1.890	1.904	1.899	1.890
-0.010	0.024	0.005	0.000	-0.015	0.010	0.029	2.686	1.885	1.885	1.885	1.904	1.899	1.895
-0.024	0.029	-0.005	0.005	-0.005	-0.010	0.029	2.705	1.885	1.890	1.885	1.904	1.899	1.895
-0.020	0.020	-0.005	0.000	-0.010	0.005	0.029	2.681	1.885	1.880	1.885	1.904	1.899	1.899
-0.020	0.010	-0.005	0.005	-0.010	0.005	0.029	2.681	1.885	1.880	1.880	1.904	1.899	1.899
-0.015	0.000	0.000	0.000	-0.005	0.005	0.029	2.695	1.890	1.880	1.880	1.899	1.899	1.899
-0.015	0.000	0.000	0.000	0.000	0.015	0.029	2.646	1.885	1.880	1.885	1.899	1.899	1.899
-0.005	0.000	-0.005	0.000	-0.005	0.010	0.029	2.783	1.899	1.885	1.885	1.899	1.899	1.899
0.005	0.000	0.000	0.000	0.000	0.000	0.029	2.676	1.895	1.885	1.880	1.899	1.899	1.899
0.005	-0.015	0.000	0.000	0.000	0.000	0.029	2.646	1.890	1.885	1.880	1.899	1.895	1.899
0.010	-0.015	0.000	0.005	0.000	0.010	0.029	2.715	1.895	1.885	1.885	1.899	1.899	1.899
0.024	-0.015	0.010	0.000	0.000	0.010	0.029	2.671	1.895	1.890	1.890	1.904	1.899	1.899
0.010	-0.005	0.010	0.000	0.005	0.005	0.029	2.646	1.885	1.885	1.885	1.904	1.899	1.899
0.015	-0.010	0.005	0.000	0.000	-0.010	0.029	2.671	1.885	1.885	1.885	1.904	1.899	1.895
0.015	-0.010	0.005	-0.005	0.000	0.005	0.029	2.739	1.890	1.890	1.885	1.899	1.895	1.899
0.020	0.005	0.005	0.000	0.005	-0.010	0.029	2.808	1.904	1.890	1.885	1.904	1.899	1.890
0.005	-0.010	0.005	0.000	0.000	-0.010	0.029	2.642	1.890	1.890	1.890	1.904	1.895	1.890
0.010	0.005	0.000	0.005	-0.005	0.005	0.029	2.651	1.895	1.890	1.885	1.904	1.895	1.899
0.000	-0.005	-0.005	0.000	0.005	0.000	0.029	2.734	1.895	1.890	1.885	1.904	1.899	1.899
0.010	0.000	0.000	-0.005	0.000	-0.005	0.029	2.656	1.890	1.890	1.890	1.904	1.899	1.895
0.020	0.015	-0.005	0.000	0.005	0.005	0.029	2.686	1.895	1.899	1.890	1.904	1.899	1.899
-0.005	0.024	0.000	0.000	0.000	0.005	0.029	2.759	1.899	1.895	1.890	1.909	1.899	1.899
-0.005	0.020	-0.010	0.005	0.005	-0.005	0.029	2.656	1.890	1.895	1.890	1.909	1.904	1.899
-0.010	0.010	-0.005	0.000	0.005	-0.005	0.029	2.715	1.890	1.890	1.890	1.909	1.904	1.899
-0.020	-0.005	-0.005	0.005	0.010	0.005	0.029	2.671	1.890	1.885	1.890	1.909	1.904	1.899
-0.020	-0.010	0.000	0.000	0.010	0.000	0.029	2.671	1.890	1.880	1.890	1.909	1.904	1.904
0.000	0.010	0.000	0.000	0.010	0.000	0.029	2.676	1.890	1.890	1.890	1.909	1.904	1.904
0.005	0.000	0.010	0.005	0.005	-0.010	0.029	2.671	1.890	1.890	1.890	1.909	1.904	1.899
0.000	0.000	0.015	0.005	0.000	0.005	0.029	2.676	1.885	1.890	1.890	1.909	1.899	1.904
0.029	-0.010	0.005	0.000	-0.005	0.005	0.029	2.686	1.895	1.885	1.885	1.904	1.904	1.899
0.029	-0.010	0.010	0.005	-0.005	0.015	0.029	2.666	1.885	1.885	1.885	1.904	1.899	1.904
0.039	-0.005	0.005	0.005	-0.005	0.010	0.029	2.705	1.890	1.885	1.885	1.904	1.899	1.899
0.034	-0.010	0.005	0.005	-0.005	-0.010	0.029	2.681	1.890	1.885	1.885	1.904	1.899	1.890
0.015	-0.020	0.005	0.000	0.005	-0.029	0.029	2.690	1.880	1.880	1.885	1.899	1.899	1.890
-0.005	-0.020	-0.005	0.000	0.000	0.000	0.029	2.695	1.880	1.880	1.880	1.899	1.899	1.904
-0.029	0.015	0.000	0.000	-0.005	-0.005	0.029	2.695	1.880	1.885	1.880	1.899	1.895	1.899
-0.059	0.015	0.000	-0.005	-0.015	0.015	0.029	2.676	1.870	1.880	1.880	1.899	1.895	1.899
-0.068	0.020	-0.005	0.000	-0.015	0.005	0.029	2.705	1.875	1.880	1.880	1.899	1.895	1.899
-0.054	0.015	-0.005	0.010	0.000	0.015	0.029	2.705	1.890	1.880	1.880	1.904	1.899	1.899
-0.044	0.005	-0.005	0.000	0.005	0.005	0.029	2.705	1.890	1.880	1.880	1.899	1.899	1.895
-0.029	0.000	-0.005	0.000	0.005	-0.005	0.029	2.690	1.895	1.880	1.880	1.899	1.899	1.899
-0.010	0.000	-0.005	0.000	0.000	-0.024	0.029	2.705	1.904	1.890	1.880	1.899	1.895	1.890
0.010	-0.010	0.005	-0.005	0.000	0.010	0.029	2.666	1.899	1.890	1.885	1.899	1.895	1.899
0.020	-0.005	0.005	0.005	-0.005	0.010	0.024	2.690	1.899	1.895	1.885	1.899	1.895	1.899
0.029	0.000	0.000	0.000	-0.020	0.000	0.029	2.690	1.904	1.895	1.890	1.904	1.890	1.890
0.029	-0.015	0.010	0.000	-0.024	0.010	0.029	2.690	1.895	1.895	1.885	1.904	1.895	1.895
0.029	-0.015	0.005	0.005	-0.020	0.000	0.029	2.622	1.885	1.890	1.890	1.904	1.895	1.890
0.034	-0.005	0.000	0.005	0.005	0.005	0.029	2.778	1.895	1.895	1.890	1.904	1.904	1.899
0.024	0.010	0.005	0.000	0.063	-0.020	0.029	2.671	1.890	1.895	1.890	1.909	1.919	1.895
0.015	0.005	0.000	0.005	0.107	0.010	0.029	2.671	1.880	1.890	1.890	1.909	1.929	1.914
0.015	0.005	0.005	0.000	0.122	0.010	0.029	2.646	1.880	1.885	1.890	1.909	1.924	1.914
0.010	0.000	0.000	-0.005	0.059	0.015	0.024	2.671	1.880	1.880	1.885	1.904	1.899	1.909
0.000	0.005	-0.005	0.000	0.010	0.005	0.029	2.646	1.875	1.880	1.885	1.899	1.885	1.899
0.000	0.000	0.000	0.000	0.000	-0.015	0.029	2.676	1.880	1.885	1.885	1.904	1.890	1.895
0.005	0.005	-0.005	0.005	-0.010	0.005	0.029	2.744	1.890	1.885	1.880	1.904	1.890	1.895
0.000	0.010	0.000	0.000	-0.015	0.005	0.029	2.817	1.904	1.890	1.885	1.904	1.890	1.895
-0.005	0.000	-0.005	0.000	-0.029	0.005	0.029	2.725	1.890	1.885	1.885	1.904	1.890	1.890
-0.015	-0.015	0.000	0.000	-0.024	0.005	0.029	2.666	1.885	1.880	1.885	1.904	1.895	1.890
0.005	-0.015	-0.005	0.000	-0.024	0.000	0.029	2.744	1.895	1.885	1.880	1.899	1.895	1.895
0.000	-0.024	0.005	0.000	-0.020	-0.015	0.029	2.720	1.895	1.885	1.880	1.899	1.895	1.890
0.000	-0.005	0.005	0.000	-0.015	-0.010	0.029	2.705	1.899	1.890	1.885	1.904	1.895	1.895
0.005	-0.010	0.005	0.005	-0.015	-0.020	0.029	2.734	1.899	1.890	1.885	1.904	1.899	1.895
0.005	0.015	0.010	0.000	-0.010	-0.005	0.029	2.642	1.890	1.899	1.890	1.904	1.899	1.895
0.015	0.005	0.005	0.000	-0.005	0.015	0.029	2.666	1.890	1.895	1.890	1.904	1.899	1.904
0.010	0.005	0.005	0.000	-0.005	0.015	0.029	2.666	1.885	1.890	1.890	1.904	1.899	1.899
0.000	0.015	0.005	0.000	-0.010	0.005	0.029	2.676	1.880	1.890	1.885	1.904	1.899	1.899
0.005	0.005	0.000	0.000	-0.005	0.015	0.029	2.671	1.880	1.885	1.885	1.904	1.904	1.904
-0.005	0.000	0.005	0.000	0.000	-0.010	0.029	2.671	1.880	1.880	1.885	1.904	1.899	1.895
-0.010	0.005	0.005	0.000	0.000	0.020	0.029	2.700	1.885	1.885	1.880	1.904	1.904	1.904
-0.015	0.015	-0.005	0.000	-0.005	0.005	0.029	2.676	1.885	1.885	1.880	1.904	1.899	1.899
-0.015	0.024	0.000	0.000	-0.005	0.015	0.029	2.676	1.880	1.890	1.880	1.904	1.899	1.899
-0.005	0.020	-0.005	0.000	-0.005	0.010	0.029	2.700	1.885	1.885	1.885	1.899	1.899	1.899
0.005	0.000	-0.005	0.000	0.000	0.000	0.029	2.705	1.890	1.885	1.880	1.899	1.899	1.895
0.005	0.015	-0.005	0.000	0.005	0.010	0.029	2.705	1.895	1.890	1.885	1.904	1.899	1.899
0.000	0.005	0.000	0.000	0.000	0.005	0.029	2.710	1.895	1.890	1.885	1.904	1.899	1.895
0.010	0.000	0.000	0.005	-0.010	0.015	0.029	2.690	1.895	1.885	1.885	1.899	1.895	1.899
0.000	0.005	0.000	0.000	-0.010	-0.005	0.029	2.671	1.890	1.890	1.885	1.904	1.895	1.895
0.010	0.010	0.000	0.005	-0.034	-0.010	0.029	2.676	1.890	1.890	1.885	1.904	1.890	1.890
0.015	0.000	0.000	0.000	-0.034	-0.010	0.029	2.690	1.890	1.885	1.885	1.899	1.890	1.890
0.010	-0.010	0.005	0.000	-0.029	-0.005	0.029	2.700	1.890	1.880	1.885	1.904	1.895	1.890
0.010	-0.010	0.010	0.005	-0.029	-0.005	0.029	2.700	1.890	1.885	1.885	1.904	1.895	1.895
0.010	0.000	0.005	0.000	-0.034	-0.024	0.029	2.705	1.890	1.890	1.885	1.904	1.895	1.890
0.010	0.005	0.010	-0.005	-0.049	-0.005	0.029	2.715	1.895	1.890	1.885	1.904	1.890	1.890
0.010	0.000	0.005	0.000	-0.044	-0.029	0.029	2.700	1.890	1.890	1.885	1.899	1.895	1.885
0.005	-0.010	-0.005	0.000	-0.020	0.005	0.029	2.690	1.885	1.880	1.885	1.904	1.904	1.899
0.000	0.005	0.000	0.000	-0.015	0.010	0.029	2.690	1.890	1.890	1.885	1.904	1.904	1.899
0.005	-0.020	-0.005	0.005	0.015	0.010	0.029	2.646	1.880	1.880	1.880	1.904	1.909	1.904
-0.015	-0.005	0.000	0.000	0.063	0.005	0.029	2.651	1.880	1.885	1.880	1.904	1.919	1.904
-0.024	0.000	0.000	0.000	0.088	0.000	0.029	2.681	1.875	1.880	1.885	1.904	1.924	1.914
-0.015	0.000	0.000	0.005	0.098	0.010	0.029	2.651	1.880	1.885	1.885	1.904	1.919	1.919
-0.010	0.015	-0.005	0.000	0.151	0.024	0.029	2.637	1.880	1.890	1.885	1.904	1.929	1.924
-0.010	0.015	0.005	0.000	0.132	0.024	0.029	2.676	1.885	1.885	1.885	1.904	1.914	1.919
-0.005	0.000	0.000	0.000	0.093	0.020	0.029	2.739	1.899	1.885	1.885	1.899	1.899	1.914
0.000	0.000	0.000	0.000	0.063	0.005	0.029	2.676	1.899	1.885	1.885	1.899	1.890	1.904
0.005	-0.010	0.005	0.005	0.020	0.020	0.029	2.646	1.890	1.885	1.885	1.899	1.880	1.899
0.005	-0.005	0.000	0.000	-0.034	0.005	0.029	2.656	1.890	1.885	1.880	1.899	1.870	1.885
0.010	-0.024	0.005	0.000	-0.059	0.005	0.029	2.729	1.895	1.885	1.880	1.899	1.870	1.875
0.044	-0.010	0.000	0.000	-0.044	0.000	0.029	2.725	1.904	1.890	1.885	1.899	1.880	1.880
0.039	-0.005	0.005	0.000	-0.024	0.000	0.029	2.744	1.899	1.895	1.885	1.899	1.890	1.885
0.024	0.005	0.000	-0.005	-0.010	0.010	0.029	2.642	1.890	1.895	1.890	1.904	1.895	1.890
0.005	0.005	0.000	0.005	0.005	-0.005	0.029	2.705	1.885	1.890	1.890	1.904	1.899	1.885
-0.015	0.005	0.005	0.000	0.015	0.005	0.029	2.705	1.880	1.885	1.890	1.904	1.904	1.895
-0.029	0.015	0.005	-0.005	0.005	-0.020	0.029	2.656	1.875	1.885	1.885	1.904	1.899	1.885
-0.039	0.015	0.005	0.000	-0.010	-0.015	0.024	2.681	1.875	1.885	1.885	1.904	1.895	1.890
-0.034	0.020	-0.005	-0.005	-0.010	-0.034	0.029	2.715	1.885	1.880	1.880	1.904	1.895	1.890
-0.024	0.020	0.000	0.000	-0.010	-0.020	0.029	2.671	1.880	1.880	1.880	1.904	1.895	1.895
-0.015	0.005	-0.005	0.000	-0.010	-0.010	0.029	2.676	1.890	1.880	1.880	1.904	1.899	1.899
-0.005	0.020	-0.005	0.005	-0.020	-0.005	0.029	2.676	1.895	1.885	1.880	1.904	1.895	1.899
0.000	0.000	0.000	0.015	-0.020	-0.029	0.029	2.666	1.895	1.880	1.885	1.904	1.895	1.890
0.015	-0.005	0.000	0.005	-0.024	0.005	0.029	2.676	1.890	1.885	1.885	1.904	1.899	1.904
0.020	0.000	0.005	0.005	-0.020	0.005	0.029	2.695	1.895	1.890	1.880	1.899	1.895	1.899
0.020	-0.005	0.000	0.000	-0.010	0.000	0.029	2.676	1.890	1.885	1.880	1.899	1.899	1.899
0.024	-0.039	0.005	0.000	-0.015	0.000	0.029	2.671	1.890	1.880	1.880	1.899	1.899	1.895
0.020	-0.015	0.005	0.005	0.000	-0.020	0.029	2.705	1.890	1.885	1.880	1.899	1.899	1.890
0.015	0.000	0.005	0.005	0.010	0.015	0.029	2.676	1.885	1.890	1.885	1.904	1.904	1.904
0.000	0.000	0.005	0.005	-0.005	0.005	0.029	2.710	1.885	1.885	1.880	1.899	1.899	1.899
0.005	0.005	0.000	0.005	-0.005	0.010	0.029	2.710	1.890	1.890	1.885	1.904	1.899	1.899
0.005	0.005	0.005	0.005	0.000	0.005	0.029	2.715	1.890	1.890	1.885	1.904	1.899	1.895
0.000	0.015	0.000	0.005	-0.029	-0.015	0.029	2.705	1.890	1.890	1.885	1.899	1.890	1.890
0.000	0.010	0.000	0.005	-0.049	-0.005	0.029	2.700	1.890	1.885	1.885	1.899	1.885	1.890
0.005	-0.005	-0.005	0.005	-0.059	-0.024	0.029	2.700	1.890	1.885	1.885	1.899	1.885	1.885
0.000	-0.005	-0.005	0.005	-0.063	-0.010	0.029	2.710	1.890	1.885	1.885	1.899	1.890	1.890
0.000	-0.010	-0.005	0.005	-0.063	-0.010	0.024	2.671	1.885	1.885	1.885	1.899	1.890	1.890
0.005	-0.010	-0.005	0.005	-0.044	-0.015	0.029	2.681	1.885	1.880	1.885	1.904	1.899	1.895
0.000	-0.005	-0.005	0.005	-0.020	0.015	0.029	2.681	1.890	1.885	1.885	1.904	1.904	1.904
0.010	-0.005	0.000	0.000	-0.010	0.024	0.029	2.681	1.890	1.885	1.885	1.904	1.904	1.909
0.005	0.000	0.005	0.000	-0.010	0.034	0.029	2.646	1.885	1.890	1.885	1.904	1.904	1.904
0.000	-0.005	0.005	0.000	-0.005	0.024	0.029	2.666	1.895	1.885	1.885	1.904	1.904	1.904
0.015	-0.010	0.005	0.000	0.005	0.024	0.029	2.661	1.895	1.890	1.885	1.904	1.904	1.904
0.020	-0.005	0.005	-0.005	0.020	0.005	0.029	2.773	1.890	1.890	1.885	1.904	1.909	1.899
0.015	0.015	0.005	-0.005	0.010	0.020	0.029	2.734	1.895	1.895	1.890	1.904	1.899	1.904
0.010	0.010	0.005	0.000	0.000	0.005	0.029	2.666	1.885	1.890	1.890	1.904	1.899	1.899
0.005	0.010	0.005	-0.005	0.049	-0.015	0.029	2.656	1.885	1.890	1.890	1.904	1.914	1.895
-0.010	0.015	0.000	-0.005	0.142	0.005	0.029	2.671	1.880	1.880	1.885	1.909	1.938	1.914
-0.015	0.039	0.000	-0.005	0.225	0.010	0.029	2.744	1.895	1.895	1.890	1.909	1.948	1.924
-0.015	0.034	0.000	-0.005	0.176	-0.005	0.029	2.783	1.904	1.895	1.890	1.904	1.919	1.919
-0.020	0.039	0.000	0.000	0.073	-0.005	0.029	2.754	1.909	1.899	1.890	1.904	1.890	1.909
-0.020	0.029	-0.005	0.000	0.029	0.005	0.034	2.661	1.895	1.895	1.890	1.904	1.880	1.904
-0.020	0.015	-0.015	-0.005	-0.005	0.005	0.029	2.754	1.904	1.890	1.885	1.904	1.875	1.895
-0.015	0.010	-0.005	0.000	-0.044	0.005	0.029	2.651	1.895	1.895	1.890	1.904	1.875	1.890
-0.005	0.000	-0.005	0.000	-0.054	0.020	0.029	2.690	1.895	1.890	1.890	1.904	1.880	1.890
-0.005	0.005	0.000	0.000	-0.044	0.010	0.029	2.754	1.899	1.895	1.890	1.909	1.890	1.885
0.000	-0.010	0.005	0.000	-0.020	-0.010	0.029	2.651	1.890	1.890	1.890	1.909	1.899	1.885
-0.005	-0.015	0.005	0.010	0.000	0.010	0.029	2.705	1.885	1.890	1.890	1.909	1.904	1.899
-0.005	-0.020	0.010	0.000	0.020	0.010	0.029	2.695	1.890	1.885	1.890	1.909	1.909	1.899
-0.005	-0.015	0.005	0.000	0.010	0.005	0.029	2.671	1.885	1.885	1.885	1.909	1.909	1.899
0.000	-0.020	0.010	-0.005	-0.005	0.015	0.029	2.671	1.885	1.885	1.885	1.904	1.899	1.899
0.000	-0.020	0.005	0.000	-0.024	-0.005	0.029	2.671	1.880	1.880	1.880	1.904	1.890	1.890
-0.005	-0.073	0.005	0.000	-0.039	-0.005	0.029	2.710	1.875	1.870	1.875	1.904	1.890	1.895
-0.005	-0.044	0.000	0.000	-0.059	-0.010	0.029	2.676	1.880	1.875	1.875	1.899	1.885	1.890
-0.005	-0.029	0.000	0.000	-0.059	0.000	0.029	2.695	1.885	1.880	1.875	1.899	1.890	1.890
0.000	0.000	0.000	0.000	-0.063	-0.005	0.029	2.700	1.890	1.890	1.880	1.895	1.885	1.890
0.005	-0.010	0.000	0.005	-0.054	-0.005	0.029	2.686	1.885	1.885	1.885	1.899	1.895	1.890
0.000	0.000	0.000	0.005	-0.049	0.005	0.024	2.710	1.885	1.885	1.880	1.899	1.895	1.895
-0.010	0.005	0.000	0.005	-0.034	0.000	0.029	2.686	1.885	1.890	1.885	1.899	1.899	1.890
-0.005	0.005	0.000	0.000	-0.020	0.000	0.029	2.705	1.890	1.890	1.885	1.904	1.899	1.895
0.000	0.010	0.000	0.000	-0.020	0.005	0.029	2.700	1.895	1.890	1.890	1.904	1.899	1.899
-0.005	0.000	0.000	-0.005	-0.015	0.000	0.029	2.700	1.890	1.885	1.890	1.904	1.904	1.899
0.000	0.000	0.000	0.000	-0.005	-0.010	0.029	2.676	1.890	1.885	1.885	1.904	1.904	1.895
0.000	0.010	0.000	0.005	-0.005	-0.005	0.029	2.695	1.895	1.895	1.890	1.904	1.904	1.899
0.015	0.010	0.005	0.010	0.000	0.005	0.029	2.671	1.890	1.890	1.890	1.904	1.904	1.904
0.010	0.000	0.005	0.005	0.005	0.000	0.029	2.666	1.885	1.890	1.890	1.904	1.904	1.909
0.015	0.005	0.010	0.005	0.010	0.010	0.029	2.666	1.890	1.890	1.890	1.904	1.904	1.909
0.010	0.029	0.010	0.010	0.015	0.005	0.029	2.666	1.890	1.890	1.890	1.909	1.904	1.909
0.010	0.024	0.000	0.005	0.020	0.010	0.029	2.686	1.885	1.890	1.885	1.904	1.904	1.904
0.020	0.015	0.010	0.000	0.010	0.005	0.029	2.690	1.890	1.885	1.885	1.904	1.899	1.904
0.010	0.029	-0.005	0.005	0.010	0.005	0.029	2.642	1.880	1.885	1.885	1.904	1.899	1.904
-0.005	0.020	0.005	-0.005	0.010	0.015	0.029	2.778	1.895	1.885	1.885	1.899	1.899	1.904
0.000	0.015	0.000	0.000	0.005	0.000	0.029	2.666	1.890	1.885	1.885	1.904	1.899	1.899
0.000	-0.005	0.000	0.000	0.020	-0.005	0.029	2.666	1.885	1.880	1.880	1.904	1.899	1.899
-0.010	-0.005	0.000	0.000	0.020	0.000	0.029	2.744	1.880	1.880	1.880	1.904	1.899	1.899
-0.010	-0.005	-0.005	0.000	0.015	-0.015	0.029	2.690	1.880	1.880	1.880	1.899	1.899	1.895
-0.020	-0.005	-0.005	0.000	0.024	0.000	0.029	2.715	1.885	1.880	1.880	1.899	1.899	1.899
-0.005	-0.020	0.000	-0.005	0.015	-0.005	0.029	2.681	1.890	1.880	1.880	1.899	1.899	1.899
-0.005	-0.010	-0.005	0.000	0.020	0.010	0.029	2.642	1.890	1.885	1.880	1.899	1.899	1.904
0.005	-0.015	0.000	0.000	0.020	0.000	0.029	2.778	1.895	1.885	1.880	1.899	1.899	1.895
0.005	-0.010	-0.005	-0.005	0.024	0.005	0.029	2.739	1.899	1.890	1.885	1.899	1.899	1.899
0.015	-0.020	0.005	0.000	0.015	0.005	0.029	2.656	1.895	1.890	1.885	1.899	1.895	1.895
0.015	-0.015	0.005	0.000	0.024	-0.020	0.029	2.739	1.899	1.890	1.885	1.904	1.895	1.890
0.010	-0.005	0.005	0.005	0.024	-0.015	0.029	2.710	1.895	1.895	1.890	1.904	1.895	1.895
0.010	0.000	0.000	0.000	0.020	0.005	0.029	2.720	1.890	1.895	1.890	1.899	1.899	1.899
0.010	0.010	0.005	0.000	0.015	0.015	0.029	2.744	1.895	1.895	1.890	1.904	1.899	1.899
0.015	0.015	0.005	0.000	0.010	0.000	0.029	2.690	1.895	1.895	1.895	1.909	1.895	1.895
0.010	0.029	0.005	0.005	0.005	0.005	0.029	2.700	1.895	1.895	1.890	1.909	1.899	1.895
0.005	0.015	0.005	0.005	0.005	-0.005	0.029	2.695	1.890	1.895	1.890	1.909	1.899	1.890
0.005	0.020	-0.005	0.005	0.005	-0.005	0.029	2.676	1.885	1.890	1.890	1.909	1.899	1.895
0.000	0.010	0.000	0.005	0.005	0.010	0.029	2.671	1.885	1.890	1.885	1.909	1.899	1.899
-0.005	0.015	0.000	0.005	0.000	0.015	0.029	2.671	1.885	1.890	1.890	1.904	1.899	1.904
-0.005	0.005	-0.005	0.000	0.020	0.020	0.024	2.671	1.880	1.880	1.885	1.909	1.904	1.904
-0.010	0.000	0.000	0.000	0.015	0.015	0.029	2.681	1.885	1.880	1.885	1.904	1.904	1.899
-0.010	-0.020	0.000	0.000	0.020	0.000	0.029	2.695	1.885	1.875	1.880	1.904	1.904	1.899
-0.005	-0.010	0.005	0.000	0.010	-0.024	0.029	2.705	1.890	1.885	1.885	1.904	1.899	1.895
0.000	-0.015	0.005	0.000	0.005	-0.015	0.029	2.695	1.890	1.885	1.885	1.904	1.899	1.899
0.005	0.015	0.005	0.000	0.000	-0.005	0.029	2.695	1.895	1.895	1.885	1.899	1.895	1.899
0.005	0.000	0.005	0.000	-0.005	-0.024	0.029	2.676	1.890	1.885	1.885	1.904	1.895	1.890
0.010	0.000	0.010	0.005	0.000	-0.020	0.029	2.695	1.890	1.890	1.885	1.899	1.895	1.895
0.010	-0.005	0.000	0.005	0.000	0.005	0.029	2.671	1.890	1.885	1.885	1.904	1.895	1.904
0.010	-0.015	0.000	0.005	-0.020	0.010	0.029	2.676	1.885	1.880	1.880	1.904	1.890	1.899
0.024	-0.020	0.005	0.000	-0.020	0.010	0.029	2.681	1.890	1.880	1.880	1.899	1.895	1.895
0.005	0.000	0.005	0.005	-0.015	0.020	0.029	2.690	1.890	1.890	1.885	1.899	1.895	1.899
0.005	0.024	0.005	0.000	-0.010	-0.005	0.029	2.700	1.890	1.895	1.885	1.899	1.895	1.890
0.015	0.015	-0.005	0.005	-0.010	-0.020	0.029	2.710	1.895	1.890	1.885	1.904	1.895	1.890
-0.005	0.010	0.000	0.005	-0.010	0.005	0.029	2.695	1.885	1.890	1.885	1.904	1.895	1.899
-0.005	0.024	0.000	0.005	-0.005	0.015	0.029	2.676	1.890	1.890	1.890	1.904	1.899	1.904
0.000	0.005	-0.005	0.000	-0.010	0.005	0.029	2.690	1.885	1.880	1.885	1.904	1.899	1.899
-0.005	0.000	-0.010	0.005	0.000	0.020	0.029	2.695	1.890	1.880	1.880	1.904	1.899	1.904
0.000	0.005	-0.005	0.000	0.000	0.015	0.029	2.642	1.885	1.885	1.885	1.904	1.899	1.899
-0.005	0.015	0.000	0.000	0.000	0.000	0.029	2.773	1.895	1.890	1.885	1.899	1.899	1.895
0.000	0.024	-0.005	0.000	0.010	0.000	0.029	2.666	1.890	1.890	1.885	1.904	1.904	1.899
0.000	0.020	0.005	-0.005	0.029	0.000	0.029	2.671	1.885	1.890	1.890	1.904	1.904	1.899
0.000	0.020	0.015	-0.005	0.034	-0.010	0.029	2.642	1.899	1.890	1.890	1.904	1.904	1.899
-0.005	0.029	0.010	0.000	0.034	0.000	0.029	2.661	1.890	1.890	1.890	1.909	1.904	1.904
0.000	0.034	0.010	0.000	0.024	0.015	0.029	2.637	1.880	1.890	1.890	1.909	1.899	1.904
0.000	-0.005	0.010	0.000	0.010	0.010	0.029	2.686	1.880	1.875	1.880	1.904	1.899	1.899
0.010	-0.020	0.015	0.000	0.010	0.000	0.029	2.686	1.880	1.875	1.880	1.904	1.895	1.899
0.010	-0.020	0.005	0.000	-0.005	0.010	0.029	2.783	1.880	1.875	1.875	1.899	1.895	1.899
0.010	-0.020	0.000	-0.005	0.000	0.000	0.029	2.710	1.885	1.875	1.875	1.899	1.895	1.895
0.005	-0.039	0.000	0.000	-0.005	-0.010	0.029	2.754	1.890	1.875	1.875	1.899	1.890	1.890
0.005	-0.034	-0.005	0.000	0.000	0.000	0.029	2.725	1.899	1.880	1.875	1.895	1.895	1.895
-0.005	-0.029	-0.005	0.005	0.015	0.000	0.029	2.744	1.895	1.885	1.875	1.895	1.895	1.899
-0.015	-0.020	0.000	0.000	0.020	-0.005	0.029	2.725	1.895	1.890	1.880	1.895	1.895	1.895
-0.020	0.000	-0.005	0.000	0.010	0.000	0.029	2.749	1.899	1.895	1.885	1.895	1.890	1.895
-0.010	-0.005	0.000	0.000	-0.005	-0.015	0.029	2.651	1.895	1.895	1.890	1.899	1.890	1.890
0.000	0.059	0.000	0.005	-0.010	0.000	0.029	2.700	1.899	1.914	1.895	1.904	1.895	1.895
-0.015	0.020	-0.005	0.000	-0.005	-0.010	0.029	2.705	1.890	1.890	1.890	1.909	1.895	1.890
-0.010	-0.029	-0.005	0.000	-0.020	0.000	0.029	2.671	1.890	1.880	1.885	1.904	1.895	1.895
0.000	-0.039	-0.005	0.005	-0.010	0.015	0.029	2.681	1.890	1.880	1.885	1.904	1.899	1.899
0.010	-0.024	-0.005	0.000	-0.024	0.010	0.029	2.671	1.890	1.885	1.885	1.904	1.895	1.895
0.010	-0.005	0.000	0.000	-0.024	0.010	0.029	2.671	1.890	1.895	1.890	1.904	1.895	1.895
0.010	0.000	0.005	0.005	-0.029	-0.010	0.029	2.671	1.885	1.890	1.890	1.904	1.895	1.890
0.000	0.020	0.010	0.005	-0.024	0.015	0.029	2.700	1.890	1.890	1.890	1.909	1.899	1.899
0.010	0.005	0.010	0.010	-0.010	0.010	0.029	2.705	1.890	1.890	1.890	1.909	1.909	1.899
0.020	0.005	0.010	0.005	0.010	0.000	0.029	2.700	1.890	1.885	1.890	1.904	1.909	1.904
0.000	0.010	0.000	-0.005	0.015	0.000	0.024	2.705	1.890	1.890	1.890	1.904	1.909	1.904
0.000	0.015	0.005	0.000	0.015	-0.010	0.029	2.705	1.890	1.890	1.885	1.904	1.904	1.899
-0.010	0.020	0.000	0.000	0.015	0.000	0.029	2.695	1.885	1.885	1.885	1.904	1.904	1.904
-0.010	0.029	-0.005	0.000	0.010	-0.005	0.029	2.676	1.885	1.890	1.885	1.904	1.899	1.899
-0.005	0.020	-0.005	0.000	-0.010	0.000	0.029	2.705	1.890	1.885	1.885	1.904	1.899	1.904
-0.010	0.015	0.000	0.005	-0.015	-0.010	0.029	2.695	1.890	1.885	1.885	1.904	1.895	1.895
-0.005	0.039	-0.005	-0.005	-0.010	-0.005	0.029	2.705	1.895	1.895	1.890	1.904	1.895	1.899
-0.005	0.029	-0.005	-0.005	-0.005	0.005	0.029	2.671	1.890	1.885	1.885	1.904	1.899	1.899
-0.005	-0.005	-0.005	0.000	0.000	0.010	0.029	2.695	1.890	1.880	1.885	1.904	1.899	1.904
0.010	0.000	0.000	0.000	0.000	-0.010	0.029	2.690	1.895	1.885	1.885	1.904	1.899	1.899
-0.005	-0.005	0.005	0.000	0.005	-0.005	0.029	2.715	1.890	1.885	1.885	1.904	1.899	1.899
0.005	-0.015	0.005	0.005	0.010	0.015	0.029	2.671	1.890	1.885	1.885	1.904	1.904	1.904
0.005	-0.010	0.005	0.005	0.020	0.010	0.029	2.690	1.890	1.885	1.885	1.904	1.904	1.904
0.005	-0.010	0.010	0.000	0.005	0.000	0.029	2.637	1.885	1.885	1.885	1.904	1.899	1.899
0.005	-0.015	0.005	0.005	0.000	-0.010	0.029	2.651	1.899	1.885	1.880	1.899	1.895	1.895
0.015	-0.010	0.005	0.005	-0.010	0.005	0.029	2.666	1.895	1.890	1.885	1.904	1.895	1.899
0.010	-0.015	0.005	0.000	-0.010	0.000	0.029	2.788	1.890	1.890	1.885	1.899	1.895	1.895
0.000	-0.020	0.005	0.000	-0.005	0.005	0.029	2.734	1.890	1.885	1.885	1.899	1.895	1.895
0.005	0.015	0.000	0.005	0.000	0.010	0.029	2.676	1.890	1.899	1.885	1.899	1.899	1.895
0.000	0.015	0.000	0.000	0.000	-0.005	0.029	2.656	1.885	1.890	1.890	1.904	1.899	1.895
-0.010	-0.005	0.000	0.000	0.000	-0.015	0.029	2.671	1.880	1.885	1.885	1.904	1.895	1.890
-0.015	-0.010	0.000	0.000	0.000	0.015	0.029	2.651	1.880	1.880	1.880	1.904	1.899	1.899
-0.005	-0.010	0.000	0.000	-0.005	0.015	0.029	2.817	1.899	1.885	1.880	1.899	1.899	1.899
0.000	-0.010	0.000	0.000	0.000	0.010	0.029	2.744	1.904	1.890	1.885	1.899	1.899	1.899
-0.005	-0.020	0.005	0.000	0.000	0.000	0.029	2.661	1.895	1.890	1.885	1.904	1.899	1.895
0.010	-0.010	0.000	0.000	0.005	-0.010	0.029	2.744	1.904	1.895	1.885	1.904	1.899	1.890
-0.005	-0.005	-0.005	0.000	0.005	-0.005	0.024	2.651	1.885	1.895	1.890	1.904	1.899	1.899
-0.005	-0.010	0.000	0.005	0.000	-0.005	0.029	2.720	1.890	1.890	1.890	1.909	1.899	1.899
0.005	-0.010	0.005	0.000	0.000	0.005	0.029	2.749	1.904	1.895	1.890	1.909	1.899	1.899
0.010	0.000	0.010	0.000	0.005	-0.020	0.029	2.661	1.895	1.895	1.895	1.909	1.899	1.890
0.010	0.000	0.000	0.000	-0.005	0.020	0.029	2.705	1.895	1.895	1.890	1.909	1.899	1.904
0.010	0.000	0.005	0.005	0.000	0.015	0.029	2.686	1.890	1.895	1.890	1.909	1.904	1.904
0.010	-0.005	0.000	0.000	0.000	0.010	0.029	2.666	1.885	1.890	1.890	1.904	1.899	1.899
0.015	0.000	0.005	0.000	-0.005	0.015	0.029	2.676	1.890	1.890	1.890	1.904	1.899	1.899
0.049	0.010	0.000	0.005	0.005	0.010	0.029	2.666	1.895	1.895	1.890	1.909	1.899	1.899
0.049	0.024	-0.005	0.000	0.005	0.000	0.029	2.681	1.895	1.899	1.895	1.909	1.904	1.899
0.029	0.020	0.000	0.000	0.010	0.000	0.029	2.676	1.890	1.895	1.890	1.909	1.904	1.899
0.015	0.015	0.005	0.000	-0.005	-0.005	0.029	2.700	1.885	1.890	1.890	1.909	1.904	1.899
0.029	0.000	0.000	0.000	0.005	-0.010	0.029	2.705	1.890	1.885	1.885	1.909	1.904	1.899
0.020	0.005	0.000	-0.005	0.005	-0.005	0.029	2.710	1.890	1.885	1.885	1.909	1.904	1.904
-0.029	-0.005	0.000	0.000	0.000	0.000	0.029	2.695	1.875	1.880	1.885	1.904	1.904	1.899
-0.063	0.015	0.000	-0.005	0.005	0.005	0.029	2.695	1.875	1.880	1.885	1.909	1.904	1.904
-0.063	0.015	0.000	-0.005	0.000	0.010	0.029	2.695	1.880	1.880	1.880	1.904	1.899	1.904
-0.068	-0.005	-0.005	0.000	0.000	-0.010	0.029	2.695	1.880	1.875	1.880	1.904	1.899	1.899
-0.078	-0.020	0.000	0.000	0.000	0.005	0.029	2.666	1.875	1.870	1.875	1.899	1.899	1.899
-0.073	-0.005	0.005	0.005	0.005	0.005	0.029	2.671	1.880	1.875	1.875	1.899	1.899	1.899
-0.059	-0.005	0.005	0.000	0.000	0.005	0.029	2.700	1.890	1.880	1.875	1.895	1.899	1.899
0.005	0.000	0.005	0.010	-0.005	0.010	0.029	2.700	1.909	1.890	1.880	1.899	1.895	1.899
0.063	0.000	0.000	0.005	0.005	0.010	0.029	2.661	1.914	1.899	1.885	1.899	1.895	1.899
0.068	0.010	0.005	0.010	0.005	0.015	0.029	2.676	1.909	1.904	1.885	1.899	1.895	1.899
0.054	0.015	0.000	0.005	-0.005	0.000	0.029	2.695	1.895	1.904	1.890	1.904	1.895	1.895
0.039	0.024	0.000	0.005	0.005	-0.010	0.029	2.681	1.890	1.899	1.895	1.904	1.899	1.890
0.010	0.049	0.005	-0.005	-0.005	-0.005	0.029	2.700	1.885	1.904	1.895	1.909	1.899	1.895
-0.020	0.029	-0.010	0.000	-0.005	-0.005	0.029	2.651	1.870	1.890	1.890	1.909	1.899	1.895
-0.029	0.005	-0.010	0.000	0.000	0.005	0.029	2.715	1.890	1.880	1.885	1.909	1.899	1.899
-0.015	-0.010	-0.010	0.000	0.010	0.005	0.029	2.666	1.885	1.875	1.880	1.904	1.899	1.899
-0.039	0.005	-0.010	0.005	0.000	0.015	0.029	2.715	1.880	1.885	1.880	1.909	1.904	1.904
-0.034	0.000	-0.005	0.005	0.010	-0.005	0.029	2.646	1.880	1.885	1.885	1.899	1.904	1.895
-0.020	0.010	0.010	-0.005	0.005	0.005	0.029	2.671	1.885	1.890	1.885	1.904	1.904	1.899
-0.005	0.015	0.015	-0.005	0.005	0.005	0.029	2.627	1.885	1.885	1.890	1.904	1.899	1.899
0.010	0.005	0.015	0.000	0.005	0.000	0.029	2.671	1.890	1.885	1.885	1.904	1.899	1.899
0.024	-0.015	0.000	0.000	0.000	0.010	0.029	2.705	1.890	1.880	1.880	1.904	1.899	1.899
0.039	-0.024	-0.005	0.005	-0.005	0.000	0.029	2.773	1.885	1.875	1.875	1.899	1.899	1.899
0.024	-0.010	0.000	0.005	-0.005	0.005	0.029	2.749	1.895	1.880	1.880	1.899	1.895	1.899
0.005	-0.010	0.005	-0.005	0.000	0.005	0.029	2.656	1.885	1.885	1.880	1.899	1.895	1.895
0.000	-0.015	0.000	0.000	-0.005	0.010	0.029	2.744	1.890	1.880	1.875	1.899	1.895	1.895
0.000	-0.010	0.000	0.000	-0.005	0.005	0.029	2.715	1.890	1.885	1.880	1.899	1.895	1.895
-0.010	-0.015	-0.010	0.005	0.000	0.010	0.029	2.734	1.895	1.885	1.880	1.899	1.895	1.895
0.029	-0.015	0.000	0.000	-0.005	0.010	0.029	2.749	1.909	1.890	1.880	1.895	1.890	1.895
0.020	-0.015	-0.005	0.000	0.000	0.005	0.029	2.661	1.899	1.890	1.885	1.899	1.895	1.895
0.015	-0.010	-0.005	0.000	0.000	-0.015	0.029	2.700	1.895	1.895	1.890	1.899	1.895	1.885
0.015	0.010	0.005	0.000	0.005	-0.010	0.029	2.676	1.895	1.899	1.890	1.904	1.899	1.890
0.010	0.000	0.015	0.000	0.010	0.005	0.029	2.671	1.890	1.890	1.895	1.909	1.899	1.899
0.005	-0.005	0.010	0.000	0.000	0.000	0.029	2.666	1.885	1.885	1.890	1.909	1.895	1.899
-0.010	-0.010	0.015	0.000	0.005	-0.024	0.029	2.676	1.880	1.885	1.890	1.909	1.899	1.890
-0.015	-0.015	0.015	0.000	0.000	0.015	0.029	2.690	1.880	1.880	1.885	1.909	1.899	1.904
-0.010	-0.039	0.005	0.000	0.005	0.010	0.029	2.676	1.880	1.875	1.880	1.904	1.899	1.904
-0.005	-0.024	-0.005	0.010	0.000	-0.005	0.029	2.690	1.885	1.880	1.880	1.904	1.899	1.899
0.005	-0.024	-0.005	0.010	-0.005	0.005	0.029	2.700	1.895	1.885	1.880	1.904	1.899	1.899
0.005	-0.010	-0.005	0.015	-0.005	0.010	0.029	2.700	1.895	1.890	1.880	1.899	1.899	1.899
0.029	-0.029	0.005	0.000	0.000	0.010	0.029	2.695	1.895	1.885	1.880	1.899	1.899	1.899
0.029	-0.005	0.005	0.000	0.000	-0.005	0.029	2.666	1.895	1.895	1.885	1.899	1.895	1.895
0.020	0.005	0.010	0.000	0.000	-0.005	0.029	2.710	1.895	1.895	1.890	1.904	1.899	1.895
0.015	0.010	0.010	0.005	0.000	0.005	0.029	2.700	1.895	1.895	1.890	1.904	1.899	1.899
0.000	0.029	0.000	0.000	0.000	0.015	0.029	2.700	1.890	1.899	1.890	1.904	1.899	1.904
0.005	0.034	0.000	0.005	0.000	0.020	0.029	2.705	1.895	1.899	1.890	1.909	1.899	1.904
-0.005	0.044	-0.010	0.005	0.000	0.005	0.029	2.695	1.895	1.899	1.890	1.909	1.899	1.899
-0.005	0.039	-0.010	0.000	0.000	0.010	0.029	2.695	1.895	1.895	1.890	1.909	1.899	1.899
-0.020	0.029	-0.010	0.000	-0.005	0.005	0.029	2.700	1.890	1.890	1.890	1.909	1.899	1.899
-0.029	0.015	-0.005	-0.005	0.000	-0.015	0.029	2.676	1.880	1.885	1.890	1.904	1.899	1.895
-0.029	0.024	-0.005	-0.005	0.000	-0.010	0.029	2.676	1.885	1.890	1.885	1.904	1.899	1.899
-0.029	0.020	-0.005	-0.010	0.005	-0.020	0.029	2.686	1.885	1.885	1.885	1.904	1.899	1.895
-0.020	0.020	-0.010	-0.005	0.000	0.000	0.029	2.690	1.890	1.885	1.885	1.904	1.899	1.899
-0.015	0.020	0.000	0.000	0.010	0.000	0.029	2.632	1.880	1.885	1.890	1.904	1.904	1.904
-0.005	0.015	0.015	0.005	0.000	0.005	0.029	2.661	1.885	1.885	1.890	1.909	1.904	1.904
0.029	0.000	0.015	0.005	0.005	-0.005	0.029	2.661	1.890	1.880	1.890	1.904	1.899	1.899
0.020	-0.005	0.010	0.005	0.000	0.000	0.029	2.637	1.885	1.880	1.885	1.909	1.904	1.899
0.020	-0.005	0.005	0.005	0.000	0.005	0.029	2.646	1.880	1.875	1.880	1.904	1.899	1.899
0.024	0.000	0.000	0.005	-0.010	-0.005	0.029	2.661	1.885	1.875	1.875	1.899	1.895	1.895
0.024	0.000	0.005	0.000	-0.015	-0.020	0.029	2.676	1.885	1.875	1.875	1.899	1.895	1.890
0.024	0.000	0.000	0.005	-0.015	0.000	0.029	2.671	1.885	1.880	1.875	1.895	1.895	1.895
0.024	0.005	-0.010	0.005	-0.010	0.010	0.029	2.729	1.885	1.885	1.875	1.895	1.895	1.899
0.024	-0.005	-0.010	0.000	0.000	0.000	0.029	2.676	1.885	1.880	1.875	1.895	1.895	1.899
0.005	0.000	-0.005	0.005	0.015	0.015	0.029	2.661	1.885	1.885	1.875	1.899	1.899	1.899
0.010	-0.005	-0.005	0.005	0.029	0.005	0.029	2.637	1.885	1.885	1.875	1.899	1.904	1.899
-0.005	0.005	-0.010	0.005	0.029	0.000	0.024	2.725	1.890	1.885	1.880	1.899	1.899	1.899
-0.020	0.000	0.000	0.010	0.029	0.010	0.029	2.705	1.875	1.880	1.880	1.899	1.899	1.899
0.000	0.000	0.000	0.005	0.020	0.005	0.029	2.715	1.890	1.885	1.880	1.899	1.895	1.895
0.000	-0.015	0.005	0.005	0.015	0.005	0.029	2.627	1.899	1.885	1.880	1.899	1.895	1.895
0.010	-0.020	0.000	0.005	0.015	0.000	0.029	2.666	1.895	1.885	1.880	1.899	1.890	1.895
0.005	-0.010	0.005	0.005	0.005	0.000	0.029	2.700	1.885	1.885	1.885	1.899	1.890	1.895
0.005	-0.015	0.010	0.005	-0.005	0.005	0.029	2.671	1.890	1.885	1.885	1.899	1.890	1.890
0.010	-0.010	0.010	0.000	-0.010	-0.005	0.029	2.671	1.885	1.885	1.885	1.899	1.890	1.890
0.015	-0.020	0.015	0.000	-0.024	-0.005	0.029	2.661	1.880	1.880	1.880	1.899	1.885	1.885
0.010	-0.010	0.005	0.000	-0.024	-0.005	0.029	2.700	1.885	1.885	1.880	1.899	1.885	1.885
0.000	-0.015	0.005	0.000	-0.029	0.000	0.029	2.666	1.880	1.880	1.880	1.899	1.890	1.885
-0.005	0.005	0.000	-0.005	-0.034	-0.020	0.029	2.671	1.880	1.885	1.880	1.899	1.890	1.885
-0.005	0.015	-0.005	0.000	-0.029	-0.005	0.029	2.700	1.880	1.885	1.880	1.899	1.890	1.885
-0.005	0.005	0.005	0.000	-0.015	0.000	0.029	2.681	1.880	1.880	1.880	1.899	1.899	1.890
-0.010	0.005	-0.005	0.000	0.005	-0.010	0.029	2.705	1.885	1.880	1.880	1.899	1.899	1.890
-0.010	0.034	0.000	0.005	0.020	0.010	0.029	2.681	1.890	1.890	1.880	1.904	1.904	1.904
-0.020	0.020	-0.005	0.005	0.029	0.015	0.029	2.700	1.885	1.885	1.880	1.899	1.904	1.904
-0.029	0.015	-0.005	0.010	0.024	0.034	0.029	2.705	1.890	1.885	1.880	1.904	1.904	1.909
-0.034	0.005	-0.005	0.010	0.015	0.024	0.029	2.671	1.890	1.880	1.880	1.899	1.899	1.904
-0.015	0.005	-0.005	0.010	0.000	0.015	0.029	2.695	1.895	1.885	1.880	1.899	1.895	1.895
0.024	0.005	-0.005	0.015	-0.005	-0.005	0.029	2.690	1.909	1.895	1.885	1.904	1.895	1.895
0.039	-0.005	0.000	0.020	0.000	0.015	0.029	2.671	1.904	1.895	1.890	1.904	1.895	1.895
0.039	0.020	0.005	0.010	0.000	0.020	0.029	2.690	1.899	1.904	1.890	1.904	1.899	1.899
0.034	0.000	0.005	0.005	0.010	0.000	0.029	2.700	1.899	1.895	1.890	1.904	1.899	1.890
0.015	-0.024	0.005	0.000	0.029	0.015	0.029	2.700	1.890	1.885	1.890	1.904	1.904	1.904
0.029	-0.059	0.010	-0.005	0.034	0.015	0.029	2.676	1.899	1.875	1.885	1.899	1.904	1.899
0.024	-0.029	0.005	-0.005	0.024	0.020	0.029	2.690	1.895	1.890	1.885	1.904	1.899	1.899
0.005	-0.005	0.010	0.000	0.020	0.020	0.029	2.690	1.885	1.895	1.890	1.904	1.895	1.899
-0.020	-0.005	0.005	0.005	0.005	-0.005	0.029	2.637	1.880	1.890	1.885	1.904	1.890	1.885
-0.039	0.010	0.010	0.005	-0.010	-0.005	0.029	2.661	1.870	1.885	1.890	1.904	1.895	1.890
-0.059	0.000	0.015	0.000	-0.020	-0.020	0.029	2.671	1.870	1.880	1.885	1.899	1.890	1.885
-0.073	0.024	0.000	-0.005	-0.029	-0.034	0.029	2.793	1.880	1.885	1.885	1.904	1.890	1.880
-0.059	0.010	0.000	0.000	-0.024	-0.034	0.029	2.651	1.880	1.880	1.880	1.899	1.895	1.885
-0.039	-0.005	-0.005	-0.005	-0.020	-0.020	0.029	2.690	1.890	1.880	1.880	1.899	1.895	1.895
-0.024	0.005	-0.010	-0.005	-0.015	-0.005	0.029	2.622	1.890	1.880	1.880	1.899	1.895	1.895
-0.005	0.010	-0.015	0.000	-0.005	-0.010	0.029	2.671	1.890	1.890	1.880	1.899	1.899	1.899
-0.005	0.005	-0.005	0.000	0.000	-0.010	0.024	2.744	1.899	1.890	1.885	1.899	1.899	1.895
0.005	0.015	-0.005	0.000	0.010	0.005	0.029	2.808	1.914	1.899	1.890	1.899	1.904	1.904
0.020	0.005	0.000	-0.005	0.010	0.005	0.029	2.759	1.919	1.899	1.890	1.904	1.899	1.904
0.020	0.015	-0.005	-0.005	0.010	0.005	0.029	2.661	1.904	1.904	1.895	1.904	1.899	1.899
0.034	0.000	0.000	-0.005	0.005	0.010	0.029	2.690	1.904	1.899	1.895	1.909	1.899	1.904
0.020	0.000	0.010	0.000	0.010	-0.020	0.029	2.744	1.904	1.899	1.899	1.909	1.899	1.895
0.024	0.000	0.015	0.000	-0.005	0.005	0.029	2.725	1.899	1.899	1.899	1.909	1.899	1.904
0.020	0.000	0.005	0.000	-0.005	0.005	0.029	2.729	1.899	1.899	1.895	1.914	1.904	1.899
0.024	0.044	0.000	0.005	0.000	-0.010	0.029	2.656	1.895	1.904	1.895	1.914	1.904	1.899
0.024	0.034	-0.005	0.005	0.000	0.015	0.029	2.700	1.890	1.899	1.895	1.914	1.904	1.909
0.015	0.000	0.005	0.010	0.000	0.015	0.029	2.700	1.890	1.890	1.895	1.914	1.909	1.909
0.000	0.005	0.005	0.005	-0.005	0.010	0.029	2.666	1.885	1.890	1.895	1.914	1.909	1.909
-0.010	0.005	0.000	0.005	0.000	0.010	0.029	2.681	1.880	1.885	1.890	1.909	1.909	1.909
-0.024	0.015	-0.005	-0.010	0.000	0.005	0.029	2.676	1.880	1.885	1.885	1.904	1.909	1.904
-0.024	0.005	-0.005	-0.015	0.000	0.005	0.029	2.710	1.885	1.885	1.880	1.904	1.904	1.904
-0.020	-0.005	-0.010	-0.020	0.000	0.000	0.029	2.661	1.880	1.880	1.880	1.899	1.904	1.904
-0.015	0.005	-0.010	-0.015	0.000	-0.005	0.029	2.690	1.890	1.880	1.880	1.904	1.899	1.899
-0.015	0.000	-0.005	-0.005	0.000	0.000	0.029	2.681	1.890	1.885	1.880	1.904	1.904	1.899
0.005	-0.015	-0.005	0.000	0.000	0.000	0.029	2.676	1.895	1.880	1.880	1.904	1.904	1.904
0.015	-0.010	0.000	0.010	0.005	0.005	0.029	2.710	1.895	1.890	1.885	1.904	1.904	1.904
0.015	-0.015	0.005	0.015	0.005	-0.005	0.029	2.686	1.895	1.890	1.885	1.904	1.904	1.899
0.020	-0.005	0.005	0.015	0.000	-0.010	0.029	2.700	1.899	1.895	1.885	1.904	1.899	1.899
0.020	-0.015	0.005	0.015	0.000	0.010	0.029	2.700	1.895	1.890	1.890	1.909	1.899	1.904
0.015	-0.015	0.010	0.015	0.005	0.005	0.029	2.700	1.890	1.885	1.890	1.904	1.899	1.904
0.015	-0.015	0.010	0.005	-0.005	0.005	0.029	2.700	1.895	1.890	1.890	1.904	1.899	1.899
0.015	-0.005	0.010	0.005	0.000	0.005	0.029	2.671	1.895	1.890	1.890	1.904	1.899	1.899
0.010	0.005	0.005	0.000	0.000	0.005	0.029	2.671	1.890	1.890	1.890	1.904	1.899	1.899
0.000	0.000	0.000	0.010	0.000	0.010	0.029	2.690	1.890	1.890	1.885	1.904	1.899	1.899
-0.010	0.005	0.000	0.010	0.000	0.000	0.029	2.710	1.895	1.890	1.890	1.904	1.899	1.899
-0.010	0.000	0.000	0.000	0.000	-0.015	0.029	2.681	1.895	1.890	1.890	1.904	1.899	1.895
-0.010	0.005	-0.005	0.005	0.000	0.010	0.024	2.686	1.890	1.890	1.890	1.904	1.899	1.904
-0.005	0.010	-0.010	0.010	0.000	0.000	0.029	2.686	1.895	1.890	1.885	1.904	1.899	1.899
-0.010	0.005	-0.010	0.000	0.005	-0.015	0.029	2.632	1.890	1.890	1.890	1.904	1.899	1.895
-0.005	0.005	-0.010	0.000	0.000	-0.005	0.029	2.651	1.885	1.885	1.885	1.904	1.899	1.899
0.005	-0.005	-0.010	-0.005	-0.005	0.000	0.029	2.671	1.890	1.885	1.885	1.899	1.895	1.899
0.005	-0.020	-0.005	0.000	0.005	0.010	0.029	2.778	1.899	1.885	1.885	1.904	1.904	1.899
0.005	-0.015	0.000	0.005	0.000	-0.010	0.029	2.749	1.904	1.890	1.885	1.904	1.899	1.895
0.000	-0.010	0.000	0.005	0.005	0.005	0.029	2.666	1.899	1.895	1.890	1.909	1.899	1.899
0.010	-0.005	0.000	0.005	0.000	0.010	0.029	2.715	1.899	1.895	1.890	1.904	1.899	1.904
-0.005	-0.010	0.000	0.000	0.000	0.000	0.029	2.666	1.890	1.890	1.890	1.904	1.899	1.899
0.010	-0.005	0.005	-0.005	0.000	-0.005	0.029	2.734	1.899	1.895	1.890	1.904	1.899	1.895
0.015	-0.015	0.010	-0.005	0.000	-0.005	0.029	2.788	1.909	1.895	1.890	1.904	1.899	1.899
-0.010	0.020	0.005	0.000	-0.005	0.005	0.029	2.739	1.899	1.904	1.895	1.909	1.899	1.899
-0.020	0.020	0.000	0.000	-0.005	0.010	0.029	2.671	1.895	1.899	1.895	1.909	1.904	1.899
-0.020	0.015	0.005	0.005	0.005	-0.005	0.029	2.710	1.895	1.899	1.895	1.914	1.904	1.895
-0.015	0.010	-0.005	0.000	0.005	-0.005	0.029	2.627	1.895	1.895	1.890	1.909	1.904	1.899
-0.005	0.039	-0.010	0.005	0.005	-0.015	0.029	2.710	1.899	1.904	1.895	1.909	1.904	1.899
-0.005	0.039	-0.005	0.005	-0.005	0.015	0.029	2.749	1.909	1.899	1.899	1.914	1.904	1.909
-0.010	-0.005	-0.010	0.005	0.000	0.000	0.029	2.666	1.899	1.890	1.890	1.909	1.909	1.904
0.000	-0.005	-0.010	0.000	0.005	0.020	0.029	2.671	1.895	1.895	1.895	1.914	1.909	1.914
-0.005	0.000	0.005	-0.005	0.005	0.015	0.029	2.690	1.899	1.890	1.895	1.909	1.909	1.909
0.000	-0.005	0.000	-0.005	0.005	-0.005	0.029	2.671	1.895	1.890	1.895	1.909	1.904	1.904
0.000	-0.034	0.005	-0.005	-0.005	0.000	0.029	2.671	1.895	1.885	1.890	1.914	1.904	1.904
0.005	-0.015	0.010	0.005	0.000	0.005	0.029	2.661	1.895	1.895	1.890	1.914	1.909	1.909
0.015	-0.015	0.005	0.010	0.005	0.000	0.029	2.666	1.890	1.890	1.890	1.909	1.909	1.904
0.020	0.024	0.000	0.000	0.000	-0.005	0.029	2.676	1.895	1.899	1.890	1.909	1.904	1.904
0.034	0.005	0.000	0.000	0.000	-0.005	0.029	2.690	1.899	1.895	1.890	1.909	1.904	1.904
0.029	-0.010	0.005	0.000	0.000	-0.024	0.029	2.690	1.895	1.890	1.890	1.909	1.904	1.895
0.024	-0.020	0.010	0.000	0.005	0.005	0.029	2.681	1.895	1.890	1.890	1.909	1.909	1.909
0.010	-0.005	0.000	0.010	0.000	-0.020	0.029	2.695	1.890	1.890	1.885	1.909	1.904	1.895
0.000	0.020	0.000	0.005	0.000	0.005	0.029	2.666	1.890	1.895	1.890	1.909	1.904	1.904
0.000	0.015	0.000	0.000	0.005	0.010	0.029	2.690	1.885	1.890	1.890	1.909	1.909	1.909
-0.005	0.010	0.000	0.010	0.000	0.015	0.029	2.681	1.885	1.890	1.890	1.909	1.904	1.909
-0.005	0.039	-0.005	0.010	0.010	0.010	0.029	2.686	1.885	1.895	1.890	1.909	1.904	1.909
-0.010	0.029	-0.005	0.000	0.005	0.015	0.024	2.676	1.890	1.885	1.890	1.909	1.904	1.909
0.000	0.000	0.000	-0.020	0.000	0.010	0.029	2.671	1.890	1.885	1.885	1.899	1.899	1.904
0.000	-0.010	0.000	-0.034	0.000	0.015	0.029	2.666	1.885	1.880	1.885	1.895	1.899	1.904
0.000	-0.005	-0.005	-0.039	0.000	0.005	0.029	2.676	1.890	1.880	1.880	1.899	1.899	1.899
0.020	-0.010	-0.005	-0.020	0.000	0.000	0.029	2.700	1.895	1.885	1.880	1.899	1.899	1.899
0.034	-0.005	0.000	-0.005	0.000	-0.005	0.029	2.705	1.899	1.890	1.885	1.909	1.899	1.895
0.034	-0.034	0.000	0.010	0.005	-0.015	0.029	2.681	1.895	1.880	1.885	1.909	1.899	1.899
0.020	-0.020	0.010	0.020	0.000	0.005	0.029	2.690	1.890	1.885	1.885	1.914	1.904	1.899
0.000	-0.020	0.010	0.020	0.000	0.005	0.029	2.622	1.875	1.885	1.885	1.909	1.904	1.899
-0.005	-0.005	0.010	0.015	0.005	0.000	0.029	2.754	1.890	1.890	1.885	1.904	1.904	1.899
-0.015	0.005	0.000	0.010	0.000	-0.020	0.029	2.661	1.880	1.890	1.885	1.904	1.899	1.895
-0.020	0.010	0.005	0.010	0.000	-0.005	0.029	2.681	1.880	1.890	1.885	1.904	1.899	1.895
-0.020	0.044	0.000	0.010	0.005	0.005	0.029	2.637	1.890	1.895	1.890	1.904	1.899	1.899
-0.024	0.049	0.005	0.015	0.005	-0.005	0.029	2.666	1.880	1.895	1.890	1.909	1.904	1.899
-0.034	0.015	0.005	0.020	0.000	0.010	0.029	2.661	1.880	1.880	1.885	1.909	1.904	1.904
-0.034	0.010	0.000	0.024	0.005	0.000	0.029	2.676	1.885	1.880	1.885	1.909	1.904	1.899
-0.010	0.000	-0.010	0.029	0.000	-0.015	0.029	2.739	1.890	1.880	1.880	1.904	1.904	1.895
0.000	-0.005	-0.005	0.029	0.005	-0.005	0.029	2.803	1.904	1.885	1.880	1.904	1.899	1.895
0.005	0.000	-0.005	0.020	0.000	0.015	0.029	2.715	1.909	1.895	1.885	1.899	1.899	1.909
0.000	-0.005	-0.005	0.005	0.000	0.015	0.029	2.651	1.899	1.895	1.885	1.899	1.899	1.904
-0.005	-0.015	0.000	0.000	0.000	0.000	0.029	2.715	1.899	1.890	1.890	1.895	1.895	1.895
0.010	-0.010	0.005	-0.010	0.000	-0.005	0.029	2.734	1.904	1.895	1.890	1.899	1.895	1.895
0.005	0.005	0.010	0.000	0.000	0.005	0.029	2.725	1.904	1.899	1.895	1.904	1.895	1.899
0.015	-0.010	0.005	-0.005	-0.005	0.015	0.029	2.734	1.909	1.895	1.890	1.904	1.899	1.899
0.015	-0.015	0.005	-0.010	0.005	0.000	0.029	2.646	1.895	1.895	1.895	1.904	1.899	1.895
0.015	-0.020	-0.005	-0.010	-0.005	-0.005	0.029	2.700	1.895	1.895	1.890	1.904	1.895	1.895
0.010	-0.005	-0.005	-0.015	0.000	0.005	0.029	2.705	1.895	1.895	1.890	1.904	1.899	1.895
0.020	-0.010	0.000	-0.010	0.000	-0.005	0.029	2.661	1.890	1.895	1.890	1.904	1.899	1.895
0.020	-0.005	0.000	-0.010	0.000	-0.005	0.029	2.676	1.885	1.890	1.890	1.909	1.899	1.895
0.010	0.005	-0.005	-0.015	0.010	0.000	0.029	2.671	1.885	1.890	1.890	1.909	1.904	1.899
0.000	0.059	0.005	-0.015	0.005	-0.005	0.029	2.700	1.885	1.904	1.895	1.909	1.904	1.899
0.005	0.005	0.020	-0.010	0.005	0.000	0.029	2.676	1.885	1.885	1.895	1.909	1.904	1.904
0.000	0.005	0.010	-0.005	0.005	-0.010	0.029	2.700	1.890	1.880	1.890	1.914	1.904	1.899
0.005	-0.010	-0.005	0.010	0.005	0.005	0.029	2.710	1.890	1.880	1.880	1.909	1.909	1.904
-0.005	-0.015	-0.005	0.005	0.000	0.005	0.029	2.710	1.890	1.885	1.880	1.904	1.904	1.904
-0.005	-0.005	-0.005	0.000	0.000	0.000	0.029	2.700	1.890	1.885	1.885	1.904	1.899	1.904
-0.015	0.010	-0.005	0.000	0.000	0.000	0.029	2.700	1.895	1.890	1.885	1.904	1.904	1.899
0.000	0.005	-0.005	-0.005	0.000	0.015	0.029	2.700	1.895	1.890	1.885	1.904	1.899	1.904
-0.005	-0.010	0.000	-0.005	0.005	0.010	0.029	2.671	1.895	1.890	1.885	1.904	1.904	1.904
0.005	0.000	-0.005	-0.005	0.000	0.005	0.029	2.676	1.890	1.890	1.885	1.904	1.899	1.899
-0.010	0.000	0.000	-0.010	0.000	0.005	0.029	2.671	1.890	1.890	1.885	1.904	1.899	1.899
0.005	0.015	0.005	-0.005	0.005	0.000	0.029	2.676	1.890	1.895	1.890	1.904	1.904	1.899
0.000	0.020	0.010	-0.005	0.000	-0.005	0.029	2.671	1.890	1.890	1.890	1.904	1.899	1.899
0.000	0.010	0.010	-0.005	0.000	0.000	0.029	2.681	1.890	1.885	1.885	1.904	1.899	1.899
0.010	0.000	0.000	0.005	0.005	0.000	0.029	2.690	1.890	1.885	1.885	1.909	1.904	1.899
0.010	-0.015	0.005	0.015	0.000	-0.005	0.029	2.661	1.890	1.880	1.885	1.909	1.899	1.899
0.010	0.000	-0.005	0.024	0.005	-0.010	0.029	2.681	1.885	1.885	1.880	1.909	1.904	1.899
0.005	0.005	0.000	0.024	0.000	0.000	0.029	2.690	1.890	1.890	1.885	1.904	1.904	1.899
0.000	0.000	0.005	0.015	0.005	-0.015	0.029	2.637	1.880	1.885	1.885	1.904	1.904	1.899
0.000	0.020	0.000	0.005	0.000	-0.020	0.029	2.666	1.895	1.890	1.885	1.899	1.899	1.899
-0.005	0.005	-0.005	0.000	0.000	0.000	0.029	2.671	1.890	1.885	1.885	1.899	1.899	1.904
0.000	0.005	0.005	-0.005	0.000	0.000	0.029	2.783	1.890	1.890	1.885	1.899	1.899	1.899
0.000	0.010	0.005	-0.010	0.000	0.005	0.024	2.632	1.885	1.890	1.885	1.899	1.899	1.899
0.000	0.015	0.005	-0.005	0.005	-0.005	0.029	2.700	1.890	1.885	1.885	1.904	1.899	1.895
0.005	-0.005	0.005	0.000	0.005	-0.005	0.029	2.632	1.885	1.880	1.885	1.904	1.899	1.899
0.010	-0.015	0.000	0.000	0.000	-0.005	0.029	2.671	1.885	1.880	1.880	1.904	1.899	1.899
0.015	-0.020	0.005	0.000	0.000	0.000	0.029	2.739	1.875	1.875	1.880	1.899	1.899	1.899
0.015	0.010	0.005	0.000	0.005	0.010	0.029	2.808	1.895	1.885	1.880	1.904	1.899	1.899
0.005	0.005	0.005	0.000	0.010	0.015	0.029	2.725	1.895	1.885	1.880	1.904	1.899	1.899
0.000	0.000	0.005	0.005	0.015	0.005	0.029	2.656	1.890	1.890	1.880	1.904	1.899	1.899
-0.005	0.005	0.005	0.015	0.000	-0.020	0.029	2.720	1.890	1.885	1.880	1.904	1.895	1.890
0.005	0.005	0.010	0.015	0.005	0.024	0.029	2.725	1.895	1.890	1.885	1.904	1.899	1.904
-0.010	0.015	0.005	0.015	0.005	0.015	0.029	2.705	1.895	1.890	1.885	1.904	1.899	1.899
-0.010	0.015	-0.005	0.015	0.005	0.005	0.029	2.739	1.899	1.895	1.885	1.899	1.899	1.899
-0.005	0.000	-0.005	0.005	0.000	0.010	0.029	2.661	1.895	1.890	1.885	1.899	1.895	1.899
-0.010	0.005	-0.015	0.000	0.005	-0.015	0.029	2.686	1.885	1.890	1.880	1.899	1.895	1.885
-0.010	0.000	-0.010	-0.005	0.000	0.010	0.029	2.700	1.890	1.890	1.885	1.899	1.895	1.895
-0.015	0.005	-0.005	0.000	0.000	-0.005	0.029	2.671	1.890	1.890	1.890	1.904	1.899	1.895
0.000	0.000	-0.005	0.000	0.005	-0.005	0.029	2.671	1.885	1.885	1.885	1.904	1.899	1.895
0.015	0.000	0.005	-0.005	0.000	0.000	0.029	2.666	1.890	1.890	1.890	1.899	1.899	1.895
0.015	-0.015	0.000	-0.005	0.000	-0.005	0.029	2.671	1.885	1.880	1.890	1.904	1.899	1.895
0.000	-0.010	0.005	-0.005	-0.005	0.010	0.029	2.661	1.885	1.885	1.885	1.904	1.899	1.904
-0.005	-0.005	0.005	0.000	0.000	0.015	0.029	2.681	1.885	1.885	1.885	1.904	1.899	1.899
-0.010	-0.015	0.005	0.010	-0.005	0.015	0.029	2.686	1.885	1.880	1.885	1.904	1.899	1.899
-0.005	-0.015	0.000	0.000	-0.005	0.005	0.029	2.671	1.885	1.880	1.880	1.899	1.899	1.895
0.000	-0.010	0.000	0.000	-0.005	0.005	0.029	2.710	1.890	1.885	1.880	1.899	1.895	1.895
0.005	0.005	0.000	0.000	-0.005	0.010	0.029	2.700	1.890	1.890	1.880	1.899	1.895	1.895
0.005	0.005	0.005	-0.005	0.010	-0.010	0.029	2.695	1.890	1.890	1.885	1.899	1.899	1.895
0.015	0.000	0.010	-0.005	0.010	0.000	0.029	2.671	1.890	1.890	1.890	1.899	1.899	1.899
0.015	0.010	0.015	0.000	0.020	-0.005	0.029	2.700	1.890	1.890	1.890	1.904	1.899	1.899
0.020	0.005	0.020	0.000	0.020	-0.039	0.029	2.690	1.890	1.890	1.890	1.904	1.899	1.890
0.029	0.010	0.015	0.005	0.015	-0.010	0.029	2.671	1.895	1.890	1.890	1.909	1.899	1.899
0.034	-0.005	-0.010	0.010	0.015	-0.010	0.029	2.695	1.895	1.885	1.880	1.904	1.899	1.899
0.015	0.000	-0.020	0.015	0.005	-0.005	0.029	2.661	1.885	1.885	1.875	1.904	1.899	1.899
-0.010	0.005	-0.010	0.015	0.000	0.005	0.029	2.695	1.880	1.890	1.885	1.904	1.899	1.899
-0.024	0.000	-0.005	0.024	-0.010	0.005	0.029	2.676	1.875	1.880	1.885	1.909	1.895	1.899
-0.034	0.000	0.000	0.024	-0.015	0.000	0.029	2.690	1.880	1.880	1.885	1.904	1.899	1.899
0.020	-0.005	0.015	0.020	-0.020	0.005	0.029	2.690	1.899	1.885	1.885	1.904	1.895	1.899
0.049	0.000	0.000	0.005	-0.005	-0.005	0.029	2.627	1.895	1.890	1.885	1.899	1.899	1.899
-0.029	0.000	0.005	-0.005	0.000	-0.015	0.029	2.656	1.865	1.880	1.880	1.895	1.899	1.895
-0.063	0.005	0.000	-0.015	0.005	-0.020	0.029	2.671	1.865	1.875	1.875	1.895	1.895	1.890
-0.063	-0.010	0.005	-0.010	0.015	-0.020	0.029	2.778	1.875	1.870	1.875	1.895	1.895	1.895
-0.073	-0.024	0.000	-0.010	0.010	-0.005	0.029	2.642	1.875	1.870	1.870	1.895	1.895	1.899
-0.063	-0.010	0.000	-0.010	0.010	0.005	0.029	2.666	1.875	1.870	1.870	1.890	1.890	1.899
-0.059	-0.005	-0.005	0.000	0.005	0.010	0.029	2.681	1.880	1.875	1.870	1.895	1.890	1.895
-0.029	0.005	0.000	0.005	0.000	-0.005	0.029	2.671	1.895	1.880	1.875	1.895	1.890	1.890
0.015	0.005	0.000	0.010	-0.005	0.015	0.029	2.729	1.909	1.890	1.875	1.895	1.890	1.895
0.024	0.005	0.005	0.000	0.005	0.010	0.029	2.808	1.919	1.895	1.885	1.895	1.890	1.895
