0.005	0.010	0.000	0.000	-0.005	0.015	0.410	1.763	3.525	2.173	1.870	1.572	1.636	1.558
0.005	-0.005	0.000	0.005	-0.005	0.005	0.410	1.768	2.964	2.407	2.012	1.699	1.650	1.587
0.005	-0.005	0.000	0.010	-0.005	-0.010	0.410	1.777	2.559	2.466	2.139	1.821	1.689	1.611
0.005	0.000	0.000	0.005	0.005	0.005	0.405	1.782	2.275	2.422	2.222	1.934	1.753	1.650
0.005	0.000	0.000	0.005	0.000	0.005	0.405	1.812	2.070	2.334	2.256	2.026	1.831	1.699
-0.010	0.000	0.000	0.000	-0.005	-0.005	0.400	1.787	1.904	2.222	2.251	2.095	1.895	1.748
0.005	-0.015	0.000	0.005	0.005	-0.020	0.410	1.787	1.807	2.109	2.217	2.134	1.963	1.802
-0.010	-0.010	0.000	0.000	-0.005	-0.005	0.405	1.777	1.733	2.007	2.163	2.148	2.012	1.860
-0.005	-0.015	0.000	-0.005	0.005	0.000	0.415	1.685	1.675	1.919	2.100	2.139	2.046	1.909
-0.005	-0.010	0.000	-0.005	0.005	-0.005	0.410	1.787	1.650	1.846	2.031	2.114	2.065	1.953
-0.005	-0.005	0.005	0.000	0.000	-0.005	0.410	1.758	1.631	1.792	1.968	2.080	2.070	1.982
-0.005	-0.010	0.000	-0.005	0.000	0.005	0.405	1.772	1.621	1.748	1.904	2.041	2.061	2.007
-0.010	-0.005	0.000	-0.010	-0.005	-0.015	0.405	1.787	1.621	1.714	1.855	1.992	2.041	2.007
-0.010	0.000	0.000	-0.010	0.000	0.005	0.400	1.777	1.621	1.694	1.807	1.948	2.017	2.017
-0.005	0.010	0.005	0.000	0.000	0.010	0.405	1.772	1.626	1.680	1.772	1.904	1.982	2.012
0.005	-0.005	0.000	0.005	0.000	-0.024	0.420	1.787	1.631	1.670	1.743	1.870	1.953	1.987
-0.005	0.000	-0.005	0.000	-0.005	0.015	0.415	1.768	1.626	1.655	1.719	1.836	1.919	1.978
0.010	-0.005	0.000	-0.005	-0.010	0.010	0.410	1.787	1.631	1.655	1.699	1.802	1.885	1.953
0.000	0.000	-0.005	0.000	-0.005	-0.015	0.405	1.758	1.626	1.650	1.689	1.777	1.855	1.919
0.005	0.015	0.000	0.000	0.000	-0.005	0.410	1.797	1.631	1.650	1.680	1.758	1.831	1.899
-0.005	0.000	0.000	-0.005	0.000	-0.005	0.400	1.802	1.626	1.641	1.670	1.738	1.807	1.875
0.000	0.015	-0.005	0.000	0.000	0.005	0.415	1.694	1.611	1.641	1.665	1.724	1.787	1.855
-0.010	0.000	-0.005	0.000	0.000	-0.015	0.415	1.782	1.606	1.626	1.655	1.709	1.763	1.826
0.005	-0.005	0.000	-0.005	-0.005	-0.024	0.410	1.772	1.606	1.626	1.646	1.694	1.738	1.797
0.005	-0.005	0.000	0.000	0.000	0.010	0.405	1.797	1.597	1.616	1.636	1.685	1.724	1.787
-0.005	-0.005	0.000	0.000	-0.005	-0.020	0.410	1.743	1.587	1.611	1.631	1.675	1.709	1.758
0.000	0.000	0.000	0.005	0.005	0.010	0.405	1.768	1.577	1.606	1.621	1.665	1.699	1.748
-0.005	0.010	0.000	0.005	-0.005	0.005	0.415	1.797	1.577	1.602	1.616	1.655	1.680	1.729
-0.005	0.015	0.000	0.000	0.010	0.010	0.415	1.792	1.567	1.592	1.606	1.646	1.670	1.714
-0.005	0.015	-0.005	0.005	0.000	-0.005	0.410	1.748	1.558	1.587	1.602	1.641	1.665	1.694
-0.005	0.015	-0.005	0.000	0.000	0.005	0.410	1.792	1.558	1.577	1.592	1.631	1.650	1.685
-0.010	0.005	0.000	0.000	0.000	0.000	0.410	1.787	1.548	1.567	1.587	1.621	1.641	1.670
-0.005	0.000	-0.005	-0.005	0.000	-0.005	0.415	1.802	1.548	1.558	1.577	1.616	1.631	1.660
0.005	-0.020	0.000	-0.005	-0.005	0.005	0.405	1.812	1.548	1.558	1.572	1.611	1.626	1.650
0.000	-0.015	-0.005	-0.005	0.000	-0.010	0.415	1.782	1.538	1.553	1.567	1.602	1.616	1.641
-0.005	-0.005	0.000	-0.005	-0.005	0.005	0.410	1.768	1.533	1.548	1.562	1.597	1.611	1.636
0.005	0.005	0.000	-0.005	0.000	0.005	0.410	1.792	1.533	1.553	1.558	1.592	1.606	1.626
0.005	-0.005	0.000	-0.005	0.000	-0.010	0.410	1.768	1.523	1.548	1.558	1.587	1.602	1.621
0.000	0.000	0.005	0.000	0.000	0.010	0.405	1.748	1.514	1.538	1.553	1.582	1.597	1.621
0.000	0.005	0.000	-0.005	0.010	0.010	0.405	1.763	1.499	1.528	1.548	1.577	1.592	1.611
-0.010	0.000	0.005	0.005	0.005	-0.005	0.410	1.802	1.509	1.523	1.543	1.577	1.587	1.602
-0.010	-0.005	0.000	0.005	0.000	0.000	0.405	1.763	1.494	1.514	1.533	1.567	1.577	1.597
0.000	0.000	0.000	0.000	0.000	-0.029	0.420	1.787	1.494	1.509	1.523	1.558	1.567	1.582
0.000	0.000	-0.005	0.000	0.005	-0.024	0.410	1.768	1.479	1.499	1.519	1.553	1.562	1.577
-0.005	-0.005	0.000	0.000	0.000	0.005	0.415	1.772	1.475	1.494	1.509	1.548	1.558	1.577
-0.005	-0.005	0.000	-0.005	-0.005	0.005	0.405	1.758	1.460	1.484	1.499	1.538	1.548	1.567
-0.005	0.005	0.000	-0.005	-0.005	0.005	0.410	1.763	1.460	1.479	1.494	1.533	1.543	1.558
0.010	0.000	0.000	0.005	0.005	0.005	0.410	1.753	1.450	1.470	1.489	1.523	1.538	1.558
-0.005	-0.005	-0.005	-0.005	-0.005	-0.010	0.415	1.787	1.450	1.465	1.479	1.519	1.528	1.543
0.000	0.005	0.000	0.000	-0.005	0.005	0.400	1.743	1.445	1.460	1.475	1.509	1.523	1.538
0.005	0.000	0.000	0.000	-0.005	0.010	0.410	1.772	1.440	1.460	1.475	1.504	1.519	1.533
0.000	0.000	0.005	-0.005	0.000	-0.020	0.415	1.777	1.436	1.455	1.465	1.499	1.514	1.523
0.000	0.000	0.000	0.000	0.005	-0.015	0.415	1.753	1.431	1.450	1.465	1.499	1.509	1.523
-0.005	0.000	0.000	-0.005	0.000	0.005	0.415	1.733	1.426	1.445	1.460	1.494	1.504	1.523
0.000	0.020	-0.005	-0.005	0.000	0.000	0.415	1.807	1.431	1.445	1.455	1.489	1.499	1.519
0.010	0.010	0.000	0.005	0.000	0.000	0.405	1.763	1.431	1.440	1.450	1.484	1.494	1.509
0.000	0.000	-0.005	0.000	-0.005	0.010	0.405	1.787	1.421	1.436	1.450	1.479	1.489	1.504
0.000	0.005	-0.005	0.000	0.000	0.000	0.410	1.753	1.416	1.431	1.440	1.475	1.484	1.499
-0.010	0.005	0.000	0.000	0.000	-0.020	0.405	1.768	1.406	1.421	1.431	1.465	1.475	1.484
0.000	0.000	0.005	0.000	0.000	-0.005	0.410	1.787	1.396	1.411	1.426	1.460	1.470	1.484
-0.015	-0.015	0.000	0.000	0.000	0.005	0.405	1.812	1.396	1.401	1.421	1.455	1.465	1.479
-0.005	-0.015	-0.005	0.000	0.000	0.000	0.415	1.733	1.401	1.406	1.416	1.450	1.455	1.470
-0.015	0.005	-0.005	0.000	0.000	-0.005	0.410	1.724	1.387	1.401	1.411	1.440	1.450	1.465
-0.005	0.010	0.000	0.000	-0.005	-0.005	0.405	1.787	1.377	1.396	1.411	1.440	1.445	1.460
-0.010	0.005	0.000	0.000	-0.005	0.000	0.405	1.777	1.377	1.387	1.401	1.431	1.440	1.455
-0.005	0.000	0.005	-0.005	-0.005	0.000	0.410	1.816	1.377	1.382	1.396	1.426	1.436	1.445
-0.005	-0.005	0.000	-0.005	-0.005	0.010	0.405	1.807	1.382	1.382	1.396	1.421	1.436	1.450
0.005	-0.005	0.000	0.000	0.000	0.005	0.415	1.763	1.382	1.387	1.392	1.421	1.431	1.440
0.000	0.005	0.000	-0.005	-0.005	0.000	0.405	1.812	1.377	1.387	1.392	1.421	1.426	1.436
0.005	0.000	0.005	-0.005	-0.005	0.010	0.415	1.753	1.377	1.382	1.392	1.416	1.421	1.436
0.000	-0.005	-0.005	0.000	0.000	0.010	0.410	1.792	1.367	1.382	1.387	1.416	1.416	1.431
-0.005	-0.005	-0.005	-0.005	-0.005	0.000	0.415	1.792	1.372	1.377	1.382	1.411	1.416	1.426
0.005	0.010	0.000	-0.005	-0.005	-0.010	0.410	1.782	1.367	1.377	1.382	1.411	1.411	1.421
0.000	0.000	0.000	0.000	0.000	0.015	0.415	1.797	1.357	1.372	1.377	1.406	1.411	1.421
-0.005	-0.005	-0.005	-0.005	0.005	-0.010	0.405	1.792	1.353	1.362	1.372	1.401	1.406	1.416
-0.005	-0.005	-0.005	-0.005	0.000	0.005	0.415	1.807	1.353	1.362	1.367	1.396	1.401	1.411
-0.010	0.010	0.000	0.000	0.000	-0.015	0.410	1.777	1.333	1.357	1.362	1.392	1.396	1.401
0.005	-0.005	0.000	0.000	0.000	0.000	0.405	1.777	1.333	1.348	1.357	1.387	1.396	1.401
-0.010	-0.005	-0.005	-0.005	0.000	-0.005	0.410	1.777	1.323	1.338	1.353	1.382	1.392	1.396
-0.005	-0.010	-0.005	0.000	0.000	-0.020	0.415	1.772	1.323	1.333	1.348	1.377	1.387	1.387
0.000	0.000	0.000	-0.005	0.000	0.000	0.415	1.797	1.323	1.328	1.343	1.367	1.382	1.392
0.000	-0.005	0.000	0.000	-0.005	-0.005	0.410	1.753	1.309	1.323	1.338	1.367	1.372	1.387
0.005	0.000	0.000	0.005	0.000	0.005	0.405	1.787	1.313	1.323	1.333	1.362	1.372	1.387
-0.005	-0.005	0.000	0.000	0.000	0.010	0.405	1.792	1.313	1.323	1.328	1.362	1.372	1.382
-0.005	-0.010	0.000	0.000	-0.005	-0.005	0.405	1.782	1.318	1.318	1.323	1.357	1.362	1.372
0.000	0.005	0.005	0.005	-0.005	0.005	0.405	1.782	1.318	1.323	1.328	1.357	1.362	1.377
0.000	0.005	0.005	-0.005	0.000	-0.015	0.410	1.748	1.313	1.323	1.323	1.348	1.357	1.362
-0.005	-0.005	0.000	0.000	0.000	0.005	0.410	1.733	1.309	1.318	1.323	1.348	1.357	1.367
-0.005	-0.005	0.000	0.000	0.000	-0.010	0.415	1.792	1.309	1.313	1.323	1.348	1.353	1.362
0.000	0.000	0.000	-0.005	0.000	0.010	0.405	1.797	1.304	1.309	1.313	1.343	1.348	1.357
0.010	-0.005	0.000	0.000	0.005	0.010	0.410	1.812	1.309	1.313	1.313	1.343	1.348	1.357
0.005	-0.005	0.000	0.000	0.000	-0.010	0.415	1.714	1.299	1.309	1.313	1.338	1.343	1.343
-0.005	0.005	0.000	0.000	-0.005	0.010	0.415	1.792	1.294	1.304	1.309	1.338	1.338	1.348
0.000	-0.005	0.000	0.000	-0.005	0.000	0.405	1.782	1.289	1.299	1.304	1.328	1.338	1.343
-0.005	-0.005	-0.005	0.000	0.000	-0.005	0.415	1.782	1.284	1.289	1.299	1.323	1.328	1.338
-0.010	-0.010	-0.005	-0.005	-0.010	-0.010	0.410	1.782	1.284	1.284	1.294	1.323	1.323	1.333
-0.005	-0.005	-0.005	0.000	0.000	0.005	0.420	1.758	1.279	1.289	1.289	1.318	1.323	1.328
0.000	0.005	0.000	0.000	0.000	-0.005	0.410	1.782	1.274	1.284	1.289	1.313	1.318	1.323
0.000	-0.005	0.005	0.000	-0.005	-0.010	0.415	1.777	1.274	1.279	1.289	1.313	1.313	1.318
0.005	0.000	0.000	0.000	0.000	-0.005	0.415	1.733	1.265	1.279	1.284	1.309	1.313	1.318
0.005	0.000	0.005	0.000	-0.005	0.005	0.420	1.792	1.270	1.274	1.284	1.309	1.309	1.318
0.000	0.000	-0.005	0.000	0.005	0.015	0.410	1.777	1.270	1.274	1.279	1.309	1.313	1.323
-0.005	-0.010	-0.005	-0.005	0.000	0.005	0.410	1.772	1.265	1.270	1.279	1.304	1.304	1.313
0.000	0.005	0.000	-0.005	0.000	0.005	0.410	1.772	1.270	1.274	1.279	1.304	1.309	1.313
0.000	0.005	0.000	-0.005	0.000	-0.015	0.415	1.768	1.265	1.274	1.274	1.304	1.304	1.309
-0.005	0.005	0.000	-0.005	0.000	-0.005	0.405	1.792	1.265	1.270	1.274	1.299	1.299	1.309
0.005	0.015	0.000	0.000	0.005	0.000	0.410	1.782	1.265	1.270	1.274	1.299	1.299	1.309
0.000	0.010	0.000	0.000	0.000	-0.005	0.410	1.753	1.250	1.265	1.274	1.294	1.294	1.304
0.000	0.005	0.000	-0.005	-0.005	0.005	0.415	1.787	1.255	1.260	1.270	1.289	1.294	1.304
-0.005	0.005	0.000	0.000	0.000	-0.005	0.410	1.724	1.245	1.255	1.265	1.289	1.289	1.294
-0.005	-0.010	-0.005	-0.005	0.000	0.000	0.410	1.763	1.245	1.245	1.255	1.284	1.284	1.294
-0.005	-0.005	0.000	-0.005	0.000	0.010	0.415	1.787	1.240	1.245	1.255	1.279	1.284	1.294
0.000	-0.005	0.000	-0.005	0.000	-0.015	0.400	1.782	1.260	1.245	1.250	1.279	1.279	1.279
0.000	-0.010	0.005	0.000	0.000	-0.005	0.405	1.768	1.250	1.245	1.245	1.274	1.274	1.279
-0.005	-0.015	-0.005	-0.005	0.000	0.010	0.405	1.777	1.245	1.245	1.245	1.274	1.274	1.284
0.000	-0.005	0.005	-0.005	-0.005	0.010	0.415	1.797	1.245	1.245	1.245	1.270	1.270	1.279
0.005	-0.005	-0.005	0.000	-0.005	-0.020	0.410	1.753	1.235	1.245	1.245	1.270	1.270	1.270
-0.005	0.000	0.000	0.000	0.000	0.015	0.415	1.753	1.230	1.240	1.245	1.270	1.270	1.279
0.000	0.000	0.005	-0.005	0.005	0.000	0.400	1.797	1.230	1.235	1.245	1.270	1.270	1.270
0.010	0.005	0.000	0.000	-0.005	0.005	0.410	1.733	1.230	1.240	1.245	1.270	1.270	1.274
0.005	0.000	0.000	0.000	0.000	-0.005	0.405	1.738	1.226	1.235	1.245	1.265	1.265	1.270
0.000	0.000	0.000	-0.005	0.010	0.015	0.420	1.787	1.226	1.235	1.240	1.260	1.265	1.274
0.000	0.000	0.000	0.000	0.000	0.005	0.415	1.797	1.235	1.235	1.240	1.265	1.265	1.270
0.005	0.005	-0.005	0.005	-0.005	0.005	0.415	1.729	1.226	1.235	1.235	1.260	1.260	1.265
-0.005	0.000	-0.005	0.000	0.000	-0.020	0.410	1.729	1.216	1.226	1.235	1.255	1.260	1.260
0.000	0.010	-0.005	0.000	0.005	0.000	0.415	1.792	1.216	1.226	1.230	1.255	1.255	1.260
0.005	0.005	0.005	-0.005	0.000	0.000	0.410	1.797	1.221	1.226	1.230	1.250	1.250	1.260
-0.005	0.005	0.005	0.000	-0.005	-0.020	0.410	1.763	1.216	1.221	1.226	1.250	1.245	1.250
-0.005	0.010	0.000	0.000	-0.005	-0.015	0.405	1.763	1.211	1.221	1.221	1.245	1.245	1.245
0.000	0.005	-0.005	0.000	0.000	0.000	0.415	1.792	1.211	1.206	1.216	1.240	1.245	1.250
-0.005	0.000	0.000	0.005	-0.005	0.010	0.415	1.802	1.216	1.216	1.216	1.240	1.240	1.250
0.005	-0.005	0.000	0.000	-0.005	0.015	0.410	1.768	1.216	1.211	1.216	1.240	1.240	1.245
0.000	0.015	-0.005	-0.005	0.000	0.005	0.415	1.792	1.211	1.216	1.216	1.235	1.240	1.245
0.000	0.015	-0.005	-0.005	0.000	0.000	0.400	1.787	1.211	1.216	1.216	1.235	1.240	1.240
-0.005	0.010	0.000	-0.005	-0.005	-0.005	0.410	1.782	1.211	1.216	1.216	1.240	1.235	1.235
0.000	0.005	0.000	0.000	-0.005	-0.005	0.405	1.777	1.216	1.211	1.211	1.235	1.235	1.230
0.000	-0.020	-0.005	0.000	-0.005	0.000	0.410	1.768	1.211	1.211	1.216	1.235	1.235	1.240
-0.005	0.000	-0.005	-0.005	-0.005	-0.010	0.405	1.797	1.216	1.216	1.216	1.235	1.235	1.235
-0.010	0.005	0.005	0.000	0.005	-0.005	0.405	1.802	1.211	1.216	1.216	1.235	1.235	1.230
-0.005	0.010	0.000	-0.005	0.005	-0.010	0.405	1.743	1.206	1.216	1.216	1.235	1.235	1.235
0.000	0.000	0.000	0.000	0.005	0.010	0.410	1.768	1.201	1.206	1.211	1.235	1.235	1.240
-0.005	0.000	-0.005	-0.005	0.005	0.000	0.410	1.689	1.201	1.206	1.211	1.230	1.230	1.235
-0.015	0.000	0.000	0.000	0.000	-0.015	0.410	1.797	1.196	1.201	1.211	1.230	1.226	1.226
0.000	0.000	0.000	0.005	0.000	-0.010	0.410	1.753	1.191	1.196	1.206	1.226	1.226	1.230
-0.005	-0.005	0.000	0.005	0.000	0.005	0.410	1.743	1.191	1.196	1.201	1.226	1.226	1.230
0.000	-0.005	-0.005	0.005	0.000	0.015	0.410	1.768	1.191	1.191	1.196	1.221	1.221	1.230
0.005	-0.005	0.000	0.000	0.000	0.005	0.410	1.772	1.191	1.187	1.196	1.221	1.221	1.221
-0.005	-0.005	-0.005	0.000	0.000	0.005	0.410	1.792	1.191	1.196	1.191	1.216	1.216	1.221
0.000	-0.005	0.005	0.000	0.000	0.010	0.410	1.777	1.191	1.191	1.191	1.216	1.216	1.221
0.000	-0.010	0.005	0.000	0.000	0.005	0.410	1.802	1.196	1.191	1.191	1.211	1.211	1.216
-0.005	0.000	0.005	0.000	0.000	0.000	0.415	1.782	1.196	1.196	1.191	1.216	1.211	1.216
0.000	0.005	-0.005	-0.005	0.000	0.000	0.410	1.797	1.201	1.196	1.196	1.216	1.211	1.216
0.000	0.000	0.000	0.005	-0.005	0.000	0.410	1.807	1.196	1.196	1.196	1.216	1.211	1.216
0.005	0.000	0.000	-0.005	0.000	0.010	0.410	1.787	1.196	1.196	1.196	1.216	1.216	1.221
-0.005	-0.005	0.000	-0.005	-0.005	0.005	0.400	1.787	1.196	1.196	1.196	1.216	1.216	1.216
0.000	-0.005	0.000	-0.005	0.000	-0.024	0.405	1.797	1.196	1.196	1.196	1.216	1.211	1.206
-0.020	0.005	0.000	-0.005	0.000	0.015	0.405	1.797	1.191	1.196	1.196	1.211	1.211	1.221
-0.005	0.005	-0.005	-0.005	0.000	-0.010	0.415	1.743	1.187	1.191	1.196	1.211	1.211	1.211
-0.005	0.000	-0.005	0.000	0.000	0.010	0.415	1.792	1.182	1.187	1.191	1.211	1.211	1.211
0.005	-0.005	0.000	-0.005	0.000	0.010	0.410	1.748	1.182	1.187	1.187	1.211	1.211	1.211
0.000	-0.015	-0.005	0.000	0.005	0.005	0.400	1.792	1.177	1.177	1.187	1.206	1.211	1.211
0.005	-0.010	-0.005	0.000	0.000	-0.020	0.405	1.812	1.177	1.177	1.182	1.206	1.206	1.201
-0.010	-0.005	0.000	0.000	0.005	-0.005	0.410	1.797	1.177	1.177	1.182	1.201	1.206	1.201
-0.005	-0.010	-0.005	0.010	0.005	0.020	0.415	1.748	1.172	1.177	1.177	1.201	1.201	1.211
-0.005	-0.010	-0.005	0.005	-0.005	0.015	0.410	1.753	1.162	1.172	1.177	1.196	1.196	1.206
-0.005	-0.005	-0.005	0.005	0.000	-0.010	0.415	1.772	1.167	1.172	1.172	1.196	1.196	1.196
0.005	-0.005	0.000	0.005	-0.005	-0.005	0.405	1.777	1.172	1.167	1.177	1.196	1.196	1.196
0.000	0.000	-0.005	-0.005	-0.005	0.000	0.410	1.782	1.172	1.172	1.172	1.196	1.196	1.196
-0.005	0.000	0.005	0.000	0.000	-0.024	0.400	1.714	1.162	1.172	1.172	1.196	1.196	1.191
-0.005	-0.005	0.000	0.000	0.000	0.005	0.405	1.729	1.157	1.167	1.172	1.196	1.196	1.206
0.000	0.000	-0.005	-0.005	0.000	0.000	0.405	1.768	1.162	1.167	1.172	1.196	1.196	1.201
-0.005	0.000	-0.005	-0.005	0.000	0.005	0.405	1.782	1.167	1.167	1.167	1.191	1.191	1.196
0.000	0.000	0.005	0.000	0.000	0.010	0.405	1.748	1.172	1.172	1.172	1.191	1.191	1.196
0.005	-0.005	0.000	0.000	-0.005	0.005	0.415	1.758	1.162	1.167	1.172	1.191	1.187	1.196
0.000	0.000	0.000	0.000	0.005	0.015	0.405	1.787	1.167	1.167	1.167	1.187	1.191	1.191
0.005	0.005	-0.005	-0.005	0.000	-0.010	0.410	1.802	1.167	1.167	1.167	1.187	1.187	1.187
0.005	-0.015	0.000	-0.005	-0.005	0.020	0.410	1.787	1.162	1.162	1.162	1.182	1.182	1.191
0.000	-0.010	-0.005	0.000	0.000	0.015	0.415	1.743	1.152	1.157	1.157	1.182	1.182	1.182
-0.005	0.000	-0.005	-0.005	-0.005	-0.005	0.415	1.753	1.152	1.157	1.157	1.177	1.177	1.182
-0.005	0.005	0.000	-0.005	0.005	0.005	0.410	1.787	1.152	1.152	1.152	1.177	1.172	1.177
0.000	0.005	0.000	-0.005	0.000	0.005	0.415	1.807	1.157	1.152	1.157	1.177	1.172	1.177
0.000	-0.005	-0.005	-0.005	-0.005	0.005	0.410	1.802	1.157	1.152	1.152	1.177	1.177	1.177
-0.005	-0.005	0.000	-0.005	-0.005	0.000	0.405	1.802	1.157	1.152	1.152	1.177	1.172	1.172
0.005	0.000	0.000	0.005	0.005	-0.005	0.410	1.797	1.157	1.157	1.157	1.177	1.172	1.172
0.005	0.005	0.000	0.005	0.000	-0.010	0.415	1.782	1.157	1.162	1.157	1.177	1.177	1.172
-0.005	0.000	-0.005	0.000	0.000	-0.015	0.410	1.797	1.162	1.162	1.162	1.177	1.177	1.172
0.000	0.000	0.005	0.000	-0.005	-0.024	0.415	1.787	1.162	1.162	1.162	1.177	1.172	1.172
0.000	0.005	0.000	0.000	0.000	-0.010	0.410	1.733	1.157	1.167	1.162	1.177	1.177	1.177
0.005	0.005	0.000	0.000	0.000	0.005	0.405	1.758	1.152	1.162	1.162	1.177	1.177	1.182
-0.005	0.005	0.000	0.000	0.005	-0.005	0.410	1.821	1.157	1.157	1.162	1.182	1.177	1.177
-0.005	0.005	0.000	-0.010	0.005	-0.005	0.420	1.768	1.157	1.162	1.157	1.177	1.177	1.177
0.005	-0.015	0.000	-0.005	0.000	0.010	0.410	1.758	1.152	1.147	1.157	1.177	1.172	1.177
0.000	-0.010	-0.005	0.000	0.000	0.000	0.420	1.768	1.147	1.147	1.152	1.177	1.172	1.177
0.000	-0.010	0.000	0.005	0.000	0.005	0.415	1.768	1.147	1.147	1.147	1.172	1.172	1.172
-0.005	-0.010	0.000	0.010	0.005	0.000	0.410	1.807	1.152	1.147	1.147	1.172	1.172	1.172
0.005	0.010	0.005	0.010	0.000	0.000	0.410	1.777	1.147	1.147	1.147	1.172	1.172	1.167
-0.005	0.005	-0.005	0.010	0.000	-0.005	0.410	1.777	1.138	1.147	1.147	1.167	1.167	1.167
0.000	0.005	-0.005	0.010	0.000	-0.005	0.410	1.772	1.143	1.143	1.147	1.167	1.167	1.167
-0.005	0.015	0.000	0.000	0.005	-0.010	0.400	1.787	1.143	1.147	1.147	1.162	1.167	1.167
-0.005	0.005	0.005	0.005	0.000	-0.015	0.405	1.763	1.143	1.143	1.143	1.162	1.162	1.162
0.000	-0.005	0.000	-0.005	-0.005	-0.005	0.405	1.748	1.147	1.143	1.143	1.162	1.162	1.167
0.005	-0.005	-0.005	0.000	-0.005	-0.010	0.410	1.729	1.143	1.143	1.143	1.162	1.162	1.162
-0.005	0.005	-0.005	-0.005	0.000	0.015	0.415	1.787	1.143	1.143	1.147	1.162	1.162	1.172
-0.005	0.000	-0.005	-0.010	-0.010	0.015	0.415	1.792	1.147	1.143	1.147	1.162	1.162	1.172
-0.005	0.000	0.000	0.000	-0.010	0.000	0.405	1.738	1.143	1.147	1.143	1.167	1.162	1.162
0.000	0.000	0.000	0.000	0.000	0.015	0.405	1.733	1.138	1.143	1.147	1.167	1.162	1.167
0.000	-0.005	0.000	0.000	0.000	0.020	0.400	1.782	1.138	1.138	1.143	1.167	1.162	1.167
0.000	-0.005	0.000	0.000	0.000	-0.015	0.415	1.797	1.143	1.138	1.143	1.162	1.162	1.152
0.000	0.005	-0.005	0.000	-0.005	0.005	0.400	1.748	1.133	1.138	1.143	1.162	1.162	1.162
-0.005	-0.015	-0.005	0.000	-0.005	-0.024	0.410	1.772	1.133	1.128	1.138	1.157	1.157	1.152
-0.005	-0.005	0.005	0.000	-0.005	0.000	0.410	1.821	1.138	1.128	1.133	1.157	1.157	1.157
-0.005	-0.010	0.000	0.000	0.000	0.000	0.415	1.763	1.128	1.133	1.133	1.152	1.152	1.152
0.000	-0.010	0.000	0.000	0.005	0.000	0.410	1.797	1.138	1.133	1.133	1.152	1.152	1.157
0.000	0.010	-0.005	-0.005	0.000	-0.005	0.415	1.787	1.138	1.138	1.133	1.152	1.147	1.147
-0.005	0.010	-0.005	-0.005	0.000	-0.005	0.410	1.777	1.133	1.133	1.133	1.152	1.147	1.147
0.000	0.000	0.005	-0.005	0.000	0.000	0.420	1.758	1.138	1.133	1.133	1.152	1.147	1.147
-0.005	-0.005	0.000	0.000	0.000	-0.005	0.410	1.738	1.128	1.133	1.133	1.152	1.147	1.152
0.000	0.005	-0.005	0.000	0.005	0.005	0.420	1.792	1.138	1.138	1.133	1.152	1.152	1.152
0.000	-0.005	-0.005	0.000	-0.010	-0.015	0.405	1.753	1.138	1.138	1.133	1.152	1.152	1.147
0.000	0.000	-0.005	0.000	-0.005	-0.005	0.405	1.782	1.133	1.133	1.138	1.152	1.152	1.152
-0.005	0.000	0.000	0.000	-0.010	0.000	0.410	1.758	1.138	1.133	1.138	1.152	1.147	1.152
-0.005	0.000	0.000	-0.005	-0.005	-0.005	0.410	1.802	1.143	1.138	1.138	1.152	1.152	1.147
0.000	0.005	-0.005	0.000	0.000	-0.020	0.410	1.777	1.138	1.138	1.138	1.152	1.152	1.143
0.000	0.000	-0.005	-0.005	-0.005	0.005	0.410	1.807	1.138	1.133	1.133	1.157	1.152	1.157
0.000	-0.015	0.000	0.000	-0.005	0.005	0.410	1.782	1.128	1.128	1.133	1.152	1.147	1.152
0.000	0.005	0.000	0.005	0.005	-0.015	0.415	1.743	1.167	1.138	1.138	1.152	1.152	1.147
0.000	-0.005	-0.005	0.000	-0.005	0.005	0.400	1.753	1.152	1.138	1.133	1.157	1.147	1.152
-0.005	0.000	0.000	0.000	-0.005	0.000	0.410	1.738	1.138	1.143	1.138	1.152	1.147	1.147
0.000	0.000	0.000	0.000	0.000	0.005	0.405	1.772	1.133	1.138	1.133	1.152	1.147	1.147
-0.010	0.005	0.000	-0.005	0.000	-0.005	0.410	1.807	1.133	1.133	1.133	1.152	1.147	1.147
-0.005	0.005	0.005	0.000	0.005	0.005	0.415	1.753	1.128	1.138	1.138	1.152	1.147	1.152
0.000	0.015	-0.005	0.000	0.005	0.000	0.405	1.782	1.108	1.128	1.133	1.152	1.147	1.147
0.005	0.000	0.000	0.000	0.005	-0.015	0.405	1.738	1.113	1.118	1.128	1.152	1.147	1.143
0.000	0.000	0.000	0.000	-0.005	0.000	0.410	1.777	1.118	1.118	1.128	1.147	1.147	1.147
0.000	0.000	0.000	0.000	-0.010	0.000	0.410	1.797	1.128	1.118	1.123	1.147	1.147	1.147
0.005	-0.005	0.000	0.000	-0.005	-0.015	0.415	1.787	1.113	1.123	1.123	1.152	1.147	1.143
0.005	-0.005	-0.005	0.000	-0.005	0.005	0.415	1.851	1.118	1.118	1.128	1.147	1.147	1.152
0.000	-0.015	-0.005	-0.005	0.005	0.000	0.405	1.787	1.123	1.113	1.118	1.147	1.147	1.147
0.000	-0.015	0.000	0.000	0.000	-0.005	0.420	1.787	1.128	1.118	1.123	1.147	1.143	1.147
-0.005	0.005	0.000	0.005	0.000	-0.015	0.410	1.812	1.133	1.128	1.123	1.143	1.143	1.138
0.005	0.005	0.000	0.000	0.000	0.005	0.415	1.777	1.138	1.128	1.123	1.143	1.143	1.147
0.000	-0.005	-0.005	0.000	0.000	0.005	0.405	1.792	1.133	1.128	1.123	1.143	1.143	1.147
-0.005	-0.005	-0.005	0.000	0.000	0.010	0.410	1.787	1.138	1.128	1.123	1.143	1.143	1.143
0.000	0.000	0.005	0.000	0.000	-0.005	0.405	1.768	1.128	1.128	1.128	1.138	1.138	1.138
0.010	0.000	-0.005	0.000	0.000	0.010	0.415	1.787	1.133	1.128	1.123	1.143	1.133	1.143
0.005	0.000	0.005	-0.005	-0.005	-0.005	0.415	1.772	1.128	1.128	1.123	1.143	1.138	1.133
0.005	0.000	0.000	0.000	-0.005	0.005	0.410	1.787	1.128	1.123	1.118	1.143	1.133	1.138
0.010	0.010	-0.005	0.000	0.000	-0.029	0.405	1.748	1.123	1.128	1.123	1.138	1.133	1.128
-0.005	-0.010	0.005	0.000	-0.005	0.005	0.410	1.733	1.118	1.118	1.123	1.143	1.133	1.138
0.005	-0.010	0.000	-0.005	0.000	0.005	0.415	1.792	1.118	1.118	1.123	1.138	1.133	1.138
-0.005	-0.005	0.000	-0.005	0.000	0.000	0.415	1.768	1.128	1.123	1.123	1.143	1.138	1.133
0.005	-0.005	0.000	0.000	-0.005	0.000	0.405	1.768	1.128	1.128	1.123	1.143	1.138	1.133
-0.010	-0.005	-0.005	-0.005	0.005	-0.005	0.410	1.777	1.128	1.123	1.123	1.143	1.138	1.138
0.000	0.000	0.000	-0.005	-0.005	0.000	0.410	1.777	1.128	1.128	1.123	1.143	1.138	1.138
0.005	0.000	0.000	0.000	-0.005	-0.005	0.415	1.724	1.128	1.128	1.128	1.147	1.138	1.138
-0.015	-0.005	0.005	-0.005	-0.005	0.005	0.415	1.802	1.123	1.123	1.128	1.147	1.138	1.138
-0.005	0.000	0.000	-0.005	-0.005	0.015	0.400	1.777	1.128	1.123	1.123	1.143	1.138	1.143
0.000	0.005	0.000	0.000	0.000	-0.010	0.415	1.782	1.128	1.128	1.123	1.147	1.143	1.133
-0.005	0.005	-0.005	0.000	0.000	0.015	0.400	1.777	1.123	1.123	1.123	1.147	1.143	1.147
-0.010	-0.005	0.005	0.000	0.005	0.010	0.420	1.816	1.123	1.118	1.118	1.143	1.138	1.138
-0.005	0.000	-0.005	0.005	0.000	-0.020	0.400	1.797	1.123	1.118	1.118	1.143	1.138	1.133
-0.005	0.000	-0.005	0.000	0.000	-0.005	0.410	1.768	1.113	1.123	1.118	1.143	1.138	1.138
-0.005	0.000	0.000	0.000	-0.005	0.005	0.405	1.787	1.113	1.113	1.113	1.138	1.133	1.138
-0.005	0.000	0.000	0.000	-0.005	0.005	0.415	1.797	1.113	1.113	1.113	1.133	1.128	1.133
-0.005	0.000	-0.005	0.010	0.000	-0.005	0.405	1.772	1.118	1.113	1.113	1.133	1.133	1.133
-0.005	0.000	0.005	0.000	-0.005	-0.010	0.415	1.880	1.118	1.113	1.113	1.133	1.128	1.128
0.000	-0.005	0.005	0.005	-0.005	0.005	0.410	1.763	1.118	1.113	1.118	1.138	1.133	1.133
0.000	-0.005	-0.005	0.000	0.000	-0.024	0.415	1.797	1.128	1.113	1.113	1.133	1.133	1.128
0.000	-0.005	-0.005	-0.005	-0.005	0.005	0.400	1.802	1.133	1.118	1.118	1.133	1.133	1.138
0.005	0.005	0.000	0.000	-0.005	0.000	0.410	1.733	1.133	1.128	1.123	1.138	1.133	1.138
0.005	0.005	0.000	0.000	0.000	-0.010	0.410	1.782	1.128	1.128	1.123	1.138	1.133	1.128
0.000	0.015	0.000	0.005	-0.005	0.010	0.405	1.802	1.123	1.128	1.123	1.138	1.138	1.138
0.000	0.005	0.000	0.000	0.000	0.000	0.415	1.782	1.123	1.123	1.123	1.138	1.138	1.133
-0.010	0.000	0.000	-0.005	0.000	0.000	0.405	1.768	1.118	1.123	1.123	1.143	1.138	1.133
0.000	0.005	0.000	-0.005	0.000	0.000	0.410	1.797	1.123	1.118	1.123	1.143	1.133	1.138
-0.005	0.000	0.000	-0.005	-0.005	-0.010	0.410	1.729	1.118	1.118	1.118	1.138	1.133	1.133
-0.005	-0.005	0.000	0.000	-0.010	-0.005	0.410	1.753	1.113	1.113	1.113	1.138	1.133	1.128
-0.005	-0.020	-0.005	-0.005	-0.005	-0.015	0.410	1.787	1.118	1.108	1.113	1.138	1.133	1.133
0.000	-0.015	0.005	-0.005	0.000	0.010	0.405	1.777	1.113	1.113	1.108	1.133	1.128	1.133
-0.005	-0.010	-0.005	-0.005	-0.005	0.005	0.400	1.802	1.113	1.113	1.113	1.133	1.128	1.133
-0.005	-0.010	0.000	-0.010	-0.005	-0.005	0.415	1.807	1.118	1.108	1.108	1.128	1.128	1.128
0.005	-0.005	0.000	-0.005	0.000	-0.010	0.405	1.743	1.113	1.113	1.108	1.128	1.128	1.128
-0.005	-0.005	-0.005	0.000	-0.005	-0.010	0.420	1.792	1.118	1.113	1.113	1.133	1.123	1.128
0.005	0.005	-0.005	0.000	-0.005	0.000	0.405	1.768	1.118	1.118	1.113	1.133	1.128	1.133
0.000	-0.005	-0.005	0.000	-0.010	-0.005	0.420	1.792	1.118	1.113	1.113	1.133	1.128	1.128
0.000	0.005	0.000	0.000	-0.005	0.000	0.410	1.792	1.123	1.118	1.118	1.133	1.133	1.128
0.005	0.005	0.000	0.000	0.000	0.000	0.415	1.802	1.128	1.123	1.118	1.138	1.133	1.133
0.000	0.000	-0.005	-0.005	0.000	0.005	0.410	1.777	1.128	1.123	1.118	1.138	1.133	1.133
0.005	0.005	0.000	-0.005	0.000	0.005	0.410	1.797	1.128	1.123	1.123	1.138	1.133	1.133
0.000	0.015	-0.005	0.000	0.005	0.000	0.410	1.797	1.128	1.128	1.123	1.138	1.133	1.128
-0.005	0.020	0.000	-0.005	0.000	0.000	0.415	1.772	1.123	1.128	1.123	1.138	1.133	1.128
-0.005	0.015	-0.005	0.000	0.005	-0.020	0.405	1.787	1.118	1.123	1.123	1.138	1.133	1.123
-0.010	0.010	0.005	0.000	-0.005	-0.029	0.410	1.772	1.113	1.118	1.118	1.138	1.133	1.123
-0.005	0.010	-0.005	0.005	-0.005	0.005	0.405	1.777	1.113	1.118	1.118	1.138	1.133	1.138
-0.005	-0.005	-0.005	-0.005	0.000	0.005	0.415	1.792	1.118	1.108	1.113	1.138	1.133	1.133
0.000	0.005	-0.005	-0.005	0.000	-0.005	0.405	1.787	1.118	1.108	1.113	1.133	1.128	1.128
0.000	0.020	-0.005	-0.005	0.000	0.000	0.410	1.763	1.118	1.118	1.113	1.133	1.128	1.128
0.000	-0.015	0.000	-0.005	-0.005	-0.020	0.415	1.797	1.113	1.108	1.108	1.133	1.128	1.123
0.010	-0.005	0.000	-0.005	-0.005	0.000	0.410	1.748	1.118	1.113	1.108	1.128	1.128	1.128
-0.005	-0.020	0.000	0.000	0.000	0.000	0.410	1.709	1.108	1.108	1.113	1.128	1.128	1.128
0.005	-0.020	0.005	0.005	-0.005	0.005	0.415	1.738	1.113	1.108	1.108	1.133	1.128	1.128
-0.005	-0.010	-0.005	0.000	0.000	0.000	0.415	1.787	1.118	1.113	1.113	1.133	1.128	1.128
0.005	-0.010	0.000	0.005	0.000	-0.005	0.405	1.792	1.113	1.118	1.113	1.133	1.133	1.128
0.000	-0.005	-0.005	0.000	-0.005	0.005	0.410	1.782	1.118	1.118	1.113	1.133	1.128	1.133
0.010	0.000	0.000	0.005	0.010	0.010	0.410	1.680	1.123	1.123	1.113	1.133	1.133	1.133
0.005	0.005	0.000	0.000	0.015	-0.010	0.410	1.758	1.113	1.123	1.118	1.133	1.138	1.128
0.000	0.010	0.000	0.000	0.020	0.010	0.410	1.768	1.113	1.118	1.118	1.138	1.138	1.138
0.005	0.005	0.000	0.005	0.020	0.000	0.410	1.772	1.113	1.113	1.118	1.138	1.138	1.133
0.005	0.000	0.005	0.005	0.015	0.000	0.410	1.797	1.118	1.113	1.118	1.138	1.133	1.133
0.000	0.000	-0.005	0.005	0.024	0.024	0.415	1.777	1.118	1.113	1.113	1.133	1.133	1.138
0.000	-0.010	0.000	0.000	0.020	0.005	0.415	1.797	1.118	1.108	1.108	1.133	1.133	1.128
-0.005	-0.005	-0.005	0.000	0.020	0.000	0.410	1.738	1.108	1.108	1.108	1.128	1.128	1.128
0.000	-0.005	-0.005	0.005	0.015	-0.010	0.415	1.768	1.108	1.108	1.108	1.128	1.123	1.118
0.000	-0.015	0.000	0.005	0.005	0.015	0.410	1.812	1.108	1.108	1.108	1.128	1.123	1.128
0.000	0.000	-0.005	0.000	0.005	0.015	0.410	1.733	1.104	1.108	1.104	1.123	1.123	1.123
0.005	0.000	0.000	0.000	0.005	0.020	0.410	1.782	1.108	1.104	1.108	1.128	1.118	1.123
-0.005	0.005	-0.005	0.000	0.000	0.010	0.415	1.733	1.108	1.108	1.108	1.123	1.118	1.118
0.000	-0.005	-0.005	0.000	0.000	0.020	0.410	1.753	1.108	1.108	1.108	1.128	1.123	1.123
-0.005	0.000	0.005	-0.005	0.000	0.020	0.410	1.787	1.108	1.108	1.108	1.128	1.123	1.123
0.000	-0.005	0.000	0.000	0.000	0.024	0.400	1.802	1.118	1.113	1.108	1.128	1.123	1.123
-0.005	-0.010	-0.005	-0.005	0.005	0.015	0.410	1.743	1.113	1.113	1.108	1.128	1.128	1.123
0.005	-0.005	0.000	0.005	-0.005	-0.005	0.415	1.743	1.113	1.113	1.113	1.133	1.123	1.118
-0.005	0.000	-0.005	0.010	0.000	0.000	0.415	1.792	1.113	1.113	1.113	1.133	1.123	1.118
0.000	0.005	0.000	-0.005	-0.005	-0.020	0.410	1.797	1.123	1.118	1.118	1.133	1.128	1.118
0.000	0.000	0.000	-0.005	-0.005	0.005	0.410	1.782	1.113	1.108	1.113	1.128	1.123	1.123
-0.005	0.000	0.000	0.000	-0.005	0.005	0.410	1.748	1.108	1.108	1.108	1.128	1.123	1.123
-0.005	-0.010	0.000	-0.005	-0.005	-0.010	0.410	1.758	1.104	1.108	1.113	1.128	1.123	1.118
-0.015	0.000	-0.005	0.000	-0.005	-0.024	0.405	1.792	1.108	1.104	1.108	1.128	1.123	1.113
0.000	0.005	0.000	0.000	-0.010	-0.005	0.405	1.792	1.113	1.108	1.108	1.128	1.118	1.118
-0.005	0.000	0.000	0.005	-0.015	-0.005	0.410	1.763	1.104	1.108	1.104	1.128	1.123	1.118
0.000	0.005	0.000	0.000	-0.020	-0.010	0.410	1.777	1.108	1.108	1.104	1.123	1.118	1.118
0.005	-0.005	-0.005	0.000	-0.020	-0.010	0.410	1.743	1.104	1.099	1.104	1.118	1.118	1.118
0.000	0.000	0.000	0.000	-0.020	-0.020	0.415	1.802	1.108	1.104	1.104	1.123	1.118	1.118
0.000	-0.005	0.000	-0.005	-0.015	-0.010	0.410	1.792	1.108	1.108	1.104	1.123	1.118	1.118
0.005	0.005	0.000	0.000	-0.015	-0.044	0.415	1.719	1.113	1.113	1.104	1.128	1.118	1.108
0.000	0.005	-0.005	0.000	-0.005	-0.010	0.410	1.763	1.113	1.113	1.108	1.128	1.128	1.128
0.000	0.005	-0.005	0.000	-0.015	-0.010	0.410	1.763	1.108	1.113	1.108	1.128	1.123	1.123
0.000	0.005	0.000	-0.005	-0.010	0.000	0.405	1.777	1.113	1.113	1.113	1.128	1.123	1.128
0.005	-0.005	0.005	0.000	-0.015	-0.010	0.410	1.733	1.108	1.108	1.108	1.128	1.123	1.123
0.000	-0.005	-0.005	0.005	-0.015	0.005	0.410	1.763	1.104	1.108	1.108	1.128	1.128	1.128
-0.005	0.000	0.000	0.005	-0.005	-0.020	0.410	1.777	1.108	1.104	1.108	1.133	1.128	1.123
0.000	0.005	0.000	-0.005	0.000	0.010	0.410	1.802	1.113	1.108	1.108	1.128	1.128	1.128
0.000	-0.010	0.000	0.000	-0.005	0.005	0.410	1.763	1.108	1.104	1.104	1.123	1.123	1.128
0.000	-0.010	0.000	0.000	0.000	0.000	0.415	1.719	1.108	1.108	1.104	1.123	1.123	1.123
-0.010	-0.015	-0.005	-0.005	0.000	-0.005	0.410	1.758	1.104	1.099	1.104	1.123	1.118	1.123
0.000	-0.005	-0.005	-0.005	0.000	0.010	0.405	1.802	1.108	1.104	1.104	1.118	1.118	1.123
-0.005	-0.010	-0.005	-0.005	0.000	0.005	0.405	1.802	1.108	1.104	1.099	1.118	1.118	1.118
-0.005	0.005	0.000	-0.005	0.005	0.000	0.410	1.772	1.108	1.108	1.104	1.118	1.118	1.118
-0.010	0.000	0.000	0.000	0.000	-0.029	0.410	1.787	1.108	1.108	1.104	1.123	1.118	1.113
0.000	0.005	0.000	-0.005	-0.005	-0.005	0.410	1.772	1.108	1.108	1.104	1.123	1.118	1.118
0.005	-0.005	-0.005	-0.005	-0.005	0.015	0.415	1.753	1.108	1.108	1.104	1.123	1.118	1.118
-0.005	0.005	-0.005	-0.005	-0.005	0.005	0.410	1.758	1.108	1.113	1.108	1.123	1.118	1.118
0.010	-0.010	0.000	0.005	0.000	-0.024	0.405	1.777	1.113	1.113	1.108	1.128	1.123	1.113
0.005	-0.010	-0.005	0.000	0.000	0.010	0.410	1.802	1.113	1.113	1.108	1.128	1.123	1.123
-0.005	-0.005	0.000	0.000	0.000	0.005	0.410	1.831	1.113	1.113	1.108	1.133	1.128	1.128
0.000	0.000	0.000	-0.005	0.005	-0.010	0.415	1.729	1.104	1.113	1.113	1.128	1.123	1.123
0.000	0.005	0.000	0.000	0.005	-0.024	0.410	1.792	1.108	1.108	1.108	1.128	1.123	1.123
0.000	-0.005	-0.005	0.000	0.000	-0.005	0.410	1.792	1.113	1.108	1.108	1.128	1.123	1.123
0.000	-0.005	0.000	-0.005	0.000	-0.005	0.400	1.777	1.113	1.108	1.108	1.128	1.123	1.123
0.005	0.000	0.000	0.000	0.005	0.005	0.410	1.758	1.104	1.108	1.108	1.128	1.123	1.123
-0.010	-0.005	0.000	0.000	0.000	0.000	0.415	1.763	1.099	1.104	1.108	1.123	1.118	1.123
-0.010	0.000	-0.005	-0.005	0.000	-0.020	0.420	1.797	1.104	1.099	1.104	1.123	1.118	1.113
0.005	-0.010	0.005	0.000	0.000	0.015	0.410	1.748	1.108	1.099	1.104	1.123	1.118	1.123
0.005	-0.020	0.000	0.000	0.000	-0.015	0.410	1.777	1.104	1.099	1.099	1.118	1.118	1.118
-0.005	-0.010	0.005	-0.005	-0.005	-0.020	0.415	1.777	1.099	1.099	1.099	1.118	1.113	1.113
-0.005	0.000	0.000	0.000	0.000	0.010	0.420	1.792	1.108	1.104	1.099	1.123	1.113	1.123
0.000	0.000	0.000	0.000	-0.005	0.015	0.410	1.812	1.113	1.104	1.099	1.118	1.113	1.118
0.000	0.005	0.000	-0.005	-0.005	0.029	0.415	1.733	1.113	1.113	1.104	1.118	1.118	1.123
0.000	0.015	-0.005	-0.005	0.000	0.010	0.410	1.758	1.108	1.113	1.108	1.123	1.118	1.118
0.005	0.005	0.000	-0.005	0.000	0.000	0.410	1.763	1.108	1.113	1.108	1.128	1.118	1.118
-0.010	0.005	0.000	0.005	-0.005	0.000	0.415	1.758	1.113	1.113	1.108	1.133	1.123	1.118
-0.005	0.000	0.000	0.005	0.000	-0.010	0.410	1.743	1.108	1.108	1.108	1.128	1.123	1.118
-0.005	0.005	0.000	0.005	0.005	0.000	0.420	1.787	1.108	1.108	1.108	1.128	1.128	1.123
-0.005	0.010	-0.005	0.010	0.000	0.000	0.410	1.797	1.113	1.108	1.108	1.128	1.123	1.123
-0.015	0.010	0.010	0.005	-0.005	0.005	0.420	1.743	1.113	1.113	1.113	1.128	1.123	1.118
-0.010	0.005	0.000	0.005	0.005	0.000	0.405	1.748	1.108	1.113	1.108	1.128	1.123	1.123
-0.010	0.005	-0.005	-0.005	0.005	0.000	0.410	1.792	1.104	1.104	1.104	1.123	1.123	1.118
0.000	0.010	-0.005	-0.005	0.000	0.015	0.405	1.787	1.104	1.104	1.104	1.123	1.118	1.123
-0.005	0.000	0.000	-0.005	0.005	0.015	0.410	1.802	1.113	1.104	1.104	1.123	1.118	1.118
-0.005	-0.005	0.000	-0.005	0.005	0.000	0.410	1.792	1.113	1.099	1.099	1.118	1.113	1.113
0.005	-0.005	0.000	-0.005	0.000	-0.015	0.415	1.768	1.113	1.104	1.104	1.118	1.118	1.108
0.005	-0.010	0.000	0.005	-0.005	-0.010	0.415	1.777	1.108	1.104	1.104	1.123	1.113	1.113
0.010	-0.010	0.000	0.000	-0.005	-0.010	0.410	1.748	1.108	1.104	1.099	1.123	1.118	1.113
-0.010	-0.005	-0.005	-0.005	0.000	-0.039	0.405	1.787	1.104	1.104	1.104	1.118	1.113	1.104
0.000	-0.020	0.000	0.000	0.000	-0.005	0.410	1.724	1.113	1.104	1.104	1.123	1.118	1.118
0.005	-0.010	0.000	0.000	0.000	-0.005	0.410	1.797	1.123	1.113	1.104	1.123	1.118	1.113
0.005	-0.005	-0.005	0.000	0.000	0.000	0.420	1.772	1.118	1.118	1.108	1.123	1.123	1.123
0.000	0.000	0.000	-0.005	0.000	0.015	0.405	1.768	1.113	1.118	1.108	1.128	1.123	1.123
0.000	0.005	0.000	0.000	0.000	0.020	0.410	1.787	1.118	1.118	1.118	1.128	1.123	1.123
0.005	-0.005	0.000	0.000	0.000	0.005	0.410	1.797	1.118	1.118	1.113	1.128	1.123	1.123
0.005	0.000	0.000	0.000	-0.005	0.000	0.405	1.797	1.118	1.118	1.113	1.133	1.123	1.123
-0.005	0.005	-0.005	0.000	0.000	-0.015	0.410	1.792	1.094	1.113	1.113	1.128	1.123	1.118
-0.005	-0.005	0.000	0.000	0.000	0.005	0.410	1.782	1.099	1.104	1.108	1.128	1.123	1.123
-0.005	0.000	0.000	-0.005	0.000	-0.015	0.415	1.768	1.099	1.104	1.108	1.128	1.118	1.118
-0.015	0.005	0.000	0.000	0.005	-0.010	0.415	1.777	1.094	1.099	1.104	1.128	1.123	1.118
-0.005	0.005	-0.005	0.005	0.000	0.000	0.405	1.792	1.099	1.099	1.104	1.123	1.123	1.123
0.000	0.010	-0.005	0.000	0.000	-0.015	0.415	1.704	1.099	1.099	1.099	1.118	1.118	1.113
0.010	0.010	-0.005	-0.005	-0.005	-0.015	0.410	1.738	1.094	1.099	1.099	1.118	1.118	1.113
0.000	0.005	0.000	0.000	0.000	0.005	0.415	1.724	1.094	1.099	1.099	1.113	1.118	1.118
0.000	0.000	0.000	-0.005	0.000	-0.005	0.420	1.782	1.099	1.094	1.094	1.113	1.113	1.113
-0.010	-0.005	-0.005	-0.005	-0.005	-0.005	0.410	1.802	1.104	1.094	1.094	1.118	1.113	1.118
0.005	-0.005	-0.005	0.000	-0.005	0.000	0.415	1.729	1.104	1.099	1.094	1.118	1.113	1.118
0.000	0.000	-0.005	0.005	0.005	-0.005	0.410	1.787	1.108	1.104	1.104	1.118	1.118	1.118
-0.010	-0.010	0.000	0.000	0.005	-0.005	0.410	1.807	1.113	1.104	1.099	1.123	1.118	1.113
-0.005	-0.005	0.000	-0.005	-0.005	-0.005	0.415	1.782	1.113	1.104	1.104	1.118	1.118	1.118
0.000	-0.005	0.005	0.000	0.000	-0.015	0.410	1.768	1.118	1.108	1.104	1.123	1.118	1.113
0.000	-0.005	0.000	0.000	0.000	0.020	0.415	1.787	1.113	1.108	1.108	1.123	1.118	1.123
-0.005	-0.005	-0.005	0.000	0.000	0.029	0.415	1.719	1.108	1.113	1.104	1.123	1.123	1.128
0.000	-0.010	-0.005	0.005	-0.005	0.020	0.410	1.782	1.108	1.108	1.104	1.123	1.118	1.118
0.000	-0.015	0.000	0.005	0.010	0.029	0.410	1.787	1.108	1.104	1.104	1.123	1.118	1.123
-0.010	-0.005	0.005	0.000	0.000	0.034	0.415	1.797	1.113	1.108	1.104	1.123	1.113	1.118
0.005	-0.010	0.000	0.005	-0.010	0.024	0.415	1.714	1.104	1.104	1.104	1.123	1.113	1.118
0.005	-0.010	0.000	0.000	0.000	0.020	0.415	1.797	1.108	1.099	1.099	1.118	1.113	1.113
0.005	-0.005	0.000	0.000	-0.005	0.005	0.405	1.807	1.108	1.108	1.099	1.118	1.113	1.104
0.005	-0.010	0.000	0.000	-0.005	-0.020	0.405	1.772	1.108	1.104	1.099	1.118	1.113	1.104
-0.005	0.000	-0.005	0.000	-0.005	-0.024	0.410	1.782	1.104	1.104	1.104	1.118	1.113	1.099
0.000	0.000	0.000	-0.005	0.000	-0.005	0.420	1.797	1.104	1.104	1.104	1.118	1.118	1.113
0.005	0.015	0.000	0.000	-0.015	-0.005	0.415	1.748	1.108	1.113	1.108	1.123	1.113	1.113
0.000	0.000	-0.005	-0.005	-0.005	-0.029	0.415	1.787	1.108	1.104	1.104	1.123	1.118	1.108
-0.010	0.005	0.000	0.000	0.000	-0.029	0.415	1.743	1.108	1.108	1.108	1.123	1.123	1.113
0.005	0.015	0.000	0.000	0.005	-0.024	0.410	1.787	1.108	1.113	1.108	1.123	1.123	1.118
0.005	0.010	-0.005	0.000	0.005	0.010	0.405	1.758	1.108	1.108	1.108	1.128	1.128	1.133
-0.005	0.000	0.005	-0.005	0.005	0.010	0.410	1.797	1.118	1.108	1.108	1.128	1.123	1.128
-0.005	0.000	0.000	-0.005	0.005	0.010	0.410	1.777	1.118	1.113	1.108	1.128	1.123	1.123
-0.005	0.005	0.000	0.000	0.000	-0.020	0.410	1.738	1.104	1.113	1.108	1.123	1.123	1.118
-0.005	-0.005	0.000	0.000	0.000	-0.005	0.405	1.792	1.108	1.108	1.108	1.123	1.118	1.123
-0.005	-0.005	0.000	-0.005	0.005	0.000	0.415	1.782	1.104	1.104	1.108	1.123	1.118	1.123
0.000	0.000	-0.005	0.000	0.000	0.000	0.415	1.733	1.104	1.108	1.104	1.123	1.118	1.118
-0.020	-0.005	-0.005	0.000	0.000	0.000	0.410	1.787	1.094	1.099	1.099	1.123	1.118	1.118
-0.005	-0.005	0.000	0.005	-0.005	-0.005	0.410	1.792	1.089	1.099	1.094	1.118	1.118	1.113
0.000	-0.005	-0.005	0.000	0.000	-0.015	0.410	1.787	1.094	1.094	1.099	1.118	1.118	1.113
0.000	-0.015	0.000	0.005	0.005	-0.005	0.410	1.777	1.113	1.099	1.094	1.118	1.113	1.113
0.000	-0.015	-0.005	0.005	0.005	-0.010	0.420	1.758	1.108	1.099	1.094	1.113	1.118	1.108
-0.010	-0.010	0.000	0.005	0.005	0.005	0.415	1.768	1.108	1.104	1.104	1.118	1.113	1.118
-0.010	-0.010	-0.005	0.000	0.000	-0.010	0.405	1.792	1.113	1.104	1.104	1.118	1.113	1.108
-0.005	-0.010	0.000	0.010	0.000	0.005	0.410	1.782	1.108	1.104	1.104	1.123	1.118	1.118
0.005	0.005	0.000	0.000	-0.005	0.000	0.410	1.748	1.108	1.113	1.108	1.123	1.113	1.113
0.005	-0.005	0.000	0.000	0.005	-0.015	0.410	1.782	1.113	1.108	1.108	1.123	1.123	1.118
-0.010	0.000	0.000	-0.005	0.000	0.005	0.410	1.787	1.104	1.108	1.108	1.123	1.118	1.118
0.005	0.020	0.000	0.000	0.000	0.015	0.415	1.792	1.113	1.113	1.108	1.123	1.118	1.118
0.005	0.010	-0.005	-0.005	0.000	0.000	0.415	1.743	1.108	1.108	1.108	1.123	1.123	1.118
-0.015	0.005	0.000	0.000	0.005	-0.010	0.415	1.787	1.108	1.108	1.108	1.128	1.123	1.113
0.000	0.000	0.000	0.000	0.000	-0.005	0.400	1.802	1.108	1.104	1.104	1.123	1.123	1.118
-0.010	-0.005	-0.005	0.000	-0.005	0.015	0.410	1.792	1.108	1.104	1.104	1.123	1.118	1.118
0.000	-0.005	0.000	0.000	0.005	0.010	0.410	1.772	1.108	1.104	1.104	1.123	1.118	1.123
-0.005	-0.010	0.005	0.000	0.000	0.005	0.410	1.763	1.108	1.099	1.099	1.123	1.113	1.113
-0.005	-0.005	0.000	-0.005	-0.005	0.010	0.405	1.748	1.104	1.099	1.099	1.118	1.113	1.113
0.000	-0.010	-0.005	-0.005	0.000	0.005	0.410	1.733	1.094	1.099	1.099	1.118	1.113	1.113
0.000	-0.005	-0.005	-0.005	-0.005	0.000	0.415	1.787	1.099	1.094	1.099	1.118	1.113	1.113
0.010	-0.015	-0.005	-0.005	0.000	-0.005	0.410	1.719	1.099	1.099	1.099	1.113	1.113	1.113
0.000	-0.010	0.000	0.000	0.000	-0.005	0.410	1.792	1.104	1.099	1.099	1.118	1.113	1.113
0.005	0.010	0.005	0.000	-0.005	-0.015	0.410	1.787	1.113	1.108	1.104	1.123	1.113	1.108
0.015	0.005	0.010	-0.005	-0.005	0.000	0.410	1.787	1.113	1.108	1.104	1.123	1.118	1.113
0.005	-0.005	0.000	0.000	0.000	-0.005	0.405	1.768	1.108	1.108	1.108	1.123	1.118	1.118
0.010	0.000	0.000	-0.005	0.000	0.005	0.410	1.797	1.113	1.108	1.108	1.123	1.118	1.118
-0.005	0.005	0.005	-0.005	-0.005	-0.005	0.410	1.738	1.104	1.108	1.108	1.128	1.118	1.113
0.005	0.000	0.000	-0.005	-0.005	0.005	0.415	1.763	1.104	1.108	1.104	1.123	1.118	1.118
-0.005	0.005	0.000	0.000	0.005	-0.005	0.410	1.782	1.099	1.108	1.108	1.128	1.123	1.118
-0.005	0.000	-0.005	0.000	-0.005	-0.015	0.410	1.787	1.104	1.104	1.104	1.123	1.118	1.118
0.000	0.000	0.000	0.000	0.000	0.005	0.410	1.787	1.104	1.099	1.104	1.123	1.118	1.118
0.005	-0.005	0.000	0.000	0.000	-0.015	0.410	1.763	1.104	1.104	1.099	1.123	1.118	1.113
-0.005	0.000	0.000	0.000	0.000	-0.010	0.410	1.768	1.094	1.099	1.099	1.118	1.113	1.118
0.000	0.000	0.000	-0.005	0.000	0.015	0.410	1.797	1.104	1.099	1.094	1.118	1.113	1.118
-0.005	0.005	0.000	0.000	0.000	-0.005	0.410	1.772	1.104	1.099	1.094	1.118	1.113	1.113
-0.005	-0.010	-0.005	-0.005	0.000	0.010	0.415	1.748	1.089	1.094	1.094	1.113	1.113	1.118
0.000	-0.005	-0.005	0.005	-0.005	-0.005	0.405	1.777	1.094	1.094	1.094	1.113	1.113	1.104
0.000	0.005	0.000	-0.005	0.000	0.005	0.415	1.753	1.099	1.094	1.094	1.113	1.113	1.113
0.000	-0.005	0.000	-0.005	0.000	0.005	0.410	1.787	1.108	1.094	1.099	1.113	1.108	1.113
0.000	-0.005	0.000	-0.005	0.000	0.005	0.410	1.777	1.108	1.099	1.099	1.118	1.113	1.113
-0.005	0.000	0.000	0.000	0.000	0.000	0.415	1.782	1.094	1.104	1.099	1.118	1.113	1.108
0.005	-0.005	-0.005	0.000	0.005	0.005	0.415	1.782	1.104	1.099	1.099	1.118	1.113	1.118
0.000	0.000	-0.005	0.005	-0.005	-0.029	0.410	1.797	1.108	1.104	1.094	1.118	1.113	1.108
-0.005	-0.005	0.000	0.005	0.000	0.010	0.420	1.763	1.104	1.104	1.099	1.118	1.113	1.118
-0.005	-0.005	0.000	0.005	0.000	0.005	0.415	1.748	1.099	1.104	1.099	1.118	1.118	1.113
0.005	0.000	-0.005	-0.005	0.000	0.005	0.405	1.797	1.108	1.104	1.099	1.118	1.113	1.113
0.000	0.000	0.000	0.000	0.005	0.000	0.410	1.777	1.094	1.099	1.099	1.118	1.113	1.108
0.000	-0.005	0.000	0.000	0.005	-0.005	0.420	1.724	1.104	1.099	1.099	1.118	1.113	1.108
-0.005	-0.005	0.000	-0.005	0.000	-0.010	0.400	1.758	1.099	1.099	1.094	1.113	1.108	1.108
-0.010	0.000	0.000	-0.005	0.000	-0.005	0.415	1.738	1.089	1.094	1.094	1.108	1.108	1.108
-0.005	-0.010	0.005	0.000	0.000	0.000	0.410	1.738	1.094	1.094	1.094	1.113	1.108	1.108
0.000	0.015	-0.005	0.000	0.000	-0.020	0.410	1.748	1.099	1.099	1.094	1.113	1.108	1.104
0.005	-0.015	-0.005	0.000	0.000	0.000	0.410	1.787	1.099	1.089	1.094	1.108	1.104	1.108
0.005	-0.010	0.000	-0.005	-0.005	0.010	0.410	1.797	1.104	1.094	1.094	1.108	1.104	1.113
0.005	0.005	-0.005	0.000	-0.005	0.010	0.405	1.782	1.108	1.104	1.094	1.113	1.108	1.108
0.000	0.015	0.000	0.000	0.000	-0.015	0.410	1.777	1.113	1.108	1.104	1.118	1.108	1.108
0.000	0.000	-0.005	-0.005	0.000	0.000	0.415	1.802	1.118	1.108	1.104	1.118	1.113	1.108
0.010	-0.005	0.000	0.000	0.000	0.000	0.410	1.772	1.113	1.108	1.104	1.118	1.113	1.108
-0.005	-0.010	0.000	0.000	0.000	0.015	0.405	1.748	1.104	1.108	1.104	1.118	1.118	1.118
0.000	0.000	-0.005	0.000	0.000	0.010	0.405	1.797	1.113	1.108	1.108	1.123	1.113	1.113
0.000	0.000	-0.005	0.000	-0.005	0.010	0.405	1.772	1.113	1.108	1.108	1.123	1.113	1.113
-0.005	0.005	0.000	0.000	0.005	0.015	0.400	1.802	1.118	1.113	1.108	1.128	1.118	1.113
0.005	0.005	0.000	0.000	0.000	0.005	0.405	1.733	1.104	1.113	1.108	1.123	1.118	1.113
0.000	0.005	0.000	-0.005	0.005	0.000	0.400	1.792	1.104	1.104	1.108	1.123	1.118	1.108
-0.010	-0.005	-0.005	0.000	0.005	-0.005	0.405	1.753	1.094	1.104	1.104	1.123	1.118	1.108
-0.005	0.000	0.000	0.005	0.000	-0.015	0.410	1.763	1.104	1.099	1.104	1.123	1.118	1.108
-0.005	0.000	-0.005	0.000	-0.005	0.000	0.410	1.729	1.094	1.099	1.099	1.123	1.113	1.113
0.000	0.005	0.000	0.000	-0.005	-0.010	0.410	1.787	1.099	1.094	1.099	1.118	1.113	1.108
0.015	0.000	0.000	-0.005	0.000	0.010	0.410	1.807	1.108	1.099	1.099	1.118	1.113	1.113
0.000	0.000	0.000	0.000	-0.005	0.010	0.410	1.782	1.104	1.099	1.099	1.118	1.113	1.118
0.000	-0.005	0.000	-0.005	-0.005	0.000	0.410	1.738	1.094	1.099	1.099	1.113	1.113	1.113
0.005	0.005	0.005	0.000	0.000	0.000	0.405	1.777	1.104	1.099	1.099	1.118	1.113	1.113
0.005	0.015	-0.005	0.000	0.005	0.005	0.415	1.753	1.108	1.104	1.104	1.123	1.118	1.118
-0.005	0.005	0.000	-0.005	-0.005	-0.005	0.405	1.821	1.108	1.104	1.099	1.118	1.113	1.113
-0.010	-0.005	0.000	-0.010	-0.005	-0.005	0.410	1.768	1.104	1.104	1.104	1.118	1.118	1.108
-0.005	-0.005	0.000	-0.005	0.000	0.000	0.415	1.807	1.118	1.104	1.104	1.123	1.118	1.118
-0.005	0.000	0.000	0.000	0.000	0.005	0.410	1.797	1.118	1.108	1.104	1.123	1.118	1.118
0.000	0.000	-0.005	0.010	0.000	-0.005	0.410	1.812	1.118	1.113	1.108	1.123	1.118	1.118
0.000	-0.010	-0.005	0.005	0.000	0.000	0.415	1.782	1.113	1.108	1.108	1.123	1.123	1.118
-0.005	0.005	0.005	0.010	0.000	0.010	0.415	1.797	1.108	1.113	1.108	1.128	1.118	1.118
-0.005	-0.010	0.000	0.010	-0.005	0.015	0.410	1.812	1.108	1.108	1.108	1.128	1.113	1.118
-0.005	-0.005	0.000	0.010	0.000	0.015	0.405	1.812	1.113	1.108	1.104	1.123	1.118	1.123
0.000	0.005	-0.005	0.005	0.000	-0.015	0.410	1.782	1.113	1.108	1.108	1.123	1.118	1.113
0.005	-0.010	0.000	0.000	0.000	0.005	0.410	1.797	1.108	1.104	1.104	1.118	1.113	1.118
0.010	0.000	-0.005	0.000	0.000	0.010	0.410	1.733	1.104	1.108	1.104	1.118	1.113	1.118
0.000	-0.005	0.000	-0.010	0.000	0.005	0.410	1.787	1.099	1.104	1.104	1.118	1.108	1.118
-0.005	0.000	-0.005	-0.010	0.005	0.005	0.405	1.748	1.108	1.104	1.104	1.118	1.118	1.113
-0.010	-0.005	0.000	-0.010	0.000	-0.005	0.415	1.792	1.104	1.099	1.104	1.123	1.113	1.113
-0.005	-0.005	0.000	-0.005	0.000	-0.020	0.410	1.768	1.104	1.104	1.104	1.123	1.118	1.108
0.005	0.010	0.000	-0.005	-0.005	0.005	0.410	1.743	1.104	1.113	1.108	1.128	1.118	1.123
0.000	0.000	-0.005	0.000	0.000	-0.020	0.405	1.787	1.104	1.104	1.108	1.128	1.118	1.113
-0.005	-0.005	0.000	0.000	0.000	-0.005	0.405	1.782	1.113	1.104	1.104	1.128	1.123	1.118
-0.005	-0.029	-0.005	0.000	-0.005	0.005	0.410	1.758	1.113	1.104	1.104	1.123	1.123	1.118
0.000	-0.024	0.010	0.000	-0.005	0.005	0.410	1.768	1.108	1.104	1.108	1.128	1.123	1.123
-0.010	-0.010	0.000	0.000	0.000	0.005	0.400	1.797	1.108	1.108	1.104	1.123	1.123	1.123
-0.005	0.000	0.000	-0.005	0.000	0.005	0.405	1.782	1.118	1.113	1.104	1.128	1.118	1.123
-0.010	-0.005	0.000	0.000	0.000	0.010	0.410	1.772	1.108	1.108	1.104	1.123	1.118	1.118
0.000	0.000	-0.005	0.005	0.000	-0.010	0.410	1.758	1.108	1.108	1.104	1.123	1.118	1.118
0.005	0.000	-0.005	0.000	0.000	-0.005	0.405	1.802	1.108	1.104	1.104	1.123	1.118	1.118
0.010	-0.005	-0.005	0.000	0.000	0.000	0.405	1.777	1.113	1.104	1.104	1.118	1.118	1.113
0.000	0.015	0.000	0.000	0.000	0.000	0.405	1.787	1.108	1.113	1.104	1.118	1.118	1.113
0.000	0.015	-0.005	0.000	0.000	0.005	0.405	1.743	1.104	1.108	1.108	1.123	1.118	1.118
0.005	0.010	0.000	0.000	0.000	0.000	0.410	1.758	1.104	1.104	1.108	1.123	1.118	1.118
-0.010	0.005	0.000	-0.005	0.000	0.010	0.410	1.782	1.108	1.099	1.104	1.123	1.118	1.118
-0.005	-0.010	0.000	0.000	0.000	0.010	0.415	1.782	1.108	1.099	1.099	1.123	1.118	1.113
0.000	-0.010	0.000	0.000	0.000	-0.005	0.410	1.743	1.104	1.104	1.104	1.123	1.118	1.118
0.005	-0.005	0.000	0.000	0.005	-0.020	0.420	1.763	1.108	1.108	1.104	1.123	1.118	1.113
0.000	0.005	0.000	0.000	0.000	0.005	0.410	1.768	1.113	1.108	1.108	1.128	1.123	1.123
0.005	0.015	0.005	0.000	0.000	-0.010	0.405	1.792	1.113	1.118	1.108	1.128	1.123	1.118
-0.005	0.015	-0.005	0.000	-0.005	-0.020	0.400	1.787	1.113	1.113	1.108	1.128	1.118	1.113
0.000	0.015	-0.005	0.000	0.000	0.000	0.415	1.743	1.108	1.113	1.108	1.123	1.123	1.123
0.005	0.000	0.000	-0.005	0.005	0.000	0.410	1.787	1.113	1.108	1.108	1.123	1.123	1.123
-0.010	0.000	-0.005	0.000	0.000	-0.015	0.410	1.733	1.104	1.104	1.104	1.123	1.118	1.118
-0.005	0.005	0.000	0.000	0.000	0.005	0.405	1.748	1.099	1.104	1.104	1.123	1.118	1.118
-0.005	0.000	-0.005	0.000	0.000	0.000	0.415	1.802	1.104	1.094	1.104	1.118	1.118	1.118
-0.005	-0.005	0.000	0.000	0.000	0.000	0.405	1.763	1.108	1.099	1.104	1.123	1.118	1.118
-0.005	-0.015	0.000	-0.005	0.000	0.000	0.415	1.748	1.094	1.094	1.094	1.118	1.113	1.113
-0.005	-0.010	0.000	0.000	-0.005	-0.005	0.405	1.787	1.104	1.099	1.094	1.118	1.113	1.113
-0.010	-0.005	0.000	-0.005	-0.005	0.000	0.410	1.699	1.113	1.104	1.099	1.118	1.113	1.113
0.005	-0.005	0.000	0.000	0.000	-0.005	0.405	1.797	1.123	1.108	1.104	1.113	1.113	1.113
-0.005	0.005	-0.005	0.000	0.000	-0.010	0.410	1.792	1.113	1.108	1.104	1.118	1.113	1.113
0.005	0.000	-0.005	-0.005	0.000	0.000	0.405	1.792	1.118	1.108	1.104	1.118	1.118	1.118
0.000	-0.010	-0.005	0.000	0.000	0.000	0.410	1.753	1.113	1.108	1.104	1.123	1.118	1.113
-0.010	0.000	0.005	-0.005	-0.005	0.005	0.405	1.763	1.108	1.113	1.108	1.123	1.118	1.113
0.005	-0.005	0.005	0.000	0.000	-0.010	0.410	1.792	1.113	1.113	1.108	1.128	1.118	1.113
0.000	0.000	0.000	0.000	-0.005	0.010	0.420	1.763	1.113	1.113	1.108	1.128	1.118	1.118
0.005	-0.005	-0.005	0.000	0.000	-0.024	0.415	1.763	1.118	1.108	1.108	1.128	1.118	1.108
0.000	0.010	0.005	-0.005	-0.005	-0.005	0.415	1.787	1.113	1.113	1.113	1.128	1.123	1.123
-0.005	0.000	0.000	0.000	0.000	0.010	0.410	1.743	1.104	1.108	1.108	1.128	1.128	1.128
-0.005	-0.010	0.005	0.000	0.000	-0.015	0.410	1.748	1.099	1.104	1.108	1.128	1.123	1.118
0.000	0.000	0.000	-0.005	0.000	0.000	0.405	1.777	1.104	1.099	1.104	1.123	1.118	1.123
-0.005	0.015	0.005	-0.005	0.000	0.010	0.405	1.812	1.108	1.104	1.104	1.123	1.118	1.123
0.000	0.000	0.000	0.000	0.000	0.010	0.405	1.802	1.108	1.104	1.104	1.123	1.123	1.123
-0.005	0.000	0.000	0.000	-0.005	0.005	0.405	1.738	1.099	1.099	1.099	1.118	1.118	1.118
0.000	0.005	0.000	0.000	-0.005	-0.015	0.415	1.738	1.099	1.099	1.099	1.118	1.113	1.113
-0.005	0.000	-0.005	0.000	0.000	-0.005	0.415	1.792	1.104	1.099	1.099	1.118	1.118	1.118
0.000	0.000	0.000	0.000	-0.005	0.005	0.410	1.787	1.104	1.099	1.099	1.118	1.118	1.118
0.010	-0.005	0.005	0.000	0.000	0.010	0.410	1.802	1.108	1.104	1.099	1.118	1.118	1.118
0.000	-0.010	0.000	0.000	0.000	-0.005	0.405	1.782	1.108	1.104	1.099	1.123	1.118	1.113
0.005	0.015	-0.005	0.000	0.000	0.000	0.410	1.729	1.104	1.113	1.104	1.118	1.118	1.118
-0.005	0.005	-0.005	0.000	0.000	-0.005	0.410	1.753	1.099	1.108	1.108	1.123	1.118	1.118
0.005	-0.010	-0.010	-0.005	0.000	-0.015	0.415	1.802	1.108	1.104	1.104	1.123	1.118	1.113
0.000	-0.015	-0.005	0.000	-0.005	0.000	0.410	1.772	1.108	1.104	1.104	1.123	1.118	1.123
-0.005	0.000	-0.005	0.000	0.000	0.000	0.410	1.748	1.108	1.108	1.108	1.123	1.118	1.118
-0.005	0.005	-0.005	0.000	0.005	-0.010	0.405	1.743	1.104	1.108	1.104	1.123	1.123	1.118
0.000	-0.005	-0.005	0.005	0.000	-0.010	0.405	1.772	1.104	1.104	1.104	1.123	1.118	1.118
-0.005	-0.005	0.000	-0.005	0.005	-0.024	0.405	1.738	1.094	1.099	1.104	1.123	1.118	1.113
-0.010	-0.010	0.000	0.000	0.000	0.010	0.415	1.768	1.094	1.099	1.104	1.118	1.118	1.123
-0.020	0.000	0.000	-0.005	0.005	0.010	0.415	1.792	1.099	1.094	1.099	1.118	1.118	1.118
-0.010	-0.005	-0.005	-0.005	0.000	0.000	0.405	1.787	1.108	1.094	1.099	1.113	1.113	1.113
0.000	-0.015	0.000	0.000	-0.005	0.010	0.405	1.768	1.104	1.094	1.094	1.113	1.108	1.113
-0.010	-0.005	-0.005	0.000	-0.005	-0.024	0.410	1.768	1.104	1.099	1.094	1.113	1.108	1.104
-0.005	0.005	0.000	-0.005	-0.005	0.005	0.405	1.729	1.104	1.104	1.094	1.113	1.108	1.113
-0.005	-0.010	-0.005	-0.005	0.000	0.000	0.405	1.787	1.108	1.099	1.094	1.113	1.113	1.113
-0.005	-0.005	0.000	0.000	-0.005	-0.010	0.415	1.768	1.108	1.108	1.099	1.118	1.113	1.108
-0.005	0.000	0.005	-0.005	-0.005	0.005	0.405	1.787	1.108	1.108	1.104	1.118	1.108	1.113
-0.005	0.005	0.000	0.000	-0.005	-0.029	0.405	1.772	1.108	1.108	1.104	1.123	1.113	1.104
0.000	0.005	0.000	0.005	0.000	0.010	0.410	1.802	1.113	1.113	1.108	1.123	1.118	1.118
0.005	-0.005	-0.005	0.010	0.000	0.010	0.410	1.772	1.113	1.113	1.108	1.128	1.123	1.118
0.005	0.000	0.000	0.000	0.005	0.000	0.410	1.772	1.108	1.113	1.113	1.123	1.123	1.123
-0.005	0.000	0.000	0.005	0.005	0.005	0.410	1.792	1.113	1.113	1.113	1.128	1.118	1.118
0.000	0.005	0.005	0.005	0.000	-0.005	0.400	1.772	1.113	1.108	1.108	1.128	1.123	1.118
-0.005	-0.010	-0.005	0.000	0.000	0.010	0.415	1.782	1.113	1.104	1.108	1.128	1.118	1.123
0.000	-0.010	-0.005	0.000	0.005	0.015	0.400	1.777	1.113	1.104	1.104	1.123	1.118	1.123
0.005	-0.005	0.000	-0.005	0.000	-0.020	0.410	1.748	1.104	1.104	1.104	1.123	1.118	1.113
-0.005	0.000	0.000	-0.005	0.000	-0.020	0.400	1.792	1.099	1.104	1.104	1.118	1.118	1.113
-0.010	0.015	0.000	-0.005	0.000	-0.010	0.410	1.792	1.099	1.104	1.104	1.118	1.118	1.118
0.000	0.010	0.005	0.000	0.005	0.000	0.405	1.787	1.104	1.104	1.099	1.123	1.118	1.118
0.000	0.005	-0.005	-0.005	-0.005	0.000	0.410	1.733	1.094	1.099	1.099	1.118	1.113	1.113
0.010	0.015	0.005	0.000	0.000	-0.005	0.415	1.787	1.104	1.104	1.099	1.123	1.113	1.113
0.000	-0.005	-0.010	0.005	0.000	-0.010	0.405	1.782	1.104	1.094	1.099	1.123	1.118	1.113
-0.010	-0.010	-0.005	-0.005	0.000	0.005	0.405	1.792	1.108	1.099	1.099	1.123	1.118	1.118
0.000	-0.010	-0.005	0.000	-0.005	-0.020	0.410	1.753	1.108	1.104	1.104	1.123	1.118	1.113
-0.005	0.000	0.000	-0.005	-0.005	0.000	0.410	1.787	1.108	1.104	1.104	1.118	1.118	1.118
0.000	-0.005	-0.005	0.000	-0.005	0.010	0.405	1.743	1.113	1.108	1.104	1.123	1.118	1.118
0.000	0.005	0.000	0.000	0.000	-0.010	0.415	1.802	1.118	1.113	1.108	1.128	1.118	1.118
0.000	0.005	0.000	0.000	-0.005	-0.010	0.410	1.763	1.113	1.113	1.108	1.128	1.118	1.118
0.000	0.000	0.000	0.000	0.000	0.005	0.420	1.807	1.113	1.108	1.104	1.123	1.123	1.123
0.015	0.005	0.000	0.000	0.005	-0.015	0.410	1.787	1.113	1.113	1.108	1.123	1.118	1.123
0.005	0.000	0.000	0.005	-0.005	-0.010	0.420	1.753	1.113	1.108	1.104	1.123	1.118	1.113
-0.005	0.000	0.000	0.005	0.000	-0.005	0.405	1.758	1.104	1.108	1.108	1.123	1.118	1.118
0.005	-0.010	-0.005	-0.005	-0.005	0.015	0.405	1.729	1.094	1.104	1.104	1.118	1.118	1.123
0.005	0.000	-0.005	-0.010	-0.005	0.000	0.400	1.797	1.099	1.104	1.104	1.118	1.113	1.113
-0.005	0.000	0.000	-0.005	-0.005	-0.005	0.415	1.758	1.094	1.104	1.099	1.118	1.113	1.113
-0.005	0.000	-0.005	0.000	0.000	-0.010	0.405	1.787	1.094	1.094	1.099	1.118	1.113	1.113
-0.005	0.005	0.000	0.000	0.000	0.005	0.405	1.763	1.099	1.094	1.099	1.118	1.113	1.113
0.000	0.010	0.000	0.005	0.000	0.000	0.400	1.758	1.104	1.099	1.094	1.118	1.113	1.113
0.010	0.005	-0.005	0.010	0.000	-0.005	0.415	1.777	1.113	1.099	1.099	1.118	1.113	1.118
0.000	0.000	0.000	0.005	0.000	0.010	0.410	1.797	1.113	1.104	1.104	1.123	1.113	1.118
0.005	0.015	0.005	0.005	0.000	0.005	0.415	1.787	1.113	1.108	1.104	1.123	1.118	1.118
0.005	0.005	-0.005	0.000	0.000	-0.015	0.400	1.758	1.113	1.108	1.104	1.123	1.113	1.108
-0.005	-0.005	0.000	0.000	0.000	0.005	0.400	1.772	1.104	1.104	1.104	1.123	1.118	1.118
0.000	-0.005	0.000	-0.010	-0.005	-0.005	0.410	1.787	1.113	1.108	1.104	1.123	1.118	1.118
-0.005	0.005	-0.005	-0.005	0.000	-0.024	0.410	1.782	1.113	1.108	1.104	1.123	1.118	1.113
-0.005	0.005	0.000	0.000	0.005	-0.010	0.405	1.787	1.108	1.104	1.104	1.123	1.118	1.113
0.000	0.005	0.000	-0.010	-0.005	0.000	0.405	1.733	1.104	1.104	1.104	1.123	1.118	1.118
-0.005	-0.005	0.000	0.000	0.000	0.010	0.405	1.768	1.099	1.099	1.104	1.123	1.118	1.118
-0.010	-0.010	0.000	0.000	-0.005	0.005	0.415	1.787	1.104	1.099	1.099	1.123	1.118	1.118
-0.010	-0.005	-0.005	0.000	0.000	0.005	0.410	1.699	1.108	1.099	1.099	1.118	1.113	1.118
-0.005	-0.005	0.005	0.005	0.005	0.010	0.405	1.797	1.108	1.099	1.099	1.118	1.118	1.113
-0.005	0.020	-0.005	0.005	-0.005	0.000	0.415	1.787	1.108	1.108	1.099	1.118	1.113	1.113
-0.005	0.010	0.000	0.005	-0.005	-0.005	0.410	1.797	1.108	1.104	1.099	1.118	1.113	1.113
-0.005	0.005	-0.010	-0.005	-0.005	-0.005	0.415	1.802	1.108	1.104	1.099	1.113	1.113	1.108
0.000	0.000	0.000	0.000	0.000	0.000	0.405	1.797	1.108	1.104	1.104	1.113	1.113	1.113
0.010	0.000	-0.005	0.000	-0.005	-0.005	0.410	1.719	1.108	1.104	1.104	1.118	1.113	1.108
0.000	-0.005	0.000	0.000	0.000	-0.010	0.405	1.758	1.108	1.108	1.108	1.123	1.113	1.113
-0.005	-0.005	0.000	-0.005	-0.005	0.005	0.410	1.807	1.113	1.104	1.104	1.123	1.113	1.118
-0.005	-0.005	0.005	0.000	-0.010	0.005	0.410	1.699	1.099	1.108	1.104	1.123	1.118	1.113
0.005	-0.005	0.005	-0.005	-0.005	0.010	0.405	1.787	1.104	1.104	1.104	1.123	1.118	1.118
-0.005	-0.015	0.000	0.000	0.000	0.015	0.410	1.714	1.104	1.104	1.104	1.123	1.118	1.123
0.000	-0.010	0.000	0.005	0.005	0.005	0.410	1.787	1.108	1.104	1.104	1.128	1.123	1.118
-0.005	-0.005	0.000	0.000	0.000	0.005	0.410	1.763	1.108	1.108	1.104	1.123	1.118	1.118
0.005	-0.010	0.000	-0.005	0.000	-0.005	0.415	1.797	1.104	1.099	1.104	1.123	1.118	1.118
-0.005	0.000	-0.005	-0.005	0.000	-0.010	0.405	1.797	1.104	1.104	1.099	1.118	1.118	1.108
-0.005	-0.005	0.000	0.000	0.005	0.000	0.410	1.738	1.099	1.104	1.099	1.118	1.118	1.118
-0.005	0.000	-0.005	-0.005	0.005	-0.005	0.405	1.792	1.104	1.104	1.099	1.118	1.113	1.113
-0.005	-0.005	0.000	-0.005	0.010	0.000	0.410	1.802	1.104	1.099	1.099	1.118	1.113	1.113
-0.005	-0.010	0.000	0.000	0.005	-0.020	0.415	1.787	1.104	1.099	1.099	1.113	1.113	1.113
-0.005	0.000	0.000	0.000	0.005	0.000	0.415	1.782	1.099	1.099	1.099	1.113	1.108	1.118
-0.005	0.005	0.000	0.000	-0.005	0.000	0.410	1.797	1.108	1.104	1.099	1.113	1.113	1.108
0.005	-0.005	-0.005	0.000	0.000	0.000	0.410	1.797	1.108	1.104	1.104	1.118	1.113	1.113
0.015	0.000	-0.005	0.000	0.000	-0.024	0.405	1.797	1.118	1.108	1.104	1.118	1.113	1.104
0.005	0.005	-0.005	0.000	-0.005	0.015	0.410	1.797	1.113	1.108	1.104	1.123	1.113	1.118
0.005	-0.010	0.000	0.000	-0.005	0.015	0.415	1.797	1.113	1.108	1.108	1.123	1.113	1.123
-0.005	0.000	0.000	0.000	-0.005	0.005	0.415	1.802	1.118	1.113	1.108	1.123	1.118	1.118
0.005	-0.005	0.000	0.005	-0.010	0.020	0.410	1.704	1.108	1.113	1.113	1.128	1.123	1.123
0.000	-0.005	0.000	0.000	-0.005	0.015	0.405	1.787	1.108	1.113	1.113	1.128	1.123	1.118
-0.005	0.005	-0.005	0.000	0.000	-0.005	0.415	1.772	1.108	1.113	1.108	1.128	1.123	1.118
0.005	-0.005	-0.005	0.005	0.000	-0.020	0.415	1.777	1.108	1.108	1.108	1.128	1.123	1.113
-0.005	-0.005	-0.005	-0.005	-0.005	0.005	0.415	1.787	1.108	1.108	1.108	1.128	1.123	1.123
-0.005	-0.005	-0.005	0.000	0.000	0.005	0.405	1.802	1.108	1.104	1.108	1.123	1.123	1.118
0.005	0.005	0.000	0.000	0.000	-0.015	0.410	1.797	1.108	1.108	1.108	1.123	1.118	1.113
-0.005	0.000	-0.010	0.000	0.000	-0.005	0.410	1.768	1.108	1.104	1.104	1.123	1.118	1.118
-0.005	-0.005	0.000	-0.005	0.000	0.000	0.405	1.753	1.099	1.099	1.104	1.118	1.118	1.118
0.005	-0.005	0.000	-0.005	-0.005	0.000	0.405	1.787	1.104	1.104	1.099	1.118	1.113	1.113
-0.005	0.000	0.000	0.000	0.000	0.005	0.415	1.782	1.099	1.099	1.099	1.118	1.113	1.113
-0.010	0.000	0.000	0.000	0.000	-0.005	0.405	1.797	1.104	1.099	1.104	1.123	1.118	1.118
-0.005	0.005	0.010	0.000	0.000	0.005	0.420	1.797	1.108	1.099	1.104	1.118	1.118	1.123
-0.005	-0.005	0.000	-0.005	-0.005	0.000	0.405	1.763	1.113	1.104	1.104	1.118	1.118	1.118
0.005	-0.010	-0.005	0.000	-0.005	0.000	0.415	1.714	1.104	1.104	1.104	1.118	1.118	1.118
0.000	-0.005	-0.005	-0.005	0.000	-0.005	0.400	1.792	1.104	1.104	1.104	1.123	1.118	1.118
0.005	0.000	0.000	0.000	0.000	-0.005	0.405	1.802	1.113	1.108	1.104	1.123	1.118	1.113
-0.005	0.000	0.000	-0.005	0.000	-0.005	0.410	1.807	1.113	1.113	1.108	1.123	1.118	1.113
0.000	0.000	-0.005	0.000	0.000	-0.015	0.410	1.787	1.118	1.113	1.108	1.128	1.118	1.118
-0.005	0.010	0.000	0.000	-0.005	0.005	0.405	1.768	1.108	1.113	1.108	1.128	1.123	1.123
-0.005	0.015	-0.005	0.005	0.005	0.005	0.415	1.768	1.108	1.108	1.108	1.128	1.123	1.123
-0.010	0.000	-0.005	0.000	0.000	0.000	0.410	1.787	1.108	1.104	1.104	1.128	1.123	1.123
0.000	0.005	0.005	0.005	0.000	-0.005	0.415	1.855	1.108	1.108	1.108	1.123	1.123	1.118
0.000	-0.005	0.000	0.000	0.000	0.000	0.410	1.753	1.104	1.104	1.104	1.123	1.123	1.118
-0.005	-0.005	-0.005	0.000	0.000	0.000	0.410	1.738	1.099	1.104	1.099	1.118	1.113	1.118
-0.005	0.005	0.000	-0.005	0.005	0.010	0.415	1.797	1.104	1.099	1.104	1.118	1.113	1.118
-0.015	0.005	0.000	0.005	0.005	-0.005	0.410	1.797	1.108	1.104	1.099	1.118	1.113	1.108
0.005	0.005	0.000	0.005	0.005	0.005	0.415	1.743	1.104	1.104	1.099	1.118	1.113	1.113
0.000	0.010	-0.005	0.000	0.005	-0.010	0.405	1.787	1.108	1.104	1.104	1.118	1.113	1.118
0.005	-0.005	0.005	0.000	0.000	0.000	0.410	1.792	1.113	1.104	1.104	1.118	1.113	1.118
0.000	-0.010	0.000	0.005	0.000	0.005	0.410	1.743	1.113	1.108	1.104	1.123	1.118	1.118
0.010	-0.010	0.000	0.000	-0.005	-0.005	0.415	1.748	1.113	1.108	1.108	1.123	1.118	1.113
-0.005	-0.005	0.005	0.000	0.000	0.005	0.410	1.797	1.108	1.108	1.108	1.123	1.118	1.118
-0.005	0.000	0.005	0.000	0.000	0.000	0.420	1.763	1.108	1.113	1.108	1.128	1.123	1.118
-0.005	-0.005	-0.005	0.000	0.000	-0.005	0.410	1.738	1.104	1.108	1.108	1.123	1.118	1.118
-0.005	-0.005	0.000	0.000	0.000	0.000	0.415	1.777	1.108	1.104	1.108	1.128	1.123	1.118
0.005	-0.005	-0.005	0.000	0.005	0.010	0.410	1.807	1.113	1.108	1.108	1.128	1.123	1.123
-0.005	-0.005	0.000	0.000	0.000	-0.005	0.405	1.787	1.104	1.104	1.108	1.123	1.118	1.118
0.000	0.005	0.005	-0.005	0.000	-0.015	0.405	1.748	1.104	1.104	1.104	1.123	1.118	1.113
0.000	-0.005	0.005	-0.005	0.005	0.000	0.415	1.763	1.099	1.104	1.104	1.123	1.118	1.118
0.000	0.010	0.000	-0.005	0.005	0.005	0.410	1.792	1.104	1.104	1.104	1.123	1.118	1.123
0.005	0.015	0.005	0.000	0.000	-0.024	0.410	1.733	1.099	1.099	1.099	1.118	1.113	1.108
0.000	0.010	0.005	0.000	-0.005	0.010	0.415	1.807	1.104	1.104	1.099	1.118	1.113	1.118
0.005	0.000	-0.005	0.005	0.000	0.005	0.410	1.787	1.104	1.099	1.099	1.118	1.113	1.118
0.005	0.000	0.000	0.000	0.000	-0.010	0.415	1.772	1.108	1.099	1.099	1.118	1.113	1.108
0.005	-0.005	0.000	-0.005	-0.005	0.005	0.405	1.753	1.099	1.099	1.099	1.118	1.113	1.118
0.000	-0.005	0.000	0.005	-0.005	-0.029	0.410	1.777	1.104	1.099	1.099	1.118	1.113	1.104
0.005	-0.010	-0.005	-0.005	-0.005	0.000	0.405	1.802	1.113	1.104	1.099	1.118	1.113	1.118
0.010	-0.010	0.000	-0.005	-0.005	0.015	0.410	1.797	1.118	1.104	1.104	1.123	1.113	1.118
0.005	0.000	0.000	0.000	0.000	-0.015	0.415	1.724	1.104	1.113	1.104	1.123	1.118	1.108
0.005	0.005	-0.005	0.000	-0.005	0.005	0.415	1.763	1.108	1.113	1.104	1.123	1.118	1.118
-0.005	0.010	-0.005	-0.005	0.000	0.005	0.405	1.782	1.108	1.113	1.108	1.123	1.118	1.123
-0.015	-0.005	0.000	-0.010	-0.005	0.005	0.405	1.787	1.108	1.108	1.108	1.123	1.118	1.123
0.000	0.005	0.000	-0.010	0.000	0.005	0.405	1.792	1.118	1.108	1.108	1.123	1.118	1.118
-0.005	0.000	0.000	-0.005	0.005	0.000	0.415	1.782	1.113	1.108	1.104	1.123	1.123	1.118
0.000	0.000	0.000	0.000	0.005	0.005	0.410	1.792	1.113	1.108	1.108	1.128	1.123	1.118
0.000	-0.005	-0.010	0.010	0.000	0.000	0.405	1.792	1.113	1.108	1.104	1.123	1.118	1.113
-0.005	0.000	-0.005	0.010	-0.005	0.000	0.405	1.733	1.104	1.108	1.104	1.123	1.118	1.113
0.005	-0.005	0.000	0.010	-0.005	0.000	0.410	1.787	1.104	1.104	1.104	1.123	1.118	1.113
0.005	0.010	-0.005	0.005	0.000	-0.010	0.410	1.738	1.094	1.104	1.104	1.123	1.113	1.108
-0.005	0.005	0.000	0.000	0.005	-0.015	0.410	1.748	1.094	1.099	1.104	1.123	1.118	1.108
-0.015	0.000	0.000	-0.010	0.000	0.000	0.410	1.812	1.104	1.094	1.099	1.118	1.118	1.113
-0.005	0.005	0.000	-0.010	0.005	0.005	0.410	1.768	1.108	1.104	1.104	1.118	1.118	1.118
-0.005	-0.010	0.000	-0.005	0.000	0.015	0.405	1.763	1.104	1.099	1.104	1.118	1.113	1.118
-0.005	0.000	0.000	-0.005	-0.005	0.000	0.405	1.802	1.113	1.104	1.104	1.118	1.113	1.113
0.000	0.000	0.000	-0.005	-0.005	0.005	0.405	1.802	1.123	1.113	1.104	1.123	1.118	1.118
0.000	0.015	0.000	-0.005	0.000	0.000	0.415	1.738	1.118	1.118	1.108	1.128	1.118	1.118
-0.005	0.000	0.000	0.005	0.000	0.000	0.415	1.758	1.108	1.113	1.108	1.128	1.123	1.118
0.000	0.005	-0.005	-0.005	0.000	-0.005	0.405	1.787	1.113	1.108	1.108	1.123	1.118	1.118
0.000	-0.005	0.000	0.000	0.000	-0.015	0.415	1.792	1.118	1.113	1.108	1.128	1.123	1.118
0.015	-0.010	-0.005	0.000	0.000	0.005	0.405	1.763	1.113	1.108	1.108	1.128	1.123	1.123
-0.005	0.005	-0.005	0.000	0.000	0.000	0.415	1.772	1.099	1.108	1.108	1.123	1.123	1.118
0.000	0.010	-0.005	0.005	0.000	0.000	0.415	1.777	1.104	1.108	1.108	1.128	1.118	1.118
0.005	-0.005	-0.005	0.005	0.000	0.010	0.415	1.768	1.108	1.104	1.104	1.128	1.123	1.123
-0.010	-0.005	0.000	0.005	0.000	0.010	0.410	1.733	1.099	1.099	1.104	1.123	1.118	1.118
0.005	0.000	0.000	0.000	-0.005	-0.010	0.410	1.777	1.099	1.099	1.104	1.118	1.113	1.113
0.000	0.000	0.000	0.005	-0.005	0.005	0.410	1.792	1.104	1.099	1.099	1.123	1.113	1.118
0.005	-0.010	0.000	0.000	0.000	0.015	0.410	1.802	1.104	1.094	1.099	1.118	1.118	1.118
0.000	-0.010	0.000	0.005	0.000	0.005	0.410	1.792	1.104	1.099	1.099	1.118	1.118	1.118
0.005	-0.010	0.000	0.000	0.005	-0.020	0.415	1.782	1.104	1.099	1.099	1.118	1.113	1.108
0.005	-0.005	0.005	-0.005	0.000	-0.005	0.405	1.797	1.108	1.104	1.104	1.123	1.118	1.118
-0.005	0.005	0.000	0.000	0.000	0.005	0.415	1.797	1.113	1.108	1.104	1.123	1.118	1.118
0.000	-0.005	0.000	0.000	-0.005	0.005	0.405	1.753	1.108	1.108	1.108	1.123	1.118	1.118
-0.005	0.000	0.000	0.000	-0.005	0.000	0.410	1.782	1.113	1.108	1.108	1.123	1.118	1.118
-0.005	0.005	0.005	0.000	-0.005	0.005	0.400	1.782	1.113	1.108	1.108	1.123	1.118	1.118
-0.015	0.005	0.005	0.000	-0.005	0.005	0.405	1.787	1.104	1.108	1.108	1.123	1.118	1.118
-0.005	-0.010	0.005	0.005	0.000	0.005	0.405	1.782	1.108	1.104	1.108	1.128	1.123	1.123
-0.010	-0.005	-0.005	0.000	0.000	0.000	0.410	1.748	1.104	1.108	1.104	1.128	1.123	1.123
0.000	-0.005	0.000	0.005	0.000	0.000	0.405	1.772	1.104	1.104	1.104	1.123	1.118	1.118
-0.005	-0.005	0.000	-0.005	-0.005	0.000	0.415	1.782	1.104	1.104	1.104	1.118	1.113	1.118
-0.010	0.005	-0.005	-0.005	0.000	0.000	0.405	1.787	1.104	1.104	1.104	1.123	1.118	1.113
-0.005	0.000	-0.005	-0.005	0.005	0.000	0.405	1.787	1.104	1.099	1.104	1.118	1.113	1.113
0.005	-0.005	0.000	0.000	0.000	0.005	0.415	1.719	1.099	1.099	1.099	1.118	1.118	1.113
0.010	-0.005	0.000	-0.005	0.000	-0.015	0.405	1.748	1.108	1.099	1.099	1.118	1.118	1.108
0.000	-0.010	0.000	-0.005	0.000	-0.005	0.405	1.797	1.104	1.099	1.094	1.118	1.113	1.113
-0.005	0.005	0.000	0.000	-0.005	0.005	0.410	1.753	1.104	1.104	1.099	1.118	1.113	1.113
0.015	-0.005	-0.005	-0.005	0.000	0.005	0.415	1.792	1.113	1.104	1.104	1.118	1.113	1.123
0.010	0.000	0.000	0.000	-0.005	0.000	0.410	1.729	1.104	1.108	1.104	1.123	1.118	1.118
0.010	-0.010	-0.005	0.000	-0.010	0.010	0.410	1.738	1.104	1.104	1.104	1.123	1.118	1.118
0.005	0.005	-0.005	0.000	-0.005	0.005	0.410	1.860	1.099	1.108	1.108	1.123	1.118	1.113
0.000	0.005	-0.005	0.000	0.000	0.005	0.415	1.772	1.104	1.108	1.108	1.123	1.123	1.118
-0.005	0.000	0.000	-0.005	0.000	0.005	0.405	1.787	1.108	1.104	1.108	1.123	1.123	1.123
0.000	0.005	-0.005	0.005	0.005	-0.005	0.410	1.758	1.108	1.108	1.104	1.128	1.123	1.118
0.005	0.005	0.000	0.000	0.000	0.000	0.415	1.797	1.113	1.104	1.108	1.123	1.123	1.118
0.005	0.005	0.000	0.000	0.000	-0.005	0.415	1.792	1.113	1.108	1.108	1.123	1.118	1.118
-0.005	0.010	0.000	0.000	0.005	0.005	0.410	1.787	1.113	1.104	1.104	1.123	1.118	1.118
0.000	0.000	0.000	0.005	-0.005	0.005	0.415	1.768	1.108	1.104	1.104	1.123	1.118	1.118
0.010	0.005	0.000	-0.005	0.000	-0.010	0.410	1.699	1.099	1.099	1.099	1.118	1.118	1.113
-0.005	0.015	0.005	-0.005	0.000	-0.010	0.410	1.797	1.099	1.104	1.104	1.118	1.113	1.113
-0.010	-0.029	0.000	-0.005	0.000	0.005	0.405	1.782	1.104	1.089	1.099	1.118	1.113	1.118
0.000	-0.024	0.000	0.000	0.000	-0.005	0.410	1.748	1.104	1.094	1.094	1.118	1.113	1.113
0.000	-0.015	0.000	0.005	-0.005	0.010	0.410	1.733	1.094	1.099	1.094	1.118	1.113	1.113
0.005	-0.005	0.000	0.000	0.000	0.000	0.410	1.777	1.099	1.099	1.099	1.118	1.113	1.118
0.000	0.010	-0.005	0.000	0.000	-0.010	0.400	1.782	1.108	1.104	1.099	1.118	1.113	1.113
0.000	0.015	0.000	-0.005	0.000	0.005	0.405	1.797	1.108	1.108	1.104	1.118	1.113	1.113
0.000	0.010	0.000	0.000	0.000	0.015	0.405	1.733	1.118	1.108	1.108	1.123	1.118	1.123
-0.005	0.005	0.000	0.000	0.000	0.000	0.405	1.763	1.113	1.113	1.108	1.123	1.118	1.113
-0.005	0.005	0.000	0.000	0.005	0.015	0.415	1.787	1.113	1.108	1.108	1.123	1.118	1.123
-0.005	0.005	0.000	-0.005	0.005	0.005	0.415	1.782	1.113	1.108	1.108	1.128	1.123	1.118
-0.005	-0.005	-0.005	-0.005	0.000	-0.010	0.410	1.772	1.108	1.108	1.104	1.123	1.118	1.108
-0.005	0.010	0.005	0.000	0.005	-0.015	0.415	1.753	1.104	1.108	1.104	1.123	1.118	1.113
-0.010	0.005	0.000	-0.005	0.005	-0.010	0.415	1.792	1.104	1.104	1.108	1.123	1.118	1.118
-0.010	-0.005	-0.005	-0.005	0.000	0.000	0.415	1.792	1.108	1.099	1.104	1.123	1.118	1.123
-0.015	-0.010	0.000	-0.005	-0.005	0.010	0.415	1.763	1.104	1.099	1.099	1.118	1.118	1.118
0.000	-0.005	0.005	0.005	0.000	-0.005	0.415	1.768	1.104	1.099	1.104	1.123	1.118	1.113
-0.010	0.000	-0.005	0.010	0.000	0.000	0.415	1.787	1.104	1.099	1.099	1.123	1.113	1.113
-0.020	0.000	0.000	0.010	0.005	0.000	0.410	1.782	1.099	1.099	1.099	1.123	1.118	1.118
-0.015	0.005	-0.005	0.005	-0.005	-0.005	0.410	1.802	1.108	1.099	1.099	1.118	1.113	1.113
-0.015	0.000	0.000	0.010	0.000	0.000	0.410	1.797	1.108	1.099	1.099	1.118	1.118	1.113
-0.010	-0.005	-0.005	0.000	-0.005	0.000	0.415	1.797	1.108	1.104	1.104	1.118	1.113	1.113
-0.005	-0.005	0.000	0.000	-0.010	0.000	0.405	1.753	1.108	1.104	1.104	1.118	1.113	1.113
0.000	0.005	-0.005	-0.005	-0.005	0.000	0.415	1.782	1.113	1.108	1.108	1.118	1.113	1.113
0.000	0.005	0.000	-0.005	-0.005	-0.005	0.410	1.797	1.113	1.113	1.108	1.123	1.118	1.113
0.000	-0.005	0.005	-0.010	0.000	-0.024	0.415	1.758	1.108	1.113	1.108	1.123	1.118	1.108
-0.005	0.000	-0.005	-0.010	0.005	0.005	0.405	1.758	1.104	1.108	1.108	1.123	1.123	1.118
0.000	0.015	0.005	-0.010	0.000	0.000	0.415	1.797	1.108	1.113	1.108	1.128	1.118	1.123
0.005	-0.015	0.000	-0.005	0.000	0.010	0.415	1.772	1.108	1.104	1.108	1.128	1.123	1.118
0.005	-0.005	-0.005	0.000	0.000	0.000	0.410	1.797	1.108	1.104	1.108	1.123	1.118	1.123
0.015	-0.010	0.000	0.000	-0.005	-0.015	0.410	1.758	1.104	1.099	1.108	1.123	1.118	1.113
0.020	0.000	0.000	0.000	-0.005	0.010	0.400	1.738	1.094	1.099	1.108	1.123	1.123	1.123
0.015	0.000	-0.005	0.000	0.000	0.010	0.410	1.792	1.094	1.094	1.099	1.123	1.118	1.118
0.015	0.005	0.000	0.000	0.005	-0.005	0.405	1.709	1.099	1.094	1.104	1.118	1.118	1.113
0.010	-0.005	0.000	-0.005	-0.005	0.005	0.410	1.763	1.099	1.094	1.099	1.113	1.113	1.113
0.010	0.000	-0.005	-0.005	0.000	0.000	0.405	1.782	1.094	1.094	1.094	1.113	1.113	1.113
0.000	0.000	0.000	0.000	0.000	-0.005	0.405	1.753	1.094	1.089	1.099	1.118	1.113	1.113
0.010	-0.005	-0.005	0.005	-0.005	-0.010	0.415	1.792	1.104	1.094	1.094	1.118	1.108	1.108
0.005	0.005	0.000	0.010	-0.005	-0.015	0.420	1.782	1.104	1.099	1.099	1.118	1.113	1.113
0.005	-0.010	0.000	0.010	0.000	0.000	0.415	1.709	1.099	1.099	1.099	1.118	1.118	1.118
0.005	-0.010	0.000	0.010	0.000	0.010	0.410	1.748	1.094	1.094	1.099	1.118	1.118	1.118
0.000	-0.010	-0.005	0.010	0.000	0.005	0.410	1.787	1.104	1.099	1.094	1.123	1.118	1.118
-0.005	-0.005	-0.005	0.010	0.000	0.000	0.405	1.772	1.099	1.104	1.099	1.118	1.118	1.118
-0.015	0.000	-0.005	0.000	0.000	-0.005	0.410	1.768	1.099	1.099	1.099	1.113	1.113	1.113
0.000	-0.005	0.000	-0.005	0.000	0.005	0.415	1.782	1.108	1.104	1.104	1.118	1.118	1.118
-0.020	-0.005	-0.005	-0.005	-0.005	-0.015	0.410	1.812	1.104	1.099	1.099	1.118	1.113	1.104
-0.015	0.000	0.000	0.000	0.000	0.000	0.410	1.777	1.104	1.104	1.094	1.113	1.113	1.113
-0.005	0.010	0.000	0.000	-0.005	-0.020	0.405	1.753	1.104	1.104	1.099	1.113	1.108	1.104
-0.020	0.005	0.000	-0.005	0.000	0.010	0.415	1.787	1.094	1.099	1.099	1.113	1.113	1.113
-0.039	0.005	0.000	-0.005	0.000	0.010	0.405	1.807	1.099	1.094	1.099	1.113	1.108	1.113
-0.024	0.000	0.000	-0.005	0.005	0.020	0.410	1.787	1.108	1.094	1.094	1.113	1.108	1.113
-0.005	0.000	-0.005	0.000	0.000	0.000	0.415	1.787	1.104	1.099	1.099	1.113	1.108	1.104
-0.005	-0.005	0.000	-0.005	-0.005	0.010	0.410	1.797	1.113	1.104	1.099	1.113	1.108	1.108
0.015	0.000	0.000	0.000	0.000	-0.024	0.405	1.748	1.108	1.108	1.099	1.113	1.108	1.099
0.010	0.000	0.000	0.000	-0.005	-0.005	0.405	1.753	1.104	1.104	1.104	1.118	1.108	1.104
0.015	0.005	0.000	0.000	0.000	-0.020	0.415	1.797	1.108	1.104	1.104	1.118	1.113	1.108
0.024	-0.005	-0.005	-0.005	0.000	-0.015	0.405	1.807	1.113	1.108	1.104	1.118	1.113	1.113
0.039	0.000	-0.005	0.000	0.000	-0.010	0.405	1.743	1.108	1.108	1.108	1.118	1.113	1.108
0.024	-0.005	-0.005	0.000	-0.005	0.005	0.405	1.758	1.104	1.108	1.108	1.123	1.113	1.118
0.024	-0.005	-0.005	0.000	-0.005	-0.005	0.405	1.807	1.108	1.108	1.108	1.128	1.118	1.118
0.015	0.005	-0.005	0.005	0.005	0.010	0.410	1.787	1.104	1.108	1.108	1.128	1.123	1.118
0.005	-0.010	-0.005	-0.005	-0.005	0.005	0.405	1.777	1.104	1.104	1.104	1.123	1.118	1.118
-0.005	-0.005	0.005	0.000	-0.005	-0.015	0.405	1.802	1.099	1.099	1.104	1.123	1.118	1.113
-0.010	0.000	0.000	0.000	0.000	0.005	0.410	1.753	1.108	1.104	1.104	1.123	1.118	1.118
-0.020	0.005	0.000	-0.005	-0.005	-0.010	0.405	1.772	1.099	1.099	1.099	1.123	1.118	1.113
-0.020	0.000	0.000	0.000	0.005	-0.005	0.420	1.782	1.099	1.099	1.104	1.118	1.118	1.118
-0.020	-0.005	0.000	0.000	0.000	0.005	0.405	1.763	1.099	1.094	1.099	1.118	1.113	1.113
-0.020	0.010	0.000	0.000	0.000	0.010	0.410	1.802	1.099	1.099	1.099	1.113	1.113	1.118
-0.010	0.000	-0.005	0.000	0.000	0.015	0.405	1.792	1.108	1.099	1.094	1.113	1.113	1.118
-0.010	0.000	0.000	-0.005	-0.005	0.024	0.410	1.792	1.108	1.104	1.099	1.118	1.113	1.113
-0.005	-0.005	0.000	0.000	-0.005	-0.020	0.410	1.792	1.113	1.099	1.099	1.113	1.108	1.104
0.000	-0.005	-0.005	0.000	0.000	0.005	0.415	1.743	1.104	1.104	1.099	1.118	1.113	1.113
0.000	-0.005	-0.005	0.000	-0.005	0.010	0.405	1.631	1.099	1.104	1.099	1.118	1.113	1.113
0.005	0.000	0.000	-0.005	-0.005	0.000	0.405	1.758	1.104	1.104	1.104	1.118	1.113	1.113
-0.010	0.005	0.000	0.000	0.000	-0.005	0.410	1.782	1.104	1.104	1.104	1.123	1.113	1.113
0.000	0.000	-0.005	0.000	-0.005	-0.005	0.415	1.748	1.108	1.104	1.104	1.123	1.118	1.113
-0.010	0.005	0.000	0.005	-0.005	0.000	0.400	1.772	1.108	1.108	1.108	1.123	1.118	1.118
-0.010	-0.005	0.000	0.000	0.000	-0.010	0.405	1.787	1.108	1.104	1.104	1.123	1.118	1.113
-0.010	-0.005	-0.005	0.000	0.005	0.005	0.405	1.792	1.104	1.104	1.104	1.123	1.123	1.123
-0.010	-0.005	0.000	0.000	0.000	0.015	0.410	1.758	1.104	1.104	1.104	1.123	1.118	1.123
-0.010	0.005	-0.005	0.005	0.000	0.005	0.415	1.792	1.104	1.104	1.104	1.118	1.113	1.118
-0.005	0.000	-0.005	0.005	0.000	0.010	0.415	1.797	1.113	1.099	1.099	1.118	1.113	1.113
0.005	-0.005	0.000	0.005	0.000	-0.024	0.410	1.777	1.108	1.104	1.104	1.118	1.113	1.104
0.005	-0.005	0.000	0.000	0.000	0.000	0.400	1.758	1.099	1.099	1.099	1.113	1.113	1.113
0.005	0.000	0.000	0.000	0.005	-0.005	0.410	1.797	1.104	1.104	1.099	1.118	1.113	1.113
0.000	0.000	0.005	0.000	-0.005	0.005	0.405	1.714	1.104	1.104	1.099	1.118	1.113	1.113
0.000	0.005	-0.005	0.000	0.005	0.000	0.410	1.792	1.104	1.104	1.099	1.118	1.113	1.113
0.000	-0.005	0.005	-0.005	0.000	0.000	0.405	1.787	1.104	1.099	1.099	1.118	1.113	1.108
0.010	0.005	0.000	0.000	0.000	0.000	0.415	1.782	1.108	1.108	1.104	1.118	1.113	1.113
-0.005	0.005	-0.005	0.000	0.000	-0.005	0.410	1.763	1.108	1.104	1.104	1.118	1.118	1.113
0.000	-0.010	0.000	0.000	-0.005	-0.029	0.415	1.753	1.104	1.104	1.104	1.118	1.118	1.108
0.015	0.005	-0.005	0.000	-0.005	0.000	0.405	1.753	1.104	1.108	1.104	1.118	1.118	1.118
-0.005	0.010	0.000	0.000	-0.005	0.015	0.405	1.802	1.113	1.113	1.108	1.123	1.123	1.118
0.000	0.010	0.000	0.000	0.000	-0.005	0.400	1.729	1.104	1.108	1.108	1.123	1.123	1.118
-0.010	-0.020	-0.005	0.000	0.005	0.005	0.415	1.787	1.104	1.094	1.104	1.123	1.118	1.118
-0.010	-0.010	-0.005	-0.005	0.000	-0.010	0.410	1.768	1.104	1.099	1.104	1.123	1.118	1.118
-0.015	-0.010	0.000	-0.005	0.000	0.015	0.405	1.787	1.104	1.099	1.104	1.123	1.118	1.118
-0.005	-0.005	0.000	0.000	0.000	0.000	0.410	1.738	1.099	1.099	1.099	1.118	1.118	1.113
-0.005	-0.010	0.000	0.000	0.005	-0.015	0.405	1.797	1.099	1.094	1.099	1.118	1.118	1.113
-0.005	-0.010	0.005	-0.005	0.005	0.005	0.405	1.792	1.099	1.094	1.094	1.113	1.113	1.113
0.005	0.000	0.000	0.000	0.000	0.005	0.410	1.792	1.104	1.099	1.094	1.113	1.108	1.113
0.000	0.010	0.005	-0.005	0.000	0.000	0.410	1.772	1.104	1.104	1.099	1.118	1.113	1.113
-0.005	0.005	-0.005	0.000	0.005	-0.005	0.405	1.792	1.104	1.099	1.099	1.113	1.113	1.113
0.000	0.015	0.000	0.000	0.005	0.015	0.410	1.777	1.104	1.099	1.099	1.113	1.108	1.113
0.005	-0.005	0.000	-0.005	-0.005	0.015	0.410	1.802	1.108	1.099	1.099	1.113	1.108	1.113
0.010	0.010	0.000	0.000	0.000	0.005	0.405	1.753	1.108	1.104	1.104	1.118	1.113	1.113
0.015	0.005	-0.005	0.000	0.000	0.005	0.415	1.758	1.108	1.104	1.104	1.118	1.113	1.113
0.000	0.010	0.000	0.000	0.000	0.000	0.405	1.802	1.108	1.104	1.104	1.123	1.113	1.113
0.005	0.000	-0.005	0.000	0.000	-0.010	0.400	1.787	1.113	1.108	1.104	1.123	1.118	1.108
-0.005	0.005	0.000	0.000	-0.005	-0.005	0.410	1.802	1.113	1.108	1.108	1.123	1.118	1.118
0.000	0.000	-0.005	0.000	-0.005	0.000	0.405	1.733	1.108	1.108	1.108	1.123	1.118	1.113
0.000	0.000	-0.005	0.000	0.000	0.000	0.410	1.729	1.104	1.104	1.108	1.123	1.123	1.118
0.000	-0.005	0.000	0.000	0.000	0.005	0.410	1.807	1.108	1.104	1.108	1.123	1.118	1.118
-0.005	0.000	0.000	-0.010	0.005	-0.010	0.405	1.763	1.104	1.104	1.108	1.118	1.118	1.113
0.000	-0.005	0.000	0.000	0.000	0.000	0.405	1.748	1.104	1.104	1.104	1.123	1.118	1.113
0.010	-0.005	0.000	0.005	0.000	-0.034	0.410	1.738	1.104	1.099	1.104	1.123	1.113	1.104
0.005	-0.010	0.005	0.015	0.000	0.015	0.405	1.680	1.094	1.099	1.099	1.123	1.118	1.118
0.000	-0.005	-0.005	0.010	0.000	0.005	0.410	1.797	1.099	1.094	1.099	1.123	1.113	1.118
0.005	0.000	0.000	0.005	-0.005	0.005	0.415	1.763	1.099	1.099	1.094	1.118	1.113	1.113
0.010	-0.005	-0.005	0.000	-0.005	-0.015	0.420	1.724	1.094	1.099	1.094	1.113	1.108	1.108
0.000	-0.005	0.000	0.000	-0.005	-0.005	0.405	1.787	1.104	1.094	1.094	1.113	1.113	1.113
0.000	0.000	0.000	-0.005	-0.005	0.010	0.415	1.748	1.099	1.099	1.099	1.118	1.113	1.118
0.000	0.000	0.000	-0.010	-0.005	0.000	0.405	1.743	1.099	1.099	1.094	1.113	1.113	1.108
-0.010	0.005	-0.005	-0.010	0.000	0.000	0.405	1.763	1.099	1.104	1.099	1.113	1.113	1.113
-0.005	0.010	0.000	-0.005	-0.005	0.005	0.410	1.758	1.104	1.099	1.104	1.118	1.113	1.113
0.000	0.000	-0.005	-0.010	-0.010	0.000	0.410	1.743	1.104	1.099	1.099	1.118	1.113	1.113
0.010	-0.005	-0.005	0.000	-0.005	0.000	0.405	1.763	1.108	1.104	1.104	1.123	1.118	1.113
0.005	0.005	0.000	0.000	0.000	-0.015	0.405	1.782	1.104	1.108	1.104	1.118	1.118	1.108
0.000	0.005	0.000	0.000	0.000	0.000	0.410	1.724	1.099	1.104	1.104	1.123	1.118	1.113
-0.015	0.005	0.000	0.005	0.000	-0.020	0.405	1.787	1.099	1.099	1.104	1.118	1.118	1.113
-0.010	-0.005	0.000	0.005	0.005	0.005	0.410	1.748	1.104	1.094	1.099	1.118	1.118	1.118
-0.005	0.000	0.000	0.010	0.000	0.020	0.400	1.748	1.099	1.094	1.094	1.118	1.113	1.123
-0.024	0.000	0.000	0.005	0.000	0.015	0.420	1.797	1.104	1.094	1.094	1.113	1.113	1.113
-0.020	0.000	0.000	0.000	0.000	0.010	0.410	1.772	1.104	1.094	1.094	1.113	1.108	1.113
-0.005	0.000	0.005	0.000	0.000	-0.020	0.415	1.772	1.108	1.094	1.094	1.108	1.108	1.104
-0.005	-0.010	0.010	-0.005	-0.005	0.010	0.410	1.733	1.099	1.094	1.094	1.113	1.108	1.108
-0.020	-0.005	-0.005	-0.005	0.000	0.000	0.410	1.797	1.099	1.094	1.094	1.108	1.108	1.108
-0.010	-0.005	0.005	-0.005	0.000	-0.005	0.400	1.758	1.104	1.099	1.094	1.113	1.108	1.104
-0.024	0.000	0.005	-0.005	-0.005	-0.005	0.415	1.787	1.099	1.099	1.099	1.113	1.104	1.104
0.005	-0.005	0.000	0.000	-0.005	-0.015	0.405	1.763	1.113	1.104	1.099	1.118	1.108	1.104
0.010	-0.010	-0.005	-0.005	-0.005	-0.010	0.410	1.787	1.113	1.104	1.099	1.118	1.113	1.113
0.029	-0.024	0.000	0.000	-0.005	0.000	0.410	1.802	1.118	1.104	1.104	1.118	1.113	1.113
0.020	-0.005	-0.005	-0.005	0.005	-0.005	0.410	1.797	1.123	1.113	1.108	1.118	1.118	1.113
0.039	0.005	0.005	0.005	0.000	0.000	0.410	1.797	1.123	1.118	1.108	1.123	1.118	1.113
0.039	0.000	0.000	-0.005	0.000	-0.010	0.410	1.758	1.113	1.113	1.108	1.123	1.113	1.108
0.024	-0.005	0.000	0.000	0.000	-0.015	0.410	1.821	1.104	1.108	1.108	1.123	1.118	1.108
0.010	0.000	0.000	0.000	0.000	0.010	0.410	1.753	1.094	1.108	1.108	1.123	1.118	1.123
0.000	0.000	0.000	0.000	0.000	0.010	0.410	1.738	1.094	1.099	1.104	1.118	1.118	1.113
-0.005	0.010	0.000	0.005	-0.005	0.005	0.415	1.802	1.094	1.099	1.104	1.123	1.113	1.113
-0.005	-0.020	0.000	-0.005	0.000	0.000	0.410	1.772	1.094	1.089	1.094	1.123	1.118	1.118
-0.020	0.000	-0.005	-0.005	0.005	-0.020	0.410	1.777	1.094	1.094	1.094	1.113	1.113	1.113
-0.029	-0.010	-0.005	0.000	0.000	0.000	0.410	1.748	1.089	1.094	1.094	1.113	1.113	1.118
-0.020	-0.005	0.005	0.000	0.000	0.010	0.410	1.777	1.099	1.094	1.089	1.113	1.113	1.113
-0.005	0.005	0.000	0.000	0.000	-0.005	0.410	1.758	1.099	1.099	1.089	1.113	1.108	1.108
-0.024	-0.005	0.000	-0.005	-0.005	0.005	0.410	1.797	1.104	1.094	1.094	1.113	1.108	1.118
-0.020	-0.005	0.000	0.000	0.000	0.010	0.415	1.782	1.108	1.099	1.094	1.118	1.108	1.118
-0.020	0.000	-0.005	-0.005	0.000	-0.010	0.410	1.758	1.108	1.104	1.099	1.118	1.113	1.113
-0.005	0.020	-0.005	0.000	0.005	-0.005	0.410	1.758	1.113	1.113	1.104	1.118	1.113	1.108
0.010	0.015	0.000	0.005	0.005	0.005	0.410	1.714	1.104	1.108	1.104	1.123	1.113	1.118
0.010	0.000	0.000	0.000	0.000	-0.015	0.420	1.782	1.108	1.108	1.108	1.118	1.113	1.108
0.000	0.000	0.000	-0.005	-0.005	-0.005	0.410	1.782	1.104	1.104	1.104	1.123	1.113	1.113
0.015	0.000	-0.005	0.000	-0.005	-0.020	0.420	1.758	1.108	1.104	1.104	1.123	1.113	1.108
0.015	-0.010	-0.005	0.000	0.000	-0.005	0.410	1.743	1.104	1.104	1.108	1.118	1.118	1.118
0.015	0.005	0.005	0.000	0.000	-0.010	0.420	1.792	1.104	1.108	1.108	1.123	1.118	1.113
0.010	0.005	0.000	0.000	-0.005	0.000	0.405	1.797	1.104	1.104	1.104	1.123	1.113	1.113
0.015	-0.010	0.000	0.000	0.000	-0.020	0.405	1.802	1.104	1.099	1.099	1.123	1.118	1.108
0.000	-0.015	0.000	0.000	0.000	0.005	0.405	1.777	1.094	1.094	1.099	1.118	1.118	1.118
-0.005	-0.005	-0.005	0.000	0.000	-0.015	0.410	1.743	1.094	1.099	1.099	1.118	1.113	1.108
-0.005	0.010	0.000	0.000	0.005	-0.010	0.410	1.797	1.099	1.094	1.094	1.113	1.113	1.113
-0.005	0.010	0.000	0.000	-0.005	0.015	0.405	1.812	1.108	1.099	1.094	1.118	1.113	1.118
-0.005	0.000	0.000	0.000	0.000	0.005	0.410	1.738	1.108	1.099	1.099	1.113	1.113	1.118
0.000	0.005	-0.005	0.000	-0.005	0.000	0.420	1.758	1.104	1.104	1.094	1.113	1.113	1.113
-0.005	0.000	0.000	0.000	0.000	0.020	0.415	1.792	1.113	1.104	1.104	1.118	1.113	1.113
-0.015	0.005	0.000	0.000	-0.005	-0.005	0.415	1.777	1.108	1.108	1.104	1.118	1.113	1.108
-0.005	-0.010	0.005	0.000	0.000	0.005	0.415	1.748	1.108	1.104	1.104	1.123	1.118	1.118
-0.005	-0.010	0.000	0.000	0.000	0.005	0.410	1.772	1.108	1.108	1.104	1.123	1.118	1.118
0.000	-0.005	-0.005	-0.005	0.000	0.000	0.415	1.738	1.108	1.108	1.104	1.118	1.118	1.113
0.000	0.000	-0.005	0.000	0.000	-0.015	0.405	1.777	1.104	1.108	1.104	1.123	1.113	1.108
0.000	-0.010	0.000	0.000	0.005	-0.015	0.410	1.792	1.108	1.108	1.108	1.123	1.118	1.108
-0.005	-0.015	-0.005	0.005	0.005	0.005	0.415	1.792	1.104	1.099	1.104	1.123	1.113	1.118
0.000	0.000	-0.005	-0.005	0.000	0.005	0.410	1.792	1.108	1.104	1.104	1.123	1.113	1.113
-0.015	-0.005	0.000	-0.005	0.000	0.005	0.410	1.714	1.094	1.099	1.099	1.118	1.118	1.118
-0.010	-0.005	0.000	0.000	0.005	0.010	0.410	1.772	1.099	1.099	1.104	1.118	1.118	1.113
-0.005	-0.010	0.000	0.000	-0.005	0.005	0.410	1.724	1.094	1.094	1.099	1.118	1.113	1.113
-0.005	0.000	0.000	0.000	0.000	0.005	0.410	1.782	1.099	1.099	1.099	1.118	1.113	1.108
-0.005	0.005	-0.005	0.000	-0.005	0.005	0.410	1.802	1.108	1.099	1.094	1.113	1.113	1.108
-0.005	0.010	0.000	-0.005	0.000	0.000	0.410	1.758	1.099	1.099	1.099	1.118	1.113	1.108
0.000	-0.010	0.000	-0.010	0.000	-0.010	0.405	1.787	1.108	1.094	1.099	1.118	1.108	1.108
0.000	-0.010	0.000	-0.005	0.000	0.005	0.420	1.797	1.113	1.104	1.099	1.118	1.113	1.113
0.000	0.000	0.000	-0.005	0.000	0.005	0.415	1.816	1.113	1.108	1.104	1.118	1.113	1.113
-0.005	0.000	0.000	0.000	0.000	0.000	0.405	1.816	1.113	1.108	1.104	1.118	1.113	1.113
-0.005	0.005	-0.005	0.005	0.000	-0.020	0.415	1.782	1.113	1.108	1.108	1.123	1.113	1.108
0.005	0.005	0.000	0.005	0.000	-0.010	0.415	1.729	1.108	1.113	1.108	1.128	1.118	1.118
0.010	0.010	0.000	0.005	0.005	0.010	0.410	1.787	1.108	1.108	1.108	1.123	1.118	1.118
0.010	0.000	-0.005	0.000	-0.005	0.000	0.410	1.772	1.113	1.113	1.108	1.123	1.118	1.118
0.010	0.000	-0.005	0.000	0.000	-0.005	0.405	1.777	1.108	1.108	1.108	1.123	1.118	1.118
0.005	0.000	0.000	0.000	0.000	-0.005	0.400	1.763	1.099	1.104	1.108	1.123	1.118	1.118
0.000	-0.005	0.000	0.005	0.005	-0.005	0.410	1.758	1.099	1.099	1.104	1.123	1.118	1.118
-0.005	-0.010	-0.005	0.000	0.005	0.000	0.410	1.777	1.099	1.099	1.104	1.118	1.113	1.118
-0.029	-0.010	0.000	0.000	0.005	0.005	0.410	1.792	1.094	1.094	1.099	1.118	1.113	1.113
-0.020	-0.005	0.005	0.000	-0.005	0.015	0.410	1.797	1.094	1.094	1.099	1.113	1.113	1.113
-0.020	0.000	0.000	0.000	0.000	0.010	0.415	1.758	1.094	1.094	1.094	1.108	1.108	1.113
-0.020	-0.005	-0.005	-0.005	0.000	0.005	0.405	1.758	1.099	1.094	1.094	1.113	1.108	1.108
-0.020	-0.005	0.000	-0.005	-0.005	-0.005	0.410	1.787	1.104	1.094	1.094	1.113	1.108	1.104
-0.005	-0.005	0.005	0.000	-0.010	-0.005	0.400	1.768	1.104	1.099	1.094	1.113	1.108	1.104
0.005	-0.005	-0.005	0.000	-0.005	-0.015	0.405	1.768	1.108	1.104	1.099	1.118	1.108	1.108
0.010	-0.015	-0.010	0.005	-0.005	0.000	0.405	1.787	1.108	1.099	1.094	1.118	1.113	1.113
0.020	-0.005	0.000	0.005	-0.005	0.000	0.405	1.807	1.118	1.108	1.104	1.118	1.113	1.113
0.024	-0.005	0.000	0.005	-0.005	-0.005	0.405	1.768	1.123	1.113	1.108	1.123	1.118	1.113
0.015	0.005	-0.005	0.005	-0.005	0.000	0.405	1.763	1.108	1.118	1.108	1.123	1.118	1.113
0.020	0.010	0.000	0.005	-0.005	0.000	0.405	1.792	1.118	1.113	1.113	1.128	1.118	1.118
0.029	0.010	0.000	0.000	-0.005	-0.005	0.410	1.797	1.118	1.113	1.108	1.123	1.118	1.113
0.015	0.005	-0.005	0.000	-0.005	0.020	0.410	1.748	1.108	1.113	1.108	1.123	1.118	1.123
0.005	0.000	0.000	-0.005	0.000	-0.020	0.410	1.797	1.108	1.108	1.108	1.123	1.118	1.113
-0.015	0.005	0.005	-0.005	0.000	0.010	0.405	1.802	1.104	1.104	1.108	1.123	1.118	1.118
-0.010	-0.005	0.005	-0.010	0.000	0.000	0.415	1.768	1.099	1.099	1.104	1.118	1.118	1.113
-0.010	-0.005	0.000	-0.005	0.000	-0.029	0.410	1.753	1.099	1.099	1.099	1.118	1.113	1.108
-0.024	0.015	0.000	-0.005	0.000	0.005	0.415	1.802	1.104	1.104	1.104	1.118	1.113	1.118
-0.005	0.010	0.000	0.000	-0.005	0.005	0.410	1.777	1.108	1.099	1.099	1.118	1.113	1.108
-0.015	-0.005	0.000	0.005	0.005	0.000	0.410	1.763	1.104	1.099	1.099	1.118	1.118	1.113
0.015	0.000	0.000	-0.005	0.000	-0.015	0.405	1.782	1.108	1.104	1.099	1.118	1.113	1.113
0.015	-0.005	0.000	-0.005	-0.005	0.005	0.405	1.797	1.113	1.104	1.099	1.118	1.113	1.113
0.010	-0.005	-0.005	0.005	-0.010	0.015	0.410	1.797	1.118	1.108	1.104	1.123	1.113	1.118
0.000	0.000	0.000	0.000	-0.005	0.000	0.410	1.807	1.118	1.113	1.104	1.123	1.113	1.118
0.000	0.000	-0.005	-0.005	-0.005	0.010	0.405	1.792	1.118	1.113	1.108	1.123	1.118	1.123
0.005	-0.015	-0.005	0.000	-0.005	0.005	0.405	1.743	1.094	1.104	1.108	1.128	1.118	1.118
-0.005	0.000	0.000	0.005	0.000	-0.010	0.420	1.787	1.099	1.108	1.108	1.128	1.118	1.113
-0.010	0.005	0.000	0.005	0.000	-0.005	0.405	1.763	1.099	1.108	1.108	1.133	1.123	1.118
-0.005	-0.005	0.000	0.005	0.000	-0.010	0.405	1.763	1.099	1.104	1.108	1.128	1.123	1.118
-0.005	-0.010	0.005	0.005	-0.010	-0.020	0.410	1.812	1.108	1.099	1.104	1.128	1.118	1.113
0.005	-0.005	-0.005	-0.005	-0.005	-0.005	0.415	1.753	1.104	1.104	1.099	1.118	1.118	1.118
0.010	0.000	-0.005	-0.005	0.000	-0.015	0.410	1.841	1.094	1.099	1.099	1.118	1.118	1.118
-0.010	-0.005	0.005	-0.005	-0.005	0.005	0.410	1.797	1.099	1.089	1.099	1.118	1.113	1.118
-0.015	-0.005	0.000	-0.005	-0.005	-0.029	0.410	1.782	1.099	1.094	1.094	1.113	1.113	1.108
-0.005	-0.010	-0.005	-0.005	0.005	0.010	0.410	1.782	1.104	1.094	1.094	1.113	1.113	1.118
-0.005	0.000	0.000	0.000	-0.005	0.020	0.415	1.782	1.104	1.099	1.094	1.113	1.108	1.118
0.000	0.000	0.000	-0.005	0.000	0.015	0.405	1.782	1.108	1.099	1.099	1.113	1.113	1.118
0.000	0.000	0.005	0.000	0.000	0.015	0.415	1.768	1.108	1.104	1.099	1.118	1.113	1.113
0.000	0.005	-0.005	0.000	0.000	0.000	0.415	1.724	1.104	1.104	1.099	1.118	1.113	1.108
0.000	0.005	0.000	0.000	0.005	0.000	0.415	1.782	1.104	1.104	1.099	1.118	1.113	1.113
0.015	-0.005	0.000	0.000	-0.005	0.000	0.410	1.753	1.108	1.104	1.104	1.118	1.113	1.113
0.000	0.000	0.000	0.010	0.000	-0.005	0.410	1.782	1.104	1.104	1.104	1.123	1.113	1.113
0.000	0.010	0.000	0.010	0.005	-0.005	0.410	1.724	1.104	1.108	1.104	1.123	1.118	1.113
-0.010	0.000	0.000	0.005	0.010	0.010	0.405	1.797	1.104	1.104	1.104	1.123	1.123	1.123
0.000	0.000	-0.005	0.000	0.015	0.000	0.400	1.797	1.104	1.104	1.104	1.123	1.123	1.118
-0.005	-0.015	-0.005	0.000	0.015	-0.015	0.405	1.782	1.099	1.099	1.104	1.118	1.118	1.113
-0.010	0.000	-0.005	0.005	0.024	0.010	0.405	1.787	1.099	1.104	1.104	1.118	1.118	1.123
-0.015	-0.015	0.000	0.000	0.020	0.005	0.415	1.772	1.099	1.099	1.099	1.118	1.118	1.118
-0.015	-0.005	-0.005	0.000	0.020	-0.005	0.405	1.797	1.099	1.099	1.099	1.113	1.113	1.113
-0.024	-0.005	-0.005	-0.005	0.020	0.005	0.405	1.797	1.104	1.094	1.094	1.113	1.113	1.118
-0.015	0.005	0.000	0.005	0.020	0.015	0.410	1.792	1.104	1.099	1.094	1.118	1.113	1.113
-0.005	0.015	-0.005	0.005	0.010	0.005	0.405	1.763	1.104	1.099	1.099	1.113	1.108	1.108
0.005	0.015	0.000	0.005	0.015	0.015	0.400	1.792	1.104	1.099	1.099	1.113	1.108	1.108
0.010	0.010	0.005	0.005	0.005	-0.010	0.410	1.782	1.108	1.104	1.099	1.113	1.108	1.099
0.020	0.010	0.000	0.015	0.005	0.015	0.415	1.768	1.108	1.104	1.099	1.118	1.108	1.113
0.024	0.005	0.005	0.010	0.005	0.005	0.415	1.792	1.113	1.104	1.104	1.123	1.113	1.113
0.029	0.005	0.005	0.005	0.000	0.010	0.400	1.787	1.113	1.108	1.104	1.118	1.113	1.113
0.034	0.000	0.005	0.000	-0.005	0.010	0.410	1.768	1.113	1.108	1.104	1.118	1.113	1.113
0.029	-0.005	-0.010	-0.005	-0.005	0.005	0.405	1.787	1.113	1.104	1.104	1.118	1.108	1.113
0.010	-0.015	-0.005	-0.005	-0.005	0.010	0.410	1.792	1.108	1.104	1.104	1.123	1.113	1.118
0.010	-0.015	0.000	-0.005	0.000	-0.015	0.405	1.763	1.104	1.104	1.104	1.123	1.113	1.108
-0.005	-0.020	0.005	-0.010	-0.005	0.005	0.410	1.802	1.104	1.104	1.104	1.123	1.118	1.113
-0.005	-0.015	0.005	-0.005	-0.005	-0.015	0.405	1.777	1.104	1.104	1.099	1.123	1.118	1.108
0.000	0.000	0.005	-0.005	-0.005	0.015	0.410	1.797	1.104	1.104	1.104	1.123	1.113	1.118
-0.005	-0.005	0.000	-0.005	-0.010	0.000	0.405	1.807	1.104	1.104	1.099	1.123	1.113	1.113
-0.010	0.000	-0.005	-0.005	-0.005	0.015	0.410	1.768	1.099	1.104	1.099	1.118	1.118	1.118
-0.015	0.000	0.000	0.000	-0.010	-0.010	0.410	1.768	1.094	1.099	1.099	1.118	1.113	1.104
-0.005	-0.005	0.000	0.000	-0.015	-0.010	0.410	1.763	1.104	1.094	1.099	1.118	1.108	1.108
0.000	-0.005	0.000	0.000	-0.015	0.000	0.415	1.797	1.104	1.099	1.094	1.118	1.113	1.108
0.010	0.000	0.000	0.005	-0.015	-0.024	0.405	1.763	1.099	1.099	1.099	1.113	1.113	1.104
0.005	0.015	-0.005	0.005	-0.010	-0.010	0.410	1.758	1.104	1.104	1.099	1.118	1.113	1.108
0.010	0.000	-0.005	0.005	-0.010	-0.015	0.405	1.772	1.064	1.094	1.099	1.118	1.113	1.108
-0.010	0.010	-0.005	0.005	-0.015	-0.005	0.415	1.782	1.069	1.089	1.094	1.118	1.113	1.113
-0.020	0.010	-0.005	0.000	-0.015	0.000	0.415	1.787	1.084	1.084	1.094	1.118	1.113	1.113
-0.015	0.010	-0.005	0.000	-0.020	-0.015	0.405	1.753	1.094	1.089	1.089	1.118	1.113	1.113
-0.024	0.015	-0.005	0.000	-0.015	0.000	0.405	1.748	1.094	1.089	1.089	1.113	1.113	1.118
-0.039	0.005	-0.005	0.000	-0.005	0.000	0.420	1.738	1.094	1.089	1.089	1.113	1.118	1.118
-0.049	0.010	0.000	-0.005	-0.005	0.010	0.410	1.777	1.099	1.089	1.089	1.108	1.113	1.118
-0.024	0.010	0.000	0.000	-0.005	-0.010	0.410	1.748	1.104	1.094	1.089	1.108	1.108	1.108
-0.020	0.005	0.005	0.000	0.000	0.000	0.405	1.787	1.104	1.094	1.089	1.108	1.108	1.113
-0.029	0.005	0.000	0.000	0.000	-0.015	0.405	1.792	1.104	1.094	1.094	1.113	1.108	1.108
-0.010	-0.005	0.005	0.000	-0.005	-0.015	0.405	1.689	1.094	1.094	1.089	1.104	1.104	1.104
0.000	0.000	0.005	0.005	0.000	-0.005	0.410	1.763	1.099	1.094	1.089	1.108	1.104	1.108
0.010	0.000	0.000	-0.005	0.000	-0.020	0.405	1.724	1.099	1.094	1.089	1.104	1.104	1.099
0.024	0.000	0.000	-0.005	0.005	-0.005	0.410	1.733	1.099	1.094	1.089	1.104	1.104	1.104
0.044	-0.005	-0.005	-0.005	0.005	-0.005	0.400	1.787	1.104	1.094	1.089	1.108	1.104	1.104
0.039	-0.005	-0.005	0.000	0.010	-0.005	0.405	1.797	1.108	1.094	1.094	1.104	1.104	1.104
0.034	-0.005	0.000	-0.005	0.015	0.015	0.410	1.787	1.108	1.099	1.094	1.108	1.104	1.108
0.024	-0.005	0.000	-0.010	-0.005	0.005	0.405	1.772	1.108	1.104	1.094	1.108	1.104	1.104
0.024	-0.005	0.000	-0.010	-0.010	0.010	0.410	1.787	1.108	1.104	1.099	1.113	1.104	1.108
0.015	-0.005	-0.005	-0.005	0.000	0.005	0.410	1.807	1.108	1.108	1.099	1.118	1.108	1.104
0.010	-0.005	0.000	0.000	-0.005	0.005	0.405	1.758	1.104	1.104	1.104	1.118	1.113	1.108
0.005	0.000	0.000	0.005	0.005	0.010	0.410	1.768	1.108	1.108	1.108	1.123	1.118	1.113
-0.005	0.000	0.000	0.010	0.010	0.000	0.415	1.748	1.104	1.108	1.104	1.123	1.118	1.108
-0.005	-0.010	0.000	0.005	-0.005	-0.034	0.410	1.743	1.099	1.099	1.104	1.123	1.113	1.104
-0.005	-0.005	-0.005	0.005	0.000	-0.020	0.420	1.792	1.104	1.099	1.099	1.123	1.113	1.108
-0.010	0.005	-0.005	0.005	-0.005	-0.010	0.410	1.812	1.108	1.104	1.099	1.113	1.113	1.108
0.000	0.000	-0.005	-0.005	-0.010	-0.010	0.410	1.782	1.104	1.104	1.099	1.113	1.108	1.108
0.005	0.005	-0.005	-0.005	-0.010	-0.020	0.405	1.738	1.094	1.104	1.099	1.113	1.108	1.104
-0.005	-0.005	0.000	-0.005	-0.005	-0.005	0.415	1.758	1.089	1.094	1.099	1.113	1.113	1.113
-0.020	0.005	0.005	-0.010	-0.005	0.000	0.415	1.787	1.094	1.094	1.094	1.113	1.108	1.108
-0.020	0.000	0.005	-0.005	0.005	0.010	0.415	1.768	1.094	1.089	1.094	1.113	1.113	1.113
-0.010	-0.010	0.005	0.005	-0.015	0.024	0.405	1.758	1.094	1.089	1.089	1.113	1.104	1.113
-0.005	-0.010	0.000	0.005	-0.010	0.020	0.415	1.782	1.099	1.089	1.094	1.113	1.108	1.113
-0.005	0.000	0.010	0.005	-0.005	0.029	0.400	1.782	1.099	1.094	1.094	1.113	1.113	1.118
-0.005	-0.015	0.010	0.005	0.039	0.029	0.415	1.743	1.104	1.099	1.094	1.113	1.123	1.123
-0.015	0.000	0.000	0.005	0.034	0.020	0.410	1.763	1.099	1.104	1.099	1.113	1.123	1.118
-0.005	0.005	0.000	0.005	0.049	0.010	0.405	1.797	1.108	1.108	1.099	1.118	1.123	1.113
-0.005	-0.010	0.000	0.000	0.029	-0.024	0.405	1.699	1.099	1.104	1.099	1.118	1.113	1.104
0.005	0.005	-0.005	0.000	-0.015	-0.020	0.410	1.792	1.108	1.108	1.104	1.118	1.099	1.099
0.000	0.015	0.000	0.005	-0.054	-0.049	0.410	1.772	1.104	1.108	1.104	1.118	1.094	1.094
-0.005	-0.005	0.000	0.000	-0.063	-0.020	0.410	1.714	1.094	1.099	1.104	1.118	1.099	1.104
-0.020	0.005	0.000	0.000	-0.068	-0.015	0.415	1.797	1.074	1.094	1.099	1.118	1.099	1.104
-0.020	0.000	-0.005	0.000	-0.063	-0.024	0.410	1.772	1.079	1.084	1.094	1.113	1.104	1.099
-0.010	0.000	-0.005	-0.005	-0.039	-0.005	0.410	1.777	1.064	1.084	1.089	1.108	1.113	1.104
-0.020	-0.005	-0.005	0.000	0.010	-0.015	0.405	1.792	1.074	1.079	1.089	1.113	1.123	1.108
-0.015	0.005	-0.005	-0.005	0.029	0.015	0.410	1.792	1.089	1.084	1.084	1.104	1.123	1.118
0.000	0.000	-0.005	-0.005	0.054	-0.005	0.410	1.797	1.099	1.079	1.084	1.108	1.123	1.113
0.005	0.005	-0.005	0.000	0.063	0.020	0.420	1.763	1.099	1.089	1.084	1.104	1.118	1.123
0.005	0.000	0.005	0.000	0.039	0.015	0.405	1.772	1.099	1.089	1.089	1.104	1.108	1.113
0.000	-0.005	0.000	0.005	0.029	0.015	0.410	1.777	1.099	1.089	1.089	1.104	1.099	1.108
0.005	-0.005	0.000	-0.005	0.015	0.005	0.410	1.797	1.108	1.094	1.089	1.108	1.099	1.108
0.000	0.005	-0.005	0.000	0.010	-0.029	0.410	1.772	1.104	1.104	1.094	1.104	1.099	1.094
0.005	-0.010	0.000	0.005	0.005	0.005	0.410	1.777	1.104	1.104	1.094	1.104	1.099	1.104
0.010	0.015	-0.005	-0.005	0.000	0.000	0.415	1.782	1.104	1.104	1.099	1.108	1.099	1.099
0.000	0.010	-0.005	-0.010	-0.005	-0.005	0.410	1.812	1.113	1.108	1.104	1.113	1.104	1.099
-0.005	0.005	0.000	-0.005	0.005	-0.020	0.420	1.748	1.108	1.104	1.104	1.113	1.108	1.099
0.005	0.010	0.005	-0.005	0.000	0.010	0.410	1.685	1.099	1.108	1.104	1.118	1.108	1.108
0.010	0.010	-0.005	0.000	0.000	-0.015	0.415	1.782	1.099	1.104	1.104	1.118	1.108	1.099
0.010	0.000	0.000	-0.005	-0.005	0.005	0.405	1.724	1.094	1.094	1.099	1.118	1.108	1.108
0.010	0.000	0.000	-0.005	-0.005	0.034	0.415	1.772	1.094	1.094	1.099	1.118	1.113	1.118
0.000	0.005	0.000	-0.005	-0.005	0.024	0.410	1.787	1.094	1.094	1.094	1.118	1.108	1.108
-0.005	-0.010	0.000	0.000	-0.015	0.010	0.405	1.797	1.099	1.094	1.094	1.113	1.108	1.104
0.000	0.000	0.005	0.000	-0.005	-0.005	0.410	1.763	1.089	1.089	1.094	1.108	1.108	1.099
0.005	-0.010	0.000	0.000	0.000	-0.010	0.405	1.797	1.094	1.089	1.089	1.113	1.108	1.099
0.000	-0.010	0.000	0.005	0.005	-0.010	0.410	1.797	1.099	1.094	1.094	1.108	1.108	1.104
0.015	0.005	0.000	0.005	0.005	-0.015	0.410	1.724	1.099	1.094	1.089	1.108	1.108	1.104
0.010	-0.005	0.005	0.005	0.000	-0.005	0.410	1.758	1.094	1.089	1.094	1.108	1.104	1.108
0.015	-0.005	0.000	0.000	-0.010	0.010	0.410	1.738	1.099	1.094	1.089	1.108	1.104	1.108
0.024	0.000	-0.005	0.000	-0.005	0.005	0.405	1.733	1.104	1.099	1.094	1.108	1.108	1.113
0.015	-0.005	0.000	0.000	-0.005	0.015	0.410	1.802	1.104	1.099	1.094	1.113	1.108	1.113
0.029	-0.005	0.000	0.000	-0.015	0.024	0.410	1.816	1.108	1.104	1.094	1.113	1.104	1.113
0.010	-0.005	-0.005	-0.005	-0.010	0.015	0.405	1.738	1.104	1.104	1.099	1.108	1.108	1.113
0.005	-0.010	-0.005	-0.010	-0.005	0.000	0.405	1.787	1.104	1.104	1.099	1.113	1.108	1.108
-0.005	-0.010	-0.005	-0.005	-0.005	0.005	0.405	1.733	1.099	1.099	1.099	1.113	1.108	1.104
-0.010	-0.010	-0.005	-0.005	-0.005	-0.010	0.410	1.787	1.099	1.099	1.099	1.118	1.108	1.104
-0.020	0.000	-0.005	0.000	-0.005	-0.005	0.410	1.743	1.089	1.099	1.099	1.118	1.113	1.108
-0.020	-0.020	-0.005	0.005	0.010	-0.010	0.415	1.738	1.089	1.084	1.094	1.113	1.113	1.104
-0.024	-0.020	-0.005	0.000	0.010	-0.010	0.410	1.743	1.084	1.089	1.094	1.108	1.108	1.108
-0.010	-0.005	-0.005	-0.005	0.000	-0.005	0.410	1.743	1.089	1.089	1.089	1.108	1.108	1.108
-0.010	0.000	0.000	-0.005	-0.005	0.000	0.410	1.763	1.089	1.094	1.089	1.108	1.104	1.104
-0.010	-0.010	0.000	-0.005	0.000	-0.010	0.415	1.768	1.089	1.089	1.089	1.108	1.104	1.094
-0.015	0.000	0.000	0.000	0.015	-0.005	0.410	1.763	1.089	1.089	1.089	1.108	1.108	1.099
-0.010	0.010	0.000	-0.005	0.010	0.000	0.410	1.787	1.094	1.094	1.089	1.104	1.104	1.108
-0.005	0.005	0.000	-0.005	-0.005	-0.010	0.405	1.768	1.099	1.094	1.094	1.108	1.099	1.099
-0.010	0.000	0.000	0.000	0.000	0.000	0.415	1.763	1.094	1.094	1.089	1.108	1.104	1.108
-0.020	0.000	0.005	0.000	-0.005	0.000	0.415	1.763	1.094	1.094	1.094	1.113	1.104	1.108
-0.020	0.005	0.000	0.000	0.000	0.000	0.410	1.787	1.099	1.094	1.094	1.113	1.108	1.108
-0.015	0.015	0.000	0.000	0.000	0.005	0.405	1.792	1.108	1.099	1.094	1.113	1.108	1.108
0.000	0.010	0.005	0.000	-0.010	0.005	0.405	1.777	1.108	1.104	1.094	1.113	1.108	1.104
0.000	-0.005	0.005	-0.005	0.000	-0.005	0.405	1.772	1.104	1.104	1.099	1.113	1.108	1.108
0.005	0.000	-0.005	0.000	0.005	-0.034	0.405	1.782	1.104	1.104	1.099	1.113	1.108	1.099
0.005	0.000	0.000	-0.005	0.005	0.005	0.405	1.792	1.108	1.104	1.099	1.113	1.113	1.113
0.015	-0.005	-0.005	-0.005	0.015	-0.015	0.405	1.812	1.108	1.104	1.099	1.113	1.113	1.108
0.029	-0.005	-0.005	0.000	0.020	0.005	0.405	1.719	1.104	1.104	1.094	1.113	1.113	1.113
0.039	-0.005	0.000	0.000	0.015	0.000	0.415	1.719	1.099	1.104	1.099	1.113	1.108	1.104
0.024	0.000	0.000	0.000	0.010	0.000	0.410	1.782	1.094	1.099	1.094	1.113	1.108	1.108
0.020	-0.010	-0.005	0.000	0.010	-0.034	0.410	1.812	1.099	1.094	1.094	1.113	1.108	1.099
0.020	0.000	0.000	0.000	0.000	0.005	0.415	1.777	1.099	1.099	1.094	1.108	1.108	1.108
0.015	-0.005	-0.005	0.000	-0.010	0.000	0.410	1.738	1.094	1.099	1.094	1.108	1.104	1.104
0.005	0.010	0.000	0.010	-0.044	0.015	0.415	1.787	1.094	1.094	1.099	1.113	1.094	1.108
-0.005	0.005	0.000	0.005	-0.068	0.010	0.410	1.792	1.104	1.099	1.099	1.113	1.094	1.099
-0.010	-0.005	0.005	0.005	-0.049	0.015	0.420	1.772	1.104	1.099	1.099	1.113	1.108	1.104
-0.029	0.000	0.000	0.000	-0.015	-0.005	0.410	1.748	1.089	1.099	1.099	1.118	1.118	1.104
-0.024	0.000	-0.005	-0.005	-0.010	0.010	0.415	1.802	1.094	1.099	1.099	1.118	1.113	1.113
-0.039	-0.005	0.005	0.000	-0.024	0.000	0.415	1.792	1.104	1.094	1.099	1.118	1.113	1.108
-0.020	-0.015	0.000	-0.005	-0.010	0.000	0.420	1.758	1.108	1.099	1.094	1.118	1.118	1.113
0.000	-0.005	-0.005	-0.005	0.010	-0.005	0.410	1.768	1.113	1.104	1.094	1.113	1.118	1.108
0.000	0.005	0.000	-0.005	0.029	-0.005	0.415	1.802	1.113	1.108	1.099	1.113	1.123	1.113
0.000	0.005	0.005	-0.005	0.024	-0.010	0.410	1.797	1.118	1.108	1.104	1.118	1.118	1.113
0.005	0.000	0.000	0.000	0.010	-0.015	0.405	1.797	1.113	1.108	1.104	1.118	1.108	1.108
0.010	-0.005	0.000	0.000	-0.005	-0.015	0.405	1.772	1.104	1.108	1.104	1.113	1.108	1.113
0.000	-0.005	0.000	-0.005	-0.005	-0.005	0.405	1.797	1.104	1.104	1.099	1.118	1.108	1.113
0.000	-0.010	0.000	-0.005	0.000	0.034	0.410	1.772	1.108	1.099	1.099	1.118	1.113	1.123
0.000	-0.015	0.000	0.000	-0.005	0.029	0.405	1.743	1.099	1.099	1.094	1.113	1.113	1.113
0.005	0.000	0.000	0.005	0.015	0.020	0.410	1.797	1.104	1.104	1.099	1.118	1.113	1.113
0.000	0.005	-0.005	0.005	0.015	0.010	0.415	1.792	1.104	1.104	1.099	1.118	1.113	1.113
-0.010	0.005	-0.005	0.000	0.005	0.015	0.410	1.763	1.099	1.104	1.099	1.118	1.113	1.108
-0.005	-0.005	0.000	0.000	0.005	0.005	0.410	1.777	1.099	1.099	1.099	1.118	1.113	1.108
0.000	-0.005	-0.005	0.005	-0.005	0.005	0.410	1.797	1.094	1.099	1.104	1.118	1.108	1.108
0.000	-0.010	-0.005	0.000	0.000	0.000	0.410	1.763	1.108	1.104	1.099	1.123	1.118	1.113
0.005	0.010	-0.005	-0.005	0.010	0.005	0.410	1.782	1.113	1.108	1.104	1.123	1.118	1.113
0.005	0.020	0.000	-0.005	-0.005	0.000	0.410	1.753	1.099	1.108	1.108	1.123	1.113	1.113
0.000	0.000	-0.005	-0.010	-0.005	-0.029	0.415	1.787	1.099	1.104	1.104	1.118	1.113	1.104
0.000	-0.010	0.005	0.000	-0.020	-0.005	0.410	1.763	1.099	1.104	1.108	1.123	1.113	1.113
0.000	0.000	-0.005	0.010	-0.015	-0.010	0.415	1.763	1.094	1.099	1.104	1.128	1.113	1.113
0.005	0.000	0.000	0.015	-0.015	0.010	0.405	1.802	1.104	1.099	1.099	1.128	1.118	1.113
-0.010	0.000	-0.005	0.010	0.010	-0.010	0.410	1.758	1.099	1.099	1.099	1.123	1.123	1.113
-0.020	-0.005	-0.010	0.010	0.029	-0.005	0.405	1.782	1.094	1.089	1.094	1.118	1.123	1.118
-0.024	-0.005	-0.005	0.000	0.049	0.000	0.405	1.807	1.104	1.094	1.094	1.113	1.123	1.118
-0.020	-0.010	0.005	-0.005	0.024	-0.005	0.405	1.792	1.104	1.094	1.094	1.108	1.113	1.118
-0.020	-0.005	-0.005	-0.005	0.015	-0.010	0.405	1.768	1.104	1.099	1.094	1.108	1.108	1.113
-0.010	-0.005	0.000	-0.010	0.015	0.020	0.405	1.787	1.104	1.099	1.094	1.108	1.108	1.118
-0.010	-0.005	0.000	-0.005	0.020	0.010	0.410	1.782	1.108	1.104	1.099	1.113	1.108	1.108
0.000	-0.005	0.005	-0.010	0.059	0.005	0.405	1.777	1.108	1.108	1.099	1.113	1.123	1.118
0.015	0.000	0.000	-0.005	0.029	0.010	0.405	1.758	1.113	1.108	1.104	1.113	1.108	1.113
0.015	0.010	-0.005	-0.005	-0.024	0.000	0.400	1.792	1.118	1.113	1.104	1.118	1.094	1.104
0.024	0.000	0.000	0.000	-0.054	0.005	0.405	1.812	1.118	1.113	1.108	1.118	1.094	1.104
0.024	-0.020	0.000	0.000	-0.132	0.000	0.405	1.782	1.113	1.108	1.108	1.118	1.079	1.094
0.020	-0.015	-0.005	0.000	-0.132	-0.039	0.405	1.748	1.108	1.108	1.108	1.123	1.094	1.084
0.029	-0.005	0.005	0.000	-0.024	0.005	0.415	1.797	1.108	1.108	1.108	1.128	1.133	1.108
0.020	-0.010	-0.005	0.000	0.039	0.000	0.410	1.792	1.104	1.104	1.108	1.128	1.143	1.118
0.015	-0.010	0.000	0.000	0.015	-0.005	0.410	1.753	1.099	1.104	1.104	1.128	1.133	1.118
-0.005	-0.010	-0.005	0.000	0.015	-0.005	0.410	1.733	1.094	1.099	1.104	1.123	1.128	1.118
-0.015	0.005	0.000	0.000	0.010	-0.010	0.415	1.777	1.089	1.099	1.104	1.123	1.118	1.118
-0.024	0.015	0.000	0.000	0.015	-0.015	0.405	1.792	1.094	1.099	1.099	1.123	1.123	1.113
-0.005	0.005	0.000	0.000	0.010	0.010	0.410	1.792	1.104	1.094	1.099	1.118	1.118	1.123
-0.010	0.000	0.000	0.010	0.005	-0.005	0.410	1.738	1.099	1.094	1.094	1.118	1.113	1.113
-0.015	-0.005	-0.005	0.005	0.010	0.000	0.410	1.777	1.099	1.094	1.099	1.113	1.118	1.118
-0.010	-0.005	0.000	0.000	0.000	0.005	0.405	1.782	1.104	1.094	1.094	1.113	1.108	1.113
0.005	0.005	-0.005	0.000	0.005	-0.005	0.415	1.748	1.108	1.104	1.099	1.113	1.108	1.113
-0.010	0.005	-0.005	0.000	0.010	0.010	0.405	1.797	1.104	1.099	1.099	1.113	1.113	1.118
-0.010	-0.005	-0.005	-0.005	0.000	0.015	0.415	1.836	1.113	1.104	1.099	1.118	1.108	1.118
-0.010	0.010	0.000	0.000	0.005	0.015	0.415	1.792	1.143	1.113	1.099	1.118	1.113	1.113
0.005	0.000	0.005	0.000	0.000	0.010	0.410	1.782	1.138	1.123	1.108	1.123	1.113	1.108
-0.005	0.010	0.000	0.005	0.000	0.010	0.410	1.787	1.123	1.123	1.113	1.128	1.118	1.113
0.000	-0.005	0.000	0.005	-0.010	0.015	0.405	1.753	1.113	1.118	1.113	1.123	1.113	1.113
-0.005	0.005	0.000	0.000	-0.024	0.000	0.405	1.743	1.108	1.123	1.118	1.133	1.113	1.108
-0.005	0.010	0.000	-0.005	-0.024	-0.015	0.410	1.772	1.108	1.118	1.113	1.128	1.118	1.108
0.005	0.005	0.005	0.005	-0.015	-0.024	0.415	1.753	1.108	1.108	1.113	1.133	1.123	1.108
0.000	-0.005	0.000	-0.005	-0.005	0.005	0.405	1.763	1.099	1.104	1.108	1.133	1.128	1.123
0.000	-0.015	-0.005	-0.005	0.015	-0.010	0.400	1.758	1.099	1.099	1.104	1.128	1.128	1.118
0.000	0.005	0.000	0.000	0.020	0.020	0.405	1.777	1.099	1.104	1.104	1.128	1.128	1.128
0.000	-0.010	0.005	0.000	0.029	0.015	0.415	1.807	1.108	1.099	1.104	1.123	1.128	1.123
0.010	0.000	0.000	0.000	0.059	0.010	0.405	1.797	1.108	1.099	1.099	1.118	1.133	1.128
0.010	0.000	0.000	-0.005	0.029	0.015	0.410	1.812	1.108	1.104	1.104	1.118	1.118	1.123
-0.005	-0.005	0.000	-0.005	-0.005	0.024	0.405	1.792	1.104	1.104	1.104	1.118	1.108	1.123
-0.005	0.000	-0.005	0.000	-0.024	0.005	0.415	1.807	1.108	1.104	1.099	1.118	1.104	1.113
-0.010	0.005	-0.005	0.000	-0.020	-0.010	0.410	1.768	1.104	1.108	1.108	1.118	1.108	1.108
0.000	-0.010	0.005	0.005	0.015	-0.020	0.405	1.797	1.108	1.104	1.108	1.123	1.123	1.108
-0.010	-0.010	0.000	0.000	0.020	-0.010	0.410	1.763	1.108	1.104	1.108	1.128	1.128	1.118
-0.010	0.015	0.000	-0.005	0.005	-0.044	0.415	1.812	1.113	1.113	1.108	1.128	1.123	1.108
-0.010	0.005	0.000	-0.005	0.015	-0.010	0.400	1.792	1.113	1.108	1.108	1.128	1.123	1.123
0.000	-0.005	0.005	0.000	0.000	-0.020	0.410	1.797	1.113	1.108	1.108	1.128	1.118	1.118
-0.010	0.000	0.005	0.000	-0.024	-0.010	0.410	1.768	1.108	1.113	1.108	1.128	1.113	1.118
-0.005	-0.005	0.000	0.000	-0.024	-0.015	0.405	1.719	1.099	1.108	1.108	1.128	1.118	1.118
-0.015	0.005	0.005	0.000	-0.015	-0.020	0.410	1.777	1.099	1.108	1.108	1.128	1.118	1.113
0.000	-0.005	0.000	0.005	-0.015	-0.010	0.410	1.719	1.099	1.104	1.104	1.128	1.123	1.118
0.000	-0.015	-0.005	0.000	0.020	0.010	0.405	1.787	1.104	1.094	1.099	1.123	1.128	1.128
0.005	-0.005	0.000	-0.005	0.029	0.020	0.410	1.797	1.108	1.099	1.099	1.118	1.128	1.128
-0.005	0.010	0.000	0.000	0.000	0.015	0.415	1.792	1.108	1.104	1.104	1.118	1.113	1.123
-0.005	0.000	-0.005	0.000	-0.015	-0.005	0.415	1.782	1.104	1.099	1.099	1.118	1.108	1.113
-0.005	0.010	0.000	0.000	-0.010	0.015	0.415	1.748	1.104	1.104	1.099	1.118	1.108	1.113
0.000	0.015	0.000	0.000	-0.005	0.010	0.415	1.748	1.104	1.104	1.104	1.118	1.113	1.118
0.000	0.005	0.010	0.000	-0.010	0.000	0.415	1.782	1.104	1.104	1.104	1.118	1.113	1.113
0.005	0.005	0.000	0.000	0.005	-0.010	0.415	1.787	1.108	1.099	1.099	1.123	1.118	1.113
0.010	-0.005	-0.005	0.000	0.000	0.005	0.420	1.787	1.113	1.104	1.099	1.118	1.118	1.113
0.005	0.000	0.005	0.005	-0.010	-0.029	0.405	1.763	1.108	1.104	1.104	1.123	1.113	1.108
0.024	0.000	-0.005	0.000	-0.010	0.005	0.410	1.782	1.118	1.108	1.104	1.123	1.118	1.118
0.005	0.000	0.000	0.000	-0.015	0.000	0.410	1.724	1.104	1.108	1.104	1.123	1.118	1.118
0.000	-0.010	0.000	0.000	-0.015	0.000	0.415	1.768	1.099	1.104	1.104	1.123	1.118	1.118
-0.010	-0.005	0.000	-0.005	-0.015	-0.020	0.405	1.787	1.099	1.099	1.104	1.123	1.118	1.108
-0.005	-0.010	0.000	0.000	-0.010	-0.005	0.410	1.772	1.104	1.099	1.099	1.123	1.118	1.113
-0.015	-0.005	-0.005	0.005	-0.005	-0.020	0.405	1.709	1.094	1.104	1.099	1.123	1.123	1.113
-0.010	-0.005	0.000	0.000	0.005	0.020	0.415	1.772	1.104	1.099	1.099	1.118	1.123	1.128
-0.010	0.005	-0.005	0.000	0.000	0.005	0.405	1.748	1.099	1.099	1.094	1.118	1.118	1.118
0.000	0.000	0.000	0.000	0.005	-0.005	0.415	1.733	1.099	1.094	1.094	1.113	1.113	1.113
-0.010	0.005	0.005	0.000	0.010	0.000	0.400	1.797	1.099	1.099	1.099	1.118	1.113	1.113
0.000	0.005	0.000	0.005	0.000	-0.005	0.410	1.797	1.108	1.099	1.094	1.113	1.113	1.113
0.020	0.000	-0.005	0.000	-0.005	-0.024	0.405	1.782	1.108	1.094	1.099	1.118	1.108	1.113
0.034	0.000	0.000	0.000	0.005	-0.015	0.410	1.758	1.099	1.099	1.099	1.118	1.113	1.108
0.024	0.005	0.000	0.005	0.015	0.010	0.400	1.772	1.099	1.094	1.099	1.118	1.113	1.123
0.020	-0.005	-0.005	0.005	0.010	0.029	0.420	1.772	1.104	1.099	1.099	1.118	1.118	1.123
0.020	-0.005	0.000	0.005	0.010	0.015	0.405	1.768	1.104	1.099	1.104	1.118	1.113	1.118
0.020	0.010	-0.005	-0.005	0.015	0.015	0.405	1.777	1.108	1.104	1.099	1.118	1.113	1.113
-0.005	0.000	0.005	-0.005	0.010	-0.020	0.410	1.787	1.104	1.104	1.104	1.118	1.113	1.108
-0.005	0.010	0.005	0.000	0.010	0.005	0.405	1.792	1.113	1.108	1.108	1.123	1.113	1.118
0.000	-0.005	-0.005	-0.005	0.005	-0.005	0.405	1.743	1.108	1.108	1.104	1.123	1.118	1.118
-0.020	-0.015	-0.005	-0.005	0.005	0.015	0.410	1.777	1.099	1.094	1.099	1.118	1.118	1.118
-0.020	-0.005	0.000	-0.010	-0.005	0.010	0.410	1.807	1.108	1.099	1.099	1.118	1.108	1.113
-0.015	-0.010	0.000	0.000	-0.020	0.005	0.415	1.724	1.104	1.099	1.099	1.118	1.108	1.113
-0.034	0.005	0.000	-0.005	-0.020	0.005	0.415	1.782	1.104	1.104	1.099	1.118	1.108	1.108
-0.020	-0.005	0.000	0.000	-0.005	0.000	0.415	1.782	1.104	1.099	1.099	1.113	1.113	1.108
-0.024	-0.010	0.000	0.000	-0.020	0.000	0.410	1.748	1.094	1.094	1.094	1.113	1.108	1.108
-0.020	-0.010	0.000	0.005	-0.029	0.000	0.400	1.782	1.099	1.094	1.099	1.113	1.104	1.104
-0.010	0.000	0.000	0.005	-0.034	-0.005	0.410	1.787	1.108	1.099	1.099	1.113	1.104	1.099
-0.005	0.005	0.000	0.000	-0.005	-0.010	0.410	1.797	1.108	1.104	1.099	1.118	1.113	1.104
0.005	0.000	0.000	0.010	0.015	0.005	0.405	1.787	1.108	1.104	1.099	1.118	1.123	1.113
0.005	0.010	-0.005	0.010	0.015	0.010	0.400	1.787	1.113	1.108	1.104	1.123	1.123	1.118
0.020	0.010	0.000	0.005	0.044	-0.020	0.410	1.777	1.118	1.113	1.104	1.123	1.128	1.108
0.020	0.000	0.005	0.000	0.029	0.005	0.410	1.777	1.113	1.113	1.108	1.123	1.123	1.123
0.020	0.005	-0.005	0.000	-0.005	0.005	0.410	1.787	1.113	1.113	1.108	1.118	1.108	1.123
0.015	-0.005	0.005	-0.005	-0.005	0.000	0.410	1.807	1.113	1.108	1.108	1.123	1.113	1.118
0.020	-0.005	0.005	-0.005	-0.024	0.005	0.405	1.738	1.113	1.113	1.108	1.123	1.113	1.113
0.000	-0.005	0.000	0.000	-0.044	0.000	0.410	1.748	1.099	1.108	1.108	1.123	1.108	1.108
0.000	0.015	0.000	0.000	-0.044	-0.005	0.415	1.782	1.099	1.108	1.108	1.128	1.108	1.108
-0.010	0.005	0.000	0.005	-0.034	-0.010	0.410	1.802	1.099	1.104	1.104	1.123	1.113	1.108
-0.010	0.000	0.000	0.005	0.005	0.020	0.405	1.787	1.099	1.099	1.104	1.123	1.128	1.123
-0.024	-0.005	0.000	0.000	0.054	0.020	0.410	1.797	1.099	1.099	1.104	1.123	1.138	1.128
-0.010	-0.005	0.000	0.000	0.044	0.005	0.410	1.743	1.104	1.094	1.099	1.123	1.128	1.123
-0.039	-0.005	-0.005	0.000	0.029	0.010	0.405	1.704	1.089	1.089	1.094	1.118	1.118	1.123
-0.020	0.005	-0.010	-0.005	0.000	0.010	0.405	1.777	1.094	1.094	1.094	1.113	1.108	1.113
-0.010	0.005	0.000	-0.005	-0.005	0.010	0.410	1.846	1.104	1.099	1.094	1.113	1.108	1.113
-0.015	0.000	-0.005	-0.010	0.020	0.010	0.410	1.797	1.104	1.094	1.094	1.113	1.113	1.113
0.015	-0.005	0.000	-0.010	-0.010	-0.029	0.405	1.758	1.113	1.099	1.094	1.108	1.099	1.099
0.024	0.000	0.000	-0.005	-0.078	-0.010	0.405	1.758	1.113	1.108	1.099	1.113	1.089	1.099
0.020	0.000	0.000	0.005	-0.034	-0.005	0.415	1.797	1.113	1.108	1.104	1.123	1.113	1.104
0.015	0.005	0.000	0.005	0.000	0.000	0.410	1.802	1.118	1.113	1.108	1.123	1.123	1.108
0.029	0.000	0.010	0.015	0.029	0.000	0.415	1.792	1.113	1.113	1.108	1.128	1.133	1.113
0.024	0.000	0.000	0.010	0.049	-0.005	0.410	1.753	1.099	1.113	1.108	1.128	1.133	1.118
0.020	0.000	0.000	0.010	0.044	-0.005	0.405	1.777	1.099	1.104	1.108	1.128	1.128	1.118
0.005	0.000	0.000	0.005	0.039	-0.005	0.405	1.768	1.099	1.099	1.108	1.128	1.128	1.128
0.010	0.000	0.005	0.000	0.039	0.005	0.405	1.802	1.104	1.099	1.104	1.123	1.123	1.123
0.010	-0.005	0.000	-0.005	0.020	0.005	0.410	1.787	1.104	1.099	1.104	1.118	1.113	1.118
0.010	-0.015	-0.005	-0.005	0.005	0.005	0.420	1.797	1.104	1.094	1.099	1.118	1.113	1.118
-0.010	-0.024	0.000	-0.020	0.000	0.000	0.405	1.787	1.099	1.094	1.094	1.108	1.108	1.113
-0.029	0.005	-0.005	-0.015	-0.010	0.005	0.415	1.782	1.099	1.099	1.094	1.108	1.104	1.108
-0.024	0.020	-0.005	-0.005	-0.010	-0.015	0.400	1.753	1.094	1.104	1.099	1.113	1.104	1.099
-0.020	0.010	0.000	-0.005	-0.015	0.000	0.415	1.797	1.099	1.099	1.099	1.113	1.104	1.108
-0.020	0.005	0.000	-0.005	-0.015	0.000	0.405	1.802	1.104	1.094	1.099	1.113	1.108	1.104
-0.015	-0.005	-0.005	0.000	-0.010	-0.015	0.415	1.714	1.099	1.094	1.099	1.118	1.108	1.108
-0.015	-0.010	0.000	0.000	-0.005	-0.005	0.415	1.777	1.104	1.094	1.099	1.118	1.113	1.108
-0.010	-0.005	-0.005	-0.005	-0.005	0.000	0.400	1.777	1.104	1.099	1.099	1.118	1.113	1.108
-0.015	-0.005	-0.005	0.000	-0.010	0.000	0.400	1.738	1.104	1.104	1.099	1.113	1.108	1.108
-0.010	0.005	0.000	0.000	-0.015	0.005	0.415	1.763	1.099	1.104	1.104	1.118	1.113	1.113
-0.020	0.000	0.000	0.000	-0.034	0.005	0.415	1.797	1.108	1.104	1.104	1.118	1.108	1.113
0.000	0.000	0.000	0.005	-0.039	0.005	0.405	1.792	1.118	1.108	1.108	1.123	1.108	1.113
-0.005	0.000	0.000	-0.005	-0.049	0.000	0.410	1.777	1.118	1.108	1.104	1.123	1.108	1.104
0.010	-0.005	0.000	0.005	-0.049	0.000	0.400	1.733	1.113	1.108	1.104	1.123	1.113	1.108
0.010	-0.005	0.000	0.000	-0.039	-0.005	0.405	1.772	1.108	1.108	1.108	1.123	1.118	1.113
0.015	-0.005	0.000	-0.005	-0.029	0.024	0.405	1.792	1.108	1.104	1.104	1.123	1.118	1.118
0.015	-0.010	0.000	0.000	-0.015	0.015	0.415	1.792	1.104	1.104	1.104	1.123	1.118	1.113
0.015	-0.015	0.000	0.000	-0.024	0.015	0.405	1.807	1.113	1.104	1.099	1.118	1.113	1.113
0.010	-0.020	0.000	0.005	-0.005	0.000	0.410	1.768	1.104	1.099	1.099	1.118	1.123	1.113
0.005	-0.005	-0.005	0.000	0.044	-0.020	0.410	1.782	1.104	1.104	1.099	1.118	1.133	1.113
0.005	-0.005	-0.005	-0.005	0.083	-0.005	0.410	1.787	1.104	1.104	1.099	1.123	1.138	1.123
0.005	-0.005	0.000	0.000	0.107	-0.015	0.410	1.782	1.104	1.104	1.104	1.123	1.138	1.123
0.005	-0.005	0.000	0.000	0.073	-0.020	0.415	1.763	1.104	1.104	1.104	1.123	1.123	1.123
-0.020	0.015	0.000	0.000	0.063	-0.015	0.415	1.787	1.108	1.108	1.104	1.123	1.118	1.123
-0.015	0.020	0.000	-0.005	0.068	-0.020	0.415	1.802	1.108	1.108	1.108	1.128	1.118	1.123
-0.010	0.015	-0.005	0.000	0.034	-0.034	0.410	1.758	1.104	1.104	1.104	1.123	1.108	1.113
0.000	-0.005	-0.005	0.000	-0.005	-0.010	0.410	1.768	1.108	1.108	1.104	1.123	1.108	1.118
0.000	-0.005	0.000	0.000	-0.024	-0.010	0.410	1.768	1.108	1.108	1.104	1.123	1.104	1.113
-0.010	-0.010	0.000	0.000	-0.020	-0.005	0.400	1.748	1.104	1.104	1.108	1.123	1.108	1.113
-0.020	0.000	0.005	0.000	-0.015	0.000	0.405	1.772	1.099	1.104	1.104	1.123	1.113	1.113
-0.015	-0.005	0.000	0.005	-0.015	-0.010	0.405	1.758	1.099	1.104	1.104	1.123	1.113	1.113
-0.020	-0.005	0.000	0.000	-0.010	0.015	0.415	1.802	1.104	1.099	1.104	1.123	1.118	1.123
0.000	0.000	-0.005	0.000	-0.015	0.020	0.405	1.782	1.113	1.104	1.099	1.123	1.118	1.118
0.005	0.005	-0.005	0.005	-0.020	0.029	0.410	1.782	1.108	1.104	1.099	1.123	1.113	1.118
0.024	0.005	0.000	-0.005	-0.024	0.005	0.410	1.758	1.108	1.104	1.104	1.118	1.108	1.108
0.034	-0.015	-0.005	-0.005	-0.029	0.010	0.410	1.768	1.108	1.099	1.104	1.113	1.108	1.108
0.039	-0.020	-0.005	-0.005	-0.039	0.024	0.410	1.772	1.113	1.104	1.099	1.113	1.104	1.113
0.039	-0.010	0.000	-0.005	-0.044	0.010	0.410	1.743	1.104	1.104	1.099	1.113	1.104	1.104
0.049	0.000	-0.005	-0.005	-0.034	-0.010	0.405	1.758	1.104	1.104	1.099	1.118	1.108	1.104
0.029	0.005	0.000	-0.005	-0.020	0.000	0.410	1.777	1.104	1.104	1.104	1.123	1.113	1.108
0.015	0.005	-0.005	0.000	-0.005	0.000	0.410	1.792	1.104	1.104	1.104	1.123	1.118	1.113
0.000	0.000	0.005	0.005	0.005	-0.029	0.415	1.768	1.099	1.104	1.104	1.123	1.123	1.108
-0.005	-0.005	0.000	-0.005	0.010	-0.015	0.410	1.777	1.094	1.099	1.104	1.123	1.123	1.118
-0.015	0.000	-0.005	-0.005	-0.010	-0.005	0.410	1.807	1.099	1.099	1.104	1.123	1.118	1.123
-0.020	0.005	-0.005	-0.005	0.000	0.010	0.410	1.807	1.104	1.104	1.099	1.123	1.123	1.123
-0.024	-0.005	0.000	0.000	-0.005	0.010	0.415	1.763	1.104	1.104	1.104	1.123	1.123	1.123
-0.034	-0.015	-0.005	0.005	0.000	0.005	0.410	1.738	1.099	1.094	1.104	1.123	1.118	1.123
-0.034	-0.005	-0.005	0.005	-0.005	0.005	0.405	1.782	1.104	1.099	1.099	1.123	1.118	1.118
-0.029	0.000	-0.005	0.005	-0.015	0.005	0.405	1.802	1.108	1.104	1.099	1.118	1.113	1.118
-0.029	0.000	0.000	0.005	0.000	0.005	0.405	1.782	1.113	1.104	1.099	1.118	1.118	1.113
-0.044	-0.010	0.000	0.000	-0.005	0.000	0.405	1.763	1.099	1.099	1.094	1.118	1.113	1.113
-0.044	0.005	0.005	0.000	-0.010	0.000	0.410	1.733	1.094	1.099	1.094	1.113	1.113	1.113
-0.029	0.005	0.005	0.000	0.010	-0.005	0.415	1.768	1.099	1.099	1.099	1.113	1.113	1.113
-0.024	0.000	0.000	-0.005	0.015	-0.015	0.405	1.758	1.099	1.099	1.099	1.118	1.113	1.108
-0.015	0.000	0.000	0.000	0.024	-0.005	0.405	1.763	1.108	1.099	1.094	1.113	1.118	1.113
0.000	0.005	0.000	-0.005	0.054	0.000	0.405	1.802	1.118	1.104	1.099	1.118	1.123	1.118
0.015	-0.005	0.000	-0.005	0.024	0.000	0.405	1.787	1.118	1.104	1.104	1.118	1.113	1.118
0.020	0.000	-0.005	0.000	0.024	-0.024	0.415	1.758	1.113	1.113	1.104	1.118	1.113	1.108
0.024	-0.005	-0.005	0.000	0.005	-0.005	0.420	1.792	1.118	1.113	1.104	1.123	1.108	1.113
0.029	-0.015	-0.005	-0.005	-0.020	-0.005	0.415	1.797	1.118	1.113	1.108	1.123	1.104	1.113
0.020	-0.010	-0.005	-0.005	0.000	-0.010	0.415	1.743	1.108	1.113	1.108	1.123	1.113	1.113
0.034	-0.010	-0.005	0.000	0.049	0.000	0.405	1.777	1.108	1.108	1.108	1.123	1.133	1.123
0.024	0.005	-0.005	-0.005	0.049	-0.005	0.410	1.792	1.113	1.113	1.113	1.128	1.128	1.118
0.020	0.000	0.000	0.005	0.010	0.010	0.415	1.792	1.113	1.108	1.113	1.128	1.113	1.118
0.029	-0.005	0.005	0.000	-0.015	0.000	0.410	1.802	1.118	1.108	1.113	1.133	1.113	1.118
0.020	0.000	0.000	-0.005	-0.010	0.020	0.405	1.797	1.108	1.108	1.108	1.128	1.118	1.123
0.005	-0.005	0.000	-0.005	-0.020	0.024	0.410	1.782	1.104	1.104	1.108	1.123	1.113	1.118
-0.010	0.000	0.005	0.000	-0.010	0.020	0.405	1.802	1.094	1.099	1.104	1.123	1.113	1.113
-0.020	0.020	0.005	0.000	-0.020	0.015	0.410	1.768	1.128	1.108	1.104	1.123	1.113	1.108
-0.024	0.010	0.000	0.000	-0.015	0.000	0.405	1.802	1.118	1.108	1.104	1.118	1.118	1.108
-0.029	0.010	0.000	0.000	-0.020	-0.024	0.405	1.748	1.108	1.104	1.104	1.123	1.118	1.108
-0.020	0.005	-0.005	0.000	-0.015	-0.015	0.410	1.748	1.108	1.108	1.104	1.123	1.113	1.108
-0.034	0.015	-0.005	0.000	-0.020	-0.005	0.405	1.782	1.104	1.104	1.108	1.123	1.113	1.118
-0.029	-0.010	-0.005	0.000	-0.020	0.005	0.405	1.807	1.113	1.104	1.104	1.123	1.118	1.118
-0.005	0.000	-0.005	-0.005	-0.010	0.005	0.405	1.772	1.108	1.108	1.108	1.123	1.123	1.118
-0.010	-0.005	-0.005	0.000	0.000	-0.005	0.415	1.792	1.060	1.099	1.104	1.123	1.123	1.123
-0.010	-0.010	-0.005	0.000	0.005	-0.010	0.405	1.758	1.074	1.089	1.104	1.123	1.128	1.123
0.010	0.000	-0.005	0.010	0.010	-0.010	0.415	1.782	1.094	1.094	1.099	1.123	1.123	1.118
0.020	0.000	0.000	0.005	0.005	-0.020	0.410	1.787	1.094	1.094	1.099	1.123	1.123	1.118
0.015	0.010	-0.005	0.000	0.015	-0.005	0.415	1.724	1.094	1.094	1.099	1.118	1.123	1.123
0.005	0.005	-0.005	0.005	0.010	0.000	0.415	1.797	1.104	1.099	1.094	1.118	1.123	1.128
-0.015	0.005	0.000	0.000	0.000	0.000	0.415	1.768	1.094	1.094	1.094	1.118	1.118	1.123
-0.010	0.000	0.010	0.005	0.000	-0.020	0.405	1.738	1.089	1.094	1.094	1.113	1.113	1.108
-0.020	0.000	0.000	0.010	0.000	0.015	0.410	1.724	1.089	1.089	1.094	1.113	1.113	1.118
-0.024	-0.005	-0.005	0.000	0.000	0.005	0.400	1.763	1.094	1.089	1.089	1.108	1.108	1.113
-0.024	0.000	-0.005	0.000	0.000	-0.029	0.410	1.768	1.094	1.089	1.089	1.108	1.104	1.099
-0.010	0.000	-0.005	0.000	-0.005	-0.010	0.405	1.768	1.094	1.089	1.084	1.104	1.104	1.108
0.005	-0.005	-0.005	0.000	0.000	-0.010	0.415	1.772	1.099	1.089	1.089	1.104	1.104	1.104
0.015	-0.005	-0.005	0.005	-0.005	0.000	0.415	1.777	1.104	1.094	1.089	1.104	1.104	1.108
0.000	0.000	-0.005	0.000	0.000	0.000	0.415	1.782	1.104	1.099	1.094	1.108	1.104	1.108
0.005	0.000	0.000	-0.005	-0.005	0.000	0.400	1.797	1.108	1.104	1.099	1.108	1.104	1.104
0.005	-0.005	0.005	-0.005	0.000	0.010	0.405	1.743	1.104	1.104	1.099	1.108	1.108	1.108
0.010	0.000	0.005	-0.005	-0.010	0.015	0.405	1.768	1.104	1.104	1.099	1.113	1.104	1.108
0.005	-0.005	0.000	0.000	-0.015	-0.029	0.400	1.782	1.108	1.104	1.104	1.118	1.104	1.099
0.000	0.000	0.000	0.000	-0.010	0.005	0.400	1.782	1.108	1.104	1.104	1.118	1.108	1.108
0.005	-0.005	0.000	0.000	-0.020	0.024	0.405	1.787	1.108	1.104	1.104	1.118	1.108	1.113
0.015	-0.005	0.000	-0.005	-0.029	0.010	0.410	1.753	1.108	1.104	1.104	1.118	1.108	1.104
