0.000	-0.005	0.005	0.005	0.000	0.010	0.386	2.705	2.261	2.031	1.973	1.924	1.924	1.929
0.000	0.010	0.005	0.005	0.005	-0.015	0.386	2.715	2.173	2.075	2.002	1.948	1.929	1.919
-0.005	0.000	0.000	0.000	0.000	0.005	0.386	2.700	2.104	2.085	2.021	1.973	1.943	1.929
0.010	0.010	0.000	0.005	0.005	-0.020	0.386	2.686	2.061	2.080	2.036	1.997	1.948	1.924
-0.005	0.005	-0.005	0.000	0.000	-0.015	0.386	2.690	2.021	2.061	2.046	2.017	1.968	1.943
-0.005	0.015	0.000	0.000	0.005	-0.010	0.386	2.700	2.007	2.046	2.046	2.026	1.982	1.948
-0.010	0.000	0.000	0.005	0.010	0.010	0.391	2.705	1.982	2.026	2.046	2.036	1.997	1.973
0.000	0.005	0.000	0.005	0.000	0.010	0.386	2.686	1.968	2.007	2.031	2.036	2.002	1.978
-0.005	0.000	-0.005	0.010	0.005	0.015	0.391	2.798	1.968	1.997	2.017	2.036	2.012	1.987
-0.005	0.015	0.000	0.005	0.005	0.015	0.381	2.637	1.953	1.987	2.012	2.036	2.017	1.997
-0.005	0.020	-0.005	0.005	0.005	0.000	0.386	2.666	1.943	1.978	1.997	2.031	2.021	1.992
0.000	0.010	-0.005	0.005	0.000	-0.005	0.381	2.676	1.938	1.963	1.992	2.026	2.021	2.002
-0.005	0.005	-0.005	0.005	0.000	-0.005	0.391	2.651	1.953	1.958	1.978	2.017	2.017	2.002
0.015	0.000	0.000	0.000	-0.005	-0.020	0.386	2.637	1.948	1.958	1.973	2.012	2.017	2.007
0.005	0.000	0.005	0.000	-0.005	0.010	0.381	2.700	1.948	1.953	1.968	2.002	2.012	2.012
0.005	-0.005	0.000	0.000	-0.005	0.010	0.386	2.739	1.958	1.958	1.963	2.002	2.012	2.012
0.010	0.000	0.000	0.000	0.005	0.010	0.391	2.651	1.953	1.958	1.963	1.997	2.007	2.017
0.015	0.000	0.005	0.005	0.005	0.010	0.386	2.725	1.958	1.958	1.963	1.992	2.002	2.012
0.010	-0.005	0.005	0.005	0.005	0.010	0.381	2.749	1.953	1.953	1.958	1.992	1.997	2.007
-0.005	-0.005	0.000	0.000	0.000	-0.015	0.381	2.729	1.953	1.953	1.958	1.987	1.992	1.997
0.005	-0.005	0.005	0.005	0.005	0.010	0.391	2.642	1.948	1.953	1.953	1.982	1.992	2.002
0.000	-0.005	-0.005	0.000	0.000	0.005	0.376	2.676	1.953	1.948	1.953	1.978	1.987	1.997
0.000	0.010	0.005	0.000	0.005	0.010	0.386	2.734	1.948	1.953	1.948	1.978	1.982	1.992
-0.005	0.000	0.005	0.000	0.005	-0.005	0.376	2.676	1.943	1.948	1.948	1.973	1.978	1.987
-0.010	0.005	0.005	0.000	0.005	0.005	0.386	2.759	1.948	1.943	1.948	1.968	1.973	1.982
-0.005	-0.005	0.000	0.000	0.000	0.015	0.381	2.681	1.948	1.943	1.943	1.968	1.968	1.982
0.010	0.005	0.005	0.005	0.005	-0.010	0.386	2.700	1.948	1.948	1.943	1.963	1.963	1.968
0.005	0.005	0.000	0.005	0.005	-0.020	0.381	2.681	1.943	1.943	1.943	1.963	1.963	1.968
0.000	0.000	0.000	0.000	0.005	0.000	0.391	2.690	1.948	1.943	1.943	1.963	1.963	1.968
0.000	0.000	0.005	0.000	-0.005	0.010	0.381	2.700	1.943	1.943	1.938	1.963	1.958	1.968
0.005	0.010	0.010	0.005	-0.005	-0.015	0.386	2.690	1.948	1.948	1.943	1.958	1.958	1.963
-0.005	0.010	0.000	0.005	0.000	0.010	0.381	2.695	1.948	1.948	1.943	1.963	1.958	1.968
0.000	0.005	0.000	0.000	0.005	0.010	0.381	2.705	1.948	1.948	1.943	1.963	1.958	1.963
0.000	-0.005	0.000	0.000	0.000	0.020	0.381	2.690	1.948	1.943	1.948	1.968	1.958	1.968
0.005	0.005	0.000	0.000	-0.005	0.015	0.381	2.710	1.953	1.948	1.948	1.968	1.958	1.963
0.005	0.000	0.000	0.000	0.000	0.005	0.376	2.681	1.948	1.948	1.948	1.968	1.963	1.963
0.000	0.005	0.005	0.005	0.005	-0.020	0.381	2.690	1.948	1.948	1.948	1.968	1.958	1.958
0.000	0.000	0.010	0.000	0.000	0.000	0.386	2.705	1.943	1.943	1.948	1.968	1.963	1.963
0.000	0.000	0.010	0.005	0.010	-0.005	0.386	2.695	1.943	1.943	1.943	1.968	1.963	1.963
0.010	-0.005	0.000	0.000	0.005	-0.015	0.391	2.695	1.943	1.943	1.943	1.963	1.963	1.958
0.005	0.005	0.005	0.005	0.005	0.015	0.386	2.695	1.938	1.938	1.943	1.958	1.958	1.968
-0.005	-0.010	0.000	0.000	0.005	-0.005	0.391	2.700	1.934	1.929	1.938	1.958	1.958	1.958
0.000	-0.005	0.000	0.000	0.005	0.015	0.386	2.686	1.934	1.929	1.934	1.953	1.953	1.958
-0.005	0.005	-0.005	0.000	0.010	-0.010	0.386	2.681	1.934	1.934	1.934	1.953	1.953	1.953
0.005	0.005	0.000	0.000	0.005	0.010	0.381	2.700	1.938	1.934	1.934	1.953	1.948	1.953
0.000	0.005	0.000	0.005	0.000	-0.005	0.391	2.705	1.934	1.934	1.934	1.948	1.948	1.948
-0.005	0.005	0.000	0.000	0.000	-0.005	0.386	2.705	1.938	1.934	1.934	1.948	1.948	1.943
0.005	0.005	0.000	0.000	0.005	0.015	0.386	2.686	1.934	1.934	1.934	1.948	1.948	1.953
0.015	0.005	0.000	0.000	0.000	0.000	0.381	2.754	1.943	1.938	1.934	1.948	1.948	1.948
0.015	0.010	0.000	0.000	-0.005	0.005	0.386	2.710	1.958	1.943	1.938	1.953	1.948	1.948
-0.005	0.000	-0.005	0.005	0.000	0.000	0.381	2.666	1.938	1.938	1.938	1.958	1.948	1.948
0.005	0.010	0.000	0.000	0.005	-0.029	0.386	2.676	1.938	1.938	1.938	1.958	1.953	1.943
0.000	0.010	0.010	0.000	0.000	-0.005	0.381	2.798	1.948	1.938	1.943	1.958	1.953	1.953
0.000	0.005	0.000	0.000	0.005	0.000	0.381	2.734	1.948	1.943	1.938	1.958	1.953	1.948
-0.005	-0.005	0.000	0.005	0.000	0.010	0.391	2.778	1.958	1.943	1.938	1.958	1.953	1.958
-0.005	0.000	0.000	0.000	0.010	0.005	0.381	2.627	1.943	1.943	1.934	1.953	1.953	1.953
0.000	0.005	0.005	0.005	0.005	0.005	0.386	2.744	1.943	1.943	1.938	1.958	1.953	1.953
-0.005	0.005	-0.005	0.000	0.005	0.005	0.381	2.749	1.943	1.938	1.938	1.953	1.948	1.953
-0.005	0.005	0.000	0.005	0.005	-0.005	0.381	2.749	1.943	1.938	1.938	1.953	1.948	1.943
0.005	-0.005	-0.005	0.000	0.000	-0.010	0.381	2.661	1.934	1.929	1.934	1.948	1.948	1.943
0.000	0.005	0.005	0.005	0.005	0.005	0.381	2.759	1.934	1.934	1.934	1.953	1.948	1.948
0.005	0.000	0.005	0.005	0.005	0.010	0.381	2.681	1.929	1.929	1.934	1.953	1.948	1.948
0.010	0.005	0.005	0.005	0.000	0.010	0.381	2.627	1.924	1.934	1.934	1.948	1.948	1.943
-0.005	0.005	0.005	0.005	0.000	0.005	0.376	2.695	1.919	1.929	1.934	1.953	1.948	1.948
-0.005	-0.005	-0.005	0.005	0.005	-0.015	0.391	2.739	1.929	1.924	1.929	1.948	1.948	1.943
0.005	0.000	0.000	0.005	0.000	0.000	0.386	2.695	1.934	1.929	1.924	1.948	1.948	1.948
0.005	0.020	0.005	0.005	-0.005	-0.015	0.386	2.690	1.934	1.934	1.934	1.953	1.943	1.943
0.010	0.015	0.000	0.000	0.005	-0.005	0.386	2.705	1.934	1.934	1.929	1.948	1.948	1.948
0.005	-0.005	-0.005	0.000	0.000	0.000	0.391	2.690	1.929	1.929	1.929	1.948	1.948	1.953
-0.005	0.005	-0.005	0.000	0.000	0.005	0.391	2.690	1.929	1.934	1.934	1.948	1.948	1.953
0.005	0.005	-0.005	0.000	0.000	-0.005	0.391	2.700	1.929	1.929	1.929	1.948	1.948	1.943
0.005	0.005	0.010	0.005	0.005	0.015	0.386	2.710	1.929	1.929	1.929	1.948	1.948	1.948
0.000	-0.010	0.000	0.005	0.005	0.000	0.391	2.695	1.929	1.924	1.929	1.948	1.948	1.948
-0.005	0.010	0.005	0.005	0.005	0.000	0.386	2.695	1.924	1.924	1.929	1.943	1.943	1.943
0.000	0.005	-0.005	0.005	0.005	0.000	0.391	2.686	1.919	1.924	1.924	1.943	1.938	1.948
0.005	0.000	0.000	0.005	0.005	0.005	0.376	2.671	1.919	1.919	1.919	1.943	1.938	1.943
0.000	-0.010	0.000	0.000	0.010	0.015	0.381	2.690	1.919	1.914	1.919	1.938	1.938	1.938
0.000	0.000	0.005	0.005	0.005	0.015	0.376	2.690	1.919	1.919	1.919	1.938	1.938	1.938
0.005	0.005	0.005	0.005	0.000	-0.005	0.376	2.686	1.919	1.919	1.919	1.938	1.934	1.938
0.010	-0.005	0.005	0.000	0.000	0.020	0.376	2.686	1.919	1.914	1.914	1.934	1.934	1.943
0.010	0.010	0.005	0.000	0.005	0.020	0.381	2.715	1.929	1.924	1.919	1.938	1.934	1.934
0.000	0.000	0.005	0.000	-0.005	0.000	0.376	2.695	1.924	1.919	1.919	1.934	1.934	1.934
-0.005	-0.005	0.005	0.005	0.000	0.005	0.386	2.690	1.924	1.919	1.919	1.938	1.934	1.934
0.010	-0.005	0.005	0.000	0.000	0.005	0.381	2.690	1.924	1.924	1.919	1.938	1.934	1.934
0.000	0.000	0.000	0.000	0.000	-0.010	0.376	2.710	1.929	1.924	1.924	1.938	1.934	1.929
-0.005	-0.005	0.005	-0.005	0.005	0.000	0.381	2.695	1.924	1.924	1.924	1.938	1.938	1.938
0.000	0.005	0.000	0.000	0.005	-0.005	0.381	2.686	1.924	1.924	1.924	1.938	1.934	1.934
0.000	-0.005	0.000	0.000	0.005	-0.005	0.386	2.690	1.919	1.919	1.924	1.943	1.934	1.938
-0.005	0.005	0.005	0.000	-0.005	-0.010	0.386	2.793	1.929	1.924	1.919	1.938	1.934	1.934
-0.005	0.005	0.000	0.000	0.005	0.000	0.386	2.651	1.919	1.924	1.924	1.938	1.934	1.934
-0.005	-0.005	0.000	0.005	0.000	0.005	0.386	2.676	1.914	1.919	1.919	1.938	1.934	1.934
0.010	-0.010	0.000	0.000	0.000	0.000	0.386	2.681	1.919	1.914	1.919	1.938	1.934	1.929
0.015	0.000	0.000	0.005	0.005	-0.024	0.376	2.671	1.924	1.914	1.914	1.934	1.934	1.924
0.005	-0.005	0.000	0.000	0.000	-0.020	0.386	2.632	1.909	1.914	1.909	1.934	1.929	1.924
0.000	-0.005	0.005	0.005	0.000	0.000	0.381	2.700	1.914	1.914	1.914	1.934	1.929	1.929
-0.010	0.010	0.005	0.005	0.000	0.015	0.386	2.734	1.919	1.919	1.914	1.934	1.929	1.934
0.010	0.005	0.000	0.000	0.000	0.005	0.381	2.646	1.909	1.919	1.914	1.934	1.929	1.934
0.005	0.015	0.000	0.000	0.005	0.010	0.386	2.637	1.904	1.909	1.914	1.934	1.929	1.929
0.000	0.005	0.000	0.010	0.000	0.000	0.386	2.729	1.904	1.909	1.914	1.934	1.929	1.929
0.005	0.005	0.000	0.005	0.000	0.000	0.391	2.725	1.914	1.909	1.909	1.934	1.934	1.929
-0.005	0.005	0.000	0.000	-0.005	-0.015	0.386	2.646	1.909	1.909	1.914	1.934	1.929	1.929
0.000	0.005	0.005	0.000	-0.005	0.010	0.386	2.656	1.909	1.909	1.909	1.934	1.929	1.934
-0.005	0.005	0.000	0.000	0.005	0.005	0.386	2.754	1.909	1.909	1.909	1.934	1.934	1.929
0.000	-0.020	0.000	0.005	0.005	0.000	0.381	2.671	1.909	1.904	1.909	1.934	1.934	1.934
0.005	-0.010	0.000	0.005	0.005	0.000	0.386	2.637	1.904	1.909	1.909	1.929	1.929	1.929
0.005	0.000	0.000	0.000	0.005	0.000	0.381	2.681	1.909	1.909	1.909	1.929	1.924	1.929
-0.005	0.010	0.000	0.000	0.005	0.005	0.386	2.700	1.904	1.909	1.909	1.924	1.924	1.929
-0.005	0.000	0.005	-0.005	0.005	-0.024	0.381	2.686	1.904	1.904	1.904	1.924	1.919	1.919
-0.005	0.010	0.005	0.005	0.000	0.024	0.386	2.700	1.909	1.904	1.904	1.924	1.919	1.929
-0.005	0.000	0.000	0.000	-0.005	-0.005	0.381	2.700	1.904	1.904	1.899	1.919	1.919	1.914
0.005	0.005	0.005	0.000	0.000	-0.005	0.381	2.695	1.909	1.904	1.899	1.919	1.919	1.919
0.000	-0.005	-0.005	0.005	0.000	0.015	0.386	2.700	1.909	1.899	1.899	1.919	1.919	1.924
0.010	0.020	0.005	0.005	0.000	0.010	0.386	2.695	1.909	1.909	1.904	1.919	1.919	1.919
0.010	0.015	0.000	0.005	0.000	-0.010	0.391	2.681	1.909	1.909	1.904	1.919	1.919	1.914
0.005	0.020	0.005	0.005	0.000	-0.005	0.381	2.695	1.909	1.909	1.904	1.919	1.919	1.919
-0.005	0.010	0.000	0.005	0.000	0.015	0.381	2.690	1.909	1.909	1.909	1.924	1.919	1.924
0.010	0.005	0.005	0.000	-0.005	0.010	0.386	2.700	1.914	1.909	1.909	1.924	1.919	1.919
0.005	0.015	0.005	0.000	0.000	0.010	0.391	2.710	1.919	1.914	1.909	1.929	1.919	1.919
0.000	0.010	0.005	0.000	0.005	-0.024	0.381	2.690	1.914	1.909	1.909	1.924	1.919	1.914
0.000	-0.005	0.005	0.005	0.005	0.005	0.376	2.710	1.909	1.904	1.909	1.924	1.924	1.924
0.005	-0.010	0.000	0.000	0.005	-0.020	0.381	2.695	1.914	1.909	1.909	1.924	1.924	1.914
0.000	-0.010	0.005	0.000	0.005	0.010	0.386	2.700	1.909	1.909	1.904	1.929	1.924	1.924
0.000	0.000	0.000	0.000	0.005	0.000	0.391	2.705	1.909	1.909	1.904	1.924	1.924	1.924
0.000	0.000	0.000	0.005	0.005	-0.005	0.391	2.690	1.909	1.909	1.904	1.924	1.919	1.919
-0.005	-0.005	0.000	0.000	0.005	-0.015	0.381	2.700	1.904	1.904	1.904	1.924	1.919	1.914
0.000	0.000	0.000	0.005	0.005	0.005	0.376	2.700	1.909	1.909	1.904	1.924	1.919	1.924
-0.005	-0.010	0.005	0.000	0.010	-0.005	0.396	2.690	1.899	1.895	1.899	1.919	1.919	1.919
0.005	0.000	0.000	0.005	0.005	-0.005	0.386	2.690	1.904	1.904	1.899	1.919	1.919	1.919
0.000	-0.005	0.005	0.005	0.005	0.015	0.391	2.788	1.909	1.899	1.899	1.919	1.914	1.919
-0.005	0.000	-0.005	0.005	0.000	0.010	0.381	2.651	1.904	1.904	1.899	1.919	1.914	1.919
0.010	0.015	0.000	0.000	0.000	0.010	0.386	2.661	1.904	1.909	1.904	1.919	1.914	1.919
-0.005	0.005	0.000	0.000	0.000	0.000	0.381	2.690	1.904	1.904	1.904	1.919	1.914	1.914
0.000	0.010	0.000	0.005	0.000	0.010	0.386	2.651	1.919	1.909	1.904	1.924	1.919	1.919
0.010	0.000	0.000	0.000	0.000	0.015	0.386	2.749	1.924	1.914	1.909	1.924	1.919	1.919
0.005	0.000	0.000	0.000	-0.005	-0.010	0.386	2.842	1.938	1.919	1.914	1.924	1.919	1.914
0.010	0.005	0.005	0.000	0.000	0.005	0.386	2.642	1.924	1.924	1.919	1.929	1.924	1.919
0.005	0.005	0.005	0.000	0.005	0.005	0.386	2.744	1.924	1.924	1.914	1.934	1.919	1.919
0.005	0.015	0.000	0.000	0.000	-0.005	0.391	2.734	1.924	1.924	1.914	1.929	1.924	1.914
0.000	0.000	0.000	0.000	0.000	-0.005	0.381	2.749	1.919	1.914	1.919	1.929	1.924	1.919
-0.005	0.000	-0.005	0.000	0.005	0.000	0.381	2.749	1.919	1.914	1.914	1.934	1.924	1.919
-0.005	-0.005	0.000	0.000	0.000	-0.005	0.386	2.710	1.914	1.914	1.914	1.934	1.924	1.919
0.010	0.010	0.010	0.005	0.000	0.000	0.386	2.661	1.909	1.914	1.914	1.929	1.924	1.924
-0.015	0.010	0.000	0.000	0.005	0.000	0.386	2.729	1.904	1.909	1.909	1.929	1.924	1.924
0.000	0.010	0.000	0.000	0.005	0.010	0.381	2.686	1.909	1.904	1.909	1.929	1.924	1.924
-0.005	0.000	0.000	0.000	0.000	0.005	0.386	2.749	1.909	1.899	1.904	1.929	1.919	1.924
0.000	0.015	0.000	0.000	0.005	-0.020	0.386	2.686	1.909	1.909	1.904	1.929	1.919	1.914
0.000	0.000	0.000	0.000	0.000	-0.010	0.386	2.705	1.904	1.899	1.904	1.924	1.919	1.919
0.005	0.010	0.005	0.000	0.005	0.010	0.386	2.690	1.909	1.909	1.904	1.929	1.924	1.929
0.000	-0.005	0.000	0.000	0.000	0.000	0.381	2.700	1.909	1.904	1.904	1.924	1.924	1.924
0.005	0.000	0.000	0.005	0.000	0.005	0.391	2.695	1.909	1.909	1.909	1.924	1.924	1.929
0.005	-0.010	0.000	0.005	0.005	0.020	0.381	2.690	1.909	1.904	1.904	1.924	1.924	1.929
0.005	-0.005	-0.005	0.010	0.000	0.024	0.396	2.705	1.914	1.909	1.909	1.929	1.924	1.934
-0.005	0.000	-0.005	0.005	0.000	0.010	0.381	2.695	1.909	1.909	1.909	1.929	1.924	1.924
-0.005	0.000	0.000	0.005	0.005	0.010	0.381	2.681	1.909	1.909	1.909	1.929	1.924	1.924
0.005	-0.005	0.000	0.000	0.000	0.010	0.376	2.700	1.914	1.909	1.909	1.929	1.924	1.924
0.000	0.000	0.005	0.005	0.000	0.015	0.391	2.681	1.904	1.904	1.904	1.924	1.924	1.924
-0.010	0.000	0.000	0.000	0.000	0.005	0.381	2.705	1.909	1.904	1.904	1.924	1.919	1.919
0.005	0.000	0.005	0.000	0.000	0.005	0.386	2.710	1.909	1.904	1.904	1.924	1.919	1.914
0.010	0.000	0.000	0.005	0.005	-0.020	0.376	2.700	1.904	1.904	1.899	1.924	1.919	1.914
0.015	-0.005	0.000	0.000	0.005	-0.005	0.386	2.705	1.909	1.904	1.899	1.919	1.914	1.919
-0.015	0.005	0.005	0.000	0.005	-0.010	0.386	2.690	1.895	1.899	1.899	1.914	1.914	1.914
-0.010	-0.005	0.000	0.005	0.000	-0.005	0.391	2.700	1.899	1.899	1.899	1.919	1.914	1.914
0.000	0.005	0.000	0.005	0.005	-0.029	0.376	2.705	1.899	1.904	1.895	1.919	1.914	1.909
-0.005	0.005	-0.005	0.000	-0.005	-0.020	0.386	2.695	1.904	1.904	1.899	1.919	1.914	1.914
0.000	0.005	0.000	0.000	0.000	-0.005	0.381	2.705	1.909	1.899	1.899	1.919	1.914	1.919
0.000	0.000	0.005	0.000	-0.005	-0.020	0.391	2.700	1.909	1.899	1.899	1.919	1.909	1.914
0.000	0.005	0.000	0.005	-0.005	0.005	0.386	2.690	1.914	1.909	1.904	1.924	1.914	1.924
0.015	0.005	0.000	0.005	0.000	0.010	0.381	2.686	1.919	1.909	1.904	1.924	1.914	1.919
-0.005	0.010	0.000	0.005	-0.005	0.010	0.386	2.749	1.919	1.919	1.909	1.924	1.919	1.919
-0.005	0.005	0.000	0.000	-0.005	-0.005	0.381	2.651	1.909	1.914	1.909	1.924	1.919	1.914
0.000	0.000	0.000	0.000	0.000	0.010	0.386	2.656	1.909	1.904	1.909	1.924	1.919	1.924
0.005	0.005	0.000	0.000	0.000	0.005	0.386	2.686	1.909	1.909	1.909	1.924	1.919	1.924
0.000	0.010	0.005	0.005	0.000	-0.015	0.386	2.642	1.895	1.904	1.904	1.924	1.919	1.914
0.000	0.000	0.000	0.005	0.005	0.020	0.391	2.725	1.899	1.899	1.899	1.924	1.924	1.924
0.000	-0.005	0.005	0.000	0.005	0.010	0.381	2.681	1.899	1.899	1.899	1.919	1.919	1.919
-0.005	-0.005	0.000	0.000	0.005	0.000	0.381	2.744	1.904	1.899	1.899	1.919	1.914	1.914
-0.005	0.005	-0.005	0.000	0.005	0.010	0.381	2.632	1.885	1.895	1.895	1.914	1.914	1.919
-0.010	0.005	0.000	-0.005	0.005	0.010	0.381	2.637	1.890	1.895	1.895	1.914	1.909	1.914
0.000	0.000	0.000	0.000	0.010	0.000	0.386	2.744	1.899	1.890	1.890	1.914	1.909	1.909
-0.005	0.000	0.005	0.000	0.005	-0.020	0.376	2.651	1.895	1.895	1.895	1.914	1.909	1.909
0.010	-0.005	0.005	0.005	0.005	0.000	0.386	2.661	1.904	1.890	1.890	1.914	1.909	1.909
0.010	-0.010	0.005	0.000	0.005	-0.010	0.381	2.656	1.895	1.895	1.890	1.909	1.909	1.914
-0.005	0.000	0.005	0.000	0.000	0.005	0.386	2.739	1.904	1.904	1.899	1.914	1.909	1.914
0.000	0.000	0.000	-0.005	-0.005	0.010	0.381	2.681	1.904	1.899	1.895	1.914	1.909	1.914
0.010	0.005	0.010	0.000	0.000	0.015	0.386	2.739	1.909	1.909	1.899	1.919	1.909	1.914
0.000	0.000	0.000	0.000	-0.005	0.010	0.381	2.681	1.904	1.909	1.899	1.919	1.914	1.914
0.000	0.005	0.010	0.005	0.000	0.010	0.386	2.686	1.904	1.909	1.904	1.919	1.909	1.909
0.000	0.000	0.000	0.005	0.005	-0.005	0.376	2.686	1.904	1.899	1.904	1.919	1.909	1.909
-0.005	0.000	0.000	0.005	0.010	-0.005	0.386	2.690	1.904	1.904	1.899	1.919	1.914	1.909
-0.005	0.000	-0.005	0.005	0.000	-0.005	0.381	2.671	1.895	1.899	1.899	1.919	1.914	1.909
-0.005	-0.005	0.005	0.005	0.000	-0.029	0.386	2.686	1.895	1.895	1.899	1.914	1.909	1.904
-0.005	0.000	0.000	0.005	0.000	0.005	0.376	2.695	1.895	1.895	1.895	1.914	1.909	1.914
-0.010	0.000	0.000	0.000	0.005	-0.015	0.386	2.690	1.895	1.895	1.895	1.914	1.914	1.904
0.000	0.005	0.005	0.000	0.010	-0.005	0.381	2.676	1.890	1.895	1.895	1.909	1.909	1.914
0.015	0.005	0.000	0.005	0.020	0.015	0.386	2.705	1.895	1.890	1.895	1.909	1.914	1.914
0.000	0.005	0.000	0.000	0.029	0.024	0.376	2.690	1.895	1.890	1.890	1.909	1.914	1.914
0.000	-0.005	0.000	0.005	0.020	0.000	0.386	2.700	1.899	1.895	1.890	1.909	1.909	1.909
0.000	0.000	0.005	0.010	0.020	0.005	0.381	2.686	1.899	1.895	1.895	1.909	1.909	1.909
0.020	0.010	0.000	0.000	0.024	0.029	0.381	2.705	1.904	1.904	1.895	1.914	1.909	1.919
0.000	-0.005	0.000	0.005	0.015	0.020	0.381	2.710	1.904	1.899	1.895	1.914	1.909	1.914
0.010	0.005	0.000	0.000	0.015	0.015	0.386	2.710	1.909	1.904	1.899	1.914	1.909	1.909
-0.005	-0.005	0.005	0.010	0.015	-0.005	0.386	2.705	1.909	1.899	1.899	1.914	1.909	1.909
0.000	0.000	0.005	0.005	0.015	0.015	0.381	2.686	1.904	1.904	1.904	1.914	1.909	1.914
0.005	0.000	0.005	0.005	0.010	0.010	0.391	2.700	1.904	1.904	1.904	1.919	1.909	1.909
0.005	0.005	0.000	0.005	0.000	0.005	0.386	2.710	1.909	1.904	1.899	1.919	1.909	1.904
-0.010	-0.005	0.005	0.000	0.000	0.005	0.391	2.705	1.904	1.899	1.904	1.919	1.909	1.909
0.010	0.005	0.005	0.005	0.005	0.010	0.381	2.686	1.899	1.899	1.899	1.914	1.909	1.909
0.000	0.000	0.000	0.005	0.000	0.000	0.396	2.700	1.899	1.895	1.895	1.919	1.909	1.909
0.005	0.000	0.000	0.000	0.005	0.020	0.376	2.783	1.909	1.899	1.895	1.914	1.909	1.909
0.000	0.005	-0.005	0.005	0.000	-0.005	0.386	2.646	1.899	1.899	1.895	1.914	1.909	1.904
0.000	0.000	-0.005	0.000	0.000	-0.020	0.381	2.661	1.890	1.895	1.890	1.909	1.904	1.895
0.000	-0.005	0.000	0.000	0.000	0.000	0.386	2.671	1.890	1.895	1.895	1.909	1.904	1.904
-0.005	-0.005	0.000	0.000	-0.010	0.000	0.386	2.651	1.885	1.885	1.890	1.909	1.904	1.904
0.005	0.005	0.005	0.000	-0.005	-0.010	0.391	2.642	1.890	1.895	1.895	1.909	1.904	1.904
0.000	0.005	0.005	0.000	-0.005	0.010	0.386	2.705	1.895	1.890	1.895	1.909	1.904	1.909
0.010	-0.005	0.005	0.005	-0.010	0.010	0.386	2.729	1.899	1.895	1.895	1.914	1.904	1.904
-0.005	-0.010	0.005	0.000	-0.015	-0.020	0.376	2.651	1.895	1.895	1.895	1.914	1.909	1.904
0.005	-0.010	0.005	0.000	-0.010	0.000	0.386	2.754	1.904	1.895	1.895	1.914	1.904	1.904
0.005	0.005	-0.005	0.005	-0.010	-0.005	0.381	2.744	1.909	1.904	1.895	1.914	1.909	1.909
-0.005	0.005	0.000	0.005	-0.010	-0.005	0.386	2.637	1.899	1.899	1.899	1.914	1.909	1.909
-0.005	0.010	0.000	0.000	-0.010	-0.005	0.386	2.749	1.904	1.904	1.899	1.914	1.909	1.909
0.005	0.005	0.005	0.005	-0.015	0.000	0.391	2.656	1.899	1.899	1.899	1.914	1.909	1.909
0.005	0.000	0.000	0.000	-0.005	-0.015	0.376	2.729	1.904	1.899	1.899	1.909	1.909	1.909
-0.005	-0.010	0.000	0.000	-0.010	0.010	0.391	2.666	1.895	1.895	1.895	1.919	1.909	1.909
0.005	-0.010	0.000	0.000	-0.010	0.005	0.386	2.734	1.899	1.895	1.890	1.909	1.904	1.909
0.010	-0.005	0.000	0.000	-0.005	0.005	0.391	2.695	1.899	1.895	1.895	1.909	1.909	1.909
0.005	0.024	0.000	0.005	0.000	0.005	0.391	2.690	1.895	1.899	1.895	1.909	1.909	1.909
0.005	0.020	0.000	0.005	0.000	-0.005	0.381	2.686	1.890	1.895	1.895	1.914	1.904	1.904
0.000	0.010	0.000	0.005	-0.005	0.000	0.386	2.700	1.895	1.890	1.890	1.909	1.909	1.909
0.000	0.010	0.000	0.000	0.005	0.005	0.386	2.690	1.899	1.890	1.895	1.914	1.909	1.909
0.010	0.005	0.005	0.005	0.000	-0.024	0.386	2.695	1.899	1.895	1.890	1.909	1.904	1.895
0.000	0.000	0.005	0.005	-0.005	-0.015	0.391	2.705	1.895	1.895	1.895	1.914	1.909	1.904
-0.005	-0.005	0.000	0.005	0.000	-0.005	0.391	2.700	1.895	1.890	1.895	1.914	1.909	1.909
0.005	0.005	0.005	0.000	-0.005	0.010	0.386	2.695	1.904	1.899	1.890	1.914	1.909	1.909
0.010	-0.005	0.000	0.000	0.000	0.000	0.381	2.695	1.899	1.899	1.895	1.914	1.914	1.909
-0.005	0.015	0.000	0.000	0.005	0.000	0.386	2.686	1.899	1.899	1.895	1.914	1.909	1.909
-0.005	0.005	0.000	-0.005	0.005	-0.020	0.391	2.695	1.899	1.899	1.895	1.914	1.914	1.909
-0.005	0.005	0.000	0.000	0.005	0.005	0.386	2.700	1.899	1.899	1.895	1.914	1.909	1.909
0.000	0.000	0.005	-0.005	0.005	0.005	0.386	2.681	1.899	1.899	1.895	1.914	1.909	1.909
0.005	0.005	0.005	0.000	0.005	-0.010	0.386	2.690	1.895	1.895	1.895	1.909	1.909	1.904
-0.005	-0.010	0.000	-0.005	0.005	-0.005	0.391	2.700	1.899	1.895	1.895	1.909	1.909	1.909
-0.005	0.000	0.005	-0.005	0.005	0.000	0.386	2.700	1.890	1.890	1.890	1.909	1.904	1.904
0.000	0.000	0.010	0.000	0.005	0.000	0.391	2.700	1.895	1.895	1.890	1.909	1.904	1.904
0.000	0.005	0.005	0.005	0.005	0.010	0.376	2.681	1.890	1.890	1.885	1.909	1.904	1.909
0.005	0.005	0.000	0.000	0.005	0.015	0.386	2.695	1.895	1.890	1.890	1.909	1.904	1.909
0.005	0.005	0.000	0.005	0.000	0.005	0.381	2.690	1.899	1.890	1.890	1.909	1.904	1.904
0.000	-0.005	0.000	0.005	0.000	0.005	0.386	2.690	1.899	1.890	1.890	1.909	1.904	1.904
0.000	-0.010	0.005	0.005	0.005	-0.015	0.386	2.695	1.899	1.890	1.890	1.909	1.904	1.899
0.005	-0.005	0.000	0.000	0.000	0.000	0.391	2.793	1.909	1.899	1.890	1.909	1.904	1.904
0.000	0.000	0.005	0.010	0.000	0.005	0.386	2.642	1.899	1.899	1.895	1.909	1.904	1.909
0.005	0.000	0.005	0.000	0.005	-0.005	0.391	2.671	1.899	1.899	1.895	1.909	1.904	1.899
0.000	0.000	0.005	0.000	0.000	-0.005	0.386	2.676	1.895	1.895	1.895	1.909	1.904	1.909
0.000	0.000	0.000	0.000	0.005	0.015	0.391	2.646	1.890	1.895	1.895	1.914	1.909	1.909
0.005	0.005	-0.005	0.005	0.000	0.010	0.381	2.739	1.904	1.899	1.895	1.914	1.909	1.909
-0.005	-0.005	0.005	0.000	0.000	0.020	0.391	2.837	1.914	1.899	1.899	1.909	1.909	1.914
-0.005	0.000	0.005	0.000	0.005	0.020	0.381	2.642	1.904	1.904	1.899	1.914	1.909	1.909
0.005	0.005	0.000	0.000	0.005	0.010	0.381	2.739	1.904	1.899	1.895	1.914	1.909	1.904
0.005	0.005	0.000	0.000	0.005	0.020	0.381	2.637	1.895	1.899	1.895	1.914	1.909	1.909
0.000	0.005	0.000	-0.005	0.010	0.010	0.386	2.749	1.899	1.895	1.895	1.914	1.904	1.909
0.000	-0.005	0.005	0.005	0.010	0.010	0.386	2.720	1.899	1.895	1.895	1.909	1.904	1.904
0.000	0.000	0.000	0.000	0.005	-0.010	0.386	2.734	1.890	1.895	1.890	1.909	1.904	1.899
-0.005	0.005	0.000	0.000	0.000	-0.020	0.391	2.676	1.890	1.890	1.890	1.909	1.904	1.904
0.005	0.005	0.005	0.000	0.000	0.000	0.386	2.729	1.899	1.895	1.890	1.909	1.904	1.909
0.000	0.000	0.000	0.005	0.005	0.010	0.400	2.676	1.895	1.895	1.890	1.909	1.904	1.904
-0.005	0.005	0.000	0.000	0.000	-0.010	0.381	2.754	1.904	1.899	1.890	1.909	1.904	1.904
-0.005	0.000	0.005	0.000	0.000	0.005	0.386	2.705	1.899	1.895	1.895	1.909	1.909	1.904
0.000	0.005	0.005	0.000	-0.005	0.000	0.381	2.700	1.904	1.904	1.895	1.914	1.909	1.904
0.010	0.005	0.005	0.000	0.005	0.000	0.391	2.681	1.904	1.904	1.899	1.914	1.909	1.904
0.010	0.000	0.000	0.000	0.000	-0.010	0.381	2.681	1.899	1.904	1.904	1.919	1.909	1.914
0.010	0.005	0.000	0.000	0.000	-0.005	0.391	2.681	1.899	1.899	1.899	1.914	1.909	1.904
0.000	0.005	0.000	0.000	0.005	0.020	0.391	2.710	1.899	1.904	1.904	1.919	1.914	1.914
0.000	-0.005	0.000	0.005	0.000	0.010	0.391	2.700	1.904	1.895	1.899	1.919	1.914	1.909
0.005	0.005	0.005	0.010	0.005	0.015	0.386	2.695	1.899	1.899	1.899	1.919	1.914	1.914
0.000	-0.020	0.000	0.000	0.005	-0.005	0.391	2.690	1.895	1.885	1.895	1.914	1.909	1.909
0.000	-0.015	0.000	0.005	0.000	0.000	0.386	2.695	1.895	1.895	1.890	1.914	1.909	1.909
-0.005	-0.005	0.000	0.005	0.005	-0.020	0.386	2.681	1.895	1.890	1.890	1.909	1.909	1.904
0.005	-0.010	0.005	0.000	0.005	-0.015	0.391	2.686	1.895	1.890	1.890	1.909	1.904	1.904
-0.005	0.005	0.000	-0.005	0.000	0.005	0.381	2.700	1.890	1.895	1.890	1.909	1.904	1.909
0.005	0.015	0.000	0.000	0.005	0.005	0.386	2.710	1.895	1.895	1.890	1.909	1.904	1.909
0.010	0.005	0.010	0.000	0.000	0.005	0.386	2.686	1.899	1.895	1.895	1.909	1.904	1.904
-0.005	0.010	0.005	0.000	0.000	-0.015	0.391	2.705	1.895	1.895	1.890	1.909	1.904	1.904
-0.005	0.015	0.005	0.000	0.000	0.024	0.391	2.715	1.904	1.895	1.890	1.914	1.909	1.909
0.000	0.000	0.005	0.000	-0.005	0.005	0.391	2.690	1.899	1.895	1.895	1.914	1.904	1.904
0.005	0.000	-0.005	0.000	0.000	0.005	0.391	2.681	1.899	1.899	1.890	1.914	1.909	1.909
0.005	0.010	0.005	0.005	0.010	0.005	0.396	2.700	1.904	1.899	1.899	1.914	1.909	1.909
0.000	0.005	0.000	0.005	0.005	0.005	0.386	2.705	1.904	1.904	1.899	1.919	1.914	1.909
0.005	0.005	0.010	0.005	0.000	0.005	0.391	2.695	1.899	1.904	1.899	1.914	1.909	1.909
0.010	0.010	0.005	0.005	0.005	-0.015	0.391	2.681	1.899	1.899	1.899	1.914	1.909	1.909
-0.005	0.010	0.005	0.005	0.000	0.010	0.386	2.754	1.899	1.899	1.895	1.914	1.909	1.909
-0.005	0.005	0.000	0.000	0.005	-0.005	0.381	2.651	1.909	1.899	1.899	1.914	1.909	1.909
0.005	0.000	0.000	0.010	0.005	0.005	0.386	2.651	1.899	1.899	1.899	1.914	1.909	1.909
0.000	0.010	-0.005	0.005	0.005	-0.005	0.386	2.690	1.895	1.895	1.895	1.914	1.909	1.904
0.005	0.000	0.000	0.005	0.010	0.010	0.386	2.788	1.904	1.890	1.895	1.909	1.909	1.909
0.005	0.005	0.000	0.000	0.005	0.005	0.381	2.729	1.904	1.895	1.895	1.909	1.909	1.909
0.000	0.000	0.000	0.000	0.005	0.020	0.386	2.686	1.914	1.899	1.895	1.909	1.904	1.909
0.000	0.000	0.005	0.005	-0.005	-0.010	0.381	2.646	1.899	1.899	1.895	1.909	1.904	1.895
0.015	0.000	0.005	0.000	0.000	0.020	0.386	2.749	1.909	1.904	1.895	1.909	1.909	1.909
0.005	0.020	0.000	-0.005	0.000	0.005	0.381	2.720	1.895	1.909	1.899	1.914	1.909	1.909
-0.005	0.020	0.000	0.005	0.000	-0.005	0.391	2.769	1.904	1.904	1.904	1.919	1.909	1.899
0.005	0.005	0.005	-0.005	0.000	-0.010	0.386	2.666	1.914	1.904	1.904	1.919	1.909	1.904
0.010	0.005	0.005	0.005	0.000	0.015	0.391	2.759	1.914	1.904	1.909	1.924	1.909	1.914
0.005	0.005	0.005	-0.005	-0.005	0.000	0.386	2.671	1.909	1.909	1.904	1.919	1.914	1.909
0.015	-0.005	0.005	0.000	0.000	0.010	0.391	2.656	1.904	1.904	1.904	1.924	1.919	1.914
-0.015	-0.005	0.005	0.005	0.005	-0.020	0.386	2.695	1.899	1.904	1.904	1.924	1.919	1.909
0.000	-0.005	-0.005	-0.005	0.000	0.005	0.391	2.734	1.904	1.899	1.904	1.919	1.919	1.919
0.005	0.000	0.000	0.000	0.000	0.010	0.391	2.690	1.904	1.899	1.899	1.919	1.914	1.919
-0.005	-0.005	0.005	0.000	0.005	-0.020	0.391	2.686	1.899	1.899	1.904	1.919	1.914	1.909
0.005	0.000	0.005	0.000	0.000	0.015	0.386	2.700	1.899	1.899	1.899	1.919	1.914	1.919
0.000	0.000	0.000	0.005	0.005	0.010	0.386	2.695	1.899	1.899	1.895	1.914	1.914	1.914
0.000	-0.010	0.010	0.005	0.005	-0.020	0.381	2.700	1.895	1.890	1.890	1.914	1.909	1.904
0.005	-0.020	0.000	0.005	0.005	0.005	0.391	2.695	1.895	1.890	1.890	1.914	1.909	1.914
-0.005	-0.015	0.010	0.000	0.000	0.005	0.391	2.710	1.895	1.890	1.890	1.909	1.909	1.909
0.005	-0.010	0.000	0.000	0.005	-0.010	0.386	2.710	1.899	1.895	1.890	1.909	1.909	1.909
0.005	-0.010	-0.005	0.000	0.005	0.005	0.381	2.686	1.895	1.895	1.890	1.909	1.909	1.914
0.010	-0.015	0.005	0.005	0.000	-0.005	0.386	2.690	1.899	1.895	1.895	1.909	1.904	1.904
0.010	-0.005	0.000	0.000	0.005	-0.005	0.376	2.681	1.904	1.899	1.895	1.909	1.909	1.909
0.000	0.000	0.005	0.000	0.005	-0.005	0.386	2.681	1.899	1.904	1.895	1.914	1.909	1.909
0.005	0.010	0.005	0.000	0.000	-0.010	0.391	2.686	1.904	1.904	1.899	1.919	1.909	1.909
0.000	0.010	-0.005	0.000	0.005	0.000	0.386	2.705	1.899	1.899	1.899	1.919	1.909	1.914
-0.005	0.010	0.005	0.005	0.000	0.000	0.391	2.681	1.899	1.899	1.904	1.919	1.914	1.914
0.005	0.010	0.000	0.000	0.005	0.000	0.386	2.690	1.904	1.904	1.904	1.919	1.914	1.914
0.005	0.020	0.000	0.005	0.005	0.000	0.381	2.700	1.904	1.904	1.899	1.919	1.909	1.914
0.005	0.010	0.000	0.000	0.000	-0.010	0.381	2.681	1.899	1.899	1.899	1.919	1.909	1.909
0.005	-0.005	0.005	-0.005	0.005	0.015	0.391	2.710	1.899	1.890	1.895	1.914	1.909	1.914
0.005	0.005	-0.005	-0.005	0.005	0.015	0.386	2.710	1.904	1.899	1.895	1.914	1.909	1.914
0.005	0.005	0.000	0.000	0.000	0.015	0.386	2.700	1.899	1.890	1.890	1.909	1.904	1.909
0.005	0.000	0.000	0.000	0.000	0.005	0.381	2.690	1.899	1.895	1.895	1.909	1.904	1.909
0.010	0.015	0.000	0.005	0.000	0.015	0.391	2.690	1.895	1.899	1.895	1.909	1.904	1.909
0.000	0.015	0.000	0.000	0.000	0.010	0.391	2.803	1.909	1.904	1.895	1.909	1.904	1.904
0.000	0.010	0.000	0.000	-0.005	0.005	0.391	2.656	1.904	1.895	1.895	1.909	1.904	1.899
0.000	0.005	-0.005	0.005	0.000	-0.010	0.386	2.666	1.899	1.895	1.895	1.914	1.909	1.899
0.005	0.010	0.005	0.005	-0.005	0.005	0.391	2.676	1.899	1.899	1.899	1.914	1.909	1.904
-0.005	0.005	0.000	0.010	-0.005	0.010	0.381	2.646	1.895	1.895	1.895	1.919	1.909	1.904
0.000	-0.005	0.005	0.005	-0.005	0.015	0.386	2.646	1.895	1.890	1.895	1.919	1.909	1.914
0.005	-0.005	0.005	0.010	-0.005	0.015	0.381	2.695	1.895	1.890	1.895	1.914	1.914	1.914
0.005	0.000	0.000	0.010	0.000	0.010	0.391	2.729	1.904	1.899	1.899	1.919	1.914	1.914
0.000	0.000	0.000	0.005	0.005	-0.005	0.391	2.651	1.895	1.895	1.895	1.914	1.909	1.904
-0.005	-0.005	0.000	0.005	0.010	0.000	0.386	2.744	1.899	1.899	1.899	1.914	1.914	1.914
-0.005	0.000	0.005	-0.005	0.000	-0.005	0.381	2.739	1.909	1.899	1.895	1.914	1.909	1.909
0.000	0.000	0.000	0.000	0.010	0.005	0.386	2.646	1.899	1.895	1.895	1.914	1.909	1.909
0.005	0.005	0.000	0.000	0.005	0.005	0.386	2.646	1.890	1.895	1.895	1.909	1.909	1.914
0.005	0.000	0.000	0.000	0.000	0.020	0.391	2.671	1.890	1.890	1.890	1.909	1.904	1.909
-0.005	0.000	0.000	0.000	0.005	0.005	0.381	2.744	1.895	1.890	1.890	1.909	1.909	1.904
-0.005	0.000	0.005	0.000	0.000	-0.005	0.381	2.681	1.895	1.890	1.885	1.909	1.904	1.899
0.010	0.005	0.000	0.000	0.005	-0.010	0.386	2.725	1.899	1.890	1.890	1.909	1.904	1.904
0.010	-0.005	0.005	0.005	0.000	-0.024	0.381	2.695	1.895	1.890	1.890	1.904	1.899	1.895
0.005	0.000	0.000	0.000	0.000	0.000	0.386	2.700	1.895	1.890	1.890	1.904	1.904	1.909
-0.005	-0.005	-0.005	0.005	0.000	-0.015	0.381	2.681	1.895	1.890	1.885	1.909	1.904	1.899
0.000	-0.005	0.005	0.000	-0.005	0.000	0.391	2.695	1.899	1.895	1.895	1.909	1.904	1.904
0.005	0.000	0.000	0.005	-0.005	-0.010	0.386	2.690	1.895	1.895	1.890	1.909	1.904	1.904
0.005	0.000	0.000	0.005	0.000	0.005	0.391	2.700	1.904	1.895	1.895	1.909	1.909	1.909
0.010	-0.005	0.000	0.000	-0.005	0.005	0.381	2.695	1.909	1.899	1.899	1.914	1.909	1.909
0.005	0.000	0.005	0.000	-0.005	-0.015	0.376	2.695	1.899	1.899	1.899	1.914	1.909	1.904
0.005	0.005	0.005	0.005	0.005	0.010	0.381	2.676	1.899	1.899	1.899	1.919	1.909	1.909
-0.005	0.000	0.000	0.000	0.000	0.000	0.391	2.705	1.899	1.904	1.899	1.914	1.909	1.909
0.000	0.000	0.005	-0.005	0.010	-0.010	0.381	2.681	1.895	1.895	1.895	1.914	1.909	1.904
-0.005	0.005	0.005	-0.005	0.010	-0.020	0.381	2.695	1.899	1.895	1.895	1.914	1.909	1.904
-0.005	-0.005	0.000	-0.005	0.010	0.005	0.381	2.700	1.890	1.890	1.890	1.914	1.904	1.909
-0.005	0.000	-0.005	0.000	0.010	-0.015	0.391	2.681	1.890	1.885	1.890	1.909	1.904	1.904
0.000	0.000	0.005	0.005	0.010	0.010	0.391	2.700	1.890	1.890	1.890	1.909	1.904	1.909
0.000	0.005	0.000	0.005	0.005	0.029	0.386	2.695	1.895	1.890	1.890	1.904	1.904	1.909
-0.005	0.000	0.000	0.000	0.000	0.005	0.381	2.700	1.895	1.890	1.885	1.904	1.899	1.899
0.000	-0.005	0.005	0.000	0.000	0.024	0.381	2.710	1.899	1.890	1.890	1.909	1.904	1.904
0.005	0.005	0.000	0.000	0.000	0.024	0.381	2.686	1.899	1.890	1.885	1.909	1.904	1.904
0.005	0.000	0.000	0.005	0.000	0.029	0.396	2.705	1.904	1.895	1.895	1.909	1.904	1.909
0.010	0.005	0.005	0.005	-0.005	0.029	0.386	2.676	1.899	1.899	1.890	1.909	1.904	1.904
0.010	0.000	0.000	0.005	0.000	0.015	0.391	2.690	1.899	1.899	1.890	1.909	1.904	1.904
0.005	0.000	0.005	0.000	-0.005	0.015	0.381	2.700	1.899	1.899	1.895	1.909	1.904	1.904
0.010	0.000	0.005	0.005	0.005	0.010	0.386	2.798	1.914	1.904	1.895	1.914	1.909	1.904
-0.005	-0.005	0.005	0.005	0.000	-0.010	0.386	2.661	1.904	1.899	1.899	1.914	1.909	1.899
0.000	0.000	0.000	0.000	0.000	0.005	0.386	2.666	1.895	1.899	1.899	1.914	1.909	1.904
0.005	0.010	0.000	0.005	0.000	-0.015	0.386	2.681	1.895	1.904	1.899	1.919	1.909	1.899
0.000	0.010	0.005	0.000	0.005	-0.039	0.386	2.646	1.890	1.895	1.895	1.914	1.904	1.895
-0.005	0.010	0.000	-0.005	0.000	0.000	0.391	2.646	1.885	1.890	1.895	1.914	1.904	1.909
-0.005	0.000	0.005	0.000	0.000	0.000	0.381	2.700	1.885	1.885	1.890	1.914	1.909	1.904
-0.005	0.000	0.000	-0.005	0.010	-0.024	0.386	2.729	1.890	1.885	1.885	1.909	1.904	1.899
0.000	-0.005	0.005	0.005	0.015	0.005	0.381	2.642	1.880	1.885	1.885	1.904	1.909	1.909
0.000	0.005	0.005	0.005	0.010	-0.020	0.386	2.725	1.890	1.885	1.885	1.904	1.904	1.895
-0.005	0.010	0.000	0.000	0.005	0.010	0.381	2.739	1.895	1.890	1.890	1.904	1.904	1.909
0.000	0.015	0.000	0.000	0.005	0.015	0.391	2.656	1.895	1.885	1.885	1.904	1.899	1.909
0.005	0.010	0.005	0.000	0.000	0.005	0.376	2.661	1.890	1.885	1.885	1.904	1.899	1.904
0.005	-0.005	0.005	0.000	0.000	-0.005	0.386	2.676	1.895	1.885	1.885	1.904	1.899	1.899
0.010	-0.010	0.005	0.000	-0.005	0.005	0.381	2.754	1.904	1.895	1.890	1.909	1.899	1.899
0.015	-0.005	0.000	0.005	0.000	0.000	0.381	2.695	1.904	1.895	1.890	1.909	1.904	1.904
0.005	0.020	0.000	0.000	0.000	0.005	0.386	2.637	1.895	1.904	1.895	1.904	1.904	1.904
0.000	-0.015	0.000	0.000	0.005	0.005	0.391	2.695	1.890	1.895	1.895	1.909	1.909	1.909
0.005	-0.005	0.005	0.000	0.010	-0.005	0.386	2.681	1.895	1.895	1.895	1.914	1.909	1.904
0.005	-0.005	0.000	0.000	0.005	0.000	0.396	2.686	1.899	1.895	1.895	1.914	1.909	1.899
0.000	-0.010	0.005	0.005	0.000	-0.005	0.386	2.690	1.890	1.885	1.890	1.914	1.904	1.904
0.000	-0.005	0.005	0.000	0.000	0.010	0.386	2.690	1.895	1.890	1.890	1.909	1.904	1.904
0.000	0.005	0.005	0.005	0.005	0.005	0.381	2.700	1.899	1.890	1.885	1.909	1.904	1.904
-0.010	0.000	0.005	0.000	0.010	-0.024	0.386	2.700	1.890	1.890	1.890	1.904	1.904	1.899
-0.005	0.010	0.005	0.000	0.005	-0.020	0.386	2.700	1.895	1.895	1.890	1.904	1.899	1.899
0.000	0.020	0.000	0.005	0.010	0.000	0.396	2.695	1.895	1.895	1.885	1.904	1.904	1.904
0.005	0.015	0.000	0.000	0.005	-0.020	0.386	2.681	1.895	1.895	1.890	1.904	1.899	1.895
0.010	0.010	0.000	0.010	0.000	0.000	0.396	2.681	1.895	1.890	1.890	1.904	1.899	1.904
-0.005	0.000	0.000	0.005	0.000	0.000	0.386	2.690	1.890	1.890	1.890	1.904	1.899	1.904
0.005	0.010	0.000	0.005	0.000	0.020	0.391	2.705	1.899	1.890	1.890	1.909	1.899	1.904
0.005	0.005	0.000	0.000	0.000	0.015	0.391	2.710	1.899	1.895	1.890	1.909	1.904	1.909
0.005	0.005	0.005	0.005	0.000	0.024	0.391	2.720	1.904	1.895	1.895	1.909	1.904	1.904
-0.010	0.005	0.000	-0.005	0.000	0.020	0.386	2.715	1.899	1.899	1.890	1.909	1.904	1.909
0.000	0.005	0.005	0.000	-0.005	0.029	0.381	2.710	1.904	1.899	1.895	1.909	1.904	1.904
-0.005	-0.005	0.000	0.000	-0.005	0.020	0.381	2.686	1.899	1.895	1.895	1.909	1.909	1.904
-0.005	-0.010	0.000	0.000	-0.005	0.010	0.381	2.690	1.904	1.899	1.895	1.914	1.904	1.904
0.000	0.000	0.000	0.000	0.005	0.005	0.381	2.700	1.904	1.904	1.895	1.909	1.909	1.904
0.000	0.005	0.005	0.000	0.005	0.000	0.386	2.681	1.895	1.904	1.899	1.914	1.909	1.904
0.010	0.005	0.000	0.000	0.015	-0.015	0.386	2.690	1.895	1.895	1.895	1.914	1.909	1.899
-0.010	0.005	0.000	0.005	0.000	0.010	0.376	2.690	1.890	1.895	1.890	1.914	1.909	1.904
0.000	0.005	0.005	0.005	0.000	-0.005	0.381	2.749	1.899	1.895	1.895	1.909	1.904	1.899
-0.010	0.000	0.000	0.000	0.005	0.000	0.381	2.632	1.885	1.890	1.890	1.909	1.904	1.904
-0.010	-0.005	0.000	0.010	0.005	0.000	0.391	2.661	1.885	1.885	1.890	1.909	1.904	1.899
0.005	-0.010	0.000	0.010	0.000	0.000	0.381	2.676	1.885	1.885	1.885	1.909	1.904	1.904
0.010	0.000	0.000	0.005	0.005	-0.015	0.391	2.642	1.885	1.885	1.880	1.899	1.904	1.899
0.005	0.000	0.000	0.000	0.000	0.010	0.386	2.646	1.885	1.885	1.885	1.904	1.899	1.904
0.015	0.000	0.005	0.005	0.000	0.010	0.396	2.700	1.890	1.890	1.885	1.904	1.899	1.904
0.005	-0.005	0.005	0.000	-0.005	0.015	0.391	2.739	1.899	1.890	1.890	1.904	1.904	1.904
0.000	-0.005	0.000	0.000	0.005	0.010	0.386	2.646	1.890	1.890	1.890	1.904	1.904	1.904
0.000	0.015	0.005	0.005	0.000	0.010	0.391	2.646	1.890	1.895	1.890	1.909	1.904	1.904
0.000	0.015	0.005	-0.005	0.000	0.000	0.386	2.754	1.899	1.895	1.895	1.909	1.904	1.904
0.005	0.005	0.005	0.000	0.005	-0.020	0.376	2.749	1.904	1.895	1.890	1.909	1.904	1.895
0.005	0.000	0.005	0.000	0.005	0.010	0.391	2.646	1.899	1.895	1.895	1.909	1.909	1.909
0.000	0.000	0.000	0.000	0.010	-0.005	0.376	2.666	1.890	1.895	1.890	1.909	1.909	1.904
0.000	0.005	-0.005	0.000	0.005	0.010	0.391	2.725	1.895	1.895	1.895	1.909	1.904	1.909
0.000	0.005	0.000	0.005	0.005	0.005	0.391	2.681	1.890	1.890	1.890	1.909	1.904	1.904
0.005	0.005	0.005	0.005	0.000	0.000	0.386	2.754	1.899	1.890	1.890	1.909	1.904	1.904
-0.005	0.000	0.000	0.000	0.005	0.010	0.386	2.681	1.890	1.890	1.890	1.904	1.904	1.904
-0.005	0.000	0.000	0.000	0.000	0.000	0.381	2.695	1.890	1.890	1.885	1.904	1.899	1.904
-0.005	0.005	0.000	0.000	0.005	-0.010	0.386	2.681	1.885	1.890	1.885	1.904	1.899	1.895
0.005	0.015	0.005	0.005	0.000	0.000	0.386	2.705	1.895	1.890	1.885	1.904	1.899	1.904
0.005	0.005	0.000	0.000	0.000	0.015	0.386	2.705	1.895	1.890	1.885	1.904	1.899	1.904
-0.005	0.000	0.005	0.005	0.005	0.010	0.386	2.690	1.895	1.895	1.890	1.904	1.899	1.899
0.000	0.000	0.005	0.005	-0.005	0.005	0.391	2.700	1.895	1.895	1.890	1.904	1.899	1.899
0.005	-0.005	-0.005	0.000	-0.005	-0.020	0.386	2.700	1.899	1.895	1.890	1.904	1.899	1.895
0.005	-0.010	0.000	0.005	-0.010	0.005	0.391	2.695	1.899	1.895	1.890	1.909	1.904	1.904
0.000	0.000	0.005	0.000	-0.005	0.005	0.386	2.690	1.899	1.899	1.895	1.909	1.904	1.904
-0.005	0.005	-0.005	0.000	0.000	0.005	0.396	2.690	1.895	1.899	1.895	1.914	1.904	1.899
-0.005	0.005	0.005	0.005	0.000	0.005	0.386	2.695	1.899	1.899	1.895	1.914	1.909	1.904
0.010	0.000	-0.005	0.000	0.005	0.000	0.391	2.695	1.899	1.899	1.895	1.909	1.909	1.899
-0.005	-0.005	0.005	0.005	0.000	0.000	0.386	2.676	1.895	1.899	1.895	1.909	1.909	1.909
-0.005	0.000	0.000	0.005	0.010	0.005	0.391	2.700	1.890	1.890	1.895	1.914	1.904	1.904
-0.005	-0.005	0.005	-0.005	0.005	0.010	0.386	2.705	1.895	1.890	1.890	1.914	1.909	1.904
0.015	0.010	0.005	0.000	0.005	0.005	0.391	2.695	1.895	1.895	1.890	1.909	1.909	1.904
0.010	-0.005	-0.005	0.005	0.005	0.000	0.386	2.700	1.895	1.890	1.885	1.904	1.904	1.904
0.000	-0.005	0.000	0.005	0.005	-0.005	0.396	2.681	1.890	1.890	1.885	1.904	1.899	1.899
-0.005	0.005	0.000	0.000	0.000	-0.024	0.381	2.700	1.890	1.890	1.885	1.904	1.899	1.895
0.010	0.010	0.000	0.005	0.000	0.005	0.386	2.681	1.895	1.895	1.890	1.904	1.899	1.904
-0.005	0.005	0.005	0.000	-0.005	-0.010	0.381	2.695	1.885	1.890	1.890	1.904	1.899	1.899
0.005	0.000	0.005	0.005	-0.005	0.010	0.386	2.695	1.890	1.890	1.890	1.904	1.899	1.904
0.000	-0.005	0.000	0.000	0.000	0.010	0.381	2.793	1.904	1.895	1.890	1.904	1.904	1.904
0.005	0.005	0.000	0.005	0.000	0.020	0.391	2.637	1.899	1.895	1.890	1.909	1.904	1.909
0.000	0.000	0.005	0.000	-0.005	0.000	0.381	2.656	1.899	1.895	1.890	1.909	1.904	1.904
0.005	0.000	0.000	0.005	0.000	0.020	0.386	2.686	1.895	1.895	1.895	1.909	1.909	1.909
0.005	0.005	0.005	0.005	0.000	-0.005	0.386	2.651	1.890	1.895	1.895	1.909	1.909	1.904
0.005	0.000	0.000	0.000	0.005	-0.024	0.391	2.637	1.890	1.895	1.895	1.909	1.909	1.904
0.005	-0.010	0.000	0.000	0.000	-0.005	0.376	2.690	1.885	1.890	1.890	1.909	1.909	1.904
0.005	-0.005	0.000	0.005	0.000	0.000	0.386	2.734	1.895	1.890	1.890	1.909	1.904	1.904
-0.005	0.000	0.000	0.000	0.000	0.000	0.381	2.646	1.890	1.890	1.890	1.909	1.904	1.904
-0.005	0.005	0.005	0.005	0.015	0.000	0.381	2.627	1.880	1.885	1.890	1.909	1.904	1.904
-0.005	0.005	-0.005	0.000	0.005	-0.024	0.381	2.754	1.890	1.885	1.885	1.904	1.904	1.895
0.000	0.005	0.000	0.000	0.010	-0.005	0.391	2.744	1.895	1.885	1.885	1.904	1.899	1.904
0.005	0.000	0.000	0.000	0.000	0.010	0.391	2.656	1.890	1.885	1.880	1.904	1.899	1.899
0.000	0.005	0.005	0.000	0.005	0.010	0.386	2.666	1.885	1.885	1.885	1.899	1.899	1.904
0.010	0.010	0.005	0.000	0.000	0.000	0.391	2.739	1.895	1.890	1.885	1.899	1.899	1.895
-0.005	0.015	0.005	0.005	0.005	0.010	0.396	2.690	1.895	1.890	1.890	1.904	1.899	1.899
0.000	-0.005	0.000	0.000	0.000	0.000	0.386	2.720	1.895	1.885	1.885	1.904	1.899	1.899
0.000	-0.005	0.005	0.000	0.000	-0.015	0.381	2.710	1.899	1.895	1.890	1.904	1.899	1.890
-0.005	-0.005	0.000	0.005	-0.005	-0.005	0.391	2.705	1.895	1.895	1.885	1.904	1.899	1.899
0.000	0.005	0.000	0.005	-0.005	0.005	0.386	2.690	1.895	1.899	1.895	1.909	1.899	1.904
0.000	0.005	0.005	0.000	0.000	-0.005	0.386	2.686	1.899	1.895	1.895	1.909	1.904	1.904
0.000	0.005	0.000	0.000	0.000	0.000	0.381	2.695	1.899	1.895	1.895	1.909	1.904	1.904
-0.005	0.005	0.000	0.000	-0.005	0.010	0.391	2.695	1.904	1.899	1.895	1.909	1.904	1.909
0.000	0.005	0.005	0.010	0.005	0.024	0.386	2.695	1.899	1.895	1.895	1.909	1.904	1.909
0.005	-0.005	0.000	0.005	0.000	0.000	0.386	2.695	1.899	1.895	1.895	1.909	1.904	1.899
0.010	-0.005	0.010	0.005	0.000	0.034	0.386	2.686	1.890	1.890	1.890	1.909	1.904	1.909
0.000	0.000	0.000	0.005	0.005	0.029	0.391	2.690	1.895	1.895	1.895	1.909	1.904	1.909
0.005	0.000	0.005	0.005	0.005	0.000	0.386	2.671	1.890	1.890	1.890	1.904	1.904	1.899
0.000	0.005	-0.005	0.000	0.005	0.020	0.396	2.690	1.890	1.890	1.890	1.909	1.904	1.904
0.005	0.005	0.000	0.000	0.010	0.000	0.391	2.695	1.890	1.890	1.890	1.904	1.899	1.899
0.000	0.005	0.000	0.000	0.005	-0.005	0.391	2.715	1.895	1.890	1.885	1.904	1.899	1.899
0.005	-0.010	0.005	0.005	0.005	-0.005	0.391	2.695	1.890	1.885	1.885	1.904	1.899	1.895
0.000	0.000	0.000	0.005	0.000	-0.005	0.391	2.695	1.895	1.885	1.885	1.904	1.899	1.899
0.010	0.000	0.005	0.000	0.000	-0.020	0.386	2.710	1.899	1.890	1.885	1.904	1.899	1.890
0.010	0.000	0.000	0.005	0.005	-0.024	0.396	2.710	1.899	1.895	1.890	1.904	1.899	1.895
0.000	0.000	0.000	0.000	0.000	-0.005	0.386	2.700	1.899	1.895	1.890	1.909	1.904	1.904
0.005	0.010	0.005	0.005	0.005	-0.015	0.391	2.690	1.899	1.899	1.895	1.909	1.904	1.899
0.005	0.015	0.005	-0.005	0.000	0.005	0.391	2.695	1.899	1.904	1.895	1.909	1.909	1.909
0.015	0.010	0.005	0.000	-0.005	0.005	0.386	2.686	1.899	1.899	1.895	1.909	1.904	1.904
0.000	0.005	0.000	0.000	0.005	-0.005	0.391	2.695	1.899	1.899	1.895	1.909	1.904	1.904
0.000	0.005	-0.005	-0.005	0.005	0.000	0.386	2.803	1.909	1.899	1.895	1.909	1.904	1.909
0.010	0.005	0.000	0.000	0.005	0.000	0.386	2.651	1.899	1.895	1.895	1.909	1.904	1.904
0.000	0.000	0.005	0.000	0.010	0.000	0.381	2.671	1.890	1.895	1.895	1.909	1.904	1.904
-0.005	-0.005	0.000	0.005	0.000	0.005	0.386	2.686	1.890	1.890	1.890	1.909	1.904	1.904
0.000	0.000	0.000	0.000	0.000	-0.010	0.386	2.642	1.885	1.890	1.885	1.904	1.904	1.895
0.005	0.000	0.000	0.000	0.005	0.000	0.386	2.715	1.890	1.885	1.890	1.904	1.904	1.909
0.005	0.010	0.000	0.000	0.000	0.010	0.386	2.705	1.890	1.890	1.885	1.904	1.899	1.904
-0.005	0.000	0.005	0.010	0.000	0.000	0.386	2.734	1.895	1.885	1.890	1.909	1.899	1.899
0.010	0.000	0.000	0.010	0.000	-0.010	0.381	2.661	1.890	1.890	1.890	1.909	1.904	1.899
0.005	0.000	0.000	0.000	0.000	0.024	0.391	2.651	1.895	1.890	1.890	1.909	1.904	1.909
0.005	0.010	0.000	0.005	0.005	0.020	0.386	2.759	1.899	1.895	1.890	1.904	1.904	1.904
-0.005	0.005	0.000	0.005	0.000	0.000	0.386	2.656	1.890	1.895	1.890	1.909	1.904	1.904
0.010	-0.005	0.000	0.000	0.000	0.005	0.386	2.744	1.904	1.895	1.890	1.909	1.904	1.904
0.000	-0.005	0.005	0.005	0.000	-0.024	0.391	2.666	1.895	1.895	1.895	1.909	1.904	1.899
0.010	-0.010	0.000	0.005	0.000	0.010	0.386	2.749	1.909	1.895	1.895	1.909	1.904	1.909
0.005	-0.005	0.000	0.000	0.000	0.005	0.386	2.671	1.899	1.890	1.895	1.909	1.909	1.904
0.000	-0.005	0.000	0.000	0.005	0.005	0.386	2.754	1.904	1.899	1.895	1.909	1.904	1.904
0.005	-0.005	0.005	0.000	0.000	0.005	0.386	2.695	1.904	1.895	1.895	1.909	1.904	1.904
0.005	0.005	-0.005	0.000	0.005	0.000	0.386	2.681	1.899	1.899	1.895	1.909	1.909	1.904
0.000	0.005	0.000	0.000	0.005	-0.024	0.391	2.681	1.895	1.895	1.895	1.904	1.904	1.899
0.000	0.000	-0.005	0.000	0.005	-0.020	0.386	2.676	1.890	1.890	1.890	1.904	1.904	1.899
0.005	-0.005	0.005	0.000	0.005	0.005	0.381	2.710	1.895	1.890	1.890	1.909	1.899	1.904
-0.005	0.005	0.005	0.000	0.005	0.005	0.386	2.690	1.890	1.890	1.890	1.909	1.904	1.904
-0.005	0.005	0.000	0.000	0.005	0.000	0.391	2.695	1.890	1.885	1.890	1.909	1.904	1.904
0.000	0.005	0.005	0.000	0.005	0.000	0.391	2.700	1.890	1.890	1.890	1.909	1.904	1.904
0.000	0.000	0.000	0.000	0.005	0.005	0.391	2.681	1.890	1.890	1.885	1.909	1.904	1.904
-0.005	0.000	0.000	0.000	0.000	-0.005	0.381	2.705	1.895	1.890	1.890	1.909	1.904	1.899
0.000	0.010	0.010	0.000	0.005	0.005	0.386	2.695	1.899	1.895	1.890	1.909	1.904	1.904
0.000	0.005	0.005	0.010	0.000	-0.015	0.386	2.695	1.899	1.895	1.890	1.914	1.904	1.899
0.010	0.015	0.000	0.005	0.005	-0.005	0.386	2.710	1.904	1.899	1.895	1.909	1.909	1.909
0.005	0.020	0.000	0.000	-0.005	0.020	0.391	2.700	1.899	1.899	1.899	1.914	1.904	1.914
0.005	0.010	-0.005	0.000	-0.005	0.005	0.386	2.700	1.899	1.899	1.895	1.914	1.904	1.909
0.010	0.015	0.000	0.000	0.000	0.024	0.381	2.700	1.899	1.899	1.895	1.914	1.909	1.909
0.000	0.005	0.005	0.000	0.005	0.024	0.386	2.695	1.895	1.895	1.895	1.914	1.909	1.909
-0.005	0.000	0.005	0.005	0.000	0.015	0.391	2.705	1.899	1.895	1.895	1.914	1.909	1.909
0.000	-0.010	0.005	0.005	0.000	-0.005	0.381	2.686	1.895	1.890	1.890	1.909	1.904	1.899
0.000	0.005	0.005	0.005	0.010	0.010	0.386	2.705	1.895	1.890	1.890	1.909	1.909	1.909
-0.005	0.000	0.000	0.005	0.010	0.015	0.391	2.695	1.890	1.890	1.885	1.909	1.904	1.904
-0.005	0.005	0.005	0.000	0.010	-0.005	0.386	2.690	1.880	1.885	1.890	1.904	1.904	1.899
-0.005	0.005	0.000	0.005	0.005	0.005	0.381	2.690	1.890	1.885	1.885	1.904	1.904	1.904
0.000	-0.005	0.005	0.005	0.000	0.000	0.386	2.749	1.899	1.885	1.885	1.904	1.899	1.899
0.000	0.010	-0.005	0.005	0.005	-0.005	0.386	2.651	1.890	1.890	1.885	1.904	1.899	1.904
0.005	0.000	0.000	0.000	0.000	-0.029	0.386	2.666	1.890	1.890	1.885	1.904	1.899	1.890
0.000	-0.005	0.005	0.000	0.000	0.005	0.381	2.705	1.890	1.885	1.885	1.904	1.904	1.904
-0.005	0.000	0.000	0.000	0.005	0.000	0.391	2.798	1.904	1.890	1.890	1.904	1.899	1.904
-0.005	-0.005	-0.005	0.000	-0.005	-0.015	0.381	2.744	1.909	1.899	1.890	1.909	1.904	1.904
0.010	0.005	0.000	0.005	0.005	0.005	0.386	2.686	1.909	1.899	1.895	1.909	1.904	1.909
0.000	0.000	0.000	0.005	0.000	-0.015	0.386	2.646	1.904	1.904	1.895	1.909	1.904	1.899
0.005	0.000	0.000	0.000	0.005	0.005	0.391	2.749	1.909	1.904	1.899	1.914	1.909	1.909
0.010	-0.020	0.005	0.005	0.005	0.010	0.386	2.744	1.909	1.899	1.895	1.914	1.904	1.909
0.005	-0.005	0.005	0.000	0.005	-0.010	0.391	2.661	1.899	1.899	1.899	1.919	1.904	1.904
0.005	-0.010	0.005	0.005	0.005	-0.020	0.381	2.651	1.890	1.895	1.899	1.914	1.909	1.899
0.000	0.000	0.000	0.000	0.010	0.015	0.391	2.729	1.895	1.899	1.895	1.914	1.909	1.914
0.000	0.015	0.005	0.000	0.000	-0.010	0.386	2.651	1.890	1.895	1.895	1.909	1.904	1.899
-0.005	0.015	0.000	0.000	0.005	0.015	0.381	2.651	1.885	1.890	1.895	1.909	1.904	1.909
0.000	0.005	0.000	0.005	0.000	0.010	0.386	2.695	1.885	1.885	1.890	1.909	1.904	1.904
0.000	0.010	-0.005	0.005	0.000	-0.020	0.386	2.739	1.890	1.885	1.885	1.909	1.904	1.895
0.005	0.005	0.000	0.000	0.005	0.010	0.381	2.690	1.890	1.885	1.890	1.909	1.904	1.909
0.005	0.020	0.005	0.005	0.000	0.005	0.381	2.705	1.890	1.890	1.890	1.909	1.904	1.904
0.005	0.005	0.005	0.000	-0.005	-0.005	0.391	2.705	1.890	1.890	1.890	1.909	1.904	1.904
0.015	0.005	0.005	0.005	-0.005	-0.015	0.391	2.705	1.899	1.890	1.890	1.909	1.904	1.899
-0.005	0.000	0.000	0.005	-0.005	0.010	0.381	2.686	1.895	1.895	1.890	1.909	1.909	1.914
0.000	0.000	0.005	0.000	0.000	0.015	0.381	2.681	1.895	1.895	1.890	1.909	1.909	1.909
0.010	-0.005	0.000	0.005	-0.005	-0.005	0.391	2.715	1.904	1.895	1.890	1.909	1.904	1.904
0.000	0.000	0.000	0.000	0.005	0.020	0.391	2.710	1.899	1.895	1.895	1.909	1.909	1.914
0.005	0.000	0.000	0.000	0.005	0.005	0.386	2.686	1.899	1.895	1.895	1.909	1.909	1.909
-0.005	-0.005	0.000	0.000	0.000	-0.005	0.381	2.690	1.895	1.895	1.890	1.909	1.909	1.904
0.005	0.000	0.000	0.000	0.000	-0.005	0.386	2.676	1.895	1.899	1.895	1.909	1.909	1.904
0.000	0.000	0.005	0.000	0.005	0.005	0.386	2.681	1.890	1.895	1.890	1.909	1.909	1.909
-0.005	0.000	0.000	0.005	0.000	-0.010	0.391	2.686	1.890	1.890	1.890	1.909	1.904	1.904
0.000	-0.005	0.005	0.000	0.010	-0.005	0.381	2.695	1.890	1.885	1.890	1.909	1.904	1.899
-0.005	-0.005	0.000	0.005	0.005	0.005	0.386	2.690	1.890	1.885	1.885	1.904	1.899	1.904
-0.005	0.000	0.000	0.000	0.010	0.010	0.376	2.700	1.890	1.890	1.885	1.904	1.899	1.909
0.000	0.000	0.005	0.000	0.000	-0.005	0.386	2.695	1.895	1.885	1.890	1.904	1.895	1.899
0.010	-0.005	0.010	0.005	0.005	0.000	0.391	2.705	1.899	1.890	1.890	1.904	1.899	1.899
0.005	0.010	0.005	0.000	0.000	0.005	0.391	2.705	1.899	1.895	1.885	1.904	1.899	1.899
0.000	0.005	-0.005	0.000	-0.005	0.010	0.381	2.700	1.899	1.895	1.890	1.904	1.904	1.899
0.005	0.005	0.000	0.005	0.000	-0.010	0.396	2.690	1.895	1.899	1.890	1.909	1.899	1.895
0.000	0.010	0.005	0.000	-0.005	0.010	0.391	2.695	1.904	1.899	1.895	1.909	1.904	1.904
0.005	0.005	0.005	0.005	0.000	0.005	0.381	2.700	1.899	1.895	1.895	1.909	1.904	1.904
0.000	0.000	0.000	0.000	0.000	0.010	0.381	2.808	1.909	1.904	1.899	1.914	1.909	1.909
-0.005	0.000	0.000	0.000	0.000	-0.010	0.391	2.637	1.899	1.899	1.895	1.909	1.909	1.899
-0.005	0.005	-0.005	0.005	0.000	0.005	0.381	2.666	1.895	1.899	1.899	1.914	1.909	1.909
0.000	-0.010	-0.005	0.000	-0.005	0.010	0.391	2.690	1.895	1.890	1.895	1.909	1.904	1.909
0.005	0.000	0.000	0.005	0.005	-0.010	0.381	2.637	1.890	1.890	1.895	1.914	1.909	1.904
-0.010	-0.010	0.000	0.000	0.005	0.010	0.386	2.690	1.895	1.890	1.890	1.909	1.909	1.909
0.000	-0.005	0.005	0.005	0.005	0.005	0.386	2.695	1.899	1.890	1.890	1.914	1.909	1.904
0.005	0.005	0.005	0.000	0.005	0.010	0.381	2.744	1.899	1.895	1.890	1.909	1.904	1.904
0.005	-0.005	0.000	0.000	0.005	0.005	0.386	2.642	1.895	1.895	1.890	1.904	1.904	1.904
0.000	-0.005	0.000	0.000	0.000	0.000	0.381	2.627	1.890	1.890	1.885	1.909	1.904	1.904
0.005	0.005	0.000	0.000	0.000	-0.005	0.386	2.754	1.895	1.890	1.890	1.904	1.899	1.899
0.010	0.005	0.000	0.005	0.005	0.005	0.381	2.729	1.890	1.890	1.890	1.904	1.904	1.904
0.005	0.010	0.000	0.005	0.000	-0.010	0.386	2.734	1.899	1.895	1.890	1.909	1.904	1.899
0.010	0.010	0.005	0.005	-0.005	0.005	0.376	2.661	1.895	1.895	1.895	1.914	1.909	1.909
0.000	0.029	0.000	0.005	0.000	0.000	0.381	2.729	1.899	1.904	1.895	1.909	1.904	1.904
0.005	0.005	0.000	0.000	0.000	0.010	0.381	2.666	1.899	1.895	1.895	1.909	1.909	1.909
0.015	0.010	0.000	0.000	0.000	0.010	0.386	2.632	1.895	1.895	1.895	1.914	1.909	1.909
0.000	0.005	0.000	0.000	0.000	0.005	0.391	2.686	1.895	1.895	1.895	1.914	1.909	1.909
0.015	0.015	0.000	0.005	0.000	0.005	0.396	2.700	1.899	1.899	1.895	1.914	1.909	1.909
0.000	0.010	0.005	-0.005	0.005	0.000	0.386	2.710	1.890	1.895	1.895	1.914	1.909	1.909
0.005	0.005	0.000	0.000	0.005	0.005	0.396	2.690	1.895	1.895	1.890	1.909	1.909	1.904
0.000	0.005	0.005	0.005	0.000	-0.005	0.386	2.681	1.885	1.890	1.890	1.909	1.904	1.904
0.000	0.000	0.005	0.000	0.005	0.000	0.391	2.686	1.890	1.885	1.890	1.909	1.904	1.904
-0.010	0.000	0.010	0.000	0.005	0.005	0.386	2.700	1.890	1.880	1.885	1.909	1.904	1.904
-0.010	0.005	0.000	0.005	0.005	-0.005	0.391	2.695	1.890	1.885	1.885	1.904	1.899	1.895
0.000	0.000	0.000	0.005	0.005	0.005	0.386	2.681	1.895	1.880	1.885	1.904	1.899	1.904
-0.005	-0.005	0.000	0.000	-0.005	0.015	0.396	2.705	1.895	1.885	1.885	1.904	1.899	1.904
-0.010	0.000	0.000	0.000	-0.005	0.010	0.386	2.690	1.895	1.885	1.880	1.904	1.899	1.899
0.000	-0.005	0.005	0.005	-0.005	-0.005	0.391	2.700	1.895	1.890	1.880	1.904	1.899	1.895
0.000	0.000	0.000	0.000	0.000	0.000	0.386	2.676	1.895	1.890	1.885	1.904	1.899	1.904
-0.005	0.000	0.000	0.005	0.000	-0.005	0.386	2.710	1.899	1.895	1.890	1.904	1.904	1.899
-0.005	0.005	0.005	0.000	0.000	-0.024	0.376	2.710	1.899	1.890	1.890	1.904	1.895	1.895
0.000	0.000	0.000	0.000	0.000	0.015	0.381	2.705	1.904	1.899	1.890	1.904	1.904	1.909
0.005	0.000	0.005	0.005	0.000	0.020	0.381	2.710	1.909	1.899	1.895	1.909	1.904	1.909
0.005	-0.005	0.000	0.005	0.005	0.005	0.391	2.695	1.909	1.904	1.895	1.909	1.909	1.904
0.015	0.000	0.000	0.005	0.005	0.000	0.386	2.705	1.904	1.904	1.895	1.909	1.909	1.904
0.010	0.000	0.000	0.005	0.010	0.010	0.386	2.700	1.899	1.899	1.899	1.914	1.909	1.909
0.020	-0.005	0.005	-0.005	0.005	0.005	0.381	2.686	1.899	1.899	1.895	1.914	1.904	1.904
0.010	0.005	0.005	0.000	0.010	0.005	0.386	2.686	1.895	1.899	1.895	1.914	1.909	1.904
0.000	0.000	0.000	-0.005	0.005	0.010	0.381	2.681	1.885	1.895	1.895	1.909	1.904	1.904
0.005	0.010	0.000	0.000	0.005	0.005	0.381	2.798	1.904	1.895	1.890	1.909	1.904	1.904
0.000	0.005	0.005	0.000	0.010	0.005	0.386	2.656	1.890	1.890	1.895	1.909	1.904	1.899
0.005	0.000	-0.005	0.000	0.000	-0.010	0.381	2.666	1.890	1.890	1.890	1.904	1.904	1.899
-0.005	-0.005	0.000	0.000	0.005	-0.010	0.391	2.676	1.885	1.885	1.885	1.904	1.899	1.890
-0.024	0.000	0.000	-0.005	0.000	-0.029	0.381	2.651	1.875	1.885	1.885	1.904	1.904	1.895
-0.015	0.000	0.000	0.010	0.000	0.005	0.391	2.646	1.880	1.880	1.885	1.909	1.904	1.899
-0.010	-0.010	0.005	0.010	0.005	0.010	0.386	2.695	1.890	1.880	1.885	1.909	1.904	1.909
-0.015	0.015	0.005	0.010	-0.005	0.010	0.386	2.734	1.899	1.895	1.885	1.909	1.904	1.904
-0.010	0.000	0.000	0.015	0.000	0.015	0.381	2.651	1.895	1.895	1.890	1.909	1.909	1.914
0.000	0.005	0.005	0.010	0.000	-0.005	0.386	2.642	1.895	1.895	1.890	1.909	1.904	1.904
0.000	0.005	0.005	0.000	0.000	0.010	0.381	2.759	1.904	1.895	1.895	1.909	1.909	1.909
0.005	0.000	0.000	0.000	0.005	0.015	0.386	2.651	1.909	1.899	1.895	1.909	1.904	1.909
0.010	0.000	0.000	0.000	0.005	0.000	0.381	2.651	1.899	1.899	1.895	1.909	1.904	1.899
0.010	0.005	0.000	0.000	0.005	-0.010	0.386	2.676	1.899	1.895	1.895	1.909	1.904	1.904
0.029	0.005	0.005	0.005	0.000	0.000	0.386	2.739	1.904	1.899	1.895	1.914	1.904	1.904
0.039	0.005	0.000	-0.005	0.000	-0.020	0.386	2.690	1.909	1.899	1.895	1.909	1.904	1.895
0.039	0.005	0.000	0.000	0.005	0.000	0.386	2.734	1.904	1.899	1.895	1.909	1.904	1.904
0.024	0.005	0.005	0.005	0.000	-0.010	0.391	2.676	1.895	1.895	1.895	1.909	1.904	1.899
0.024	0.010	0.000	0.005	0.000	0.005	0.386	2.695	1.890	1.899	1.890	1.909	1.904	1.904
0.015	0.015	0.000	0.010	0.005	-0.005	0.391	2.710	1.890	1.890	1.895	1.914	1.904	1.904
0.005	0.000	0.005	0.005	0.005	0.000	0.386	2.690	1.890	1.885	1.890	1.909	1.904	1.904
0.000	-0.005	0.000	0.005	0.000	0.010	0.391	2.700	1.890	1.885	1.885	1.909	1.904	1.904
0.005	0.000	0.000	0.000	-0.005	0.005	0.386	2.700	1.890	1.890	1.890	1.909	1.899	1.909
0.000	0.000	0.000	0.005	0.000	0.005	0.396	2.710	1.895	1.890	1.890	1.909	1.904	1.904
-0.020	0.000	0.000	0.000	0.000	-0.015	0.386	2.700	1.890	1.890	1.890	1.909	1.909	1.899
-0.005	0.010	0.005	0.000	0.000	-0.015	0.386	2.681	1.899	1.895	1.890	1.909	1.904	1.904
-0.005	0.000	0.000	0.000	0.005	0.000	0.386	2.690	1.899	1.895	1.895	1.909	1.909	1.909
-0.010	-0.005	0.005	0.000	-0.005	0.005	0.391	2.686	1.895	1.890	1.890	1.909	1.904	1.904
-0.005	0.000	0.005	0.000	0.005	-0.015	0.381	2.686	1.899	1.895	1.895	1.914	1.909	1.904
-0.005	-0.005	0.005	0.000	0.005	0.010	0.376	2.690	1.899	1.895	1.895	1.914	1.909	1.914
-0.005	-0.010	0.000	0.005	0.005	0.010	0.381	2.690	1.899	1.895	1.890	1.909	1.909	1.909
-0.005	-0.005	0.005	0.005	0.010	0.015	0.381	2.705	1.895	1.895	1.890	1.909	1.909	1.909
-0.005	0.000	0.000	0.000	0.000	0.010	0.386	2.700	1.890	1.890	1.890	1.909	1.904	1.909
-0.005	0.000	0.000	0.000	0.005	-0.015	0.386	2.700	1.895	1.890	1.890	1.909	1.899	1.895
-0.005	0.005	0.000	0.000	0.000	0.000	0.386	2.686	1.890	1.890	1.890	1.904	1.899	1.899
0.000	0.005	0.000	0.000	0.005	0.010	0.386	2.695	1.895	1.890	1.890	1.909	1.899	1.904
-0.010	0.005	0.000	0.005	0.000	0.005	0.386	2.695	1.890	1.890	1.890	1.904	1.899	1.904
-0.005	0.000	0.000	-0.005	0.000	-0.010	0.386	2.705	1.895	1.890	1.890	1.904	1.899	1.899
0.000	0.000	0.005	0.005	0.005	0.010	0.391	2.695	1.895	1.890	1.890	1.909	1.899	1.899
0.000	-0.005	0.005	0.000	0.000	0.010	0.381	2.695	1.895	1.890	1.890	1.904	1.899	1.904
0.005	0.015	0.005	0.000	0.000	-0.005	0.386	2.749	1.904	1.899	1.895	1.909	1.904	1.899
0.005	0.010	0.000	-0.005	0.005	0.010	0.386	2.651	1.899	1.895	1.890	1.909	1.904	1.904
0.010	0.010	0.000	0.000	-0.005	0.015	0.386	2.666	1.899	1.895	1.895	1.909	1.904	1.904
0.000	-0.005	0.000	0.005	-0.005	0.010	0.386	2.690	1.899	1.895	1.895	1.914	1.909	1.909
-0.005	0.000	0.000	0.005	-0.005	0.005	0.391	2.646	1.895	1.895	1.890	1.914	1.904	1.904
0.000	0.000	0.000	0.005	-0.005	-0.005	0.386	2.642	1.885	1.895	1.895	1.914	1.909	1.899
0.005	0.005	0.000	0.005	0.000	-0.029	0.386	2.832	1.909	1.899	1.895	1.909	1.909	1.899
-0.005	-0.005	0.000	0.000	0.000	0.005	0.381	2.666	1.895	1.895	1.895	1.914	1.909	1.909
0.010	-0.005	0.000	0.000	0.010	0.000	0.386	2.749	1.904	1.895	1.895	1.909	1.909	1.904
0.015	-0.005	0.010	0.005	0.010	0.005	0.391	2.637	1.895	1.890	1.895	1.914	1.909	1.909
0.000	0.000	0.000	0.005	0.005	-0.005	0.386	2.734	1.895	1.895	1.890	1.909	1.904	1.899
-0.005	0.010	0.005	0.000	0.005	0.005	0.386	2.715	1.899	1.895	1.895	1.909	1.904	1.904
0.005	0.010	0.005	0.000	0.000	-0.005	0.386	2.632	1.885	1.890	1.890	1.909	1.899	1.904
0.015	0.000	0.000	0.000	0.005	0.005	0.391	2.661	1.885	1.885	1.885	1.909	1.904	1.904
0.005	0.000	0.000	0.000	0.000	0.000	0.386	2.651	1.880	1.880	1.885	1.904	1.899	1.904
0.005	-0.005	0.005	0.005	0.000	-0.005	0.391	2.686	1.885	1.885	1.885	1.909	1.904	1.899
-0.005	-0.005	0.005	0.005	0.000	-0.010	0.386	2.646	1.890	1.885	1.885	1.904	1.899	1.904
0.005	0.005	0.000	0.005	0.005	0.000	0.381	2.695	1.895	1.890	1.890	1.909	1.899	1.904
-0.005	-0.020	0.005	0.005	0.000	0.005	0.391	2.710	1.895	1.885	1.885	1.909	1.899	1.904
-0.005	-0.015	0.000	0.005	0.000	0.000	0.391	2.695	1.899	1.890	1.890	1.909	1.904	1.904
0.000	0.010	0.005	0.005	0.005	0.005	0.386	2.695	1.899	1.899	1.890	1.909	1.904	1.904
0.000	0.015	0.000	0.005	0.000	0.015	0.391	2.710	1.904	1.904	1.895	1.909	1.909	1.909
-0.005	0.010	0.005	0.000	0.000	0.005	0.386	2.690	1.899	1.899	1.895	1.909	1.904	1.904
0.005	0.010	0.005	0.005	0.000	0.015	0.386	2.700	1.899	1.899	1.899	1.909	1.904	1.904
-0.005	0.005	-0.005	0.000	0.000	-0.020	0.381	2.705	1.895	1.895	1.895	1.909	1.904	1.899
-0.005	0.000	0.000	0.000	0.005	-0.020	0.391	2.676	1.895	1.890	1.890	1.909	1.904	1.895
0.005	0.000	0.005	-0.005	0.005	-0.005	0.386	2.695	1.895	1.895	1.890	1.909	1.904	1.904
0.005	0.005	0.005	-0.010	0.005	0.020	0.386	2.686	1.890	1.890	1.890	1.904	1.904	1.904
0.015	0.000	0.000	-0.010	0.000	0.010	0.386	2.700	1.890	1.890	1.890	1.904	1.899	1.904
0.015	0.005	0.005	0.000	0.010	-0.005	0.396	2.705	1.895	1.885	1.890	1.904	1.899	1.899
-0.005	0.000	0.005	0.005	0.000	0.010	0.391	2.705	1.890	1.885	1.885	1.909	1.899	1.904
-0.010	-0.005	0.005	0.010	-0.005	0.010	0.391	2.700	1.890	1.885	1.885	1.909	1.904	1.899
-0.010	0.005	0.000	0.015	0.000	0.010	0.381	2.705	1.895	1.890	1.885	1.909	1.904	1.899
-0.010	0.010	0.005	0.020	0.000	0.005	0.381	2.700	1.899	1.895	1.890	1.909	1.904	1.899
-0.015	0.000	0.000	0.015	0.005	-0.010	0.386	2.681	1.895	1.895	1.890	1.909	1.904	1.899
-0.015	0.010	0.005	0.015	0.005	0.005	0.386	2.710	1.895	1.895	1.890	1.909	1.909	1.904
-0.005	0.005	-0.005	0.015	0.000	-0.015	0.386	2.705	1.904	1.899	1.895	1.909	1.904	1.904
0.000	0.010	0.005	0.000	0.000	0.010	0.391	2.710	1.909	1.899	1.895	1.909	1.904	1.909
0.005	0.005	0.005	0.000	0.005	0.010	0.381	2.686	1.904	1.904	1.895	1.909	1.904	1.909
0.024	-0.005	0.000	-0.005	0.000	0.005	0.381	2.690	1.904	1.899	1.895	1.909	1.904	1.904
0.024	-0.005	-0.005	-0.010	0.005	0.000	0.386	2.803	1.909	1.899	1.895	1.909	1.904	1.904
0.020	-0.005	0.000	-0.005	0.010	-0.010	0.381	2.642	1.899	1.899	1.895	1.909	1.904	1.899
0.029	-0.005	0.000	-0.005	0.000	0.000	0.381	2.661	1.895	1.895	1.895	1.909	1.899	1.904
0.024	0.000	-0.005	-0.005	0.005	0.005	0.381	2.676	1.895	1.899	1.895	1.909	1.904	1.904
0.015	0.015	0.000	-0.005	0.000	-0.020	0.386	2.642	1.880	1.890	1.895	1.909	1.904	1.895
0.005	-0.020	-0.005	0.005	0.005	0.000	0.386	2.642	1.870	1.880	1.885	1.909	1.904	1.904
0.000	-0.020	0.005	0.005	0.000	0.005	0.386	2.700	1.880	1.875	1.885	1.909	1.904	1.904
-0.005	-0.010	0.000	0.000	0.000	0.000	0.381	2.734	1.890	1.885	1.880	1.904	1.899	1.899
-0.005	0.000	0.005	0.005	0.005	0.010	0.386	2.656	1.890	1.890	1.885	1.904	1.904	1.904
0.000	0.005	0.000	0.005	0.000	0.005	0.376	2.622	1.880	1.890	1.885	1.904	1.899	1.904
-0.005	0.005	0.005	0.005	-0.005	0.005	0.386	2.734	1.895	1.895	1.890	1.904	1.899	1.904
-0.005	0.015	0.005	0.005	0.000	-0.010	0.386	2.754	1.890	1.890	1.890	1.904	1.904	1.904
-0.010	0.005	0.000	0.000	0.000	-0.010	0.386	2.666	1.890	1.890	1.890	1.904	1.904	1.899
0.000	0.000	0.005	0.000	0.005	0.010	0.381	2.681	1.890	1.890	1.890	1.904	1.904	1.909
-0.010	0.005	0.005	0.005	0.005	0.015	0.386	2.710	1.895	1.890	1.890	1.909	1.904	1.909
-0.005	0.005	0.000	0.005	0.000	0.005	0.386	2.700	1.899	1.895	1.890	1.909	1.904	1.904
-0.005	0.000	-0.005	0.005	0.005	0.005	0.386	2.656	1.895	1.895	1.890	1.909	1.904	1.904
0.000	0.000	0.000	0.005	0.005	-0.024	0.386	2.705	1.895	1.890	1.890	1.904	1.899	1.895
0.005	0.010	-0.005	0.005	0.010	-0.010	0.391	2.710	1.895	1.895	1.890	1.904	1.904	1.904
-0.015	0.005	0.005	0.000	0.010	0.015	0.381	2.705	1.885	1.890	1.890	1.904	1.899	1.904
-0.020	0.000	0.000	0.000	0.005	0.010	0.386	2.676	1.880	1.885	1.885	1.904	1.899	1.904
-0.010	0.005	0.000	0.005	0.005	0.010	0.391	2.690	1.885	1.885	1.885	1.899	1.899	1.899
0.000	0.000	0.000	0.000	-0.005	-0.005	0.396	2.705	1.890	1.885	1.880	1.899	1.895	1.895
0.015	0.005	0.000	-0.005	0.000	-0.005	0.381	2.700	1.895	1.890	1.880	1.899	1.895	1.895
0.015	0.005	0.005	0.000	-0.005	0.000	0.386	2.710	1.899	1.890	1.885	1.899	1.895	1.890
0.015	0.005	0.005	-0.005	-0.005	0.020	0.386	2.690	1.899	1.890	1.890	1.904	1.895	1.899
0.029	-0.010	0.005	0.000	0.000	0.020	0.391	2.690	1.899	1.890	1.890	1.904	1.899	1.899
0.034	0.020	0.005	0.000	0.005	0.010	0.391	2.681	1.899	1.899	1.890	1.904	1.904	1.899
0.034	0.015	0.000	0.005	0.000	0.005	0.386	2.700	1.899	1.904	1.895	1.909	1.904	1.899
0.020	0.000	0.000	0.005	-0.005	0.000	0.381	2.681	1.899	1.899	1.895	1.914	1.904	1.899
0.020	0.000	0.005	0.010	0.000	-0.010	0.386	2.710	1.899	1.895	1.895	1.914	1.909	1.895
0.010	0.005	0.005	0.005	0.005	0.015	0.396	2.710	1.899	1.899	1.899	1.914	1.909	1.909
0.005	-0.010	0.000	0.000	0.005	-0.010	0.386	2.705	1.895	1.890	1.895	1.909	1.909	1.904
0.005	0.000	0.000	0.000	0.010	-0.005	0.391	2.705	1.895	1.895	1.890	1.909	1.904	1.904
0.005	0.005	0.005	0.000	0.010	0.010	0.376	2.695	1.895	1.895	1.895	1.909	1.909	1.909
-0.005	-0.005	0.000	-0.005	0.010	0.000	0.386	2.681	1.890	1.890	1.890	1.909	1.909	1.904
-0.005	-0.005	0.005	0.000	0.005	-0.020	0.381	2.700	1.890	1.880	1.885	1.904	1.899	1.899
-0.015	-0.010	0.000	0.000	0.005	-0.010	0.396	2.705	1.890	1.885	1.885	1.904	1.899	1.899
-0.020	0.010	-0.005	0.000	0.005	-0.005	0.381	2.700	1.890	1.890	1.885	1.904	1.899	1.899
-0.015	0.000	0.000	0.000	0.005	0.010	0.386	2.700	1.885	1.885	1.885	1.899	1.899	1.904
-0.010	0.005	-0.005	0.005	0.000	0.005	0.381	2.803	1.904	1.890	1.885	1.904	1.899	1.899
0.000	0.005	0.005	0.000	-0.005	0.020	0.396	2.651	1.899	1.890	1.885	1.899	1.899	1.899
-0.010	0.000	0.000	0.005	-0.005	0.000	0.381	2.676	1.895	1.890	1.885	1.904	1.899	1.895
0.000	-0.005	0.005	0.000	-0.010	0.034	0.391	2.681	1.895	1.890	1.885	1.904	1.899	1.904
0.005	-0.005	0.005	0.000	-0.010	0.034	0.381	2.656	1.895	1.890	1.890	1.909	1.899	1.909
0.000	0.005	0.000	0.000	-0.005	0.020	0.391	2.642	1.885	1.890	1.890	1.904	1.904	1.904
0.005	0.010	0.005	0.000	0.005	0.024	0.386	2.700	1.899	1.899	1.890	1.909	1.909	1.904
-0.005	0.010	-0.005	-0.005	0.005	0.010	0.381	2.725	1.899	1.895	1.895	1.914	1.904	1.904
0.005	0.000	0.005	0.000	0.005	0.005	0.381	2.651	1.890	1.895	1.895	1.909	1.904	1.899
0.005	0.000	-0.005	0.000	0.000	0.010	0.391	2.661	1.890	1.895	1.890	1.914	1.904	1.899
0.010	0.010	0.005	0.005	0.005	0.000	0.386	2.754	1.899	1.895	1.890	1.909	1.904	1.899
0.000	0.000	-0.005	0.005	0.000	-0.010	0.386	2.754	1.899	1.890	1.890	1.909	1.904	1.904
0.005	-0.020	0.005	0.005	0.005	0.000	0.386	2.646	1.895	1.885	1.885	1.909	1.904	1.899
-0.015	-0.005	0.000	0.000	0.005	-0.020	0.391	2.666	1.885	1.885	1.890	1.904	1.899	1.895
-0.005	0.000	0.000	0.000	0.010	-0.005	0.381	2.739	1.895	1.890	1.885	1.904	1.899	1.899
0.010	0.010	0.000	-0.005	0.005	-0.005	0.391	2.700	1.899	1.895	1.885	1.904	1.899	1.899
0.010	0.010	0.000	0.005	0.005	-0.020	0.386	2.651	1.890	1.890	1.890	1.904	1.895	1.895
0.005	0.010	-0.005	0.005	0.005	-0.010	0.381	2.700	1.885	1.890	1.885	1.904	1.899	1.899
0.000	0.005	0.000	0.005	0.000	0.020	0.386	2.681	1.885	1.885	1.885	1.904	1.899	1.909
0.000	-0.005	0.000	0.005	0.000	0.015	0.381	2.690	1.895	1.890	1.885	1.904	1.899	1.904
0.000	0.000	0.005	0.005	0.000	0.000	0.391	2.686	1.899	1.895	1.890	1.904	1.899	1.899
-0.005	0.000	0.005	0.005	0.005	-0.010	0.386	2.705	1.895	1.890	1.890	1.909	1.904	1.899
0.015	0.000	0.000	0.010	0.005	0.005	0.391	2.700	1.904	1.895	1.890	1.909	1.904	1.904
0.000	-0.005	0.000	0.005	-0.005	-0.005	0.376	2.681	1.895	1.895	1.895	1.909	1.904	1.904
0.005	0.005	0.000	0.000	0.005	0.005	0.381	2.700	1.895	1.899	1.895	1.909	1.909	1.904
0.010	-0.005	0.005	0.005	0.000	-0.005	0.386	2.686	1.899	1.895	1.895	1.914	1.904	1.904
-0.005	0.000	0.000	-0.005	0.000	0.000	0.391	2.695	1.895	1.895	1.890	1.909	1.904	1.904
0.000	0.010	0.000	0.000	0.000	-0.005	0.381	2.681	1.895	1.895	1.890	1.909	1.904	1.904
-0.005	0.005	0.005	0.005	0.005	0.005	0.386	2.710	1.895	1.890	1.890	1.909	1.904	1.904
-0.005	-0.020	-0.005	-0.005	0.000	-0.010	0.381	2.690	1.890	1.880	1.885	1.904	1.904	1.899
0.005	-0.015	-0.005	0.000	0.005	-0.015	0.396	2.695	1.890	1.885	1.880	1.904	1.899	1.899
0.010	-0.010	-0.005	0.000	0.005	0.005	0.386	2.690	1.890	1.890	1.885	1.904	1.899	1.904
0.024	0.000	0.000	0.000	0.000	-0.020	0.386	2.695	1.895	1.890	1.885	1.899	1.895	1.890
0.010	0.000	0.005	0.000	-0.005	0.005	0.381	2.705	1.890	1.895	1.885	1.904	1.899	1.899
0.024	0.000	0.010	0.000	-0.005	-0.005	0.396	2.690	1.895	1.890	1.885	1.899	1.895	1.899
0.020	-0.010	0.005	-0.005	-0.005	-0.015	0.381	2.686	1.890	1.885	1.885	1.904	1.899	1.895
0.020	0.005	0.010	-0.005	0.000	0.005	0.386	2.715	1.895	1.895	1.890	1.904	1.899	1.899
0.005	0.005	0.005	0.000	0.000	0.015	0.376	2.690	1.895	1.895	1.890	1.909	1.904	1.909
0.000	0.005	0.005	0.005	0.005	-0.005	0.386	2.690	1.895	1.890	1.890	1.909	1.904	1.904
-0.010	-0.005	0.000	0.005	0.000	0.000	0.391	2.700	1.895	1.890	1.890	1.909	1.904	1.909
0.000	0.000	0.000	0.005	0.000	0.020	0.386	2.749	1.899	1.895	1.890	1.909	1.909	1.909
-0.010	0.005	0.005	0.005	0.005	0.005	0.386	2.651	1.890	1.895	1.890	1.909	1.909	1.904
-0.024	0.005	0.000	0.000	0.010	0.005	0.386	2.661	1.885	1.890	1.890	1.909	1.909	1.909
-0.020	0.010	0.000	0.005	0.005	0.000	0.381	2.686	1.885	1.890	1.890	1.909	1.904	1.904
-0.010	0.005	0.005	0.005	0.000	-0.015	0.386	2.793	1.899	1.890	1.890	1.909	1.904	1.899
-0.020	0.010	0.000	0.010	0.005	0.005	0.386	2.744	1.899	1.895	1.890	1.904	1.904	1.909
-0.015	0.010	0.005	0.005	0.005	0.015	0.396	2.686	1.899	1.890	1.890	1.909	1.904	1.904
-0.005	0.000	0.000	-0.005	0.005	0.015	0.381	2.627	1.890	1.885	1.890	1.904	1.899	1.904
0.000	-0.005	0.000	-0.005	0.005	0.034	0.386	2.754	1.899	1.890	1.885	1.899	1.899	1.904
0.005	0.000	0.000	-0.005	0.005	0.020	0.386	2.749	1.904	1.890	1.890	1.899	1.899	1.899
0.000	0.010	0.000	-0.005	0.000	0.005	0.386	2.666	1.899	1.895	1.890	1.904	1.899	1.895
0.005	0.000	0.005	-0.005	0.000	0.005	0.386	2.749	1.904	1.895	1.890	1.904	1.895	1.890
0.015	0.005	0.005	0.005	0.000	-0.010	0.381	2.656	1.899	1.899	1.895	1.909	1.899	1.895
0.020	0.005	0.005	0.000	0.005	-0.005	0.386	2.661	1.890	1.899	1.895	1.909	1.904	1.895
0.015	0.005	0.000	0.000	0.000	-0.015	0.386	2.744	1.904	1.899	1.895	1.909	1.904	1.895
0.005	0.005	0.005	0.005	-0.005	-0.010	0.391	2.676	1.899	1.899	1.899	1.914	1.904	1.899
0.005	0.024	0.000	-0.005	0.000	0.005	0.381	2.725	1.904	1.904	1.899	1.909	1.904	1.909
0.000	0.015	-0.005	0.000	0.000	0.010	0.391	2.686	1.899	1.899	1.899	1.914	1.909	1.909
0.005	0.000	0.005	0.010	0.005	0.000	0.381	2.686	1.899	1.895	1.895	1.919	1.909	1.909
0.000	0.015	0.005	0.010	0.010	0.010	0.386	2.710	1.899	1.899	1.895	1.919	1.914	1.909
-0.005	0.005	0.000	0.010	0.000	0.000	0.376	2.700	1.899	1.895	1.895	1.914	1.909	1.909
0.005	-0.005	0.000	0.010	0.000	-0.005	0.386	2.681	1.895	1.890	1.895	1.914	1.909	1.904
-0.005	-0.005	0.000	0.010	0.005	-0.010	0.386	2.695	1.890	1.890	1.890	1.909	1.904	1.904
-0.010	0.005	-0.005	0.005	0.005	-0.015	0.391	2.690	1.890	1.890	1.890	1.909	1.904	1.899
-0.005	0.000	0.000	0.005	0.005	-0.029	0.386	2.681	1.890	1.890	1.890	1.909	1.904	1.899
0.005	0.005	0.005	0.015	0.000	0.015	0.391	2.686	1.890	1.890	1.885	1.904	1.904	1.909
0.005	0.000	0.005	0.010	-0.005	0.010	0.381	2.690	1.890	1.885	1.885	1.904	1.904	1.909
-0.005	-0.005	0.000	0.015	0.005	0.010	0.386	2.686	1.890	1.885	1.885	1.904	1.904	1.904
0.005	-0.005	-0.005	0.010	0.000	0.005	0.371	2.705	1.895	1.885	1.880	1.899	1.899	1.904
0.010	-0.020	0.005	0.005	0.000	0.000	0.386	2.690	1.899	1.885	1.885	1.904	1.899	1.895
0.020	0.010	0.005	0.000	0.000	0.005	0.381	2.681	1.895	1.899	1.890	1.904	1.899	1.904
0.010	0.010	-0.005	-0.005	-0.005	0.005	0.391	2.681	1.895	1.895	1.890	1.904	1.899	1.904
-0.005	-0.005	0.005	-0.010	0.005	0.000	0.386	2.710	1.895	1.890	1.890	1.904	1.899	1.899
-0.015	0.005	0.000	-0.005	0.000	0.005	0.391	2.705	1.899	1.895	1.890	1.909	1.904	1.904
-0.010	0.005	0.005	-0.010	0.000	0.005	0.391	2.710	1.899	1.895	1.890	1.909	1.904	1.904
-0.005	-0.005	0.005	-0.005	0.005	0.005	0.391	2.705	1.904	1.895	1.890	1.909	1.904	1.899
0.000	0.000	0.000	-0.005	0.005	0.005	0.381	2.690	1.904	1.895	1.890	1.909	1.899	1.904
-0.010	0.005	0.005	-0.005	0.005	0.005	0.381	2.695	1.895	1.895	1.890	1.909	1.904	1.904
-0.005	-0.010	0.005	-0.005	0.010	0.010	0.381	2.690	1.895	1.890	1.890	1.909	1.904	1.904
0.000	-0.005	0.005	-0.010	0.005	0.015	0.376	2.695	1.890	1.890	1.885	1.904	1.904	1.904
0.005	-0.010	0.000	-0.005	0.000	0.000	0.381	2.803	1.909	1.895	1.885	1.904	1.899	1.899
0.005	0.000	0.000	-0.005	0.000	0.000	0.381	2.646	1.895	1.895	1.890	1.904	1.899	1.899
0.000	0.000	0.000	-0.005	0.000	-0.020	0.391	2.666	1.895	1.890	1.890	1.904	1.899	1.895
0.024	0.005	0.005	0.005	0.000	0.005	0.376	2.676	1.890	1.890	1.890	1.909	1.899	1.899
0.015	0.005	0.000	0.000	0.000	-0.005	0.386	2.646	1.885	1.890	1.890	1.909	1.899	1.899
-0.005	0.005	0.005	-0.005	0.000	-0.010	0.381	2.646	1.875	1.885	1.890	1.904	1.899	1.899
-0.005	-0.005	0.005	0.000	0.005	0.010	0.391	2.700	1.885	1.885	1.885	1.904	1.904	1.904
0.005	-0.015	0.005	0.000	0.000	0.000	0.381	2.729	1.895	1.880	1.885	1.909	1.904	1.904
0.005	-0.010	0.005	0.005	0.000	0.005	0.386	2.646	1.895	1.890	1.890	1.909	1.904	1.904
0.000	-0.005	0.000	0.010	0.000	-0.005	0.381	2.632	1.890	1.890	1.890	1.914	1.904	1.904
0.010	0.005	0.005	0.010	-0.005	0.010	0.391	2.754	1.904	1.895	1.890	1.914	1.904	1.909
0.015	0.000	0.000	0.015	0.000	0.029	0.386	2.734	1.909	1.899	1.890	1.909	1.909	1.914
0.020	0.000	0.005	0.015	-0.005	0.015	0.396	2.729	1.909	1.899	1.895	1.914	1.904	1.904
0.015	0.005	-0.005	0.020	0.000	0.034	0.381	2.661	1.904	1.899	1.895	1.914	1.909	1.914
0.010	0.015	-0.005	0.020	0.000	0.000	0.386	2.734	1.899	1.904	1.890	1.914	1.904	1.899
0.024	0.015	-0.005	0.020	0.010	0.015	0.381	2.681	1.899	1.895	1.895	1.914	1.909	1.904
0.024	0.024	0.000	0.024	0.000	0.005	0.391	2.642	1.899	1.895	1.895	1.909	1.909	1.899
0.024	0.020	0.000	0.024	0.010	-0.010	0.396	2.686	1.895	1.895	1.895	1.914	1.904	1.895
0.000	0.029	0.000	0.010	0.005	-0.005	0.391	2.681	1.890	1.890	1.890	1.904	1.904	1.899
-0.005	0.010	0.005	-0.005	0.005	-0.010	0.381	2.695	1.885	1.890	1.890	1.899	1.904	1.899
0.005	-0.005	0.010	-0.010	-0.005	-0.005	0.386	2.700	1.890	1.880	1.890	1.899	1.895	1.899
0.000	0.000	0.010	-0.010	0.000	0.000	0.381	2.695	1.890	1.885	1.885	1.904	1.899	1.904
-0.034	-0.015	0.010	-0.010	-0.005	0.005	0.386	2.690	1.880	1.880	1.880	1.899	1.899	1.899
-0.034	-0.015	0.005	-0.005	-0.005	0.000	0.376	2.686	1.885	1.880	1.885	1.904	1.899	1.899
-0.039	-0.010	0.005	-0.010	-0.005	0.000	0.381	2.681	1.885	1.880	1.885	1.899	1.899	1.899
-0.024	-0.005	0.010	-0.010	0.000	0.000	0.381	2.690	1.895	1.885	1.890	1.904	1.899	1.899
-0.015	-0.005	0.005	-0.010	-0.005	-0.005	0.381	2.695	1.899	1.890	1.885	1.904	1.899	1.899
-0.024	-0.005	0.005	-0.005	0.000	-0.034	0.381	2.686	1.899	1.890	1.890	1.909	1.904	1.895
-0.005	0.000	0.010	-0.005	0.000	0.000	0.391	2.705	1.904	1.899	1.890	1.904	1.904	1.904
0.005	0.000	0.005	-0.005	0.000	0.010	0.391	2.695	1.904	1.899	1.890	1.909	1.904	1.909
0.010	0.000	0.000	-0.005	0.000	0.005	0.391	2.705	1.904	1.895	1.890	1.909	1.899	1.904
0.015	-0.005	0.000	-0.005	0.000	0.000	0.386	2.690	1.899	1.899	1.890	1.909	1.904	1.904
0.015	0.000	0.000	0.000	0.000	0.000	0.391	2.700	1.899	1.895	1.890	1.909	1.899	1.899
0.015	-0.005	-0.005	-0.005	0.000	-0.034	0.391	2.705	1.890	1.890	1.890	1.909	1.904	1.890
0.015	0.000	0.005	0.000	0.000	-0.005	0.386	2.690	1.890	1.890	1.890	1.909	1.899	1.899
0.005	0.000	0.000	0.000	0.005	-0.015	0.391	2.676	1.885	1.890	1.885	1.904	1.904	1.895
0.010	0.005	0.005	0.005	0.000	-0.005	0.386	2.690	1.890	1.885	1.890	1.904	1.899	1.899
0.000	0.000	0.000	0.005	0.000	-0.015	0.381	2.686	1.885	1.890	1.890	1.909	1.899	1.904
-0.015	0.000	0.005	0.000	0.000	-0.015	0.376	2.700	1.885	1.885	1.890	1.909	1.899	1.899
-0.015	0.000	0.005	0.000	0.000	-0.005	0.381	2.700	1.890	1.885	1.885	1.904	1.904	1.899
-0.005	0.010	0.005	0.005	-0.005	0.000	0.381	2.812	1.899	1.890	1.885	1.904	1.899	1.904
-0.010	0.010	0.005	0.005	0.005	-0.005	0.391	2.651	1.895	1.895	1.890	1.909	1.909	1.904
0.005	0.005	0.000	0.005	0.005	-0.010	0.386	2.671	1.899	1.895	1.890	1.909	1.904	1.904
-0.005	0.000	0.000	0.000	-0.005	-0.005	0.391	2.676	1.895	1.895	1.890	1.909	1.904	1.904
0.000	0.000	-0.005	0.000	0.000	-0.010	0.386	2.656	1.895	1.895	1.890	1.909	1.904	1.904
0.005	0.005	-0.005	0.000	0.000	-0.005	0.391	2.637	1.890	1.895	1.895	1.904	1.904	1.909
0.005	0.010	-0.005	0.005	0.005	-0.005	0.381	2.695	1.895	1.895	1.895	1.909	1.904	1.909
0.010	0.015	-0.005	0.000	0.000	-0.010	0.391	2.720	1.895	1.890	1.895	1.909	1.904	1.904
0.000	0.015	0.005	0.000	0.005	0.010	0.391	2.637	1.885	1.890	1.890	1.909	1.904	1.909
0.005	0.010	0.000	0.000	0.000	0.020	0.386	2.617	1.880	1.885	1.885	1.909	1.904	1.909
-0.029	0.010	0.010	0.005	0.005	0.029	0.386	2.749	1.880	1.880	1.885	1.904	1.899	1.909
-0.044	0.000	0.005	0.005	0.005	0.015	0.386	2.646	1.870	1.875	1.880	1.904	1.899	1.904
-0.024	0.005	0.000	0.005	0.010	0.034	0.381	2.661	1.880	1.880	1.880	1.904	1.904	1.904
0.005	-0.005	0.010	0.005	0.010	0.024	0.381	2.671	1.890	1.875	1.880	1.899	1.899	1.899
0.005	0.005	0.000	0.005	0.015	0.024	0.386	2.764	1.899	1.885	1.880	1.899	1.899	1.899
0.015	0.010	0.005	0.005	0.024	0.015	0.391	2.690	1.899	1.890	1.885	1.899	1.899	1.899
0.029	-0.005	0.005	0.000	0.010	0.000	0.386	2.710	1.909	1.895	1.885	1.899	1.899	1.895
0.039	-0.005	0.010	0.000	0.020	0.000	0.386	2.715	1.909	1.899	1.890	1.904	1.899	1.895
0.034	-0.020	0.000	0.005	0.020	0.005	0.381	2.686	1.909	1.899	1.890	1.904	1.904	1.899
0.049	0.005	0.000	0.000	0.020	0.005	0.381	2.705	1.904	1.904	1.895	1.909	1.904	1.899
0.049	-0.010	0.005	0.005	0.024	0.000	0.381	2.705	1.909	1.904	1.899	1.914	1.909	1.899
0.039	0.005	0.005	0.005	0.015	0.005	0.376	2.700	1.899	1.904	1.899	1.909	1.904	1.904
0.054	0.005	0.005	0.010	0.020	0.005	0.391	2.681	1.904	1.904	1.904	1.914	1.909	1.904
0.015	0.000	0.000	0.000	0.010	0.010	0.386	2.690	1.890	1.895	1.895	1.914	1.904	1.904
0.010	0.000	0.000	0.010	0.010	0.010	0.396	2.690	1.895	1.895	1.899	1.919	1.904	1.904
0.005	0.005	0.000	0.010	0.015	0.000	0.386	2.676	1.880	1.890	1.895	1.909	1.909	1.904
0.005	0.010	-0.005	0.005	0.010	-0.029	0.386	2.695	1.885	1.885	1.890	1.909	1.904	1.890
0.000	0.005	-0.005	0.005	0.005	0.005	0.381	2.686	1.885	1.885	1.885	1.909	1.904	1.904
0.000	0.005	-0.005	0.010	0.010	0.015	0.386	2.700	1.880	1.880	1.885	1.904	1.904	1.909
-0.010	0.005	-0.005	0.000	0.005	0.020	0.376	2.686	1.890	1.880	1.885	1.904	1.904	1.909
-0.020	0.010	0.005	0.000	0.000	0.020	0.386	2.710	1.890	1.885	1.885	1.904	1.899	1.899
-0.024	0.005	0.005	0.000	-0.010	0.010	0.386	2.690	1.885	1.880	1.885	1.904	1.899	1.904
-0.020	0.005	0.010	0.005	-0.005	0.020	0.386	2.715	1.895	1.885	1.885	1.904	1.899	1.899
-0.015	-0.005	0.005	-0.005	-0.015	0.020	0.381	2.705	1.899	1.890	1.885	1.899	1.899	1.899
-0.010	-0.005	0.005	0.000	-0.010	0.015	0.391	2.710	1.899	1.890	1.890	1.904	1.899	1.899
-0.005	-0.005	0.000	0.000	-0.005	0.024	0.381	2.705	1.909	1.895	1.890	1.904	1.899	1.904
-0.010	0.005	0.005	0.005	-0.015	0.010	0.386	2.700	1.904	1.904	1.895	1.909	1.899	1.899
-0.005	0.000	0.000	0.005	-0.010	-0.010	0.381	2.690	1.904	1.904	1.895	1.909	1.904	1.899
0.010	-0.005	-0.005	0.000	-0.005	-0.029	0.381	2.686	1.899	1.895	1.895	1.909	1.899	1.890
-0.005	-0.005	0.005	0.005	-0.005	0.000	0.381	2.695	1.895	1.895	1.895	1.909	1.904	1.904
-0.005	0.000	0.005	0.000	-0.005	-0.029	0.381	2.759	1.904	1.899	1.895	1.909	1.904	1.895
-0.005	-0.005	0.000	0.000	-0.015	0.000	0.381	2.651	1.895	1.895	1.895	1.909	1.904	1.904
0.000	-0.005	-0.005	0.005	-0.015	0.005	0.386	2.661	1.885	1.890	1.890	1.909	1.899	1.904
-0.005	-0.010	0.000	0.010	-0.005	0.000	0.391	2.676	1.875	1.885	1.890	1.909	1.904	1.899
-0.010	0.000	0.005	0.000	-0.010	-0.010	0.386	2.651	1.875	1.880	1.885	1.904	1.899	1.899
-0.015	-0.015	0.010	0.000	-0.015	-0.010	0.381	2.651	1.875	1.875	1.885	1.904	1.899	1.899
-0.010	-0.005	0.010	0.005	-0.005	0.005	0.381	2.710	1.880	1.880	1.880	1.904	1.899	1.899
-0.005	-0.010	0.005	0.000	0.000	-0.015	0.381	2.705	1.885	1.880	1.880	1.899	1.899	1.895
-0.005	0.005	0.005	-0.005	0.000	-0.024	0.381	2.632	1.880	1.885	1.880	1.899	1.895	1.890
-0.005	0.000	0.000	0.000	0.000	0.005	0.391	2.651	1.885	1.885	1.885	1.904	1.899	1.904
0.000	0.010	0.005	0.005	0.000	-0.005	0.386	2.729	1.890	1.885	1.885	1.904	1.899	1.899
0.000	0.005	0.000	0.000	0.000	-0.015	0.391	2.661	1.890	1.890	1.885	1.904	1.899	1.895
0.005	0.034	0.000	0.000	0.000	-0.010	0.381	2.744	1.899	1.895	1.890	1.904	1.899	1.904
-0.005	0.020	0.010	0.000	0.005	0.005	0.396	2.676	1.899	1.895	1.890	1.909	1.904	1.904
-0.005	0.020	0.000	0.005	0.005	0.000	0.381	2.744	1.904	1.895	1.890	1.909	1.904	1.909
0.000	0.010	0.005	0.005	0.005	0.005	0.391	2.681	1.899	1.895	1.895	1.909	1.904	1.909
0.000	0.005	-0.005	0.005	0.005	0.010	0.386	2.642	1.890	1.890	1.895	1.909	1.904	1.909
0.005	-0.005	0.000	0.000	0.005	0.015	0.386	2.700	1.895	1.885	1.890	1.909	1.904	1.909
-0.005	-0.005	0.000	0.000	0.005	0.010	0.381	2.690	1.890	1.885	1.885	1.904	1.899	1.904
-0.005	-0.005	0.000	0.000	0.000	0.024	0.396	2.700	1.890	1.885	1.885	1.904	1.899	1.904
-0.005	-0.010	-0.005	-0.005	0.005	0.024	0.381	2.705	1.890	1.885	1.885	1.899	1.899	1.904
0.005	0.005	0.000	-0.005	0.005	-0.010	0.381	2.695	1.890	1.890	1.885	1.899	1.895	1.890
0.000	-0.010	0.000	0.000	0.010	-0.010	0.376	2.686	1.890	1.885	1.885	1.899	1.895	1.890
0.010	0.010	0.005	0.000	0.000	0.005	0.391	2.700	1.890	1.890	1.885	1.899	1.895	1.895
-0.005	0.005	0.005	0.000	0.005	-0.024	0.386	2.690	1.890	1.890	1.885	1.904	1.895	1.885
0.015	0.010	0.000	0.005	0.005	-0.020	0.381	2.695	1.895	1.890	1.885	1.904	1.895	1.890
0.005	0.005	0.005	0.000	0.000	0.015	0.381	2.710	1.895	1.890	1.890	1.904	1.899	1.904
-0.005	-0.005	0.000	0.005	0.000	0.010	0.391	2.686	1.890	1.890	1.890	1.904	1.904	1.904
0.000	-0.010	0.000	0.005	0.000	0.010	0.386	2.700	1.895	1.890	1.890	1.909	1.904	1.904
0.000	0.005	-0.005	0.005	0.000	0.015	0.386	2.681	1.890	1.890	1.890	1.909	1.904	1.904
0.005	0.010	0.005	0.005	0.005	0.010	0.396	2.686	1.899	1.895	1.895	1.909	1.904	1.904
0.005	-0.015	0.000	0.005	0.005	-0.005	0.386	2.695	1.895	1.890	1.890	1.909	1.904	1.899
0.005	-0.005	0.000	0.015	0.005	-0.015	0.386	2.695	1.895	1.895	1.890	1.909	1.904	1.899
0.000	-0.015	0.000	0.005	0.000	-0.044	0.386	2.705	1.895	1.890	1.890	1.909	1.904	1.895
-0.005	-0.020	0.005	0.000	0.005	-0.029	0.391	2.695	1.890	1.885	1.890	1.904	1.899	1.899
-0.005	-0.010	0.000	0.000	0.010	0.000	0.386	2.705	1.895	1.890	1.890	1.904	1.904	1.904
-0.005	-0.005	0.005	-0.005	0.005	-0.020	0.381	2.700	1.895	1.890	1.885	1.904	1.899	1.895
0.010	0.000	0.000	-0.005	0.005	-0.005	0.376	2.700	1.895	1.890	1.890	1.904	1.899	1.899
0.005	0.005	0.000	0.000	0.010	0.000	0.386	2.671	1.885	1.890	1.885	1.899	1.899	1.904
0.000	0.000	0.000	-0.005	0.000	0.005	0.391	2.686	1.890	1.890	1.885	1.899	1.899	1.904
-0.005	0.005	0.005	-0.005	0.005	-0.005	0.381	2.817	1.899	1.890	1.885	1.899	1.895	1.895
0.000	0.024	0.000	0.000	0.010	0.005	0.381	2.642	1.895	1.899	1.890	1.904	1.899	1.904
0.000	0.010	0.005	0.005	0.005	0.000	0.386	2.671	1.890	1.890	1.890	1.909	1.899	1.899
0.005	0.005	0.005	0.000	0.000	0.000	0.381	2.686	1.895	1.890	1.890	1.909	1.899	1.904
0.000	0.005	0.000	0.005	0.005	0.010	0.386	2.656	1.890	1.890	1.890	1.909	1.904	1.904
0.000	0.000	0.000	0.005	0.005	0.015	0.381	2.646	1.890	1.890	1.890	1.909	1.904	1.904
0.010	-0.005	0.000	0.000	0.005	0.010	0.391	2.705	1.890	1.890	1.890	1.904	1.904	1.909
0.005	0.005	0.000	0.000	0.005	0.000	0.391	2.661	1.899	1.895	1.890	1.909	1.904	1.899
0.010	0.010	0.000	0.000	0.000	-0.010	0.386	2.646	1.895	1.899	1.890	1.909	1.904	1.899
-0.005	0.015	-0.005	0.000	0.005	-0.010	0.386	2.651	1.885	1.895	1.890	1.909	1.904	1.899
0.000	0.005	0.005	0.000	0.000	0.005	0.386	2.739	1.895	1.890	1.895	1.909	1.904	1.904
0.005	-0.010	0.005	0.005	0.010	0.000	0.381	2.632	1.885	1.885	1.890	1.909	1.904	1.904
0.005	0.000	0.005	0.000	0.010	0.020	0.386	2.739	1.895	1.885	1.885	1.904	1.904	1.909
-0.005	0.000	0.000	0.000	0.005	0.024	0.386	2.681	1.890	1.885	1.885	1.904	1.899	1.909
0.000	-0.005	-0.005	0.000	0.005	0.029	0.386	2.642	1.880	1.880	1.885	1.899	1.899	1.909
0.000	0.000	0.000	0.000	0.000	0.020	0.381	2.695	1.885	1.880	1.880	1.904	1.899	1.899
0.000	0.005	0.005	0.005	-0.005	0.010	0.386	2.646	1.880	1.880	1.880	1.899	1.895	1.895
0.005	-0.005	-0.005	0.000	0.000	-0.010	0.376	2.695	1.885	1.880	1.880	1.899	1.895	1.890
0.000	0.015	0.000	0.005	0.005	0.000	0.376	2.681	1.890	1.890	1.880	1.899	1.899	1.895
0.000	0.005	0.000	0.005	0.005	-0.020	0.386	2.705	1.895	1.890	1.885	1.899	1.899	1.895
0.005	0.000	0.005	0.005	0.000	-0.024	0.386	2.700	1.890	1.885	1.885	1.904	1.899	1.895
0.000	0.005	0.000	0.000	0.000	-0.005	0.381	2.700	1.895	1.890	1.885	1.904	1.899	1.899
0.000	-0.010	0.005	0.000	-0.005	-0.015	0.381	2.690	1.904	1.890	1.890	1.904	1.899	1.895
0.010	0.010	0.005	0.000	0.000	0.000	0.386	2.705	1.904	1.895	1.890	1.904	1.899	1.899
0.005	0.000	0.000	0.000	-0.005	0.010	0.391	2.690	1.895	1.895	1.890	1.904	1.899	1.909
0.010	0.000	-0.005	0.000	-0.010	0.015	0.381	2.690	1.904	1.895	1.890	1.909	1.899	1.904
-0.005	0.005	0.000	-0.005	-0.005	0.000	0.381	2.700	1.895	1.895	1.895	1.909	1.899	1.899
0.000	-0.005	0.000	0.000	0.000	0.010	0.386	2.686	1.895	1.895	1.890	1.909	1.904	1.904
0.005	0.005	0.005	-0.005	0.000	-0.005	0.386	2.700	1.895	1.895	1.890	1.909	1.904	1.895
0.000	0.000	-0.005	0.000	0.000	0.015	0.386	2.686	1.890	1.890	1.890	1.909	1.904	1.904
0.005	0.000	0.005	0.000	0.005	0.024	0.376	2.695	1.890	1.885	1.890	1.909	1.904	1.909
0.000	-0.005	0.005	0.000	0.000	0.010	0.386	2.700	1.890	1.880	1.890	1.909	1.899	1.899
-0.005	0.005	0.005	0.005	0.000	0.039	0.386	2.700	1.890	1.885	1.885	1.904	1.899	1.904
0.010	0.005	-0.005	0.005	0.000	0.020	0.391	2.705	1.895	1.885	1.885	1.904	1.899	1.899
0.010	0.000	0.005	0.005	0.005	0.000	0.381	2.695	1.895	1.890	1.885	1.904	1.904	1.895
0.005	0.000	0.000	0.010	0.005	0.000	0.386	2.681	1.890	1.890	1.890	1.904	1.899	1.899
0.005	0.000	0.000	0.000	0.015	-0.005	0.386	2.695	1.895	1.890	1.890	1.904	1.904	1.899
0.000	0.000	0.000	0.000	0.005	0.015	0.386	2.681	1.890	1.895	1.890	1.904	1.904	1.904
-0.005	0.010	0.005	0.005	0.005	0.005	0.386	2.700	1.890	1.895	1.890	1.909	1.904	1.899
-0.005	0.015	0.000	0.000	0.010	0.005	0.386	2.700	1.895	1.895	1.890	1.909	1.904	1.899
0.000	0.010	0.005	0.000	0.000	0.010	0.391	2.817	1.914	1.899	1.895	1.909	1.899	1.904
-0.005	0.010	0.000	0.005	-0.005	-0.005	0.386	2.646	1.899	1.899	1.895	1.909	1.904	1.899
0.000	0.005	0.000	0.000	0.000	-0.010	0.381	2.666	1.895	1.895	1.890	1.909	1.904	1.899
-0.005	-0.005	0.000	0.005	0.000	-0.010	0.386	2.686	1.890	1.890	1.895	1.909	1.904	1.899
-0.010	-0.005	0.000	0.005	-0.005	-0.015	0.386	2.646	1.880	1.890	1.895	1.909	1.904	1.899
-0.010	-0.005	0.005	0.010	0.000	-0.005	0.381	2.632	1.875	1.885	1.890	1.909	1.904	1.904
-0.005	0.000	0.000	0.005	0.000	0.000	0.391	2.690	1.885	1.885	1.890	1.909	1.904	1.904
0.000	0.005	0.000	0.010	0.000	0.015	0.386	2.734	1.890	1.880	1.885	1.904	1.899	1.904
-0.010	0.000	0.000	0.010	0.000	0.005	0.381	2.651	1.885	1.880	1.880	1.904	1.904	1.904
-0.005	0.000	0.005	0.005	0.005	0.010	0.381	2.744	1.895	1.880	1.880	1.899	1.899	1.899
0.000	-0.005	0.005	0.000	0.005	0.005	0.381	2.739	1.899	1.885	1.885	1.899	1.899	1.899
0.005	-0.005	0.005	0.000	0.000	0.005	0.391	2.739	1.899	1.890	1.880	1.899	1.899	1.895
-0.005	0.005	0.000	-0.010	0.005	0.005	0.381	2.744	1.899	1.895	1.885	1.899	1.895	1.895
-0.005	0.000	0.000	-0.010	0.000	-0.005	0.386	2.681	1.904	1.895	1.890	1.904	1.895	1.890
0.000	-0.005	0.005	-0.005	0.005	0.010	0.391	2.739	1.909	1.899	1.890	1.904	1.899	1.904
0.010	-0.005	0.005	-0.005	0.005	0.005	0.391	2.671	1.904	1.899	1.895	1.909	1.904	1.899
0.000	0.000	0.000	-0.005	0.005	-0.020	0.391	2.646	1.904	1.904	1.899	1.909	1.899	1.895
0.000	0.000	-0.005	0.000	0.000	-0.015	0.381	2.686	1.899	1.904	1.895	1.914	1.904	1.899
-0.005	0.005	0.005	0.000	0.005	-0.034	0.381	2.690	1.899	1.904	1.899	1.914	1.904	1.895
0.000	0.010	0.005	0.010	0.000	-0.020	0.376	2.710	1.904	1.904	1.899	1.919	1.909	1.899
0.005	-0.005	0.000	0.010	0.000	-0.015	0.386	2.676	1.890	1.895	1.899	1.914	1.909	1.904
0.000	0.005	0.000	0.010	-0.005	-0.005	0.376	2.686	1.895	1.899	1.899	1.914	1.909	1.909
0.000	0.005	0.005	0.010	0.000	0.005	0.381	2.676	1.890	1.890	1.895	1.914	1.909	1.909
0.005	0.005	0.000	0.010	0.010	0.010	0.381	2.690	1.890	1.890	1.895	1.914	1.914	1.914
0.005	0.005	0.000	0.010	0.005	0.005	0.386	2.676	1.885	1.890	1.890	1.909	1.909	1.909
0.000	-0.005	0.000	0.010	0.005	0.049	0.386	2.686	1.885	1.880	1.885	1.909	1.904	1.919
-0.010	0.005	0.000	0.005	0.005	0.044	0.391	2.700	1.890	1.885	1.885	1.909	1.909	1.914
0.010	0.000	0.000	0.000	0.000	0.059	0.386	2.681	1.895	1.885	1.885	1.904	1.904	1.914
0.000	0.000	0.000	0.005	-0.005	0.039	0.391	2.700	1.895	1.890	1.885	1.904	1.899	1.904
0.000	0.010	0.000	-0.005	-0.005	0.034	0.386	2.686	1.890	1.890	1.885	1.899	1.899	1.904
-0.005	0.010	0.005	0.000	0.000	0.020	0.391	2.690	1.895	1.890	1.890	1.904	1.899	1.899
-0.010	0.024	0.010	0.000	-0.005	-0.005	0.391	2.695	1.899	1.895	1.890	1.904	1.899	1.895
0.005	0.005	0.005	0.005	-0.005	-0.020	0.391	2.700	1.899	1.895	1.895	1.909	1.899	1.890
0.010	0.010	0.000	0.000	0.005	-0.029	0.381	2.705	1.899	1.895	1.895	1.909	1.904	1.890
0.000	0.005	0.005	-0.005	0.005	-0.024	0.381	2.690	1.899	1.895	1.895	1.909	1.904	1.895
0.010	0.000	0.005	0.005	0.000	-0.039	0.386	2.690	1.899	1.895	1.895	1.914	1.904	1.899
-0.005	-0.005	0.000	0.000	0.005	-0.044	0.381	2.705	1.895	1.890	1.895	1.909	1.909	1.899
-0.005	-0.005	0.000	0.000	0.015	-0.020	0.391	2.710	1.899	1.895	1.890	1.909	1.909	1.904
-0.010	-0.005	0.000	0.000	0.010	0.000	0.381	2.681	1.890	1.890	1.890	1.904	1.904	1.909
-0.005	-0.005	0.000	0.005	0.000	0.010	0.381	2.666	1.890	1.890	1.890	1.904	1.904	1.909
0.005	0.005	-0.005	-0.005	-0.005	-0.015	0.381	2.739	1.899	1.890	1.890	1.899	1.895	1.899
0.005	0.000	-0.005	0.000	-0.010	0.024	0.391	2.646	1.890	1.885	1.885	1.904	1.895	1.904
0.005	0.000	0.000	0.000	-0.010	0.010	0.381	2.656	1.880	1.885	1.885	1.904	1.895	1.899
0.010	-0.005	0.000	0.000	-0.005	0.024	0.386	2.686	1.890	1.885	1.885	1.904	1.899	1.904
0.005	0.010	0.005	0.000	0.005	0.024	0.381	2.793	1.904	1.890	1.885	1.904	1.899	1.899
0.020	0.005	0.000	0.000	-0.005	-0.005	0.396	2.720	1.909	1.895	1.890	1.904	1.899	1.895
0.020	-0.005	0.005	0.005	0.005	0.010	0.381	2.681	1.904	1.899	1.890	1.904	1.904	1.904
0.020	0.000	0.005	0.005	0.010	0.015	0.386	2.739	1.909	1.899	1.895	1.909	1.904	1.904
0.024	0.000	0.005	0.005	0.000	-0.020	0.381	2.729	1.909	1.904	1.895	1.909	1.904	1.895
0.020	0.000	0.005	0.005	0.005	0.000	0.391	2.749	1.914	1.904	1.899	1.914	1.909	1.904
0.005	0.000	0.000	0.000	0.000	0.005	0.376	2.754	1.899	1.904	1.899	1.914	1.909	1.909
0.010	-0.005	0.000	0.005	-0.005	-0.010	0.386	2.656	1.890	1.895	1.899	1.914	1.904	1.899
0.000	0.000	0.005	0.005	-0.010	0.005	0.391	2.661	1.890	1.899	1.895	1.914	1.909	1.909
-0.010	0.010	0.000	0.005	-0.015	-0.015	0.386	2.661	1.885	1.895	1.895	1.914	1.909	1.904
-0.005	0.005	0.000	0.005	0.005	-0.010	0.391	2.642	1.880	1.890	1.895	1.909	1.909	1.904
-0.015	0.005	0.000	0.000	-0.005	-0.015	0.391	2.676	1.875	1.880	1.890	1.909	1.909	1.909
-0.010	0.000	0.000	0.005	0.010	0.005	0.386	2.642	1.885	1.880	1.885	1.909	1.909	1.909
-0.015	0.000	0.000	0.005	0.005	0.010	0.386	2.690	1.885	1.880	1.885	1.904	1.904	1.909
-0.010	0.000	0.000	0.000	0.005	0.000	0.381	2.686	1.890	1.880	1.885	1.904	1.899	1.904
0.000	0.000	0.005	0.000	0.005	0.015	0.386	2.700	1.890	1.880	1.880	1.899	1.899	1.909
0.010	-0.005	0.000	0.005	-0.005	-0.005	0.376	2.710	1.899	1.885	1.880	1.899	1.899	1.899
0.020	-0.005	0.010	0.000	0.000	0.000	0.391	2.690	1.899	1.890	1.885	1.899	1.899	1.899
0.015	0.000	0.005	0.000	0.000	-0.005	0.381	2.700	1.899	1.890	1.885	1.899	1.899	1.899
0.000	0.010	0.005	0.000	-0.005	-0.015	0.386	2.695	1.895	1.895	1.885	1.904	1.895	1.895
-0.015	0.010	0.005	0.000	-0.005	0.010	0.381	2.710	1.895	1.895	1.890	1.909	1.904	1.904
-0.010	0.000	0.005	0.000	0.000	0.010	0.391	2.695	1.895	1.895	1.890	1.904	1.904	1.904
-0.005	0.000	0.000	0.000	0.000	0.015	0.386	2.690	1.899	1.895	1.895	1.909	1.904	1.904
-0.010	0.000	-0.005	0.000	0.010	0.029	0.391	2.690	1.904	1.895	1.890	1.909	1.904	1.909
0.000	0.005	0.005	0.000	0.010	0.015	0.386	2.690	1.904	1.899	1.895	1.914	1.904	1.904
-0.005	0.000	0.000	0.000	0.010	-0.005	0.386	2.676	1.899	1.899	1.890	1.909	1.904	1.899
0.005	0.000	0.000	0.005	-0.005	0.000	0.386	2.690	1.904	1.899	1.895	1.909	1.904	1.899
0.000	0.005	0.000	0.000	0.010	0.005	0.381	2.671	1.890	1.895	1.895	1.909	1.904	1.904
0.005	0.005	0.005	0.000	0.015	-0.005	0.386	2.705	1.899	1.895	1.890	1.909	1.904	1.899
0.000	0.000	0.000	0.000	0.005	0.000	0.376	2.700	1.890	1.895	1.890	1.909	1.904	1.899
0.000	0.010	-0.005	0.000	0.005	0.000	0.386	2.700	1.890	1.890	1.885	1.904	1.899	1.899
0.005	0.005	-0.005	0.000	0.005	0.000	0.381	2.705	1.890	1.890	1.885	1.904	1.899	1.899
0.020	0.000	0.000	0.005	0.000	0.000	0.386	2.700	1.899	1.890	1.885	1.904	1.899	1.899
-0.005	-0.005	0.005	0.010	-0.005	0.015	0.386	2.705	1.890	1.885	1.890	1.904	1.899	1.899
0.010	0.000	0.000	0.005	-0.005	0.005	0.386	2.686	1.895	1.890	1.885	1.904	1.904	1.904
0.005	-0.005	0.000	0.005	0.005	0.010	0.376	2.695	1.895	1.890	1.890	1.909	1.904	1.899
-0.005	0.005	-0.005	0.005	0.005	-0.005	0.381	2.812	1.909	1.899	1.890	1.909	1.904	1.899
0.005	0.005	0.000	0.005	0.000	0.015	0.386	2.666	1.904	1.904	1.890	1.909	1.904	1.909
0.000	0.005	0.010	0.000	-0.010	0.005	0.386	2.651	1.899	1.899	1.895	1.909	1.899	1.904
0.000	0.010	0.010	0.000	-0.010	0.005	0.386	2.686	1.899	1.904	1.895	1.914	1.899	1.899
-0.005	0.005	0.005	0.000	-0.024	0.000	0.386	2.661	1.895	1.895	1.899	1.914	1.904	1.899
0.000	-0.010	0.005	0.005	-0.010	0.010	0.381	2.637	1.880	1.890	1.895	1.914	1.909	1.904
0.010	0.000	0.010	0.000	-0.020	0.010	0.386	2.705	1.890	1.890	1.895	1.914	1.904	1.904
-0.005	0.010	0.015	0.000	-0.024	0.010	0.386	2.734	1.895	1.890	1.890	1.914	1.909	1.904
-0.005	-0.005	0.010	0.005	-0.015	0.005	0.391	2.651	1.890	1.885	1.890	1.909	1.909	1.904
-0.005	0.000	0.010	-0.005	-0.010	-0.034	0.391	2.739	1.899	1.890	1.890	1.904	1.904	1.895
-0.010	-0.010	0.000	-0.005	0.010	-0.024	0.386	2.734	1.895	1.885	1.885	1.904	1.909	1.899
-0.010	0.005	0.000	-0.005	0.029	-0.010	0.381	2.754	1.899	1.890	1.880	1.899	1.909	1.904
-0.010	0.010	0.005	0.000	0.029	-0.005	0.386	2.734	1.904	1.895	1.890	1.904	1.909	1.909
0.005	0.010	0.005	0.000	0.020	0.000	0.386	2.666	1.899	1.895	1.890	1.904	1.899	1.909
0.005	0.020	-0.005	-0.005	0.024	-0.020	0.381	2.734	1.899	1.899	1.890	1.904	1.904	1.904
0.000	0.000	0.005	0.000	0.029	0.005	0.381	2.671	1.890	1.890	1.890	1.909	1.909	1.909
-0.015	0.000	0.000	0.000	0.039	0.020	0.386	2.637	1.890	1.890	1.890	1.909	1.909	1.914
-0.015	0.005	-0.005	0.010	0.005	0.020	0.386	2.681	1.890	1.895	1.890	1.909	1.899	1.909
-0.010	0.005	0.000	0.005	0.000	0.000	0.376	2.686	1.895	1.895	1.895	1.909	1.899	1.899
-0.010	0.000	0.005	0.010	-0.005	0.024	0.381	2.710	1.895	1.895	1.890	1.914	1.904	1.909
0.000	0.010	0.005	0.020	-0.005	0.010	0.386	2.671	1.899	1.895	1.895	1.914	1.904	1.904
0.000	0.010	0.000	0.015	0.005	0.024	0.381	2.690	1.899	1.899	1.895	1.914	1.909	1.909
0.015	0.015	0.005	0.015	0.015	0.029	0.381	2.686	1.899	1.899	1.895	1.914	1.914	1.914
0.005	0.005	0.000	0.005	0.010	0.029	0.386	2.690	1.899	1.895	1.895	1.909	1.909	1.909
0.015	0.015	0.000	0.005	0.015	0.039	0.376	2.705	1.899	1.899	1.895	1.909	1.909	1.914
0.029	0.010	-0.005	0.005	0.010	0.029	0.381	2.676	1.899	1.895	1.890	1.904	1.904	1.909
0.015	0.000	-0.005	-0.005	-0.005	0.020	0.381	2.695	1.899	1.895	1.890	1.909	1.899	1.899
0.024	0.000	-0.005	-0.005	-0.049	0.010	0.386	2.681	1.895	1.895	1.890	1.899	1.885	1.890
0.010	-0.010	0.000	0.000	-0.078	-0.020	0.376	2.695	1.890	1.885	1.885	1.904	1.885	1.880
0.010	-0.005	0.000	0.000	-0.029	0.010	0.391	2.681	1.880	1.885	1.890	1.904	1.899	1.895
0.015	0.005	0.005	0.005	0.024	0.000	0.391	2.686	1.885	1.885	1.890	1.909	1.914	1.899
0.000	0.000	0.010	0.000	0.049	-0.020	0.391	2.710	1.885	1.885	1.890	1.909	1.919	1.899
0.005	0.010	0.015	0.000	0.034	-0.015	0.391	2.710	1.890	1.885	1.890	1.909	1.909	1.899
0.005	0.005	0.010	0.000	0.005	-0.020	0.391	2.700	1.895	1.895	1.890	1.904	1.904	1.899
0.005	0.005	0.010	-0.005	0.020	-0.020	0.376	2.705	1.895	1.890	1.890	1.909	1.904	1.904
-0.015	-0.005	0.005	-0.005	0.029	-0.010	0.381	2.686	1.895	1.885	1.890	1.909	1.909	1.909
0.000	-0.005	0.005	0.000	0.010	0.015	0.386	2.695	1.895	1.890	1.890	1.904	1.904	1.914
-0.005	-0.005	0.000	0.000	0.005	-0.010	0.386	2.700	1.899	1.895	1.890	1.909	1.904	1.904
0.005	0.010	0.000	0.000	0.000	0.015	0.381	2.695	1.904	1.899	1.890	1.909	1.904	1.909
-0.005	0.000	0.000	0.000	0.010	0.005	0.381	2.695	1.899	1.899	1.890	1.909	1.904	1.904
0.005	0.000	0.000	0.000	0.005	-0.015	0.381	2.803	1.909	1.899	1.890	1.904	1.899	1.895
-0.005	0.015	0.000	-0.005	-0.005	0.010	0.386	2.666	1.899	1.899	1.895	1.909	1.899	1.904
-0.005	0.005	0.005	0.000	0.000	-0.005	0.386	2.656	1.890	1.890	1.890	1.909	1.899	1.899
-0.015	0.000	0.000	0.000	-0.005	-0.005	0.381	2.681	1.885	1.890	1.885	1.909	1.899	1.895
-0.015	0.010	0.005	0.010	0.005	0.005	0.391	2.646	1.880	1.890	1.890	1.909	1.904	1.904
-0.005	0.005	0.000	0.010	0.005	0.010	0.381	2.651	1.880	1.880	1.885	1.909	1.904	1.904
0.005	0.005	0.000	0.010	0.000	-0.015	0.381	2.710	1.885	1.885	1.885	1.904	1.895	1.895
-0.005	0.010	0.000	0.005	0.020	-0.020	0.381	2.739	1.890	1.885	1.885	1.904	1.904	1.899
0.005	-0.005	0.000	0.005	0.015	-0.005	0.386	2.642	1.890	1.885	1.885	1.904	1.904	1.899
0.000	0.000	-0.005	-0.005	0.010	0.015	0.386	2.744	1.895	1.885	1.885	1.904	1.899	1.904
0.005	-0.024	0.000	0.000	-0.005	0.024	0.386	2.754	1.904	1.885	1.885	1.904	1.899	1.909
0.000	-0.020	-0.005	0.000	-0.024	0.010	0.376	2.637	1.899	1.890	1.885	1.904	1.890	1.899
-0.005	-0.005	-0.010	0.005	-0.005	0.000	0.391	2.725	1.904	1.895	1.890	1.904	1.899	1.895
0.000	0.005	-0.010	0.000	-0.015	-0.020	0.381	2.651	1.899	1.904	1.895	1.904	1.899	1.895
-0.010	0.010	0.000	0.000	-0.005	-0.015	0.396	2.661	1.890	1.899	1.895	1.909	1.899	1.895
0.000	0.000	0.000	0.005	-0.005	-0.029	0.381	2.661	1.890	1.895	1.895	1.909	1.904	1.899
0.005	-0.010	-0.010	0.000	0.000	-0.010	0.386	2.642	1.885	1.890	1.890	1.904	1.904	1.904
0.015	0.000	-0.005	0.000	0.000	-0.034	0.381	2.686	1.895	1.890	1.895	1.909	1.904	1.899
0.015	0.000	0.005	0.000	-0.005	0.010	0.391	2.695	1.890	1.885	1.890	1.909	1.904	1.909
0.020	0.000	0.010	-0.005	-0.015	0.015	0.376	2.700	1.895	1.890	1.890	1.909	1.899	1.904
0.010	0.005	0.015	0.000	-0.029	0.010	0.386	2.686	1.890	1.890	1.890	1.909	1.895	1.899
0.000	0.000	0.024	0.000	-0.044	0.034	0.381	2.705	1.890	1.890	1.890	1.909	1.895	1.904
0.010	0.015	0.024	0.000	-0.039	0.020	0.391	2.695	1.895	1.890	1.890	1.904	1.895	1.895
0.010	0.010	0.020	0.005	-0.034	0.020	0.381	2.695	1.890	1.890	1.890	1.909	1.899	1.899
0.010	0.010	0.020	0.000	-0.010	-0.015	0.391	2.690	1.895	1.890	1.890	1.904	1.904	1.890
0.010	0.000	0.020	0.000	0.015	0.005	0.386	2.676	1.895	1.890	1.885	1.909	1.914	1.904
-0.005	0.010	0.010	0.005	0.059	-0.020	0.386	2.681	1.890	1.890	1.885	1.904	1.924	1.904
0.010	-0.010	0.000	0.000	0.078	-0.024	0.386	2.686	1.895	1.885	1.885	1.909	1.924	1.909
0.005	0.000	0.005	0.000	0.078	-0.020	0.391	2.710	1.899	1.890	1.885	1.904	1.919	1.914
0.010	-0.005	-0.010	0.000	0.039	-0.024	0.386	2.681	1.899	1.895	1.885	1.904	1.904	1.904
0.005	0.000	-0.005	0.000	0.020	0.005	0.386	2.690	1.904	1.895	1.885	1.904	1.899	1.914
0.015	0.000	-0.010	0.000	0.010	0.015	0.381	2.710	1.904	1.895	1.890	1.909	1.899	1.914
0.015	0.015	-0.010	0.000	0.020	0.005	0.386	2.705	1.899	1.899	1.895	1.909	1.899	1.904
-0.005	0.010	-0.005	0.010	0.024	0.020	0.391	2.705	1.899	1.899	1.899	1.914	1.904	1.909
-0.005	0.000	0.000	0.010	0.000	-0.005	0.381	2.690	1.895	1.895	1.895	1.909	1.899	1.899
0.005	0.000	0.000	0.015	0.000	0.000	0.376	2.686	1.895	1.890	1.890	1.909	1.899	1.895
0.000	0.000	0.005	0.010	-0.005	0.010	0.386	2.710	1.890	1.890	1.890	1.909	1.899	1.899
-0.015	0.005	0.000	0.000	-0.010	0.039	0.391	2.705	1.890	1.890	1.890	1.909	1.899	1.909
-0.015	0.015	0.010	0.005	-0.010	0.015	0.391	2.695	1.890	1.890	1.890	1.904	1.899	1.895
-0.010	0.010	0.005	0.000	-0.010	0.024	0.386	2.695	1.890	1.885	1.885	1.904	1.895	1.895
-0.005	0.010	0.000	0.005	-0.005	0.015	0.376	2.749	1.895	1.885	1.885	1.904	1.899	1.899
0.005	-0.005	0.000	0.000	-0.005	-0.020	0.386	2.646	1.895	1.885	1.885	1.899	1.895	1.890
-0.005	-0.015	-0.005	-0.005	-0.024	-0.024	0.381	2.666	1.885	1.885	1.885	1.899	1.890	1.885
-0.005	-0.020	0.000	0.000	-0.015	-0.005	0.386	2.686	1.885	1.885	1.885	1.904	1.895	1.895
-0.005	0.000	0.000	-0.005	0.005	-0.010	0.386	2.656	1.885	1.885	1.890	1.909	1.904	1.899
-0.005	-0.005	0.005	0.000	0.010	-0.005	0.386	2.646	1.880	1.890	1.885	1.904	1.904	1.899
0.000	-0.005	0.005	0.000	-0.005	-0.010	0.381	2.847	1.904	1.890	1.890	1.904	1.904	1.899
-0.005	0.000	0.000	0.000	0.000	-0.020	0.386	2.734	1.909	1.899	1.890	1.909	1.904	1.899
-0.005	-0.010	-0.005	0.000	-0.005	0.005	0.381	2.646	1.899	1.899	1.890	1.909	1.904	1.909
-0.005	0.005	0.000	0.005	-0.010	0.000	0.386	2.642	1.890	1.899	1.895	1.909	1.904	1.904
-0.015	0.015	0.000	0.005	-0.010	0.010	0.386	2.734	1.890	1.899	1.895	1.909	1.904	1.904
-0.020	0.020	0.000	0.005	0.000	0.005	0.381	2.651	1.885	1.895	1.890	1.909	1.904	1.904
-0.015	0.015	-0.005	0.010	0.000	0.015	0.386	2.656	1.895	1.890	1.895	1.909	1.904	1.904
-0.005	0.020	0.000	0.005	0.005	0.015	0.381	2.656	1.885	1.885	1.890	1.909	1.904	1.904
0.000	0.010	0.000	0.000	0.005	0.024	0.386	2.642	1.885	1.885	1.885	1.909	1.899	1.909
0.005	0.005	-0.005	0.000	0.010	0.029	0.381	2.686	1.885	1.880	1.885	1.904	1.904	1.904
0.005	0.005	0.000	0.005	0.000	0.034	0.391	2.637	1.880	1.880	1.880	1.904	1.899	1.904
0.015	-0.005	0.005	0.000	-0.010	0.000	0.381	2.705	1.890	1.880	1.885	1.899	1.895	1.895
0.020	0.000	0.010	0.000	-0.010	-0.015	0.381	2.705	1.890	1.885	1.880	1.899	1.895	1.895
0.039	0.010	0.015	0.005	-0.005	0.000	0.386	2.700	1.899	1.895	1.890	1.904	1.899	1.895
0.034	0.005	0.020	0.000	0.005	-0.015	0.391	2.700	1.895	1.890	1.890	1.904	1.904	1.895
0.029	0.000	0.010	0.000	0.005	-0.015	0.381	2.690	1.899	1.895	1.890	1.909	1.904	1.895
0.029	0.000	0.010	0.000	-0.010	-0.005	0.381	2.690	1.899	1.895	1.890	1.904	1.899	1.899
0.020	-0.005	0.005	-0.005	-0.005	-0.010	0.381	2.700	1.895	1.890	1.890	1.904	1.904	1.899
0.000	-0.005	0.010	-0.005	-0.010	-0.015	0.386	2.690	1.890	1.895	1.890	1.909	1.904	1.899
-0.005	-0.020	0.005	0.000	-0.005	-0.020	0.386	2.695	1.895	1.885	1.890	1.909	1.904	1.899
-0.015	-0.005	0.005	0.000	-0.005	-0.010	0.381	2.700	1.885	1.885	1.885	1.904	1.904	1.904
-0.010	-0.010	0.000	0.000	-0.005	-0.020	0.376	2.686	1.885	1.885	1.885	1.904	1.899	1.899
-0.020	-0.005	0.000	0.000	0.000	0.000	0.386	2.681	1.885	1.885	1.885	1.904	1.899	1.904
-0.015	0.000	0.005	0.000	0.010	0.000	0.386	2.676	1.890	1.885	1.885	1.904	1.904	1.904
-0.020	-0.005	0.000	0.005	0.024	0.020	0.391	2.690	1.885	1.885	1.885	1.904	1.909	1.909
-0.010	0.005	0.000	0.005	0.015	0.024	0.386	2.710	1.890	1.880	1.880	1.899	1.899	1.904
-0.010	0.005	0.000	0.005	0.005	0.015	0.386	2.700	1.899	1.885	1.880	1.899	1.899	1.904
-0.005	0.010	0.000	0.010	0.010	0.020	0.381	2.700	1.899	1.890	1.885	1.899	1.895	1.899
-0.005	0.010	0.000	0.010	0.000	0.000	0.386	2.681	1.895	1.890	1.885	1.899	1.895	1.895
0.005	0.010	0.000	0.005	0.015	-0.005	0.391	2.681	1.895	1.890	1.885	1.899	1.899	1.895
0.010	0.005	0.000	0.000	0.020	-0.024	0.386	2.705	1.899	1.890	1.890	1.904	1.904	1.895
0.020	0.010	0.005	0.005	0.015	-0.010	0.376	2.690	1.899	1.895	1.890	1.904	1.899	1.899
0.005	-0.005	0.005	0.005	0.005	0.005	0.386	2.700	1.899	1.895	1.895	1.909	1.899	1.904
0.010	0.005	0.000	0.005	0.015	0.020	0.386	2.705	1.899	1.899	1.895	1.909	1.904	1.909
0.005	0.000	-0.005	0.005	0.005	0.015	0.391	2.812	1.919	1.899	1.895	1.914	1.904	1.904
-0.005	-0.005	-0.005	0.010	0.000	0.029	0.381	2.661	1.904	1.899	1.895	1.914	1.904	1.909
0.005	0.000	0.000	0.010	-0.005	0.034	0.386	2.661	1.899	1.899	1.895	1.914	1.904	1.909
-0.005	0.005	0.005	0.000	-0.005	0.005	0.386	2.695	1.895	1.899	1.895	1.909	1.899	1.899
0.005	0.005	0.000	-0.005	-0.005	0.029	0.386	2.656	1.890	1.895	1.895	1.909	1.904	1.904
-0.005	0.000	0.000	0.000	0.015	-0.005	0.381	2.646	1.880	1.890	1.890	1.909	1.909	1.895
-0.005	0.000	0.000	0.000	-0.005	-0.005	0.386	2.729	1.885	1.890	1.890	1.909	1.899	1.895
0.005	-0.005	0.000	0.000	-0.010	-0.005	0.381	2.725	1.890	1.885	1.885	1.904	1.895	1.895
0.010	-0.005	-0.005	0.000	-0.020	-0.024	0.381	2.651	1.885	1.885	1.880	1.904	1.895	1.890
0.020	-0.024	0.000	0.000	-0.024	-0.005	0.386	2.734	1.895	1.880	1.880	1.904	1.895	1.895
0.020	-0.010	0.000	0.000	0.005	-0.010	0.381	2.734	1.895	1.885	1.885	1.904	1.904	1.895
0.015	-0.005	0.010	0.005	0.000	-0.039	0.386	2.666	1.895	1.890	1.885	1.904	1.899	1.885
0.020	0.000	-0.005	0.000	-0.005	-0.024	0.381	2.759	1.895	1.895	1.890	1.899	1.904	1.899
0.015	0.000	0.000	-0.005	0.015	0.010	0.391	2.661	1.899	1.895	1.890	1.909	1.909	1.909
0.000	-0.010	0.005	0.005	0.015	0.010	0.371	2.744	1.895	1.890	1.890	1.909	1.904	1.914
-0.015	0.005	0.005	0.015	0.005	0.024	0.386	2.681	1.890	1.899	1.895	1.914	1.904	1.914
-0.010	0.005	0.000	0.010	-0.029	0.015	0.371	2.627	1.885	1.895	1.890	1.909	1.895	1.904
-0.010	0.010	0.000	0.005	-0.049	-0.005	0.396	2.681	1.890	1.895	1.890	1.909	1.890	1.899
-0.010	0.010	-0.005	0.000	-0.063	0.029	0.376	2.686	1.890	1.895	1.895	1.909	1.895	1.904
-0.010	0.020	0.005	0.005	-0.034	0.020	0.386	2.710	1.895	1.899	1.895	1.914	1.909	1.904
0.000	0.015	0.000	0.005	0.068	0.059	0.386	2.695	1.899	1.895	1.895	1.914	1.934	1.924
0.005	0.010	0.005	0.000	0.054	0.063	0.386	2.671	1.895	1.895	1.895	1.914	1.919	1.924
0.015	0.015	0.000	0.005	0.005	0.044	0.391	2.681	1.895	1.895	1.890	1.909	1.899	1.909
0.005	0.000	-0.005	0.000	0.024	0.000	0.391	2.681	1.895	1.890	1.890	1.909	1.909	1.899
0.015	0.005	0.000	0.005	0.039	-0.039	0.386	2.695	1.890	1.890	1.885	1.904	1.904	1.885
0.000	0.000	0.005	0.000	0.010	-0.034	0.391	2.686	1.885	1.885	1.885	1.904	1.899	1.890
0.005	0.000	0.005	0.000	0.000	-0.054	0.386	2.686	1.885	1.885	1.885	1.899	1.895	1.885
0.005	-0.005	0.010	-0.005	0.000	-0.059	0.391	2.681	1.890	1.885	1.885	1.899	1.895	1.890
0.000	0.010	0.000	-0.005	0.020	-0.029	0.376	2.705	1.890	1.885	1.880	1.904	1.899	1.895
-0.005	0.005	0.005	-0.005	0.044	-0.010	0.381	2.695	1.890	1.890	1.885	1.904	1.909	1.909
0.000	0.010	0.005	-0.005	0.059	0.000	0.381	2.686	1.895	1.890	1.885	1.904	1.914	1.914
0.005	0.000	-0.005	0.000	0.039	0.024	0.376	2.700	1.899	1.890	1.890	1.909	1.904	1.919
0.005	-0.005	0.005	0.000	0.020	0.020	0.386	2.705	1.904	1.890	1.890	1.909	1.899	1.909
-0.005	-0.015	0.000	0.000	0.005	0.000	0.386	2.710	1.904	1.895	1.890	1.904	1.895	1.904
0.000	-0.020	-0.005	0.005	-0.015	0.049	0.391	2.705	1.899	1.895	1.890	1.904	1.895	1.914
0.005	-0.005	0.000	0.000	-0.005	0.039	0.386	2.715	1.904	1.899	1.895	1.909	1.899	1.904
0.000	0.000	0.000	0.005	-0.010	0.015	0.381	2.710	1.904	1.899	1.895	1.909	1.899	1.895
-0.005	0.000	0.010	0.015	0.000	0.005	0.386	2.681	1.890	1.899	1.895	1.909	1.904	1.895
-0.020	-0.015	0.000	0.010	0.000	-0.005	0.386	2.686	1.885	1.890	1.895	1.909	1.904	1.899
-0.020	-0.005	0.005	0.000	-0.005	-0.015	0.386	2.690	1.885	1.890	1.890	1.904	1.899	1.895
-0.020	0.005	0.005	0.000	-0.015	-0.034	0.391	2.817	1.899	1.890	1.885	1.904	1.895	1.885
-0.020	0.000	0.000	0.000	-0.020	0.005	0.386	2.646	1.890	1.885	1.885	1.904	1.895	1.899
-0.015	0.010	0.000	0.000	-0.015	-0.020	0.386	2.661	1.885	1.890	1.885	1.904	1.899	1.895
0.000	0.000	0.000	0.000	-0.015	0.020	0.386	2.686	1.890	1.885	1.885	1.904	1.899	1.904
0.005	0.010	-0.005	0.005	-0.024	0.005	0.381	2.651	1.885	1.890	1.890	1.904	1.895	1.899
0.024	-0.010	0.000	0.005	0.000	-0.010	0.381	2.642	1.885	1.885	1.885	1.904	1.904	1.895
0.024	-0.005	-0.005	0.000	0.010	0.010	0.386	2.700	1.895	1.890	1.890	1.904	1.909	1.909
0.034	0.010	0.005	0.005	0.015	-0.005	0.376	2.739	1.904	1.899	1.890	1.909	1.909	1.904
0.034	0.010	-0.005	0.000	0.015	-0.015	0.386	2.651	1.899	1.899	1.890	1.909	1.909	1.904
0.029	0.010	-0.010	0.005	0.015	-0.015	0.381	2.720	1.899	1.895	1.890	1.909	1.904	1.899
0.020	0.000	-0.005	0.005	0.005	0.000	0.386	2.744	1.909	1.895	1.895	1.909	1.904	1.904
0.010	-0.005	0.000	0.000	0.010	-0.015	0.376	2.637	1.890	1.895	1.895	1.909	1.909	1.904
0.010	-0.005	-0.005	0.005	0.005	-0.034	0.386	2.734	1.895	1.895	1.890	1.909	1.904	1.895
-0.005	-0.005	0.005	0.000	-0.010	-0.059	0.386	2.671	1.890	1.895	1.890	1.909	1.899	1.890
-0.015	0.005	0.010	0.000	-0.020	-0.020	0.381	2.651	1.880	1.890	1.890	1.909	1.899	1.904
-0.024	0.010	0.005	-0.005	-0.039	-0.029	0.381	2.686	1.885	1.890	1.885	1.909	1.895	1.899
-0.010	0.020	0.015	-0.005	-0.010	-0.010	0.386	2.637	1.880	1.885	1.890	1.904	1.904	1.904
-0.010	0.005	0.015	-0.005	0.020	0.015	0.391	2.681	1.880	1.880	1.890	1.909	1.909	1.914
-0.005	0.015	0.005	0.005	0.015	0.024	0.391	2.686	1.880	1.885	1.885	1.904	1.904	1.914
-0.010	0.005	0.000	0.000	-0.005	0.044	0.376	2.710	1.890	1.880	1.880	1.904	1.899	1.909
-0.015	0.000	0.005	0.000	0.005	0.020	0.381	2.690	1.890	1.880	1.880	1.899	1.899	1.904
-0.005	0.005	0.000	0.005	0.029	0.034	0.381	2.681	1.895	1.890	1.880	1.899	1.909	1.909
0.005	0.010	0.000	0.010	0.054	0.024	0.381	2.695	1.895	1.890	1.880	1.904	1.909	1.904
0.000	0.000	-0.005	0.005	0.049	0.034	0.386	2.681	1.899	1.890	1.885	1.904	1.909	1.909
0.005	0.010	0.000	0.010	0.029	0.020	0.386	2.710	1.904	1.899	1.890	1.904	1.899	1.904
0.010	0.015	0.005	0.010	0.034	0.020	0.386	2.690	1.904	1.899	1.895	1.909	1.904	1.904
0.015	0.000	0.000	0.010	0.015	0.000	0.381	2.676	1.899	1.899	1.895	1.909	1.899	1.899
0.005	0.005	0.005	0.005	-0.015	-0.010	0.386	2.690	1.899	1.899	1.895	1.909	1.890	1.890
0.005	-0.005	0.010	0.005	-0.015	-0.015	0.386	2.681	1.895	1.895	1.895	1.909	1.895	1.890
0.000	0.000	0.010	-0.005	0.005	-0.005	0.386	2.695	1.895	1.895	1.895	1.904	1.904	1.899
-0.005	0.000	0.000	0.000	0.005	0.005	0.386	2.686	1.885	1.890	1.890	1.909	1.904	1.899
0.000	0.000	-0.005	0.000	-0.010	0.000	0.391	2.690	1.885	1.890	1.885	1.909	1.899	1.899
-0.010	0.000	0.005	-0.005	-0.010	-0.015	0.386	2.700	1.890	1.885	1.880	1.904	1.895	1.890
-0.010	-0.005	-0.005	0.000	-0.020	-0.029	0.386	2.700	1.890	1.880	1.885	1.904	1.895	1.895
0.000	0.000	0.000	0.005	-0.029	0.005	0.391	2.700	1.890	1.885	1.880	1.899	1.890	1.899
0.000	0.005	-0.010	0.000	-0.029	-0.020	0.386	2.686	1.885	1.885	1.880	1.899	1.890	1.895
-0.010	-0.020	-0.005	-0.005	-0.029	0.000	0.386	2.705	1.890	1.880	1.880	1.899	1.895	1.895
-0.015	-0.010	-0.005	0.010	-0.024	-0.005	0.391	2.700	1.885	1.880	1.880	1.899	1.895	1.890
-0.015	-0.010	-0.005	0.005	-0.015	-0.005	0.386	2.686	1.880	1.880	1.880	1.899	1.895	1.895
-0.015	-0.005	0.000	0.005	-0.010	0.000	0.396	2.690	1.890	1.885	1.885	1.899	1.899	1.899
-0.005	-0.005	0.005	0.000	-0.005	0.020	0.386	2.759	1.904	1.890	1.885	1.904	1.904	1.904
0.005	0.010	0.010	0.000	0.000	0.024	0.386	2.656	1.904	1.899	1.890	1.909	1.904	1.909
0.015	0.010	0.000	0.000	0.000	0.029	0.381	2.661	1.899	1.899	1.895	1.904	1.904	1.909
0.020	-0.005	-0.005	0.000	0.000	0.029	0.386	2.695	1.899	1.895	1.895	1.904	1.904	1.909
0.010	0.000	-0.005	0.000	-0.005	0.020	0.381	2.773	1.909	1.899	1.890	1.909	1.904	1.904
0.015	0.010	0.005	0.000	0.029	0.000	0.386	2.651	1.914	1.904	1.899	1.909	1.909	1.899
0.015	-0.005	0.000	0.005	0.059	-0.020	0.381	2.681	1.904	1.899	1.899	1.914	1.914	1.899
0.010	0.005	0.005	0.005	0.039	0.000	0.391	2.734	1.909	1.904	1.899	1.919	1.909	1.909
0.010	0.005	0.000	0.005	0.015	-0.010	0.391	2.734	1.909	1.904	1.899	1.914	1.904	1.904
0.010	0.015	0.005	0.005	0.010	0.005	0.391	2.642	1.895	1.904	1.899	1.914	1.904	1.909
0.010	0.020	0.005	0.000	0.010	0.005	0.386	2.749	1.895	1.899	1.895	1.909	1.904	1.904
0.010	0.005	-0.010	0.005	0.010	-0.005	0.386	2.734	1.890	1.895	1.890	1.909	1.899	1.899
0.000	-0.010	-0.015	0.005	-0.005	-0.054	0.381	2.651	1.880	1.880	1.885	1.909	1.895	1.890
0.005	-0.015	-0.005	0.000	-0.015	-0.005	0.386	2.681	1.880	1.880	1.890	1.904	1.895	1.904
0.010	-0.010	0.005	0.005	-0.005	0.000	0.386	2.642	1.880	1.880	1.890	1.904	1.899	1.904
-0.005	-0.010	0.005	0.000	-0.005	0.010	0.386	2.710	1.885	1.880	1.890	1.909	1.904	1.904
0.000	0.000	0.020	0.000	0.000	0.000	0.386	2.729	1.895	1.890	1.890	1.904	1.904	1.904
0.005	0.000	0.015	0.005	-0.005	0.020	0.386	2.695	1.895	1.890	1.890	1.909	1.899	1.909
0.015	-0.005	0.015	0.000	-0.034	0.010	0.381	2.695	1.899	1.895	1.890	1.909	1.899	1.904
0.010	-0.005	0.010	-0.005	-0.024	0.024	0.381	2.710	1.899	1.895	1.890	1.909	1.899	1.904
0.010	0.000	0.015	0.000	-0.029	0.010	0.396	2.715	1.904	1.899	1.895	1.909	1.904	1.904
-0.005	0.005	0.000	0.000	-0.034	0.005	0.381	2.695	1.895	1.895	1.890	1.909	1.899	1.899
-0.020	0.000	-0.005	0.000	-0.039	0.049	0.386	2.681	1.890	1.895	1.890	1.909	1.904	1.914
-0.029	0.005	-0.005	-0.005	-0.015	0.029	0.386	2.686	1.885	1.890	1.890	1.909	1.909	1.904
-0.029	-0.024	-0.005	0.000	-0.010	0.015	0.391	2.695	1.890	1.885	1.885	1.909	1.909	1.899
-0.024	-0.010	-0.005	0.000	-0.010	-0.039	0.381	2.700	1.890	1.885	1.885	1.904	1.904	1.890
-0.005	-0.015	-0.005	0.005	0.024	-0.010	0.386	2.681	1.895	1.885	1.885	1.904	1.909	1.899
0.015	-0.005	0.000	0.000	0.034	-0.020	0.376	2.686	1.899	1.890	1.885	1.904	1.909	1.899
0.034	-0.005	0.000	0.000	0.024	-0.015	0.391	2.681	1.899	1.895	1.885	1.899	1.904	1.904
0.039	0.005	0.000	0.005	0.015	-0.029	0.381	2.681	1.895	1.899	1.885	1.904	1.899	1.895
0.034	-0.005	-0.005	0.000	0.049	-0.029	0.386	2.690	1.895	1.890	1.890	1.904	1.909	1.899
0.029	0.005	0.000	0.005	0.044	-0.029	0.386	2.686	1.890	1.895	1.890	1.904	1.904	1.904
0.024	-0.005	0.000	0.005	0.015	-0.024	0.391	2.690	1.895	1.895	1.890	1.909	1.899	1.904
0.000	0.000	-0.005	0.010	0.005	-0.005	0.391	2.695	1.890	1.890	1.895	1.909	1.899	1.904
0.000	0.020	0.000	0.000	0.010	0.005	0.381	2.686	1.895	1.895	1.890	1.909	1.904	1.909
-0.005	0.020	0.000	0.000	0.015	0.010	0.376	2.705	1.895	1.895	1.895	1.909	1.909	1.914
-0.015	0.010	-0.005	0.005	0.034	0.054	0.386	2.715	1.899	1.895	1.895	1.914	1.919	1.924
-0.010	0.020	0.000	0.010	0.010	0.034	0.386	2.710	1.899	1.904	1.895	1.914	1.909	1.909
-0.005	0.015	0.005	0.015	0.034	0.034	0.396	2.681	1.899	1.899	1.899	1.914	1.919	1.914
-0.005	0.020	-0.005	0.010	0.024	0.024	0.391	2.686	1.895	1.899	1.895	1.914	1.909	1.909
0.000	0.020	0.005	0.015	-0.020	0.010	0.386	2.808	1.914	1.904	1.895	1.909	1.895	1.899
-0.015	0.020	0.005	0.010	-0.034	0.010	0.386	2.651	1.895	1.899	1.895	1.909	1.895	1.895
-0.005	0.010	0.000	0.010	-0.049	0.020	0.381	2.656	1.890	1.890	1.890	1.909	1.895	1.895
-0.010	0.000	0.000	0.005	-0.078	0.015	0.386	2.681	1.885	1.885	1.885	1.904	1.885	1.890
-0.010	0.000	-0.005	0.000	-0.034	0.020	0.381	2.651	1.880	1.880	1.885	1.904	1.904	1.895
-0.010	-0.010	0.005	-0.005	0.049	-0.015	0.381	2.651	1.875	1.880	1.885	1.904	1.919	1.895
0.005	-0.010	0.010	0.000	0.063	-0.020	0.381	2.852	1.904	1.885	1.880	1.904	1.919	1.899
0.005	-0.005	-0.005	0.000	0.068	-0.024	0.386	2.725	1.899	1.890	1.885	1.904	1.914	1.904
-0.010	0.000	0.010	0.000	0.034	-0.010	0.381	2.642	1.890	1.895	1.890	1.904	1.904	1.904
-0.005	0.000	0.010	0.000	-0.049	0.005	0.386	2.734	1.899	1.895	1.890	1.904	1.880	1.899
-0.010	0.015	0.005	0.005	-0.073	-0.020	0.386	2.739	1.904	1.899	1.895	1.904	1.880	1.890
0.000	0.005	0.005	0.005	-0.059	0.015	0.386	2.690	1.895	1.899	1.895	1.909	1.890	1.899
0.000	0.000	0.010	0.005	-0.005	0.005	0.381	2.744	1.904	1.895	1.899	1.914	1.909	1.899
0.010	-0.005	0.005	0.000	0.000	-0.010	0.386	2.646	1.895	1.899	1.899	1.914	1.914	1.904
0.010	0.000	0.000	0.010	0.068	-0.015	0.381	2.744	1.895	1.899	1.899	1.919	1.934	1.909
0.000	-0.010	0.005	0.005	0.098	-0.005	0.386	2.695	1.895	1.895	1.895	1.919	1.934	1.919
-0.039	-0.015	0.000	-0.005	0.015	-0.020	0.381	2.661	1.875	1.885	1.890	1.909	1.899	1.904
-0.024	-0.015	0.005	-0.010	-0.005	-0.020	0.381	2.671	1.880	1.885	1.885	1.904	1.899	1.904
-0.024	-0.015	0.000	-0.010	0.000	-0.020	0.381	2.686	1.880	1.885	1.885	1.904	1.899	1.904
-0.029	-0.020	0.005	-0.005	-0.015	-0.005	0.381	2.690	1.885	1.880	1.885	1.904	1.895	1.904
-0.005	-0.010	0.000	-0.005	-0.049	0.015	0.386	2.715	1.895	1.885	1.880	1.899	1.885	1.899
0.000	-0.005	-0.005	-0.005	-0.020	0.034	0.381	2.700	1.895	1.885	1.880	1.904	1.899	1.904
0.010	-0.005	-0.010	0.000	0.000	0.010	0.381	2.700	1.899	1.890	1.875	1.899	1.899	1.895
0.020	0.000	-0.005	0.005	-0.015	0.049	0.386	2.681	1.899	1.890	1.885	1.904	1.899	1.909
0.049	0.005	-0.005	0.010	-0.020	0.034	0.386	2.695	1.909	1.899	1.890	1.904	1.895	1.899
0.059	0.005	0.005	0.010	-0.010	0.020	0.391	2.690	1.909	1.904	1.895	1.909	1.899	1.899
0.059	0.015	0.005	0.010	-0.020	0.005	0.391	2.695	1.904	1.904	1.899	1.909	1.899	1.895
0.059	0.015	0.005	0.010	0.024	0.000	0.381	2.695	1.909	1.904	1.899	1.914	1.914	1.899
0.034	0.024	0.005	0.015	0.054	-0.024	0.386	2.710	1.899	1.904	1.904	1.919	1.924	1.899
0.024	0.034	0.015	0.010	0.063	-0.005	0.386	2.686	1.895	1.904	1.909	1.919	1.924	1.914
-0.010	0.020	0.010	0.005	0.093	-0.024	0.386	2.686	1.880	1.890	1.899	1.919	1.929	1.914
-0.015	0.010	0.015	0.005	0.098	-0.005	0.381	2.695	1.890	1.895	1.899	1.919	1.929	1.924
-0.015	0.005	0.015	0.005	0.068	-0.010	0.386	2.681	1.890	1.890	1.890	1.914	1.914	1.914
-0.020	-0.010	0.005	-0.005	0.039	-0.029	0.376	2.700	1.895	1.885	1.885	1.909	1.904	1.909
-0.015	-0.015	0.005	-0.005	0.020	-0.024	0.381	2.690	1.895	1.885	1.885	1.904	1.895	1.904
-0.005	0.000	0.000	-0.024	-0.010	-0.010	0.386	2.710	1.895	1.885	1.880	1.899	1.885	1.899
-0.005	0.000	-0.005	-0.015	-0.039	-0.015	0.386	2.705	1.895	1.890	1.880	1.899	1.880	1.895
-0.005	0.005	0.000	-0.005	-0.049	-0.029	0.381	2.690	1.895	1.890	1.885	1.904	1.885	1.885
0.010	0.020	-0.005	0.015	-0.063	-0.024	0.381	2.681	1.895	1.895	1.885	1.904	1.885	1.890
0.005	-0.010	-0.005	0.020	-0.054	0.020	0.381	2.690	1.890	1.885	1.885	1.904	1.895	1.899
0.005	-0.020	0.000	0.015	-0.059	0.034	0.391	2.812	1.909	1.885	1.885	1.904	1.890	1.899
0.005	-0.005	0.005	0.010	-0.049	0.034	0.386	2.690	1.899	1.890	1.885	1.904	1.899	1.899
0.000	0.010	0.005	-0.005	-0.044	0.034	0.386	2.661	1.895	1.895	1.890	1.904	1.899	1.899
-0.010	0.005	0.005	0.000	-0.029	0.034	0.386	2.686	1.890	1.895	1.890	1.904	1.904	1.899
-0.005	0.020	-0.005	0.010	-0.020	0.029	0.391	2.651	1.885	1.895	1.890	1.909	1.904	1.899
-0.024	0.000	0.000	0.005	-0.005	0.054	0.386	2.681	1.880	1.885	1.890	1.909	1.914	1.914
-0.020	0.000	0.005	-0.005	0.020	0.049	0.386	2.842	1.895	1.885	1.890	1.909	1.919	1.914
-0.010	-0.010	0.000	-0.010	0.034	0.020	0.386	2.749	1.899	1.890	1.885	1.904	1.914	1.904
-0.024	-0.015	0.000	-0.005	0.015	-0.015	0.386	2.646	1.890	1.890	1.890	1.904	1.904	1.895
-0.039	-0.005	-0.005	0.000	0.015	-0.010	0.386	2.744	1.895	1.890	1.890	1.909	1.904	1.899
-0.020	0.020	-0.005	0.010	0.015	-0.005	0.381	2.759	1.909	1.904	1.890	1.909	1.904	1.899
-0.005	0.024	-0.005	0.015	0.015	-0.010	0.391	2.656	1.904	1.899	1.890	1.909	1.909	1.899
0.015	0.010	0.000	0.015	0.005	-0.015	0.381	2.749	1.909	1.899	1.895	1.909	1.904	1.899
0.020	0.005	0.000	0.015	0.015	-0.005	0.386	2.681	1.899	1.895	1.890	1.909	1.904	1.899
0.029	-0.005	0.005	0.005	0.000	-0.010	0.386	2.671	1.895	1.895	1.890	1.904	1.899	1.899
0.039	0.000	0.005	-0.005	-0.005	-0.015	0.381	2.676	1.895	1.890	1.890	1.904	1.895	1.895
0.044	0.010	0.010	-0.005	0.020	-0.010	0.381	2.637	1.890	1.895	1.895	1.904	1.904	1.899
0.054	0.005	0.010	0.000	0.029	-0.015	0.386	2.705	1.890	1.895	1.895	1.909	1.904	1.899
0.034	0.000	0.015	0.005	0.054	-0.015	0.391	2.695	1.890	1.890	1.895	1.914	1.914	1.904
0.024	0.005	0.010	0.005	0.015	-0.005	0.386	2.695	1.890	1.890	1.890	1.909	1.904	1.904
0.010	-0.005	0.010	0.015	-0.010	-0.015	0.381	2.705	1.890	1.885	1.890	1.909	1.899	1.899
0.010	-0.005	0.005	0.015	0.000	0.010	0.391	2.705	1.890	1.890	1.890	1.909	1.904	1.914
-0.010	-0.005	0.000	0.015	0.015	0.020	0.381	2.690	1.890	1.890	1.890	1.909	1.914	1.914
-0.015	-0.010	-0.005	0.010	-0.010	0.010	0.386	2.676	1.890	1.885	1.885	1.904	1.899	1.909
-0.010	-0.005	0.000	-0.010	-0.034	0.000	0.381	2.700	1.895	1.890	1.885	1.899	1.895	1.899
-0.010	-0.020	-0.005	-0.015	-0.063	0.005	0.391	2.690	1.890	1.885	1.885	1.899	1.890	1.899
-0.020	-0.024	0.000	-0.010	-0.054	-0.010	0.381	2.686	1.885	1.880	1.885	1.904	1.890	1.895
-0.005	-0.020	0.000	-0.005	-0.034	0.005	0.386	2.676	1.890	1.885	1.880	1.904	1.899	1.899
-0.005	-0.005	0.000	-0.005	-0.034	-0.020	0.381	2.700	1.890	1.890	1.880	1.899	1.895	1.890
0.000	-0.005	-0.005	0.000	-0.020	0.010	0.391	2.681	1.890	1.890	1.885	1.904	1.904	1.899
0.005	0.005	0.005	0.005	0.024	0.005	0.386	2.710	1.885	1.890	1.885	1.909	1.914	1.899
-0.020	0.020	0.000	0.010	0.020	-0.005	0.381	2.715	1.885	1.890	1.885	1.904	1.909	1.904
-0.015	0.024	0.000	0.010	0.000	0.000	0.386	2.686	1.890	1.890	1.885	1.904	1.899	1.899
-0.010	0.029	0.005	0.020	0.024	-0.005	0.386	2.700	1.890	1.890	1.890	1.909	1.909	1.904
0.000	0.015	0.000	0.020	0.054	-0.005	0.386	2.695	1.895	1.890	1.885	1.909	1.914	1.904
0.034	0.015	0.000	0.015	0.093	-0.010	0.386	2.700	1.904	1.895	1.890	1.904	1.924	1.909
0.015	-0.005	0.005	0.000	0.083	-0.005	0.381	2.715	1.899	1.890	1.890	1.904	1.909	1.909
-0.010	-0.005	0.005	-0.005	0.078	-0.010	0.381	2.690	1.895	1.890	1.890	1.904	1.909	1.909
-0.010	-0.005	0.005	-0.010	0.059	-0.005	0.386	2.695	1.895	1.890	1.890	1.904	1.899	1.909
-0.015	-0.010	0.005	-0.015	0.029	0.000	0.386	2.700	1.895	1.890	1.890	1.904	1.890	1.909
-0.020	-0.010	0.010	-0.010	-0.005	0.005	0.396	2.754	1.904	1.895	1.890	1.904	1.885	1.899
-0.029	-0.005	0.000	-0.005	-0.005	0.015	0.386	2.671	1.899	1.895	1.890	1.904	1.890	1.904
-0.010	0.005	0.000	-0.015	-0.029	0.029	0.381	2.656	1.895	1.899	1.895	1.904	1.885	1.899
0.000	0.010	0.005	-0.005	-0.024	0.029	0.381	2.686	1.899	1.899	1.895	1.909	1.890	1.899
-0.005	0.015	0.000	0.000	-0.024	-0.015	0.391	2.651	1.885	1.890	1.895	1.909	1.890	1.880
0.000	0.010	0.000	0.000	-0.039	0.010	0.381	2.637	1.880	1.885	1.890	1.909	1.895	1.895
0.005	0.000	0.000	0.005	-0.034	-0.015	0.386	2.725	1.890	1.885	1.890	1.909	1.890	1.885
-0.020	0.005	0.000	0.010	-0.034	-0.005	0.381	2.729	1.880	1.885	1.885	1.909	1.899	1.895
-0.024	0.015	0.000	0.015	-0.010	-0.015	0.391	2.651	1.875	1.880	1.885	1.904	1.904	1.890
-0.024	0.010	0.000	0.015	0.005	-0.010	0.381	2.715	1.885	1.880	1.880	1.904	1.909	1.899
-0.020	0.000	0.005	0.015	-0.020	0.015	0.386	2.739	1.890	1.880	1.880	1.899	1.895	1.899
-0.010	0.010	0.000	-0.005	-0.024	0.020	0.381	2.661	1.895	1.885	1.875	1.895	1.895	1.899
0.005	0.000	0.005	0.000	-0.029	0.034	0.386	2.661	1.904	1.890	1.880	1.899	1.895	1.904
0.024	-0.010	0.000	-0.005	-0.020	0.024	0.381	2.661	1.904	1.890	1.885	1.899	1.899	1.904
0.015	-0.020	-0.005	-0.005	-0.024	0.015	0.386	2.754	1.909	1.890	1.885	1.904	1.895	1.895
0.044	-0.010	0.005	0.010	-0.015	0.005	0.386	2.676	1.914	1.899	1.895	1.909	1.899	1.899
0.049	-0.010	-0.005	0.005	-0.010	0.044	0.386	2.661	1.904	1.904	1.895	1.909	1.904	1.909
0.044	0.005	-0.005	0.010	-0.034	0.039	0.386	2.690	1.904	1.909	1.895	1.914	1.899	1.904
0.039	0.005	0.005	0.005	0.015	0.039	0.381	2.705	1.899	1.904	1.899	1.914	1.919	1.909
0.029	0.015	0.000	0.015	0.098	0.024	0.381	2.676	1.895	1.904	1.899	1.919	1.938	1.914
