0.010	0.005	0.005	0.005	0.005	0.010	0.430	2.671	3.062	2.354	2.192	2.041	2.065	2.026
0.005	-0.015	0.000	0.005	0.000	0.000	0.430	2.681	2.778	2.476	2.261	2.104	2.075	2.036
0.005	0.000	0.000	0.000	0.000	0.000	0.430	2.681	2.573	2.515	2.334	2.173	2.100	2.056
0.005	0.005	-0.005	0.005	0.005	0.005	0.435	2.695	2.427	2.495	2.383	2.231	2.134	2.080
0.005	0.000	0.005	0.000	0.005	0.005	0.430	2.676	2.319	2.451	2.402	2.285	2.173	2.104
0.005	0.005	0.000	0.000	0.000	-0.005	0.430	2.690	2.246	2.397	2.407	2.324	2.207	2.129
0.000	0.005	0.000	0.000	0.000	0.005	0.430	2.681	2.192	2.344	2.393	2.349	2.246	2.168
0.005	0.000	0.005	0.000	0.000	0.000	0.430	2.686	2.158	2.295	2.368	2.358	2.280	2.192
0.000	-0.005	0.000	0.000	0.000	0.000	0.430	2.700	2.139	2.251	2.339	2.358	2.300	2.222
-0.010	-0.005	0.005	0.000	0.010	-0.024	0.430	2.690	2.119	2.217	2.305	2.354	2.314	2.246
-0.005	-0.005	0.000	-0.005	0.000	-0.010	0.430	2.695	2.114	2.187	2.271	2.334	2.319	2.266
0.005	0.000	0.000	0.000	0.000	0.000	0.420	2.686	2.104	2.168	2.241	2.314	2.319	2.285
0.005	0.000	0.005	0.000	-0.005	0.000	0.430	2.695	2.109	2.148	2.217	2.290	2.310	2.290
0.000	0.005	0.000	0.000	0.005	-0.005	0.430	2.690	2.104	2.144	2.192	2.271	2.300	2.295
-0.010	0.005	-0.005	0.000	0.005	0.015	0.430	2.681	2.100	2.129	2.178	2.246	2.280	2.295
0.005	0.000	-0.005	0.000	-0.005	0.020	0.425	2.681	2.109	2.119	2.158	2.227	2.266	2.290
0.010	0.000	0.005	0.000	-0.005	0.024	0.435	2.681	2.109	2.114	2.148	2.207	2.246	2.280
0.005	0.000	0.005	0.000	-0.005	0.024	0.430	2.695	2.109	2.114	2.139	2.197	2.231	2.266
0.005	-0.010	0.005	0.000	0.000	0.015	0.435	2.695	2.114	2.114	2.129	2.183	2.217	2.251
0.005	-0.015	0.000	0.005	0.005	-0.024	0.430	2.705	2.114	2.114	2.124	2.178	2.202	2.227
0.005	0.005	0.010	0.005	0.000	0.010	0.435	2.695	2.114	2.124	2.124	2.168	2.197	2.231
0.015	0.010	0.005	0.005	0.005	0.000	0.435	2.690	2.114	2.124	2.129	2.163	2.187	2.217
0.005	-0.005	0.000	0.005	0.005	0.000	0.435	2.700	2.114	2.119	2.124	2.158	2.178	2.207
-0.005	-0.005	0.000	0.005	0.005	-0.015	0.435	2.695	2.109	2.114	2.119	2.148	2.168	2.192
-0.005	0.005	-0.005	0.005	0.005	-0.005	0.430	2.690	2.109	2.119	2.119	2.144	2.163	2.187
0.005	0.000	0.005	0.005	0.005	-0.015	0.430	2.695	2.104	2.114	2.119	2.144	2.153	2.178
-0.005	0.000	0.000	0.005	0.000	0.000	0.435	2.681	2.095	2.109	2.114	2.139	2.148	2.173
-0.005	0.000	0.005	0.000	0.005	0.000	0.435	2.690	2.095	2.104	2.114	2.139	2.144	2.168
0.005	-0.010	0.005	0.005	0.005	0.000	0.435	2.681	2.090	2.095	2.109	2.134	2.139	2.163
0.000	0.000	0.000	0.005	0.005	0.005	0.430	2.686	2.085	2.095	2.104	2.129	2.134	2.153
0.005	0.005	0.000	0.000	0.005	-0.005	0.425	2.681	2.085	2.090	2.100	2.124	2.129	2.144
-0.010	0.005	0.000	0.005	0.000	-0.005	0.435	2.686	2.075	2.090	2.095	2.119	2.124	2.139
-0.005	0.000	0.010	0.005	0.005	-0.005	0.430	2.690	2.075	2.080	2.095	2.114	2.119	2.134
-0.005	0.005	0.005	0.005	0.000	-0.005	0.425	2.690	2.075	2.080	2.085	2.114	2.114	2.129
-0.005	0.000	0.000	0.000	-0.005	0.000	0.425	2.690	2.075	2.080	2.080	2.109	2.114	2.124
0.000	0.005	0.000	0.000	0.000	-0.015	0.435	2.690	2.075	2.080	2.080	2.104	2.109	2.119
0.000	-0.005	0.000	0.000	0.000	0.010	0.435	2.700	2.075	2.075	2.080	2.104	2.109	2.124
-0.005	0.005	0.005	0.000	0.000	0.015	0.430	2.695	2.075	2.080	2.080	2.104	2.109	2.119
0.000	0.010	0.005	0.000	0.000	0.010	0.430	2.690	2.070	2.080	2.080	2.104	2.109	2.114
-0.005	0.005	0.000	0.000	-0.005	0.010	0.430	2.695	2.070	2.075	2.080	2.104	2.104	2.114
0.005	0.005	0.000	0.005	0.000	0.000	0.430	2.690	2.070	2.075	2.080	2.100	2.104	2.109
0.000	0.010	-0.005	-0.005	0.000	-0.010	0.425	2.690	2.065	2.070	2.075	2.100	2.104	2.109
0.000	0.000	0.000	-0.005	0.000	-0.005	0.425	2.695	2.065	2.065	2.075	2.100	2.100	2.100
0.015	-0.005	0.000	0.000	0.000	0.010	0.430	2.690	2.065	2.070	2.070	2.095	2.095	2.104
0.005	0.000	0.000	0.005	0.005	0.010	0.425	2.681	2.056	2.065	2.070	2.090	2.095	2.104
0.000	0.000	-0.005	0.000	0.005	0.005	0.430	2.686	2.051	2.056	2.065	2.090	2.090	2.095
0.000	-0.005	0.000	0.000	0.005	-0.015	0.430	2.695	2.046	2.051	2.061	2.085	2.085	2.090
0.000	-0.010	0.000	0.005	0.005	0.005	0.430	2.671	2.041	2.051	2.056	2.080	2.080	2.090
0.005	-0.005	0.005	0.005	0.000	0.005	0.430	2.681	2.036	2.046	2.051	2.080	2.080	2.085
0.005	0.010	0.000	0.000	0.000	-0.020	0.430	2.690	2.041	2.046	2.051	2.075	2.075	2.080
0.000	0.000	0.005	0.000	-0.005	0.010	0.430	2.686	2.036	2.041	2.046	2.075	2.075	2.085
0.005	-0.005	0.000	0.000	0.000	0.005	0.430	2.700	2.036	2.036	2.041	2.070	2.070	2.080
0.005	-0.005	0.000	0.000	-0.005	-0.005	0.425	2.686	2.031	2.036	2.046	2.065	2.070	2.075
0.005	-0.005	0.005	0.005	0.000	0.010	0.430	2.700	2.031	2.036	2.041	2.065	2.070	2.080
0.000	0.000	0.000	0.010	0.000	0.005	0.430	2.681	2.036	2.041	2.041	2.065	2.065	2.075
-0.005	0.005	0.000	-0.005	0.000	0.005	0.435	2.695	2.031	2.041	2.041	2.061	2.065	2.070
0.005	-0.005	0.000	-0.005	0.000	0.005	0.425	2.676	2.031	2.036	2.041	2.061	2.065	2.070
0.005	0.000	0.000	0.000	0.005	0.005	0.430	2.686	2.031	2.036	2.036	2.061	2.065	2.070
0.005	0.000	-0.005	0.005	0.000	0.000	0.430	2.676	2.031	2.036	2.036	2.061	2.061	2.070
0.000	0.000	0.000	0.005	0.000	-0.005	0.430	2.671	2.026	2.031	2.036	2.061	2.061	2.065
0.000	-0.005	0.000	0.000	0.000	-0.015	0.425	2.695	2.021	2.026	2.036	2.056	2.056	2.061
0.000	0.000	0.000	0.005	0.005	0.010	0.435	2.671	2.017	2.026	2.031	2.051	2.056	2.061
0.005	-0.010	0.000	0.000	0.000	0.015	0.430	2.695	2.021	2.021	2.026	2.051	2.051	2.056
-0.005	-0.010	0.000	0.000	-0.005	0.010	0.425	2.671	2.012	2.021	2.021	2.046	2.051	2.056
-0.005	0.000	0.000	0.000	0.005	0.005	0.435	2.676	2.007	2.017	2.021	2.046	2.046	2.051
-0.005	0.000	0.000	0.000	0.000	-0.020	0.430	2.666	2.002	2.012	2.017	2.041	2.041	2.046
0.005	0.000	0.000	0.005	0.005	0.000	0.435	2.690	2.007	2.012	2.017	2.036	2.041	2.051
0.010	0.000	0.005	0.000	0.005	0.020	0.425	2.686	2.007	2.007	2.012	2.036	2.036	2.046
0.000	0.000	0.005	0.000	0.000	-0.029	0.430	2.686	2.007	2.012	2.012	2.031	2.031	2.031
0.005	0.000	0.005	0.000	-0.005	0.005	0.425	2.681	2.007	2.007	2.012	2.036	2.036	2.041
0.000	-0.005	0.005	0.005	0.005	0.010	0.435	2.686	2.002	2.007	2.012	2.031	2.031	2.041
-0.005	-0.005	0.000	0.000	-0.005	0.005	0.430	2.700	2.007	2.007	2.007	2.031	2.036	2.041
-0.005	-0.005	0.000	0.005	-0.005	0.000	0.430	2.690	2.012	2.012	2.012	2.031	2.031	2.036
0.000	0.000	0.000	0.005	0.010	-0.005	0.430	2.676	2.002	2.012	2.012	2.031	2.031	2.036
0.005	0.010	0.000	0.000	0.005	-0.005	0.435	2.690	2.007	2.012	2.012	2.026	2.031	2.031
0.000	0.010	0.000	0.005	0.000	0.000	0.430	2.690	2.002	2.012	2.012	2.031	2.031	2.031
0.000	0.000	0.000	0.005	0.005	-0.010	0.430	2.847	2.017	2.012	2.012	2.026	2.031	2.031
0.000	0.010	0.000	0.000	0.000	-0.005	0.425	2.686	2.012	2.012	2.007	2.026	2.026	2.031
-0.005	0.010	-0.005	0.000	0.005	-0.010	0.435	2.681	2.002	2.007	2.002	2.026	2.021	2.026
-0.005	0.010	0.000	0.000	0.005	-0.005	0.435	2.690	1.997	2.002	2.007	2.021	2.021	2.026
-0.005	0.000	0.005	0.000	-0.005	-0.005	0.430	2.671	1.992	1.992	2.002	2.021	2.017	2.021
-0.010	-0.005	0.000	0.000	0.000	0.010	0.430	2.827	2.002	1.992	1.997	2.021	2.021	2.026
0.000	0.000	0.000	0.000	0.000	-0.015	0.435	2.646	1.997	1.997	1.997	2.017	2.017	2.017
0.000	0.005	0.005	0.000	0.000	-0.015	0.430	2.827	2.007	1.997	1.997	2.017	2.012	2.017
0.010	-0.005	0.005	0.000	0.005	0.010	0.430	2.681	1.997	1.997	1.992	2.012	2.012	2.021
0.005	-0.005	0.000	0.000	0.000	-0.010	0.435	2.686	1.997	1.997	1.992	2.012	2.012	2.012
0.000	-0.005	-0.005	0.005	0.005	0.015	0.435	2.671	1.992	1.997	1.997	2.012	2.012	2.021
0.000	0.000	-0.005	0.000	0.000	0.010	0.430	2.686	1.992	1.997	1.992	2.012	2.012	2.017
0.010	0.000	-0.005	0.000	-0.005	-0.005	0.430	2.690	1.992	1.997	1.997	2.012	2.012	2.012
0.010	0.010	0.005	0.000	-0.005	0.010	0.435	2.676	1.992	1.997	1.997	2.017	2.012	2.017
-0.005	0.005	0.005	0.000	-0.005	-0.010	0.425	2.671	1.982	1.992	1.997	2.017	2.012	2.012
0.000	0.000	0.005	0.000	0.005	-0.010	0.430	2.661	1.982	1.987	1.992	2.017	2.017	2.012
0.005	0.000	0.005	0.000	0.000	0.005	0.430	2.656	1.978	1.987	1.987	2.012	2.012	2.017
0.010	0.005	0.000	0.000	0.005	0.005	0.430	2.651	1.978	1.982	1.987	2.012	2.012	2.012
-0.005	0.000	0.005	0.005	0.000	0.005	0.425	2.671	1.973	1.978	1.982	2.007	2.007	2.012
-0.005	0.005	0.000	0.000	0.000	0.015	0.435	2.812	1.987	1.978	1.982	2.002	2.007	2.012
0.000	0.005	0.005	0.005	0.005	0.010	0.425	2.637	1.978	1.978	1.978	2.002	2.002	2.007
0.000	0.000	0.000	0.000	-0.005	0.005	0.430	2.656	1.982	1.973	1.978	1.997	2.002	2.002
0.000	0.000	0.005	0.000	0.000	0.005	0.425	2.734	1.997	1.978	1.978	1.997	1.997	2.002
-0.010	-0.010	0.005	0.000	0.010	0.005	0.435	2.671	1.982	1.973	1.973	1.992	1.997	2.002
0.005	0.000	-0.005	0.005	0.000	-0.005	0.430	2.686	1.982	1.978	1.973	1.997	1.992	1.992
0.000	-0.010	-0.005	0.000	0.000	-0.005	0.430	2.686	1.973	1.973	1.973	1.992	1.987	1.997
0.005	-0.005	0.000	0.000	0.005	-0.010	0.430	2.686	1.978	1.973	1.978	1.997	1.992	1.992
0.000	0.015	0.000	0.005	0.000	-0.005	0.430	2.690	1.973	1.982	1.978	1.997	1.992	1.992
0.000	0.010	0.005	0.005	0.005	0.005	0.430	2.676	1.973	1.978	1.978	1.997	1.997	2.002
0.000	0.000	0.005	0.000	0.005	-0.005	0.430	2.686	1.973	1.973	1.978	1.997	1.992	1.992
0.005	0.005	0.005	0.000	0.000	0.010	0.425	2.646	1.968	1.978	1.978	1.997	1.997	2.002
0.000	0.010	0.000	0.000	0.005	0.005	0.430	2.656	1.963	1.973	1.978	1.997	1.992	1.997
0.000	0.005	0.000	0.005	0.010	0.005	0.435	2.666	1.958	1.968	1.973	1.992	1.992	1.997
0.005	0.000	0.000	0.000	0.005	0.000	0.425	2.808	1.973	1.968	1.973	1.992	1.992	1.997
0.005	0.000	0.000	0.000	0.005	-0.005	0.430	2.646	1.963	1.968	1.968	1.992	1.987	1.992
0.000	0.020	0.000	0.005	0.000	0.000	0.425	2.827	1.978	1.973	1.968	1.987	1.987	1.992
-0.005	0.000	0.000	-0.005	0.005	0.005	0.430	2.686	1.968	1.968	1.963	1.987	1.987	1.992
0.000	-0.005	0.005	-0.005	0.000	0.000	0.425	2.695	1.968	1.963	1.963	1.982	1.982	1.987
0.000	0.005	0.000	0.000	0.005	0.005	0.430	2.690	1.963	1.963	1.963	1.987	1.982	1.987
0.005	0.010	0.000	0.000	0.005	-0.010	0.430	2.681	1.963	1.963	1.963	1.982	1.978	1.982
-0.010	-0.010	0.000	0.000	0.000	0.000	0.435	2.686	1.958	1.953	1.958	1.982	1.978	1.982
0.005	-0.015	0.005	0.000	0.000	-0.010	0.425	2.681	1.958	1.958	1.958	1.978	1.978	1.973
0.010	-0.010	0.000	0.005	-0.005	0.005	0.435	2.681	1.958	1.958	1.958	1.978	1.978	1.982
0.005	0.000	0.005	0.000	0.000	-0.015	0.430	2.676	1.953	1.958	1.958	1.978	1.978	1.982
-0.005	0.005	0.005	0.000	0.000	0.005	0.435	2.666	1.953	1.963	1.958	1.978	1.978	1.982
0.000	0.005	0.000	0.000	0.000	0.005	0.430	2.666	1.953	1.963	1.958	1.978	1.978	1.978
0.010	-0.005	0.005	0.000	0.005	0.000	0.435	2.676	1.953	1.958	1.958	1.982	1.978	1.982
0.010	0.005	0.005	0.005	0.000	0.000	0.430	2.773	1.968	1.963	1.958	1.978	1.978	1.982
0.010	0.005	0.000	0.005	0.005	0.000	0.430	2.651	1.958	1.963	1.963	1.978	1.978	1.982
0.005	-0.010	0.005	0.005	-0.005	-0.029	0.430	2.793	1.973	1.958	1.958	1.978	1.973	1.973
0.005	0.000	0.000	0.005	0.000	0.005	0.430	2.832	1.978	1.963	1.958	1.978	1.978	1.982
0.000	0.005	0.000	0.010	0.000	0.015	0.435	2.700	1.973	1.968	1.963	1.982	1.978	1.978
0.000	-0.005	0.000	0.000	0.005	0.015	0.435	2.676	1.963	1.963	1.958	1.973	1.973	1.978
-0.005	0.000	0.000	0.000	0.000	0.010	0.425	2.676	1.953	1.958	1.958	1.978	1.973	1.973
0.000	0.000	0.005	0.000	0.000	0.010	0.435	2.695	1.953	1.958	1.958	1.978	1.973	1.973
0.000	0.000	-0.005	0.000	0.005	0.000	0.425	2.676	1.943	1.953	1.953	1.973	1.968	1.973
0.000	0.015	0.000	0.005	0.005	-0.005	0.425	2.671	1.943	1.953	1.953	1.973	1.973	1.968
-0.005	0.005	0.005	0.005	0.000	0.010	0.425	2.681	1.943	1.948	1.948	1.973	1.968	1.968
-0.015	0.010	0.005	0.000	0.000	0.010	0.430	2.666	1.943	1.948	1.948	1.973	1.968	1.968
0.000	0.000	0.005	0.000	0.005	0.000	0.435	2.656	1.938	1.943	1.948	1.973	1.968	1.973
0.005	-0.010	0.005	0.000	-0.005	0.020	0.425	2.671	1.938	1.943	1.943	1.968	1.968	1.968
0.000	0.000	0.000	0.000	0.000	0.005	0.430	2.725	1.948	1.948	1.943	1.968	1.968	1.968
0.005	-0.010	0.000	0.000	0.000	0.000	0.430	2.651	1.948	1.943	1.948	1.968	1.968	1.968
0.010	0.005	0.000	0.000	0.000	0.015	0.435	2.646	1.943	1.948	1.948	1.968	1.968	1.968
0.010	0.000	0.000	0.005	0.000	-0.005	0.435	2.690	1.948	1.948	1.948	1.968	1.968	1.968
0.000	0.000	0.005	-0.005	0.005	0.000	0.425	2.690	1.943	1.943	1.948	1.968	1.968	1.968
0.005	0.000	0.000	0.000	0.010	0.010	0.425	2.686	1.943	1.948	1.943	1.968	1.968	1.973
-0.005	0.000	0.000	-0.005	0.000	0.010	0.435	2.676	1.943	1.943	1.943	1.963	1.963	1.968
0.005	0.000	0.005	-0.005	0.005	0.010	0.430	2.690	1.943	1.938	1.943	1.963	1.963	1.968
0.000	0.000	0.000	0.005	0.005	0.005	0.435	2.666	1.938	1.938	1.938	1.963	1.958	1.963
0.005	-0.005	-0.005	0.000	0.005	-0.034	0.425	2.671	1.938	1.934	1.938	1.958	1.953	1.953
0.000	0.005	0.005	0.000	0.005	0.005	0.430	2.676	1.934	1.934	1.934	1.958	1.953	1.963
0.000	0.000	0.000	-0.005	0.000	-0.005	0.425	2.666	1.929	1.929	1.929	1.953	1.953	1.958
-0.005	0.005	-0.005	0.000	0.000	-0.010	0.430	2.661	1.924	1.929	1.934	1.953	1.948	1.953
-0.005	0.000	0.000	0.005	0.005	0.000	0.430	2.656	1.929	1.934	1.934	1.953	1.948	1.953
0.000	0.000	0.000	0.005	0.000	0.005	0.435	2.725	1.938	1.934	1.929	1.953	1.953	1.953
0.015	0.005	0.000	0.005	-0.005	0.005	0.430	2.803	1.958	1.943	1.934	1.948	1.948	1.953
0.010	0.000	0.000	0.000	-0.005	-0.015	0.430	2.642	1.943	1.938	1.934	1.953	1.948	1.948
0.000	0.010	0.000	0.005	0.005	0.005	0.425	2.847	1.958	1.948	1.938	1.953	1.948	1.953
0.000	0.010	0.000	0.000	0.000	0.000	0.430	2.690	1.953	1.953	1.943	1.958	1.953	1.953
0.000	0.010	0.005	0.010	0.000	-0.010	0.430	2.690	1.948	1.948	1.948	1.963	1.953	1.953
0.010	0.005	0.005	0.015	0.005	-0.005	0.430	2.686	1.948	1.948	1.943	1.963	1.953	1.958
-0.005	0.005	0.000	0.005	0.000	0.005	0.430	2.681	1.938	1.943	1.943	1.963	1.953	1.958
0.000	0.005	0.000	0.005	0.000	0.005	0.430	2.686	1.938	1.943	1.943	1.963	1.958	1.958
-0.015	0.010	-0.005	0.000	0.000	0.000	0.430	2.676	1.934	1.938	1.943	1.958	1.953	1.953
-0.010	0.010	0.000	-0.005	0.005	0.005	0.430	2.671	1.929	1.934	1.938	1.958	1.953	1.953
0.000	0.005	0.000	0.000	0.005	0.005	0.425	2.671	1.929	1.934	1.934	1.958	1.953	1.953
0.000	0.000	0.000	-0.005	0.010	-0.005	0.430	2.651	1.924	1.929	1.934	1.953	1.953	1.953
-0.010	0.000	0.005	-0.005	0.000	0.000	0.435	2.651	1.919	1.929	1.929	1.948	1.948	1.948
-0.005	0.005	0.005	0.000	0.000	0.005	0.435	2.700	1.924	1.924	1.929	1.948	1.948	1.948
0.000	0.000	0.000	0.000	0.005	0.000	0.430	2.642	1.938	1.924	1.924	1.948	1.943	1.943
0.000	0.005	0.000	0.005	0.000	-0.020	0.425	2.646	1.934	1.929	1.929	1.948	1.943	1.943
0.005	0.005	0.000	0.000	0.000	0.000	0.439	2.832	1.948	1.934	1.929	1.943	1.943	1.948
-0.005	0.000	0.000	0.005	0.000	0.015	0.430	2.681	1.938	1.934	1.929	1.943	1.943	1.948
0.010	0.000	0.000	0.000	0.000	0.010	0.435	2.686	1.943	1.938	1.934	1.948	1.948	1.948
0.000	-0.005	0.005	0.005	-0.005	0.005	0.430	2.681	1.934	1.934	1.934	1.948	1.943	1.948
0.005	0.010	-0.005	0.005	-0.005	0.010	0.435	2.681	1.938	1.938	1.934	1.953	1.948	1.948
0.005	0.000	0.000	0.005	-0.005	0.000	0.430	2.671	1.938	1.938	1.938	1.953	1.948	1.948
0.000	0.005	0.005	0.000	-0.005	-0.005	0.435	2.681	1.938	1.938	1.938	1.958	1.948	1.948
0.005	0.000	0.005	0.000	0.000	0.010	0.430	2.749	1.919	1.934	1.934	1.953	1.948	1.953
0.000	0.000	0.000	0.000	0.000	0.010	0.435	2.852	1.938	1.934	1.934	1.953	1.948	1.948
0.005	-0.005	0.005	-0.005	-0.010	0.020	0.430	2.690	1.934	1.934	1.934	1.953	1.948	1.948
-0.005	-0.005	-0.005	0.000	-0.005	0.000	0.430	2.686	1.934	1.934	1.929	1.953	1.943	1.943
0.000	-0.010	0.005	0.000	-0.015	-0.015	0.430	2.681	1.929	1.929	1.929	1.948	1.943	1.938
0.005	0.000	0.000	0.005	0.000	0.000	0.435	2.676	1.924	1.924	1.929	1.948	1.943	1.948
-0.005	0.000	0.005	0.000	0.015	-0.024	0.430	2.686	1.919	1.924	1.924	1.948	1.948	1.938
-0.010	0.000	0.005	0.000	0.020	0.010	0.425	2.651	1.919	1.924	1.924	1.943	1.948	1.948
0.000	0.000	0.005	0.000	0.010	-0.010	0.425	2.842	1.943	1.929	1.924	1.943	1.943	1.943
0.010	-0.005	0.000	0.000	0.005	0.000	0.430	2.676	1.934	1.929	1.924	1.938	1.943	1.943
0.000	0.000	0.000	0.005	0.005	0.005	0.430	2.676	1.924	1.929	1.924	1.943	1.938	1.943
0.005	-0.005	0.000	0.000	0.000	0.000	0.435	2.690	1.934	1.929	1.924	1.943	1.938	1.943
0.010	0.010	0.005	0.000	0.010	-0.020	0.425	2.676	1.929	1.929	1.929	1.943	1.943	1.934
0.005	-0.010	0.000	0.005	0.000	-0.020	0.430	2.686	1.929	1.924	1.929	1.943	1.943	1.943
0.010	-0.015	0.000	0.000	0.000	0.015	0.430	2.681	1.929	1.929	1.929	1.948	1.943	1.948
0.000	-0.010	0.000	0.005	-0.005	0.005	0.425	2.651	1.924	1.929	1.924	1.948	1.943	1.948
0.000	-0.010	0.000	0.005	0.005	0.010	0.430	2.676	1.919	1.929	1.924	1.948	1.943	1.948
-0.005	-0.005	0.000	0.000	-0.005	0.005	0.430	2.686	1.919	1.929	1.929	1.948	1.943	1.943
0.000	0.005	0.005	0.000	0.005	-0.010	0.435	2.690	1.924	1.929	1.924	1.943	1.943	1.938
-0.005	0.000	0.000	0.000	0.000	0.005	0.425	2.666	1.919	1.924	1.924	1.943	1.938	1.943
-0.010	0.000	0.005	0.005	0.000	0.000	0.430	2.676	1.919	1.919	1.924	1.943	1.938	1.938
0.000	0.010	0.005	0.005	0.005	0.000	0.430	2.686	1.919	1.919	1.924	1.943	1.938	1.938
0.000	0.015	0.005	0.005	0.005	-0.010	0.430	2.671	1.919	1.919	1.919	1.938	1.934	1.934
0.000	0.000	-0.005	0.010	0.000	0.000	0.430	2.671	1.909	1.914	1.914	1.938	1.934	1.938
-0.005	0.000	0.000	0.005	0.000	0.015	0.435	2.666	1.914	1.909	1.909	1.938	1.934	1.938
-0.010	0.010	0.000	0.000	-0.005	0.010	0.430	2.656	1.914	1.914	1.914	1.934	1.934	1.934
0.005	0.000	0.000	0.000	0.005	-0.020	0.430	2.656	1.914	1.909	1.914	1.934	1.934	1.929
-0.005	0.005	0.000	0.000	0.000	0.015	0.435	2.651	1.909	1.909	1.914	1.934	1.929	1.938
0.005	0.000	0.000	0.010	-0.005	0.015	0.430	2.690	1.919	1.914	1.914	1.934	1.934	1.938
0.000	0.024	0.005	0.005	0.000	0.005	0.435	2.676	1.919	1.924	1.919	1.934	1.929	1.934
0.010	0.010	0.000	0.005	-0.005	0.005	0.430	2.651	1.919	1.914	1.919	1.934	1.929	1.934
-0.005	0.010	0.000	0.000	0.000	0.005	0.430	2.715	1.934	1.924	1.919	1.934	1.934	1.934
0.005	0.000	0.005	0.000	0.000	0.000	0.425	2.686	1.934	1.924	1.919	1.938	1.934	1.934
-0.010	-0.005	0.000	0.000	0.000	-0.010	0.430	2.695	1.924	1.919	1.919	1.938	1.929	1.934
-0.005	0.010	0.005	0.005	0.005	0.000	0.435	2.686	1.924	1.924	1.919	1.938	1.938	1.934
0.010	0.000	0.005	0.005	0.000	0.000	0.430	2.686	1.924	1.924	1.919	1.938	1.934	1.934
0.000	0.000	0.000	0.000	0.005	-0.005	0.430	2.686	1.919	1.919	1.919	1.934	1.934	1.934
0.000	0.005	0.000	0.005	0.005	0.000	0.435	2.676	1.919	1.914	1.914	1.938	1.934	1.934
-0.005	-0.005	0.005	0.000	0.010	0.000	0.425	2.671	1.919	1.914	1.914	1.934	1.929	1.934
0.000	0.005	0.000	0.000	0.000	0.005	0.425	2.676	1.914	1.914	1.909	1.929	1.929	1.929
0.000	0.005	0.005	0.000	0.005	0.005	0.435	2.642	1.904	1.914	1.914	1.929	1.929	1.929
0.010	-0.005	0.000	0.000	0.005	0.000	0.430	2.671	1.909	1.904	1.909	1.929	1.924	1.929
0.000	-0.005	0.000	0.000	0.000	0.029	0.430	2.690	1.909	1.904	1.909	1.929	1.924	1.929
0.000	0.000	0.005	0.005	0.000	0.020	0.430	2.822	1.929	1.914	1.909	1.929	1.929	1.929
0.005	0.000	0.000	0.000	-0.005	-0.010	0.430	2.637	1.943	1.919	1.914	1.929	1.929	1.924
0.010	0.000	0.010	0.000	-0.005	0.010	0.430	2.817	1.948	1.929	1.914	1.934	1.929	1.929
0.005	-0.005	0.000	0.000	0.000	-0.024	0.425	2.808	1.953	1.934	1.919	1.934	1.929	1.919
0.005	0.000	0.005	0.000	0.005	-0.015	0.435	2.710	1.943	1.938	1.924	1.938	1.934	1.924
0.005	0.000	0.005	0.000	0.005	0.005	0.430	2.700	1.938	1.938	1.934	1.943	1.934	1.938
0.005	0.005	0.005	0.005	0.005	-0.029	0.435	2.690	1.929	1.938	1.934	1.943	1.938	1.929
0.000	-0.005	0.000	0.005	0.000	0.010	0.430	2.695	1.929	1.934	1.934	1.948	1.938	1.943
0.005	0.005	0.000	0.000	-0.005	0.005	0.430	2.690	1.929	1.934	1.929	1.948	1.938	1.938
-0.005	-0.010	0.000	0.000	0.000	0.005	0.425	2.734	1.924	1.929	1.929	1.943	1.938	1.934
0.000	-0.005	0.000	0.005	0.005	0.005	0.430	2.695	1.919	1.924	1.929	1.943	1.938	1.938
0.015	0.000	0.005	0.005	0.010	-0.015	0.425	2.676	1.919	1.929	1.924	1.943	1.938	1.934
0.005	0.005	0.000	0.005	0.005	0.005	0.439	2.686	1.914	1.924	1.924	1.943	1.938	1.938
0.000	0.005	0.000	0.000	0.005	0.010	0.435	2.690	1.919	1.914	1.919	1.938	1.934	1.938
0.000	-0.005	0.000	0.005	0.000	0.000	0.430	2.681	1.914	1.914	1.914	1.938	1.934	1.934
0.005	0.005	0.000	0.000	0.000	0.029	0.430	2.690	1.914	1.914	1.914	1.934	1.934	1.943
0.000	0.010	0.005	0.000	0.000	0.029	0.430	2.695	1.919	1.919	1.914	1.938	1.934	1.938
0.000	0.005	0.000	0.005	0.000	0.024	0.430	2.690	1.919	1.919	1.914	1.938	1.934	1.938
0.015	-0.005	0.005	0.005	0.000	-0.015	0.430	2.681	1.919	1.919	1.919	1.938	1.934	1.929
0.005	-0.005	0.000	0.000	0.000	-0.010	0.435	2.690	1.914	1.919	1.914	1.934	1.934	1.929
0.000	0.000	0.000	0.005	0.000	-0.005	0.430	2.690	1.919	1.919	1.914	1.938	1.934	1.934
0.005	-0.005	0.000	0.005	0.000	-0.015	0.430	2.705	1.919	1.919	1.914	1.938	1.934	1.934
-0.005	0.000	0.000	0.005	0.005	-0.029	0.430	2.690	1.919	1.924	1.919	1.938	1.934	1.929
0.005	0.010	0.005	0.000	0.005	-0.005	0.435	2.681	1.919	1.924	1.919	1.934	1.938	1.938
0.005	0.000	0.000	0.000	0.005	-0.005	0.425	2.695	1.919	1.919	1.919	1.934	1.934	1.938
0.010	0.000	0.005	0.000	0.000	-0.005	0.430	2.681	1.919	1.919	1.919	1.934	1.934	1.929
-0.005	0.005	0.000	0.000	0.000	-0.005	0.425	2.695	1.914	1.914	1.914	1.934	1.929	1.934
0.005	-0.010	0.000	0.005	0.000	-0.005	0.435	2.676	1.914	1.914	1.914	1.934	1.929	1.934
0.010	-0.010	0.005	-0.005	0.000	0.000	0.430	2.690	1.914	1.909	1.914	1.934	1.929	1.934
0.005	0.005	0.000	0.000	0.005	-0.010	0.435	2.676	1.914	1.914	1.909	1.929	1.929	1.924
0.000	0.005	0.005	0.000	0.000	0.005	0.430	2.661	1.909	1.914	1.909	1.929	1.929	1.929
0.000	0.000	0.000	0.005	0.000	0.005	0.435	2.676	1.909	1.909	1.909	1.929	1.924	1.929
0.005	-0.005	0.000	0.005	0.000	0.005	0.425	2.686	1.904	1.909	1.909	1.929	1.924	1.929
-0.005	0.005	0.005	0.005	0.005	0.005	0.430	2.695	1.904	1.904	1.909	1.924	1.924	1.929
0.005	0.005	0.005	-0.005	-0.005	0.010	0.425	2.695	1.919	1.914	1.909	1.929	1.919	1.929
-0.010	0.010	0.005	0.005	0.000	0.020	0.435	2.700	1.914	1.914	1.909	1.934	1.924	1.929
0.010	0.005	0.000	0.000	-0.005	-0.015	0.430	2.690	1.919	1.919	1.909	1.929	1.924	1.919
0.000	0.010	0.000	0.005	-0.005	0.005	0.435	2.690	1.919	1.919	1.914	1.934	1.929	1.929
0.000	-0.005	0.005	0.005	0.005	0.005	0.430	2.695	1.924	1.919	1.914	1.934	1.929	1.929
0.010	0.000	0.000	0.005	0.005	0.015	0.430	2.690	1.919	1.919	1.914	1.934	1.929	1.934
0.005	-0.005	0.000	0.000	0.000	0.015	0.425	2.671	1.914	1.914	1.914	1.929	1.929	1.934
0.000	0.005	0.000	0.000	0.000	0.000	0.435	2.681	1.914	1.919	1.914	1.934	1.929	1.929
0.000	-0.005	0.000	0.000	0.005	0.005	0.430	2.686	1.914	1.914	1.914	1.934	1.929	1.929
0.000	0.000	0.010	0.005	0.005	0.010	0.430	2.690	1.914	1.914	1.914	1.934	1.929	1.924
0.000	0.015	0.005	0.005	0.000	0.010	0.435	2.690	1.914	1.914	1.914	1.934	1.929	1.929
-0.005	0.005	-0.005	0.005	0.005	-0.005	0.430	2.681	1.909	1.909	1.909	1.929	1.924	1.924
-0.010	-0.005	0.005	0.000	0.000	0.005	0.430	2.690	1.909	1.904	1.904	1.929	1.924	1.924
0.000	0.000	0.005	0.000	-0.005	0.005	0.430	2.695	1.909	1.904	1.909	1.924	1.919	1.924
-0.005	0.015	0.000	0.000	0.000	-0.029	0.430	2.690	1.909	1.909	1.904	1.924	1.919	1.914
0.000	-0.010	0.000	0.000	0.005	0.005	0.430	2.686	1.909	1.904	1.904	1.924	1.924	1.929
0.005	0.000	0.000	0.000	0.000	0.000	0.430	2.695	1.909	1.909	1.904	1.924	1.919	1.924
0.015	-0.005	0.000	0.000	-0.005	0.005	0.430	2.686	1.914	1.909	1.909	1.924	1.924	1.924
0.000	0.005	0.000	0.000	0.000	-0.010	0.430	2.681	1.914	1.914	1.909	1.924	1.924	1.924
0.000	0.005	0.000	0.000	0.005	-0.005	0.425	2.686	1.909	1.914	1.914	1.924	1.924	1.924
0.000	0.010	0.000	0.000	0.000	0.000	0.430	2.690	1.914	1.914	1.914	1.934	1.924	1.929
0.005	0.005	0.005	0.000	-0.005	-0.029	0.435	2.690	1.914	1.914	1.914	1.929	1.924	1.919
-0.010	0.000	0.000	0.000	0.000	0.010	0.430	2.686	1.914	1.914	1.914	1.934	1.929	1.929
0.005	-0.005	0.010	0.000	0.000	0.015	0.430	2.700	1.924	1.914	1.914	1.934	1.929	1.929
-0.005	0.005	0.000	0.000	0.005	0.000	0.430	2.686	1.914	1.914	1.914	1.929	1.929	1.924
0.000	0.000	-0.005	0.005	0.000	0.005	0.430	2.700	1.914	1.914	1.909	1.934	1.924	1.924
0.005	0.000	0.005	0.000	0.005	0.005	0.435	2.759	1.919	1.914	1.909	1.929	1.929	1.924
-0.005	0.005	0.000	0.005	0.005	0.005	0.430	2.690	1.914	1.914	1.909	1.924	1.924	1.924
0.005	-0.005	0.000	0.005	0.005	0.000	0.430	2.690	1.909	1.909	1.909	1.929	1.919	1.924
-0.010	0.000	0.000	0.005	0.010	0.000	0.430	2.690	1.909	1.909	1.909	1.929	1.924	1.924
0.015	0.005	0.000	0.005	-0.005	0.005	0.430	2.661	1.909	1.909	1.904	1.924	1.924	1.924
0.000	0.000	-0.005	0.005	0.000	0.010	0.430	2.681	1.904	1.909	1.904	1.924	1.919	1.924
0.000	-0.010	0.000	0.000	0.000	0.010	0.430	2.695	1.909	1.904	1.904	1.924	1.919	1.919
0.005	0.000	0.005	0.005	0.000	0.010	0.430	2.681	1.909	1.909	1.904	1.924	1.919	1.919
0.010	0.010	0.005	0.005	0.000	0.005	0.430	2.686	1.909	1.914	1.909	1.924	1.919	1.919
0.005	0.000	0.000	0.005	0.000	0.000	0.430	2.681	1.909	1.909	1.909	1.929	1.924	1.919
0.000	0.000	0.000	0.000	-0.005	0.005	0.430	2.690	1.914	1.909	1.909	1.924	1.919	1.924
0.000	0.000	0.000	0.000	0.010	0.000	0.430	2.681	1.909	1.914	1.909	1.929	1.924	1.924
-0.005	0.005	0.000	0.000	0.005	-0.024	0.425	2.690	1.909	1.909	1.914	1.929	1.924	1.919
-0.005	0.000	0.000	0.005	0.000	-0.005	0.430	2.690	1.914	1.909	1.909	1.929	1.924	1.929
-0.015	0.000	0.000	0.005	-0.005	0.000	0.430	2.690	1.914	1.909	1.909	1.929	1.924	1.924
0.005	0.000	0.000	0.000	0.000	0.005	0.425	2.690	1.914	1.909	1.909	1.924	1.924	1.924
0.000	0.010	0.005	0.000	0.005	0.005	0.430	2.686	1.909	1.914	1.909	1.929	1.924	1.929
0.000	0.000	0.000	-0.005	0.005	0.000	0.435	2.700	1.909	1.904	1.909	1.924	1.919	1.919
0.000	0.000	-0.005	0.000	0.010	0.000	0.430	2.681	1.904	1.904	1.904	1.924	1.924	1.924
0.000	0.005	0.000	0.000	0.000	0.005	0.435	2.690	1.904	1.904	1.904	1.924	1.919	1.924
0.000	0.000	0.000	0.000	0.000	0.010	0.425	2.695	1.909	1.899	1.904	1.924	1.919	1.919
0.005	-0.005	0.000	0.000	0.000	0.015	0.435	2.705	1.909	1.899	1.899	1.919	1.919	1.919
-0.010	0.000	-0.005	0.000	0.000	0.005	0.425	2.690	1.904	1.899	1.899	1.919	1.914	1.914
0.000	0.000	0.005	0.000	0.000	0.005	0.435	2.695	1.909	1.909	1.904	1.919	1.919	1.919
0.010	0.010	0.000	0.005	-0.005	0.000	0.430	2.686	1.909	1.909	1.904	1.924	1.914	1.914
0.005	0.005	0.005	0.005	0.000	-0.010	0.435	2.690	1.909	1.909	1.904	1.924	1.919	1.919
-0.005	-0.005	0.000	0.005	0.000	-0.020	0.425	2.690	1.909	1.909	1.904	1.924	1.919	1.919
0.005	0.000	0.000	0.005	-0.005	-0.010	0.435	2.700	1.914	1.909	1.904	1.924	1.919	1.919
0.000	-0.005	0.000	0.000	0.000	0.005	0.425	2.686	1.914	1.909	1.909	1.924	1.924	1.924
0.005	-0.005	0.000	0.000	0.000	-0.010	0.435	2.671	1.914	1.914	1.909	1.924	1.924	1.919
0.010	0.000	0.005	0.005	0.005	-0.015	0.430	2.690	1.914	1.914	1.914	1.929	1.924	1.924
0.010	0.005	0.005	0.000	0.005	0.010	0.435	2.700	1.919	1.914	1.909	1.929	1.924	1.929
0.005	0.000	0.005	0.000	0.005	-0.015	0.435	2.690	1.914	1.914	1.909	1.929	1.924	1.919
0.000	-0.005	0.005	0.005	0.000	-0.005	0.430	2.700	1.914	1.914	1.909	1.929	1.919	1.919
0.005	-0.010	-0.005	0.000	0.000	-0.010	0.425	2.676	1.909	1.904	1.904	1.924	1.919	1.919
0.000	-0.020	0.000	0.000	0.000	0.015	0.425	2.686	1.899	1.899	1.904	1.924	1.919	1.929
-0.010	-0.005	0.000	0.000	0.000	0.010	0.430	2.690	1.904	1.904	1.904	1.919	1.914	1.919
0.000	-0.020	0.000	0.000	0.000	0.015	0.430	2.690	1.899	1.899	1.899	1.919	1.919	1.919
0.005	0.000	0.000	0.010	0.000	0.005	0.430	2.686	1.904	1.909	1.899	1.919	1.919	1.919
0.005	0.010	0.000	0.000	0.000	0.010	0.425	2.695	1.904	1.909	1.899	1.919	1.914	1.914
0.010	0.005	0.000	0.005	0.000	0.010	0.430	2.803	1.924	1.909	1.904	1.924	1.919	1.919
0.000	0.005	0.000	0.000	0.000	-0.024	0.425	2.700	1.919	1.914	1.904	1.919	1.914	1.909
0.000	0.010	0.005	0.000	0.000	0.000	0.435	2.700	1.914	1.914	1.909	1.924	1.919	1.919
0.000	0.015	0.000	0.000	-0.005	0.010	0.430	2.695	1.914	1.914	1.909	1.924	1.919	1.919
0.005	0.020	0.000	0.005	-0.005	0.005	0.435	2.681	1.909	1.919	1.914	1.929	1.919	1.924
-0.005	0.010	0.000	-0.005	-0.005	0.005	0.430	2.676	1.909	1.914	1.909	1.929	1.924	1.924
0.005	0.010	0.000	0.000	0.005	-0.010	0.435	2.690	1.914	1.914	1.914	1.929	1.924	1.919
-0.010	0.005	0.000	0.000	0.005	0.005	0.435	2.695	1.904	1.909	1.914	1.929	1.929	1.929
-0.020	0.000	0.000	0.000	0.000	0.005	0.435	2.690	1.904	1.904	1.909	1.929	1.924	1.924
-0.020	0.000	0.000	0.000	0.005	-0.005	0.430	2.690	1.904	1.904	1.904	1.924	1.924	1.924
-0.020	-0.005	0.000	0.000	0.000	0.000	0.425	2.690	1.904	1.904	1.904	1.924	1.919	1.924
-0.020	-0.005	0.005	0.005	0.000	-0.005	0.430	2.676	1.904	1.904	1.904	1.924	1.924	1.919
-0.005	0.000	0.000	0.005	0.000	-0.029	0.430	2.686	1.904	1.904	1.899	1.924	1.919	1.909
0.000	-0.005	0.000	0.000	0.005	0.000	0.435	2.690	1.909	1.904	1.899	1.919	1.919	1.924
0.000	0.000	0.000	0.005	0.005	0.000	0.430	2.681	1.909	1.904	1.899	1.919	1.919	1.919
0.010	-0.010	0.005	0.005	-0.005	0.005	0.430	2.690	1.909	1.904	1.899	1.914	1.914	1.919
0.020	0.005	0.000	0.005	-0.005	0.010	0.435	2.700	1.909	1.909	1.904	1.919	1.914	1.919
0.029	0.005	0.000	0.005	0.000	0.000	0.425	2.666	1.914	1.909	1.904	1.919	1.919	1.919
0.024	-0.005	0.000	0.005	-0.005	-0.010	0.435	2.681	1.914	1.909	1.904	1.919	1.919	1.914
0.034	0.015	0.010	0.000	0.000	0.010	0.430	2.690	1.914	1.914	1.909	1.924	1.919	1.919
0.024	-0.010	0.005	-0.005	0.000	0.000	0.425	2.700	1.914	1.909	1.909	1.929	1.919	1.919
0.020	-0.015	0.000	0.000	-0.005	-0.015	0.435	2.700	1.914	1.909	1.909	1.924	1.919	1.914
0.010	-0.005	0.000	-0.005	0.000	-0.034	0.425	2.690	1.909	1.909	1.909	1.929	1.919	1.914
0.000	0.005	0.000	-0.005	0.005	-0.010	0.435	2.681	1.909	1.914	1.909	1.929	1.924	1.924
-0.005	0.005	-0.005	-0.005	0.010	-0.010	0.425	2.681	1.904	1.909	1.909	1.924	1.924	1.924
-0.005	-0.005	0.005	0.005	0.005	-0.010	0.435	2.695	1.904	1.904	1.909	1.929	1.924	1.924
-0.010	-0.005	0.005	0.000	0.000	-0.015	0.430	2.676	1.899	1.904	1.904	1.924	1.919	1.924
-0.015	0.000	0.000	0.000	0.005	0.005	0.435	2.695	1.904	1.899	1.904	1.924	1.924	1.924
-0.020	-0.005	0.005	0.010	0.000	-0.010	0.425	2.734	1.904	1.899	1.899	1.924	1.919	1.914
-0.005	-0.005	0.005	0.010	0.000	0.029	0.430	2.690	1.904	1.899	1.899	1.919	1.919	1.929
-0.010	0.010	0.005	0.005	-0.005	0.029	0.425	2.705	1.909	1.904	1.899	1.919	1.919	1.924
-0.015	0.000	-0.005	0.000	0.005	0.054	0.435	2.690	1.904	1.899	1.895	1.914	1.914	1.929
-0.015	0.000	0.000	0.000	-0.005	0.068	0.425	2.700	1.909	1.899	1.899	1.914	1.914	1.929
0.010	0.020	0.000	0.000	0.000	0.059	0.435	2.686	1.914	1.914	1.899	1.914	1.914	1.924
-0.005	0.005	0.005	0.000	-0.005	0.034	0.430	2.700	1.914	1.904	1.904	1.919	1.914	1.914
-0.005	0.010	0.000	0.005	0.000	0.015	0.435	2.686	1.914	1.909	1.909	1.919	1.914	1.909
-0.010	0.005	0.000	0.000	0.000	-0.034	0.430	2.705	1.914	1.914	1.909	1.924	1.914	1.895
0.005	0.000	0.000	0.000	0.000	-0.015	0.435	2.705	1.914	1.909	1.904	1.924	1.919	1.909
0.005	0.015	0.005	0.000	0.000	-0.010	0.430	2.690	1.914	1.919	1.914	1.929	1.919	1.914
0.005	0.005	0.000	0.000	0.000	-0.020	0.430	2.681	1.914	1.914	1.909	1.929	1.919	1.914
0.005	0.005	0.000	0.000	0.000	-0.024	0.430	2.686	1.909	1.914	1.909	1.929	1.919	1.914
-0.005	0.000	0.000	0.000	0.010	-0.010	0.430	2.686	1.904	1.909	1.909	1.929	1.924	1.919
0.005	0.005	0.005	0.000	0.000	-0.024	0.430	2.681	1.909	1.909	1.909	1.929	1.924	1.919
0.005	-0.005	0.000	0.000	0.000	-0.015	0.430	2.700	1.904	1.904	1.904	1.924	1.919	1.919
-0.010	-0.005	0.005	0.005	0.005	-0.010	0.435	2.666	1.899	1.899	1.904	1.929	1.919	1.924
-0.010	0.005	-0.005	0.005	0.000	-0.005	0.425	2.676	1.904	1.904	1.899	1.924	1.919	1.924
-0.005	-0.005	-0.005	0.000	0.000	-0.029	0.430	2.686	1.904	1.899	1.899	1.924	1.919	1.909
0.005	0.010	0.000	0.005	0.005	0.005	0.435	2.671	1.899	1.904	1.899	1.919	1.919	1.924
-0.005	0.010	0.000	0.000	0.000	0.005	0.430	2.700	1.904	1.899	1.899	1.919	1.914	1.924
0.005	0.010	0.005	0.005	0.005	0.010	0.425	2.686	1.909	1.899	1.899	1.919	1.914	1.919
0.005	0.000	0.000	0.005	0.005	0.000	0.430	2.690	1.904	1.899	1.899	1.919	1.914	1.919
0.010	-0.010	0.000	0.005	0.000	0.000	0.430	2.686	1.904	1.899	1.899	1.919	1.914	1.914
-0.005	-0.005	0.000	0.000	-0.005	0.005	0.430	2.705	1.909	1.904	1.899	1.919	1.914	1.919
0.000	0.010	0.005	0.000	0.000	0.000	0.430	2.690	1.909	1.909	1.904	1.919	1.919	1.919
-0.005	0.005	0.000	0.000	-0.005	-0.010	0.430	2.695	1.914	1.909	1.904	1.919	1.914	1.914
0.000	0.000	0.000	0.000	0.000	0.000	0.430	2.700	1.919	1.909	1.909	1.924	1.919	1.914
0.010	0.005	0.000	-0.005	0.000	0.000	0.430	2.690	1.914	1.914	1.904	1.924	1.919	1.919
0.010	0.005	0.000	0.000	0.005	0.000	0.430	2.695	1.914	1.914	1.909	1.924	1.919	1.924
0.000	-0.005	0.005	0.005	0.000	0.000	0.430	2.695	1.914	1.914	1.909	1.924	1.919	1.919
-0.005	0.005	0.000	0.000	0.010	0.005	0.425	2.690	1.909	1.909	1.904	1.924	1.924	1.924
0.000	0.010	0.005	0.000	0.010	0.005	0.430	2.671	1.904	1.909	1.909	1.924	1.919	1.924
0.000	-0.005	0.005	0.000	0.000	0.005	0.435	2.695	1.909	1.909	1.909	1.924	1.919	1.919
-0.005	0.005	-0.005	-0.005	0.000	0.000	0.435	2.676	1.904	1.904	1.899	1.924	1.914	1.919
-0.005	0.000	0.000	0.000	0.005	0.000	0.430	2.700	1.904	1.904	1.904	1.924	1.914	1.914
0.010	0.000	0.000	0.000	0.000	0.000	0.435	2.690	1.904	1.904	1.899	1.919	1.914	1.914
0.005	-0.005	0.000	0.000	0.005	0.005	0.430	2.690	1.904	1.899	1.899	1.919	1.914	1.914
-0.005	0.005	0.000	-0.005	0.005	0.005	0.435	2.686	1.899	1.904	1.899	1.919	1.914	1.914
0.000	0.000	0.005	0.000	0.000	-0.020	0.430	2.695	1.904	1.899	1.899	1.919	1.914	1.904
0.000	0.000	0.005	0.000	0.000	0.010	0.430	2.725	1.909	1.904	1.899	1.919	1.914	1.919
0.005	0.000	0.000	0.000	0.000	0.005	0.425	2.686	1.909	1.904	1.899	1.919	1.919	1.914
0.000	0.000	0.000	0.005	0.000	-0.015	0.430	2.681	1.909	1.909	1.904	1.924	1.914	1.914
-0.010	0.000	0.005	0.005	0.000	0.015	0.430	2.690	1.909	1.909	1.904	1.924	1.919	1.924
-0.005	0.005	0.000	0.010	0.000	0.015	0.430	2.681	1.909	1.909	1.904	1.924	1.919	1.924
0.000	0.005	0.000	0.005	0.005	0.005	0.435	2.690	1.914	1.914	1.909	1.924	1.919	1.924
-0.005	-0.005	0.005	0.005	0.005	0.000	0.425	2.676	1.909	1.909	1.909	1.924	1.919	1.919
0.010	-0.005	0.005	0.005	0.000	-0.020	0.430	2.686	1.914	1.909	1.909	1.924	1.919	1.914
0.010	0.000	0.000	0.005	0.005	0.005	0.425	2.686	1.904	1.909	1.904	1.924	1.924	1.924
0.005	-0.005	0.005	0.000	0.005	0.000	0.430	2.681	1.904	1.904	1.904	1.919	1.919	1.919
0.005	0.000	0.000	0.005	0.000	-0.005	0.425	2.695	1.904	1.904	1.904	1.924	1.914	1.919
0.005	0.000	0.000	0.005	0.000	0.015	0.435	2.695	1.909	1.904	1.904	1.919	1.914	1.919
0.005	-0.005	0.000	0.000	0.005	0.015	0.430	2.671	1.904	1.899	1.904	1.919	1.919	1.924
0.005	0.010	0.000	0.000	0.000	0.029	0.435	2.686	1.904	1.904	1.899	1.919	1.914	1.919
0.005	0.005	0.000	-0.005	-0.005	0.015	0.425	2.695	1.904	1.899	1.899	1.919	1.909	1.914
0.015	0.000	0.000	0.000	0.000	0.024	0.435	2.676	1.904	1.904	1.899	1.919	1.914	1.914
0.000	0.005	0.005	0.000	0.000	0.034	0.425	2.666	1.899	1.899	1.899	1.919	1.914	1.919
0.010	-0.005	0.000	0.005	0.000	0.020	0.430	2.695	1.909	1.904	1.899	1.919	1.914	1.914
0.000	0.000	0.005	0.000	0.000	0.015	0.430	2.700	1.909	1.904	1.904	1.919	1.914	1.914
0.000	0.010	0.000	0.000	0.000	0.005	0.435	2.690	1.909	1.909	1.904	1.924	1.919	1.909
0.000	0.005	0.005	-0.005	-0.005	-0.024	0.435	2.695	1.914	1.909	1.904	1.924	1.919	1.909
-0.015	0.000	0.000	0.005	-0.005	0.000	0.435	2.690	1.914	1.909	1.904	1.924	1.919	1.919
-0.005	0.005	0.000	0.010	0.005	-0.005	0.435	2.676	1.909	1.909	1.904	1.924	1.919	1.914
0.000	0.020	0.000	0.000	0.000	-0.029	0.430	2.676	1.909	1.909	1.909	1.924	1.919	1.914
-0.010	0.010	0.005	0.005	0.005	0.015	0.430	2.695	1.909	1.909	1.909	1.924	1.924	1.924
-0.005	0.005	0.000	0.000	0.005	-0.010	0.425	2.700	1.909	1.904	1.904	1.924	1.919	1.914
0.000	0.010	0.005	-0.005	0.010	0.000	0.430	2.686	1.904	1.904	1.904	1.924	1.919	1.924
-0.005	0.005	0.005	-0.005	0.005	-0.005	0.430	2.690	1.904	1.899	1.904	1.919	1.919	1.914
-0.010	-0.005	0.005	0.000	0.005	0.000	0.430	2.690	1.899	1.895	1.899	1.919	1.914	1.914
-0.005	-0.020	0.005	0.000	0.005	-0.010	0.430	2.695	1.904	1.890	1.895	1.919	1.914	1.914
0.000	-0.020	0.005	0.000	0.000	-0.010	0.430	2.695	1.904	1.895	1.895	1.914	1.909	1.914
0.005	-0.010	-0.005	0.000	0.000	0.010	0.425	2.686	1.904	1.899	1.895	1.914	1.909	1.919
0.000	-0.015	-0.005	0.005	-0.005	0.000	0.430	2.681	1.899	1.899	1.895	1.914	1.909	1.914
0.005	0.000	0.005	0.005	0.005	0.005	0.435	2.695	1.909	1.909	1.899	1.914	1.914	1.914
0.010	0.000	0.005	0.000	0.000	0.000	0.430	2.690	1.909	1.909	1.904	1.919	1.914	1.914
0.005	0.005	0.005	0.000	0.005	0.000	0.430	2.690	1.909	1.909	1.904	1.919	1.914	1.914
0.005	0.005	0.005	0.000	-0.005	-0.020	0.435	2.695	1.909	1.909	1.904	1.924	1.914	1.904
0.005	0.005	0.000	0.000	0.000	0.000	0.425	2.700	1.909	1.914	1.909	1.924	1.919	1.919
0.005	-0.005	-0.005	0.005	0.005	-0.005	0.430	2.676	1.909	1.909	1.909	1.924	1.924	1.919
0.005	0.020	0.005	0.005	0.000	-0.010	0.430	2.729	1.914	1.919	1.914	1.929	1.919	1.919
0.005	0.010	0.000	0.010	0.005	0.010	0.430	2.686	1.914	1.909	1.909	1.929	1.924	1.924
0.000	0.010	0.000	0.005	0.000	0.000	0.420	2.686	1.909	1.909	1.909	1.924	1.919	1.919
0.000	0.005	0.000	0.005	0.005	-0.020	0.435	2.690	1.904	1.904	1.909	1.924	1.919	1.914
-0.005	0.000	-0.005	0.005	0.010	0.015	0.425	2.686	1.904	1.904	1.899	1.924	1.919	1.924
0.005	0.010	0.000	0.000	0.010	0.005	0.430	2.681	1.904	1.904	1.904	1.919	1.919	1.919
0.000	0.000	0.000	0.000	0.005	0.010	0.420	2.695	1.899	1.899	1.899	1.919	1.914	1.919
-0.005	0.000	0.000	-0.005	0.005	-0.005	0.430	2.695	1.899	1.895	1.899	1.919	1.914	1.914
-0.010	0.000	0.000	0.000	0.005	0.010	0.430	2.695	1.904	1.899	1.899	1.919	1.914	1.914
-0.005	0.000	0.000	0.000	0.000	-0.005	0.435	2.686	1.899	1.899	1.899	1.914	1.909	1.909
0.005	0.005	0.005	0.005	-0.005	0.010	0.430	2.686	1.904	1.899	1.899	1.919	1.914	1.914
0.010	0.000	0.000	0.000	-0.005	-0.010	0.430	2.695	1.909	1.899	1.899	1.919	1.914	1.914
0.005	0.005	0.000	0.000	-0.005	-0.015	0.430	2.671	1.904	1.904	1.899	1.919	1.914	1.914
0.015	-0.010	0.000	0.000	-0.005	0.005	0.430	2.681	1.909	1.904	1.899	1.919	1.914	1.914
0.010	-0.005	0.000	0.000	0.005	0.000	0.430	2.690	1.909	1.909	1.904	1.924	1.919	1.924
0.005	0.000	0.000	0.000	0.000	0.015	0.430	2.676	1.904	1.904	1.904	1.924	1.919	1.924
-0.005	-0.005	0.000	0.000	0.000	0.005	0.430	2.671	1.899	1.904	1.904	1.919	1.919	1.919
-0.005	0.000	0.005	0.000	0.005	0.010	0.425	2.700	1.904	1.899	1.904	1.924	1.919	1.919
0.000	-0.005	0.005	0.005	0.000	0.010	0.435	2.690	1.909	1.899	1.899	1.924	1.919	1.919
-0.010	-0.005	0.005	0.000	0.000	-0.005	0.430	2.681	1.899	1.899	1.899	1.919	1.914	1.919
-0.010	0.000	0.005	0.005	0.005	0.005	0.430	2.676	1.899	1.899	1.899	1.919	1.919	1.919
-0.005	0.000	0.005	0.000	0.000	-0.005	0.425	2.690	1.909	1.899	1.895	1.919	1.914	1.909
-0.010	0.005	0.000	0.005	0.000	0.005	0.435	2.671	1.899	1.895	1.895	1.914	1.909	1.914
0.000	0.005	0.005	0.000	0.000	-0.020	0.430	2.690	1.904	1.899	1.899	1.914	1.909	1.904
0.005	0.005	0.005	0.000	0.000	0.000	0.435	2.676	1.899	1.899	1.895	1.909	1.909	1.909
0.005	0.000	0.000	0.000	-0.005	0.000	0.425	2.671	1.899	1.899	1.895	1.909	1.909	1.914
0.015	0.000	0.000	-0.005	0.005	0.000	0.430	2.695	1.904	1.899	1.899	1.914	1.909	1.914
0.024	0.015	0.005	0.005	0.000	0.000	0.430	2.686	1.909	1.909	1.899	1.919	1.909	1.914
0.010	0.015	0.005	0.000	-0.005	0.005	0.430	2.690	1.904	1.904	1.899	1.919	1.909	1.914
0.024	-0.020	0.005	0.000	0.000	0.000	0.425	2.681	1.909	1.899	1.899	1.919	1.909	1.914
0.020	-0.010	0.000	0.000	0.000	0.005	0.435	2.700	1.909	1.904	1.899	1.919	1.914	1.914
0.015	0.010	0.000	0.005	0.000	0.000	0.425	2.690	1.909	1.909	1.904	1.919	1.914	1.914
0.000	0.010	0.000	0.000	0.010	-0.010	0.430	2.686	1.909	1.909	1.909	1.924	1.919	1.914
-0.005	0.010	0.000	0.005	0.010	0.015	0.425	2.681	1.899	1.909	1.909	1.924	1.919	1.919
-0.005	0.005	0.005	0.005	-0.005	-0.010	0.430	2.671	1.904	1.904	1.909	1.924	1.914	1.914
-0.010	-0.005	0.000	0.000	0.000	0.015	0.425	2.700	1.899	1.899	1.899	1.924	1.919	1.919
-0.015	0.005	0.005	0.005	0.005	0.010	0.439	2.700	1.904	1.899	1.904	1.924	1.919	1.919
-0.020	0.000	0.005	0.000	-0.005	0.000	0.425	2.676	1.899	1.899	1.899	1.919	1.914	1.914
-0.010	0.005	0.000	0.005	0.010	0.000	0.430	2.695	1.904	1.899	1.895	1.919	1.914	1.909
0.000	0.005	0.000	0.000	0.010	0.000	0.430	2.681	1.904	1.899	1.895	1.914	1.914	1.914
0.000	0.000	0.005	0.005	0.000	0.000	0.430	2.695	1.899	1.895	1.895	1.914	1.909	1.909
0.005	0.005	0.000	0.005	-0.005	-0.005	0.435	2.700	1.904	1.899	1.895	1.914	1.909	1.909
-0.005	-0.005	0.000	0.005	0.000	0.005	0.430	2.705	1.904	1.895	1.895	1.914	1.909	1.914
-0.010	-0.005	0.000	0.005	0.000	-0.005	0.430	2.686	1.899	1.899	1.899	1.914	1.909	1.909
0.005	0.000	-0.005	0.010	0.000	-0.010	0.435	2.686	1.909	1.904	1.899	1.914	1.914	1.909
0.000	-0.005	0.000	0.000	0.000	0.010	0.430	2.695	1.904	1.904	1.899	1.914	1.914	1.914
0.010	0.000	0.000	0.005	-0.005	-0.005	0.430	2.695	1.909	1.904	1.904	1.919	1.909	1.914
0.010	0.005	0.000	0.005	0.000	-0.020	0.430	2.690	1.914	1.909	1.904	1.924	1.914	1.914
-0.005	0.000	0.000	0.005	-0.010	0.005	0.425	2.686	1.909	1.909	1.904	1.924	1.914	1.919
0.000	0.005	0.005	0.005	0.000	-0.005	0.430	2.690	1.909	1.909	1.909	1.924	1.919	1.914
0.000	0.000	-0.005	0.000	0.005	-0.010	0.425	2.690	1.909	1.904	1.904	1.924	1.919	1.914
-0.005	0.010	0.000	0.000	0.005	-0.005	0.435	2.686	1.904	1.909	1.904	1.924	1.919	1.919
0.000	0.010	0.000	0.000	0.005	0.015	0.430	2.700	1.909	1.909	1.904	1.924	1.919	1.924
0.005	0.010	0.000	0.005	-0.005	-0.005	0.435	2.681	1.904	1.909	1.909	1.924	1.914	1.914
-0.005	0.000	0.000	-0.005	0.000	-0.010	0.425	2.681	1.899	1.899	1.904	1.919	1.914	1.914
0.005	0.005	0.005	0.000	0.005	0.015	0.439	2.676	1.899	1.899	1.899	1.924	1.919	1.919
0.005	-0.005	-0.005	0.000	0.005	-0.005	0.430	2.686	1.899	1.890	1.895	1.914	1.914	1.914
0.000	0.005	0.005	0.000	0.005	0.010	0.430	2.686	1.899	1.895	1.895	1.914	1.909	1.914
-0.010	-0.005	0.000	-0.005	0.000	0.015	0.425	2.686	1.899	1.895	1.895	1.914	1.909	1.914
0.005	0.000	0.000	0.000	0.000	0.015	0.430	2.686	1.899	1.895	1.895	1.914	1.909	1.914
0.005	0.010	-0.005	0.000	-0.005	0.010	0.425	2.690	1.899	1.899	1.895	1.914	1.909	1.914
0.010	0.000	0.000	0.000	0.000	-0.005	0.435	2.690	1.909	1.899	1.899	1.914	1.909	1.909
0.010	-0.005	0.005	0.000	0.000	0.000	0.430	2.690	1.904	1.899	1.899	1.919	1.914	1.909
0.005	0.005	0.005	0.005	0.000	-0.005	0.430	2.686	1.909	1.904	1.899	1.919	1.914	1.909
-0.005	-0.005	0.005	0.005	0.000	0.015	0.430	2.690	1.909	1.904	1.904	1.919	1.914	1.919
0.000	0.000	0.000	0.000	0.000	0.005	0.430	2.700	1.914	1.909	1.904	1.919	1.914	1.919
0.000	0.005	0.005	0.005	-0.005	-0.010	0.430	2.700	1.909	1.909	1.904	1.924	1.914	1.914
0.000	0.000	0.000	0.005	0.000	-0.024	0.430	2.686	1.909	1.909	1.904	1.924	1.919	1.909
0.005	0.005	0.005	0.000	0.005	0.000	0.425	2.690	1.909	1.904	1.904	1.919	1.919	1.919
0.000	0.000	0.005	0.000	-0.005	-0.005	0.425	2.686	1.904	1.909	1.904	1.919	1.914	1.914
0.000	-0.005	0.000	0.000	0.000	0.015	0.430	2.695	1.904	1.904	1.899	1.919	1.914	1.919
0.000	-0.005	0.000	-0.005	0.005	0.020	0.425	2.681	1.899	1.899	1.899	1.919	1.914	1.919
-0.005	-0.005	-0.005	-0.005	0.005	-0.005	0.435	2.686	1.899	1.899	1.895	1.919	1.909	1.914
0.005	0.000	0.000	0.000	0.000	0.005	0.430	2.681	1.899	1.899	1.899	1.919	1.909	1.914
-0.005	0.000	0.000	-0.005	-0.005	0.000	0.430	2.681	1.899	1.895	1.895	1.914	1.909	1.909
-0.005	0.000	0.000	0.005	-0.010	-0.005	0.430	2.676	1.899	1.899	1.899	1.914	1.909	1.904
-0.005	0.015	0.000	0.000	0.000	-0.005	0.430	2.690	1.895	1.904	1.895	1.914	1.909	1.909
0.005	-0.005	0.005	0.000	-0.005	0.010	0.430	2.700	1.904	1.895	1.899	1.914	1.909	1.919
0.005	0.005	0.000	0.000	0.000	0.005	0.430	2.690	1.904	1.904	1.899	1.914	1.914	1.914
-0.005	0.000	0.000	0.005	-0.005	-0.005	0.425	2.700	1.909	1.904	1.904	1.919	1.914	1.909
-0.005	0.005	0.005	0.000	0.005	-0.005	0.435	2.686	1.904	1.904	1.904	1.919	1.914	1.914
0.000	0.000	0.000	-0.005	-0.005	-0.010	0.425	2.646	1.899	1.904	1.904	1.919	1.914	1.914
0.005	0.005	0.000	0.000	-0.005	-0.010	0.435	2.661	1.904	1.904	1.904	1.919	1.914	1.909
0.010	0.000	0.000	0.000	0.005	-0.010	0.430	2.690	1.904	1.904	1.904	1.919	1.914	1.919
-0.005	0.005	0.000	0.005	0.010	-0.010	0.430	2.749	1.899	1.899	1.904	1.924	1.919	1.919
0.005	-0.005	0.000	0.005	0.005	-0.015	0.430	2.642	1.895	1.899	1.899	1.919	1.914	1.914
0.000	0.000	0.000	0.005	0.000	-0.005	0.435	2.715	1.895	1.895	1.899	1.919	1.914	1.914
-0.005	0.005	0.000	0.000	0.000	0.000	0.425	2.744	1.909	1.899	1.899	1.914	1.909	1.914
-0.010	0.015	0.005	0.000	0.000	0.000	0.430	2.734	1.909	1.899	1.895	1.914	1.914	1.914
0.000	0.005	0.005	0.000	-0.005	-0.010	0.425	2.676	1.904	1.899	1.895	1.914	1.909	1.904
0.000	0.000	0.005	0.005	0.000	-0.020	0.425	2.651	1.899	1.899	1.895	1.914	1.909	1.904
0.000	0.010	-0.005	0.000	0.000	-0.005	0.430	2.729	1.899	1.899	1.895	1.914	1.909	1.909
-0.005	0.010	0.000	0.005	-0.005	0.000	0.430	2.671	1.899	1.895	1.895	1.909	1.909	1.914
0.005	0.010	0.005	0.005	0.000	-0.020	0.430	2.646	1.904	1.899	1.899	1.914	1.909	1.909
0.000	-0.020	-0.005	0.000	-0.005	-0.024	0.425	2.646	1.899	1.895	1.895	1.914	1.909	1.904
0.005	-0.015	0.000	0.000	0.000	0.000	0.430	2.666	1.899	1.895	1.899	1.919	1.914	1.914
0.005	-0.015	0.000	0.000	0.005	0.015	0.430	2.646	1.899	1.895	1.895	1.914	1.914	1.919
0.000	-0.005	0.000	0.000	0.000	-0.010	0.425	2.671	1.899	1.899	1.899	1.919	1.914	1.909
0.010	0.000	0.000	0.000	0.005	-0.024	0.425	2.695	1.904	1.904	1.899	1.919	1.914	1.904
0.010	0.000	0.010	0.000	0.010	0.010	0.430	2.656	1.899	1.904	1.904	1.924	1.919	1.924
-0.005	0.000	0.005	0.005	0.020	0.015	0.430	2.734	1.904	1.904	1.899	1.919	1.919	1.924
0.000	0.000	0.000	0.005	0.020	0.005	0.435	2.700	1.909	1.904	1.904	1.924	1.919	1.919
0.000	0.000	0.000	0.000	0.020	0.024	0.430	2.646	1.904	1.904	1.899	1.919	1.919	1.924
0.000	0.005	0.005	0.005	0.034	0.024	0.435	2.686	1.899	1.904	1.899	1.919	1.919	1.924
0.000	0.010	0.000	0.005	0.024	-0.005	0.425	2.744	1.909	1.904	1.899	1.914	1.914	1.914
0.005	0.010	0.000	0.005	0.029	0.020	0.430	2.803	1.919	1.904	1.899	1.914	1.914	1.919
-0.005	0.005	0.000	0.005	0.020	0.010	0.425	2.739	1.914	1.904	1.899	1.919	1.909	1.909
0.005	0.010	0.005	0.005	0.020	0.005	0.430	2.744	1.919	1.909	1.899	1.919	1.909	1.909
0.005	0.005	0.005	0.005	0.015	0.020	0.430	2.739	1.919	1.909	1.899	1.919	1.909	1.919
0.015	0.005	0.000	0.005	0.010	0.015	0.435	2.744	1.924	1.909	1.904	1.919	1.909	1.914
0.000	-0.005	0.000	0.005	0.005	-0.010	0.420	2.749	1.924	1.909	1.904	1.919	1.909	1.904
0.005	0.000	0.000	0.015	0.000	0.015	0.435	2.739	1.919	1.919	1.909	1.924	1.914	1.914
0.010	0.000	0.005	0.005	0.005	0.010	0.435	2.695	1.914	1.914	1.914	1.924	1.919	1.914
0.000	0.000	0.000	0.005	0.005	0.015	0.430	2.690	1.914	1.919	1.914	1.924	1.919	1.919
-0.005	0.010	0.005	0.005	0.005	0.010	0.435	2.690	1.914	1.914	1.914	1.929	1.924	1.919
-0.005	0.005	-0.005	0.000	0.005	0.010	0.430	2.700	1.909	1.914	1.914	1.929	1.924	1.919
-0.029	0.000	0.000	0.005	-0.005	-0.005	0.435	2.705	1.899	1.909	1.914	1.934	1.919	1.914
-0.015	0.005	0.000	0.005	-0.005	0.010	0.425	2.690	1.909	1.909	1.909	1.929	1.924	1.924
-0.015	0.000	0.000	0.000	-0.005	0.005	0.425	2.690	1.909	1.909	1.909	1.929	1.924	1.919
0.000	0.000	0.005	0.005	-0.010	0.010	0.425	2.700	1.909	1.904	1.909	1.929	1.924	1.924
0.000	0.000	0.005	0.000	-0.010	0.010	0.435	2.690	1.909	1.909	1.904	1.924	1.919	1.919
0.005	0.000	0.005	0.000	-0.005	0.015	0.425	2.700	1.904	1.904	1.904	1.924	1.919	1.924
0.010	0.000	0.005	0.000	-0.010	0.010	0.430	2.690	1.909	1.904	1.904	1.924	1.919	1.914
0.015	0.000	0.000	0.000	-0.010	0.010	0.425	2.681	1.909	1.904	1.899	1.919	1.914	1.919
0.020	-0.005	0.005	0.005	-0.015	-0.010	0.439	2.700	1.909	1.904	1.899	1.919	1.914	1.914
0.015	0.000	0.000	0.000	-0.015	0.010	0.430	2.686	1.904	1.899	1.899	1.919	1.914	1.919
0.015	0.000	0.000	0.000	-0.015	0.010	0.435	2.710	1.909	1.904	1.899	1.919	1.914	1.914
0.024	-0.005	0.005	-0.005	-0.015	0.005	0.420	2.700	1.909	1.904	1.904	1.919	1.919	1.914
0.010	0.000	0.000	0.000	-0.015	-0.005	0.435	2.710	1.904	1.909	1.904	1.919	1.919	1.909
0.020	0.010	0.000	0.000	-0.015	-0.010	0.420	2.705	1.909	1.914	1.904	1.924	1.919	1.914
0.005	0.005	0.000	0.005	-0.010	-0.015	0.439	2.710	1.909	1.909	1.909	1.924	1.919	1.914
0.015	0.005	0.000	0.005	-0.005	-0.010	0.430	2.710	1.914	1.909	1.909	1.929	1.924	1.919
0.000	0.005	0.000	0.010	-0.005	-0.010	0.435	2.700	1.909	1.909	1.909	1.929	1.924	1.924
0.000	0.000	0.000	-0.005	-0.005	-0.010	0.435	2.695	1.909	1.904	1.909	1.924	1.924	1.924
-0.005	-0.005	0.000	-0.005	0.000	-0.010	0.430	2.686	1.904	1.904	1.909	1.924	1.924	1.924
-0.015	0.005	0.000	0.000	-0.005	-0.020	0.435	2.686	1.904	1.904	1.904	1.924	1.919	1.924
-0.010	0.000	0.005	-0.005	0.000	0.000	0.435	2.651	1.904	1.904	1.904	1.919	1.924	1.924
-0.005	-0.005	0.005	-0.005	0.005	-0.005	0.430	2.656	1.904	1.904	1.904	1.924	1.919	1.919
-0.005	0.000	0.000	-0.005	0.000	-0.005	0.435	2.690	1.899	1.899	1.899	1.919	1.914	1.919
-0.005	0.000	0.000	0.000	0.000	0.000	0.425	2.803	1.914	1.899	1.899	1.919	1.914	1.919
-0.005	0.005	0.000	-0.005	0.000	0.010	0.435	2.734	1.895	1.899	1.895	1.919	1.914	1.919
0.005	0.000	0.000	0.005	0.000	0.010	0.430	2.676	1.899	1.899	1.899	1.919	1.914	1.919
0.010	0.000	0.000	0.005	0.005	0.010	0.430	2.656	1.899	1.895	1.899	1.919	1.914	1.914
0.000	-0.005	0.000	0.010	0.000	0.010	0.435	2.690	1.895	1.895	1.899	1.924	1.914	1.919
0.005	0.000	0.000	0.000	0.005	0.024	0.435	2.656	1.904	1.899	1.899	1.919	1.914	1.919
0.000	0.000	-0.005	0.005	0.000	0.000	0.430	2.793	1.919	1.904	1.899	1.919	1.914	1.909
0.005	0.000	0.005	0.000	-0.005	0.005	0.430	2.754	1.924	1.909	1.899	1.919	1.914	1.914
0.000	0.005	0.000	-0.005	0.000	0.005	0.430	2.739	1.924	1.909	1.904	1.924	1.914	1.919
0.000	0.005	0.000	0.005	0.005	-0.024	0.430	2.646	1.914	1.914	1.904	1.924	1.919	1.909
-0.005	0.000	0.000	0.005	0.005	-0.020	0.430	2.666	1.909	1.914	1.909	1.924	1.919	1.914
-0.005	-0.005	0.005	0.000	0.000	0.000	0.425	2.749	1.919	1.914	1.909	1.924	1.919	1.924
0.000	0.000	0.000	0.000	0.000	-0.005	0.435	2.710	1.909	1.909	1.909	1.924	1.919	1.919
0.005	0.000	0.000	0.005	0.005	0.005	0.430	2.681	1.909	1.909	1.909	1.924	1.924	1.924
0.000	0.005	0.000	0.000	0.005	-0.005	0.435	2.700	1.904	1.909	1.904	1.924	1.919	1.919
0.000	0.000	0.005	0.000	0.010	0.000	0.435	2.681	1.909	1.909	1.904	1.924	1.919	1.919
0.000	0.005	0.000	0.005	0.005	-0.005	0.435	2.671	1.899	1.904	1.904	1.924	1.919	1.919
-0.010	0.010	-0.005	0.000	0.005	-0.010	0.430	2.671	1.895	1.904	1.899	1.919	1.914	1.914
-0.005	0.000	0.005	0.000	0.000	0.015	0.435	2.690	1.899	1.895	1.899	1.919	1.909	1.924
0.000	0.000	0.005	-0.005	0.000	-0.010	0.430	2.700	1.904	1.899	1.899	1.919	1.914	1.909
0.005	0.000	0.005	0.005	0.005	0.005	0.430	2.686	1.904	1.899	1.899	1.919	1.914	1.919
0.000	-0.005	-0.005	0.005	0.000	0.020	0.425	2.695	1.904	1.899	1.899	1.919	1.914	1.924
0.010	0.015	0.000	0.005	0.000	0.015	0.430	2.681	1.909	1.909	1.899	1.919	1.914	1.914
0.000	0.015	0.005	0.000	0.005	-0.020	0.430	2.705	1.914	1.909	1.904	1.919	1.919	1.909
-0.005	0.010	0.000	0.000	0.005	0.015	0.439	2.681	1.909	1.909	1.904	1.919	1.919	1.924
0.015	0.005	0.000	0.000	0.005	0.000	0.435	2.705	1.919	1.914	1.909	1.924	1.919	1.919
0.010	0.005	0.000	0.000	0.005	0.015	0.435	2.695	1.914	1.904	1.904	1.924	1.919	1.919
0.005	-0.005	0.005	0.000	0.005	0.000	0.425	2.671	1.914	1.909	1.909	1.929	1.924	1.919
0.010	0.015	0.000	0.000	0.005	0.005	0.425	2.695	1.914	1.914	1.909	1.924	1.919	1.919
0.010	0.000	0.000	0.000	-0.005	-0.020	0.430	2.686	1.909	1.909	1.909	1.924	1.919	1.909
0.005	0.005	0.000	0.000	0.005	-0.010	0.430	2.700	1.904	1.904	1.904	1.924	1.919	1.914
0.000	-0.010	0.005	0.000	0.005	0.005	0.435	2.710	1.909	1.904	1.904	1.924	1.919	1.924
0.000	-0.010	0.005	0.000	-0.005	0.005	0.430	2.676	1.899	1.899	1.904	1.919	1.914	1.919
-0.005	-0.005	0.000	0.000	0.000	0.015	0.430	2.686	1.899	1.899	1.899	1.919	1.914	1.919
0.005	-0.015	0.005	-0.005	0.005	0.010	0.430	2.710	1.904	1.899	1.899	1.919	1.914	1.914
0.000	0.005	0.005	0.000	0.000	0.000	0.430	2.695	1.904	1.899	1.899	1.919	1.914	1.914
0.005	0.000	0.000	0.000	0.005	0.005	0.425	2.690	1.904	1.899	1.895	1.914	1.914	1.914
-0.005	0.010	-0.005	0.000	0.010	-0.005	0.435	2.690	1.914	1.904	1.899	1.914	1.914	1.914
-0.005	0.000	0.000	0.000	0.005	-0.010	0.430	2.666	1.909	1.904	1.904	1.919	1.914	1.914
0.010	0.000	0.000	0.005	-0.005	0.005	0.430	2.690	1.914	1.909	1.904	1.919	1.914	1.914
0.005	0.005	0.000	0.005	-0.005	0.000	0.425	2.798	1.924	1.914	1.904	1.924	1.914	1.914
0.010	0.000	0.000	0.005	0.000	0.005	0.435	2.700	1.919	1.919	1.909	1.924	1.919	1.919
0.005	-0.005	-0.005	0.010	0.000	0.005	0.425	2.671	1.909	1.914	1.909	1.924	1.919	1.919
0.000	0.005	0.005	0.005	0.000	-0.024	0.435	2.759	1.919	1.914	1.914	1.924	1.919	1.914
0.000	-0.015	-0.005	0.000	0.005	-0.024	0.425	2.690	1.909	1.909	1.909	1.929	1.919	1.919
-0.005	-0.005	0.000	0.000	0.005	0.024	0.430	2.651	1.904	1.914	1.909	1.929	1.919	1.929
0.000	0.005	0.000	0.005	0.000	0.015	0.425	2.798	1.919	1.919	1.909	1.929	1.924	1.924
0.000	0.015	-0.005	0.010	0.005	0.005	0.430	2.725	1.919	1.914	1.909	1.929	1.924	1.919
-0.010	0.015	0.005	0.000	0.005	0.005	0.430	2.734	1.914	1.914	1.909	1.929	1.924	1.919
0.000	0.005	-0.005	0.000	0.000	0.005	0.435	2.642	1.904	1.909	1.909	1.929	1.919	1.924
-0.010	0.005	0.005	0.000	0.005	0.005	0.430	2.632	1.899	1.899	1.904	1.924	1.919	1.919
-0.010	0.010	0.005	0.005	0.000	0.010	0.435	2.739	1.904	1.904	1.904	1.924	1.919	1.919
-0.010	0.010	0.000	0.005	0.000	0.005	0.430	2.627	1.895	1.904	1.904	1.919	1.919	1.919
0.005	0.005	0.000	0.005	0.005	0.000	0.435	2.681	1.899	1.899	1.899	1.919	1.919	1.919
-0.005	0.000	0.005	0.000	0.000	0.005	0.430	2.705	1.904	1.899	1.904	1.924	1.914	1.914
0.005	0.000	0.005	0.005	-0.005	-0.020	0.430	2.695	1.909	1.904	1.899	1.924	1.919	1.909
0.010	-0.005	0.000	0.010	-0.005	0.015	0.430	2.681	1.909	1.904	1.899	1.924	1.919	1.924
0.005	-0.005	0.000	0.005	0.000	0.005	0.425	2.686	1.909	1.904	1.904	1.924	1.919	1.919
0.010	0.000	0.005	0.000	0.000	-0.015	0.435	2.710	1.919	1.909	1.904	1.924	1.919	1.914
0.015	0.005	0.005	0.005	0.000	0.015	0.435	2.681	1.919	1.914	1.909	1.924	1.919	1.929
0.015	-0.005	-0.005	0.000	0.000	-0.005	0.430	2.676	1.914	1.914	1.909	1.924	1.919	1.919
0.024	0.005	-0.005	0.005	0.005	0.005	0.430	2.690	1.909	1.914	1.909	1.924	1.924	1.919
0.005	0.010	0.000	0.000	0.005	0.015	0.430	2.690	1.909	1.909	1.909	1.929	1.924	1.924
0.005	0.005	0.005	0.005	0.005	0.010	0.425	2.676	1.904	1.909	1.909	1.929	1.919	1.919
0.005	0.015	0.000	0.005	0.005	0.005	0.430	2.671	1.904	1.909	1.909	1.924	1.924	1.919
0.000	0.000	0.000	0.005	0.005	-0.015	0.425	2.676	1.895	1.899	1.899	1.924	1.919	1.914
-0.010	-0.005	0.000	0.000	0.010	0.010	0.439	2.690	1.895	1.890	1.899	1.919	1.919	1.919
-0.005	-0.005	0.000	0.000	0.005	0.010	0.430	2.686	1.899	1.895	1.895	1.919	1.914	1.919
-0.005	-0.005	0.000	0.005	0.010	0.000	0.439	2.705	1.899	1.895	1.895	1.919	1.914	1.919
-0.015	0.000	0.000	0.000	0.000	0.000	0.430	2.686	1.899	1.895	1.895	1.914	1.909	1.914
-0.005	0.000	0.000	0.000	0.005	-0.015	0.430	2.690	1.899	1.899	1.899	1.914	1.909	1.914
-0.015	0.000	0.005	-0.005	0.000	0.010	0.425	2.686	1.904	1.895	1.899	1.914	1.909	1.914
-0.005	0.005	0.005	0.000	0.000	0.005	0.435	2.686	1.909	1.899	1.899	1.919	1.914	1.914
0.005	0.000	0.000	0.000	0.000	-0.005	0.430	2.695	1.909	1.904	1.899	1.914	1.914	1.914
0.005	0.000	0.000	0.000	0.005	0.010	0.435	2.705	1.914	1.909	1.904	1.919	1.914	1.919
0.024	0.000	0.000	0.000	0.005	0.010	0.430	2.690	1.919	1.914	1.904	1.919	1.914	1.914
0.005	0.005	0.000	0.000	0.005	-0.005	0.430	2.695	1.914	1.914	1.909	1.924	1.914	1.914
0.015	0.000	0.000	-0.005	-0.005	0.010	0.430	2.651	1.924	1.914	1.909	1.919	1.914	1.919
0.010	0.005	0.000	0.000	0.000	0.000	0.430	2.666	1.914	1.914	1.909	1.924	1.914	1.914
0.015	-0.005	0.000	0.000	0.000	-0.005	0.430	2.690	1.909	1.909	1.909	1.924	1.919	1.909
0.005	0.005	0.000	0.000	0.005	-0.005	0.435	2.798	1.924	1.914	1.909	1.929	1.919	1.914
-0.005	0.000	-0.005	0.000	0.000	0.005	0.430	2.739	1.899	1.909	1.909	1.924	1.919	1.919
0.000	0.000	0.005	0.005	0.000	-0.005	0.430	2.671	1.899	1.904	1.909	1.924	1.919	1.914
-0.005	-0.005	0.010	0.010	0.000	0.000	0.430	2.744	1.899	1.899	1.904	1.924	1.919	1.914
0.005	0.000	0.000	0.000	0.005	0.005	0.435	2.681	1.904	1.899	1.899	1.919	1.914	1.919
-0.020	-0.005	0.000	0.000	0.005	0.000	0.430	2.651	1.895	1.895	1.899	1.919	1.914	1.914
-0.005	0.000	0.005	0.005	0.000	-0.024	0.430	2.812	1.909	1.899	1.899	1.919	1.914	1.909
0.000	0.000	0.005	0.000	-0.005	0.000	0.435	2.715	1.914	1.904	1.899	1.919	1.914	1.919
0.015	0.005	0.000	0.000	0.005	0.010	0.430	2.749	1.919	1.909	1.904	1.919	1.914	1.919
-0.005	-0.005	0.000	0.000	0.000	0.005	0.430	2.646	1.909	1.904	1.904	1.924	1.914	1.919
-0.005	-0.010	0.000	0.000	0.000	0.010	0.430	2.642	1.904	1.904	1.904	1.919	1.919	1.919
-0.005	0.005	0.000	0.000	-0.005	0.005	0.430	2.759	1.909	1.909	1.909	1.924	1.919	1.919
-0.010	0.005	0.005	0.000	0.000	0.005	0.425	2.651	1.904	1.909	1.909	1.924	1.919	1.924
0.005	0.010	0.005	0.000	-0.005	-0.015	0.430	2.676	1.904	1.909	1.909	1.924	1.919	1.914
-0.010	0.010	-0.005	0.000	0.005	-0.005	0.425	2.681	1.904	1.909	1.904	1.929	1.924	1.924
0.000	0.005	0.005	-0.005	0.005	0.010	0.425	2.710	1.909	1.904	1.904	1.924	1.924	1.924
0.005	0.010	0.000	0.005	0.005	0.015	0.430	2.676	1.904	1.909	1.904	1.924	1.924	1.924
0.005	-0.005	0.000	0.005	0.000	0.010	0.435	2.686	1.909	1.904	1.904	1.924	1.919	1.919
0.010	-0.005	0.000	0.000	0.000	0.005	0.435	2.700	1.904	1.899	1.899	1.919	1.919	1.919
0.005	-0.010	0.000	0.005	0.000	0.005	0.435	2.710	1.914	1.904	1.899	1.919	1.919	1.919
0.020	0.005	0.005	0.005	0.010	-0.005	0.430	2.686	1.909	1.904	1.904	1.919	1.914	1.919
0.015	0.000	0.000	0.000	0.000	0.000	0.425	2.690	1.909	1.899	1.899	1.919	1.914	1.914
0.015	0.010	0.000	0.010	0.005	0.000	0.420	2.681	1.904	1.904	1.899	1.919	1.914	1.919
0.015	0.005	0.000	0.005	0.010	-0.005	0.425	2.705	1.909	1.899	1.899	1.919	1.914	1.909
0.005	0.005	0.005	0.005	0.000	-0.005	0.430	2.690	1.904	1.899	1.899	1.919	1.914	1.909
0.020	0.010	0.005	0.000	0.000	0.015	0.425	2.705	1.909	1.904	1.904	1.919	1.914	1.924
0.015	0.010	0.005	0.000	0.005	0.010	0.425	2.686	1.909	1.909	1.904	1.919	1.914	1.919
0.010	0.005	0.005	0.005	0.005	0.015	0.425	2.710	1.909	1.904	1.904	1.924	1.919	1.924
0.000	0.020	0.000	0.000	0.005	0.000	0.425	2.715	1.914	1.914	1.904	1.924	1.919	1.919
-0.005	0.024	0.000	0.005	-0.005	-0.024	0.430	2.705	1.914	1.914	1.909	1.924	1.919	1.914
-0.010	0.015	-0.005	0.005	0.000	0.015	0.430	2.700	1.909	1.909	1.909	1.924	1.919	1.924
-0.015	0.010	-0.005	0.000	0.000	-0.010	0.435	2.676	1.909	1.904	1.904	1.924	1.919	1.919
0.000	-0.010	0.000	0.000	0.000	0.024	0.435	2.700	1.909	1.904	1.909	1.924	1.924	1.924
0.000	-0.010	0.000	0.000	0.005	0.010	0.425	2.705	1.914	1.904	1.904	1.924	1.919	1.919
-0.005	-0.005	0.005	0.000	0.005	0.010	0.430	2.700	1.909	1.904	1.899	1.924	1.914	1.919
-0.005	-0.010	0.000	0.000	-0.005	-0.005	0.420	2.705	1.909	1.904	1.899	1.919	1.914	1.909
-0.010	0.000	0.000	0.010	0.005	0.005	0.430	2.690	1.899	1.904	1.904	1.924	1.919	1.919
-0.005	0.005	0.000	-0.005	0.000	-0.015	0.425	2.651	1.899	1.904	1.899	1.919	1.914	1.909
-0.005	0.005	0.000	-0.005	0.000	0.005	0.435	2.676	1.899	1.899	1.895	1.919	1.914	1.914
0.000	0.000	0.000	-0.005	0.005	0.005	0.430	2.690	1.899	1.899	1.899	1.914	1.914	1.914
-0.005	-0.005	0.000	0.005	0.000	-0.020	0.435	2.803	1.914	1.899	1.899	1.914	1.909	1.909
-0.005	-0.010	0.000	0.005	0.000	0.015	0.430	2.729	1.914	1.904	1.899	1.919	1.914	1.919
0.000	0.005	0.005	0.005	0.000	0.015	0.435	2.681	1.914	1.909	1.904	1.919	1.914	1.914
0.010	0.010	0.005	0.005	-0.005	0.000	0.425	2.661	1.914	1.914	1.909	1.924	1.914	1.914
-0.005	0.005	0.005	0.000	0.000	0.000	0.430	2.695	1.909	1.909	1.909	1.924	1.919	1.919
0.010	0.000	0.005	0.005	0.000	0.010	0.425	2.646	1.909	1.909	1.909	1.924	1.919	1.919
0.000	-0.005	0.000	0.005	0.000	0.005	0.430	2.676	1.914	1.909	1.909	1.929	1.924	1.919
0.005	0.000	0.010	0.010	0.005	0.000	0.435	2.729	1.924	1.914	1.909	1.929	1.924	1.919
0.005	0.000	0.000	0.005	0.000	-0.024	0.425	2.729	1.929	1.919	1.909	1.929	1.919	1.919
0.005	0.000	0.000	0.005	0.000	0.005	0.425	2.715	1.924	1.919	1.914	1.929	1.924	1.924
0.005	0.010	0.000	0.005	0.005	0.000	0.430	2.646	1.909	1.919	1.914	1.929	1.929	1.924
0.000	0.010	0.000	0.005	0.000	0.005	0.425	2.729	1.914	1.919	1.914	1.934	1.924	1.924
-0.005	0.010	-0.005	0.005	-0.005	-0.029	0.430	2.725	1.904	1.914	1.914	1.929	1.924	1.914
0.005	0.010	-0.005	0.005	0.005	0.015	0.430	2.681	1.904	1.904	1.909	1.929	1.924	1.929
-0.005	0.000	0.005	0.005	0.005	0.015	0.430	2.686	1.899	1.899	1.909	1.924	1.919	1.924
0.010	-0.005	0.005	0.000	0.005	0.015	0.425	2.700	1.904	1.904	1.904	1.924	1.924	1.924
-0.005	0.005	0.000	0.005	0.000	0.010	0.425	2.681	1.899	1.899	1.904	1.924	1.919	1.919
-0.005	-0.005	0.000	0.000	0.000	-0.005	0.439	2.686	1.904	1.899	1.899	1.924	1.919	1.919
0.000	0.000	0.000	0.000	0.000	0.010	0.425	2.686	1.909	1.904	1.899	1.924	1.919	1.919
-0.005	0.000	0.000	0.005	0.005	0.000	0.435	2.695	1.909	1.909	1.904	1.924	1.924	1.919
0.010	0.000	0.000	0.000	0.000	0.000	0.425	2.681	1.914	1.909	1.904	1.919	1.919	1.919
0.005	0.000	0.005	0.000	0.000	0.010	0.439	2.690	1.909	1.909	1.909	1.924	1.924	1.924
0.005	-0.010	0.005	0.000	0.000	0.010	0.425	2.686	1.919	1.909	1.909	1.924	1.919	1.924
-0.005	0.000	0.000	0.000	0.000	0.010	0.430	2.690	1.909	1.909	1.909	1.924	1.924	1.924
-0.005	-0.005	0.010	0.000	0.000	0.010	0.425	2.686	1.909	1.909	1.909	1.929	1.924	1.924
-0.015	-0.005	0.000	0.000	0.000	-0.005	0.435	2.700	1.909	1.904	1.904	1.924	1.924	1.914
-0.010	0.000	0.005	0.005	0.010	0.010	0.430	2.690	1.909	1.909	1.909	1.924	1.924	1.929
0.000	0.000	0.000	0.000	0.000	0.005	0.435	2.695	1.909	1.909	1.904	1.924	1.919	1.924
0.000	0.010	-0.005	0.000	0.000	0.000	0.430	2.700	1.909	1.909	1.904	1.919	1.919	1.919
0.015	0.010	0.000	0.005	0.000	-0.029	0.430	2.690	1.909	1.909	1.904	1.924	1.919	1.914
0.015	0.010	0.000	0.005	0.005	0.005	0.425	2.695	1.909	1.904	1.904	1.924	1.919	1.919
0.005	-0.010	0.000	0.000	0.000	0.010	0.425	2.676	1.904	1.899	1.904	1.924	1.914	1.919
0.005	0.005	0.000	0.005	0.000	-0.015	0.430	2.695	1.904	1.904	1.904	1.919	1.914	1.909
-0.010	0.000	0.000	-0.005	0.000	-0.005	0.430	2.705	1.899	1.899	1.904	1.919	1.914	1.914
0.005	0.005	0.005	0.000	0.005	0.010	0.425	2.690	1.909	1.904	1.904	1.919	1.919	1.924
0.000	0.010	0.000	0.000	0.000	0.005	0.435	2.700	1.909	1.904	1.904	1.924	1.914	1.924
-0.010	0.000	0.010	0.005	0.000	0.010	0.430	2.705	1.909	1.904	1.904	1.924	1.914	1.919
-0.010	0.010	0.000	0.000	-0.005	-0.029	0.430	2.646	1.904	1.904	1.904	1.924	1.914	1.909
-0.015	0.005	0.005	0.000	-0.005	0.005	0.430	2.661	1.904	1.904	1.904	1.924	1.919	1.924
-0.010	-0.010	0.005	0.000	0.000	0.000	0.430	2.690	1.909	1.904	1.904	1.924	1.919	1.924
-0.015	0.000	0.000	0.005	-0.005	-0.005	0.435	2.788	1.919	1.909	1.904	1.924	1.919	1.919
0.005	-0.010	0.005	0.000	0.000	0.000	0.430	2.754	1.934	1.914	1.904	1.924	1.924	1.919
0.020	0.000	0.000	0.005	0.005	0.010	0.430	2.681	1.924	1.919	1.909	1.924	1.919	1.924
0.015	-0.005	0.000	0.005	0.000	0.005	0.425	2.651	1.914	1.914	1.909	1.924	1.924	1.919
0.029	-0.010	0.000	0.005	0.000	0.000	0.430	2.681	1.914	1.914	1.909	1.924	1.919	1.924
0.024	-0.005	0.000	0.000	0.005	-0.005	0.425	2.646	1.899	1.909	1.909	1.924	1.919	1.914
0.044	0.000	0.000	0.000	0.000	0.010	0.439	2.808	1.929	1.914	1.909	1.924	1.919	1.919
0.049	0.010	0.005	-0.005	0.005	-0.005	0.425	2.725	1.919	1.914	1.909	1.924	1.914	1.909
0.039	0.010	-0.005	0.000	0.005	0.005	0.435	2.632	1.904	1.909	1.909	1.924	1.919	1.919
0.015	0.010	0.000	0.000	0.005	-0.010	0.420	2.637	1.895	1.904	1.909	1.929	1.914	1.909
0.015	0.010	0.000	0.005	-0.005	0.015	0.430	2.642	1.890	1.904	1.909	1.924	1.919	1.919
0.000	0.005	0.000	0.005	0.005	0.010	0.420	2.637	1.890	1.895	1.904	1.924	1.919	1.924
-0.020	0.000	0.005	0.000	0.005	0.000	0.425	2.739	1.890	1.895	1.899	1.924	1.919	1.919
-0.024	-0.005	0.005	0.000	0.000	0.010	0.425	2.700	1.895	1.895	1.899	1.924	1.919	1.924
-0.015	-0.015	0.005	0.000	0.000	0.005	0.430	2.710	1.904	1.895	1.895	1.919	1.919	1.919
-0.005	-0.005	0.000	0.000	0.005	0.005	0.430	2.690	1.914	1.904	1.899	1.924	1.924	1.919
-0.005	0.015	-0.005	0.000	0.005	0.010	0.425	2.681	1.909	1.914	1.899	1.919	1.919	1.924
-0.005	0.010	0.000	0.005	0.000	0.000	0.430	2.681	1.909	1.909	1.904	1.924	1.919	1.919
-0.020	0.005	0.000	0.000	0.005	-0.010	0.435	2.700	1.904	1.904	1.904	1.924	1.914	1.914
-0.010	0.005	0.000	0.005	0.000	0.000	0.425	2.690	1.909	1.904	1.904	1.924	1.919	1.919
-0.010	0.005	0.005	0.005	0.000	0.010	0.435	2.681	1.909	1.904	1.904	1.919	1.914	1.924
-0.005	0.005	-0.005	0.000	0.000	0.015	0.425	2.686	1.904	1.904	1.904	1.919	1.919	1.919
-0.005	0.000	0.000	0.000	0.000	0.005	0.435	2.686	1.909	1.899	1.899	1.914	1.914	1.914
0.000	0.000	0.000	0.005	0.010	0.005	0.430	2.700	1.909	1.904	1.899	1.919	1.919	1.914
-0.005	0.010	0.005	0.005	0.005	0.000	0.425	2.686	1.904	1.899	1.899	1.914	1.909	1.909
-0.005	0.005	0.000	0.005	0.010	-0.005	0.435	2.686	1.904	1.899	1.899	1.919	1.914	1.914
-0.005	0.000	0.000	0.000	0.005	0.000	0.425	2.690	1.899	1.899	1.895	1.914	1.909	1.914
0.000	0.010	0.005	0.000	0.005	-0.005	0.430	2.686	1.904	1.904	1.899	1.914	1.909	1.909
0.000	0.000	0.000	0.000	0.000	-0.005	0.425	2.700	1.909	1.904	1.899	1.919	1.914	1.914
0.000	0.005	0.005	0.005	0.000	-0.005	0.430	2.710	1.914	1.904	1.899	1.919	1.909	1.914
-0.005	0.010	0.000	0.005	0.000	0.005	0.435	2.710	1.914	1.914	1.904	1.919	1.914	1.914
0.000	0.005	0.000	0.000	0.000	-0.005	0.430	2.705	1.919	1.909	1.909	1.919	1.914	1.914
0.005	0.000	0.010	0.000	0.000	0.000	0.430	2.695	1.914	1.909	1.909	1.924	1.919	1.919
0.000	0.005	0.005	-0.005	0.000	0.005	0.430	2.710	1.914	1.914	1.909	1.924	1.919	1.914
0.005	-0.005	0.000	-0.005	0.005	-0.005	0.430	2.710	1.914	1.909	1.909	1.924	1.919	1.914
-0.010	-0.005	0.000	0.000	0.005	0.005	0.430	2.700	1.909	1.914	1.909	1.929	1.919	1.919
-0.005	-0.005	0.000	0.000	0.000	0.000	0.430	2.690	1.904	1.909	1.909	1.929	1.919	1.919
-0.005	-0.005	0.005	0.000	0.005	0.005	0.430	2.651	1.899	1.904	1.904	1.924	1.919	1.919
0.000	0.000	0.000	0.005	-0.005	-0.005	0.430	2.651	1.899	1.904	1.904	1.924	1.914	1.914
-0.005	-0.005	0.000	-0.005	0.005	0.005	0.435	2.695	1.899	1.899	1.904	1.924	1.919	1.919
0.000	0.000	0.000	0.005	0.000	0.005	0.425	2.793	1.909	1.899	1.899	1.924	1.914	1.919
0.005	0.005	0.000	0.000	0.000	0.005	0.435	2.739	1.914	1.904	1.899	1.919	1.914	1.914
0.000	0.000	0.005	0.000	-0.005	-0.005	0.425	2.676	1.909	1.904	1.899	1.919	1.914	1.914
0.005	0.015	0.000	0.005	0.005	-0.005	0.430	2.729	1.914	1.914	1.904	1.919	1.914	1.909
0.005	-0.005	-0.005	0.000	0.000	0.005	0.430	2.681	1.909	1.904	1.904	1.914	1.914	1.919
0.005	-0.005	0.000	0.005	-0.005	-0.024	0.425	2.637	1.904	1.904	1.899	1.919	1.914	1.909
0.010	0.010	0.005	0.015	0.000	0.015	0.425	2.666	1.899	1.909	1.909	1.924	1.919	1.919
-0.005	0.000	-0.005	0.010	0.000	0.015	0.430	2.734	1.909	1.904	1.904	1.924	1.919	1.924
-0.005	0.005	0.000	0.005	0.000	-0.005	0.425	2.642	1.904	1.904	1.909	1.924	1.919	1.919
-0.005	0.005	0.000	0.000	0.000	0.000	0.435	2.642	1.904	1.904	1.909	1.924	1.919	1.919
-0.005	-0.005	-0.005	-0.005	-0.005	-0.015	0.435	2.656	1.899	1.899	1.904	1.924	1.919	1.914
0.000	0.005	0.000	0.000	0.005	0.015	0.430	2.666	1.899	1.904	1.904	1.924	1.924	1.929
-0.005	0.010	0.005	0.000	0.000	-0.005	0.430	2.729	1.909	1.904	1.904	1.924	1.919	1.919
-0.010	-0.005	0.005	0.000	0.000	0.010	0.420	2.690	1.909	1.899	1.899	1.924	1.919	1.924
0.000	0.000	0.005	0.000	0.005	0.005	0.435	2.671	1.909	1.904	1.899	1.924	1.919	1.919
-0.005	0.000	0.005	0.000	0.000	0.005	0.425	2.695	1.904	1.899	1.899	1.919	1.914	1.919
-0.005	0.015	0.000	0.005	0.005	0.005	0.439	2.686	1.904	1.904	1.899	1.919	1.914	1.919
-0.005	-0.005	0.000	0.005	0.005	-0.005	0.425	2.681	1.904	1.899	1.895	1.919	1.909	1.909
0.005	0.000	0.000	0.000	0.005	0.005	0.430	2.681	1.899	1.899	1.895	1.914	1.909	1.919
0.000	0.010	0.000	0.000	-0.005	0.000	0.430	2.690	1.904	1.899	1.895	1.914	1.909	1.909
0.015	0.000	0.005	0.000	0.000	0.015	0.430	2.700	1.909	1.899	1.899	1.914	1.914	1.914
0.010	0.000	0.005	0.005	0.000	0.015	0.430	2.686	1.909	1.904	1.904	1.919	1.909	1.914
0.015	-0.005	0.005	0.000	-0.005	0.005	0.430	2.681	1.909	1.904	1.899	1.919	1.909	1.909
0.010	-0.005	0.000	0.005	0.005	0.005	0.430	2.695	1.909	1.909	1.899	1.919	1.914	1.914
0.000	0.000	0.005	0.000	-0.005	0.005	0.425	2.676	1.909	1.909	1.899	1.919	1.914	1.914
0.000	-0.005	0.000	0.000	0.000	-0.010	0.420	2.710	1.914	1.909	1.904	1.924	1.914	1.909
0.000	0.005	0.000	0.000	0.000	0.000	0.430	2.676	1.909	1.914	1.904	1.919	1.919	1.919
0.000	0.005	0.005	0.000	0.010	-0.015	0.425	2.686	1.909	1.909	1.904	1.924	1.914	1.909
0.000	0.000	0.000	0.000	0.000	0.010	0.430	2.705	1.909	1.909	1.904	1.924	1.919	1.924
-0.005	-0.005	0.000	0.000	0.005	0.010	0.435	2.681	1.904	1.904	1.904	1.924	1.919	1.919
-0.010	0.000	0.000	0.000	0.000	-0.005	0.435	2.700	1.904	1.904	1.904	1.924	1.914	1.919
-0.005	0.005	0.005	0.000	0.005	0.005	0.425	2.710	1.909	1.904	1.904	1.919	1.919	1.914
-0.005	0.005	0.000	0.000	0.005	0.010	0.425	2.700	1.904	1.904	1.904	1.919	1.919	1.919
-0.010	0.005	0.000	0.000	0.000	0.000	0.430	2.700	1.899	1.899	1.899	1.919	1.914	1.914
-0.020	0.010	0.000	0.005	0.000	-0.020	0.430	2.686	1.895	1.899	1.899	1.919	1.914	1.909
-0.015	-0.005	0.005	0.005	0.000	-0.005	0.435	2.690	1.899	1.895	1.895	1.914	1.914	1.909
-0.005	-0.005	0.005	0.005	0.005	-0.020	0.425	2.690	1.904	1.895	1.895	1.919	1.909	1.909
0.005	0.000	0.005	0.005	0.000	-0.010	0.435	2.798	1.919	1.899	1.895	1.919	1.909	1.909
0.010	-0.010	0.005	0.005	-0.005	0.010	0.430	2.656	1.914	1.904	1.899	1.914	1.909	1.919
0.015	0.000	0.005	0.000	-0.005	-0.015	0.425	2.710	1.914	1.909	1.904	1.919	1.909	1.914
0.024	0.005	0.000	0.005	-0.005	0.015	0.430	2.793	1.914	1.914	1.904	1.919	1.914	1.919
0.034	0.005	0.005	0.005	0.000	0.000	0.430	2.642	1.909	1.914	1.909	1.924	1.919	1.914
0.024	0.005	-0.005	0.000	0.000	0.024	0.439	2.666	1.909	1.914	1.909	1.924	1.919	1.919
0.020	0.010	0.000	0.000	-0.005	0.020	0.430	2.739	1.914	1.914	1.909	1.929	1.919	1.924
0.015	0.000	0.000	0.000	0.005	-0.015	0.430	2.686	1.909	1.909	1.909	1.929	1.919	1.909
0.005	0.000	0.000	0.000	0.005	0.015	0.435	2.749	1.914	1.909	1.909	1.924	1.924	1.924
-0.005	0.000	0.000	0.000	0.000	0.010	0.430	2.676	1.909	1.909	1.909	1.924	1.919	1.919
-0.020	0.005	0.000	0.000	0.000	0.015	0.435	2.749	1.904	1.904	1.904	1.924	1.919	1.924
0.000	0.005	0.000	0.000	0.000	-0.010	0.435	2.739	1.919	1.909	1.904	1.924	1.919	1.919
-0.015	0.010	0.005	-0.005	0.000	0.005	0.430	2.744	1.914	1.909	1.904	1.919	1.914	1.914
-0.010	0.010	0.005	0.000	0.005	-0.005	0.425	2.759	1.919	1.909	1.909	1.924	1.919	1.914
-0.010	-0.005	0.005	-0.005	0.000	-0.015	0.430	2.637	1.909	1.904	1.904	1.924	1.914	1.909
0.000	0.000	0.005	0.000	0.000	0.010	0.430	2.642	1.914	1.909	1.909	1.919	1.914	1.919
-0.015	-0.010	0.010	0.005	0.000	0.000	0.435	2.671	1.904	1.899	1.904	1.924	1.919	1.919
-0.005	-0.005	0.005	0.005	0.000	0.005	0.430	2.686	1.909	1.904	1.904	1.924	1.919	1.919
0.000	0.000	0.005	0.000	0.005	-0.015	0.435	2.710	1.914	1.909	1.904	1.924	1.919	1.909
0.005	-0.005	0.005	0.000	0.005	-0.005	0.435	2.700	1.914	1.909	1.909	1.924	1.924	1.919
0.010	-0.005	0.005	0.000	0.005	-0.024	0.435	2.700	1.914	1.914	1.909	1.924	1.919	1.914
0.005	-0.005	0.005	0.005	-0.005	0.000	0.425	2.681	1.909	1.909	1.909	1.924	1.919	1.924
0.000	0.010	0.000	0.000	0.000	0.015	0.430	2.690	1.909	1.919	1.914	1.929	1.924	1.929
0.005	-0.005	0.005	0.000	0.000	0.020	0.435	2.681	1.909	1.914	1.909	1.929	1.924	1.929
0.005	-0.005	-0.005	0.000	0.000	0.010	0.430	2.671	1.904	1.909	1.909	1.929	1.924	1.924
0.000	0.005	-0.005	0.000	0.010	0.010	0.425	2.686	1.904	1.904	1.909	1.929	1.924	1.929
-0.005	0.000	0.000	0.000	0.005	0.005	0.430	2.671	1.904	1.904	1.904	1.924	1.924	1.924
-0.005	0.010	0.000	0.000	0.000	-0.005	0.435	2.686	1.904	1.904	1.904	1.924	1.919	1.919
-0.005	0.005	0.000	0.000	0.000	0.015	0.420	2.710	1.909	1.899	1.904	1.924	1.919	1.924
0.005	0.000	0.000	0.000	0.000	0.000	0.430	2.676	1.904	1.899	1.899	1.919	1.919	1.919
-0.005	0.000	0.000	0.000	0.005	-0.005	0.425	2.681	1.899	1.899	1.899	1.919	1.914	1.914
0.000	-0.005	0.005	0.000	0.005	0.005	0.430	2.686	1.899	1.895	1.899	1.919	1.919	1.914
0.000	0.000	0.005	0.005	0.000	0.000	0.425	2.700	1.904	1.899	1.899	1.919	1.914	1.919
0.015	0.000	0.005	0.005	0.010	-0.024	0.435	2.700	1.909	1.899	1.899	1.919	1.914	1.909
0.000	0.015	0.005	0.000	0.000	0.010	0.430	2.700	1.904	1.899	1.899	1.919	1.914	1.924
0.005	-0.005	0.005	0.005	0.000	0.010	0.439	2.715	1.909	1.899	1.899	1.919	1.914	1.914
0.000	0.000	0.000	0.005	0.000	0.000	0.425	2.700	1.909	1.904	1.904	1.919	1.914	1.919
-0.005	0.010	0.000	0.000	-0.005	0.005	0.435	2.710	1.919	1.914	1.904	1.919	1.914	1.919
0.005	-0.005	0.000	0.000	-0.005	0.010	0.430	2.695	1.914	1.909	1.904	1.919	1.914	1.919
-0.005	0.010	0.000	0.000	0.000	-0.024	0.435	2.686	1.909	1.914	1.909	1.924	1.919	1.909
0.000	0.000	0.005	0.000	0.000	0.005	0.430	2.642	1.909	1.904	1.909	1.929	1.919	1.919
-0.010	-0.005	0.005	0.000	0.010	0.005	0.435	2.676	1.904	1.904	1.909	1.929	1.919	1.919
0.000	0.010	0.005	0.000	0.000	-0.005	0.430	2.690	1.909	1.909	1.904	1.924	1.919	1.914
0.005	0.000	0.005	0.005	0.005	0.005	0.430	2.793	1.919	1.909	1.904	1.924	1.919	1.919
0.005	0.000	0.000	0.010	0.000	0.005	0.435	2.739	1.919	1.909	1.904	1.924	1.919	1.919
0.015	0.005	-0.005	0.010	0.000	0.010	0.435	2.671	1.919	1.914	1.904	1.924	1.919	1.919
0.005	0.000	0.000	0.000	0.000	0.005	0.425	2.739	1.914	1.909	1.904	1.919	1.914	1.919
0.005	0.000	0.000	0.005	0.000	0.005	0.435	2.686	1.909	1.904	1.904	1.924	1.914	1.914
-0.005	0.005	0.005	0.005	0.005	0.010	0.435	2.646	1.904	1.904	1.904	1.924	1.914	1.914
0.000	0.005	0.000	0.005	0.005	0.015	0.430	2.700	1.914	1.904	1.904	1.919	1.919	1.919
0.000	0.000	0.000	0.005	-0.005	-0.015	0.430	2.729	1.914	1.909	1.904	1.924	1.914	1.904
0.000	0.005	0.000	0.000	-0.005	0.000	0.435	2.646	1.909	1.909	1.909	1.924	1.919	1.914
0.005	0.005	0.000	0.000	0.005	0.010	0.435	2.739	1.919	1.909	1.909	1.924	1.919	1.924
0.005	0.000	0.000	0.005	-0.010	0.005	0.430	2.666	1.914	1.909	1.909	1.924	1.919	1.919
0.005	0.000	0.000	-0.005	0.000	0.000	0.435	2.734	1.919	1.914	1.909	1.924	1.924	1.919
0.010	-0.005	0.000	0.005	0.000	0.000	0.430	2.720	1.909	1.909	1.909	1.929	1.924	1.919
0.000	0.000	0.000	0.005	0.000	-0.015	0.430	2.686	1.904	1.909	1.909	1.929	1.924	1.919
-0.015	0.000	-0.005	0.005	0.010	-0.034	0.425	2.686	1.899	1.909	1.909	1.929	1.924	1.914
-0.015	0.000	0.000	-0.005	0.005	0.000	0.430	2.681	1.899	1.904	1.909	1.929	1.924	1.929
-0.005	0.000	0.000	0.000	-0.005	0.005	0.420	2.686	1.904	1.904	1.904	1.929	1.924	1.929
-0.015	0.000	0.000	0.000	0.005	0.000	0.430	2.681	1.899	1.904	1.904	1.924	1.924	1.924
0.000	0.005	0.000	0.000	0.005	0.000	0.425	2.690	1.904	1.899	1.899	1.919	1.919	1.924
-0.005	0.010	0.005	0.000	0.005	0.005	0.425	2.690	1.904	1.904	1.899	1.924	1.924	1.924
-0.005	0.000	0.010	0.000	0.005	0.005	0.425	2.700	1.909	1.904	1.899	1.919	1.919	1.919
0.000	0.000	0.000	0.000	0.005	-0.020	0.435	2.676	1.904	1.899	1.899	1.914	1.914	1.914
0.010	-0.010	0.000	0.000	0.005	0.010	0.425	2.686	1.904	1.895	1.895	1.914	1.914	1.919
0.029	0.005	0.005	-0.005	0.005	0.005	0.430	2.686	1.909	1.904	1.899	1.914	1.914	1.914
0.029	-0.005	0.000	0.005	0.000	-0.005	0.425	2.676	1.909	1.904	1.899	1.919	1.914	1.909
0.029	0.000	0.005	0.000	0.000	-0.015	0.420	2.700	1.909	1.909	1.904	1.919	1.909	1.909
0.020	0.005	0.000	0.005	0.005	0.005	0.425	2.695	1.909	1.909	1.904	1.919	1.919	1.919
0.020	0.005	0.000	0.005	0.000	-0.020	0.430	2.681	1.909	1.909	1.904	1.924	1.914	1.914
0.020	0.005	0.005	0.005	0.000	0.005	0.430	2.710	1.914	1.909	1.909	1.924	1.919	1.919
0.010	0.010	0.000	0.005	0.000	0.020	0.430	2.681	1.904	1.909	1.909	1.929	1.919	1.929
-0.005	0.015	-0.005	0.005	0.000	0.049	0.435	2.705	1.904	1.909	1.909	1.924	1.924	1.934
-0.010	0.005	0.000	0.000	-0.005	0.049	0.425	2.690	1.904	1.904	1.909	1.924	1.924	1.929
-0.015	-0.005	0.000	0.000	-0.005	0.054	0.425	2.700	1.909	1.904	1.909	1.924	1.919	1.929
-0.024	0.000	0.000	0.000	0.000	0.049	0.430	2.686	1.904	1.904	1.904	1.924	1.919	1.924
-0.020	0.000	0.010	0.000	0.005	0.034	0.439	2.700	1.909	1.904	1.904	1.924	1.919	1.914
-0.005	-0.005	0.000	0.000	0.005	0.029	0.425	2.700	1.909	1.904	1.899	1.919	1.919	1.919
-0.005	-0.005	0.005	0.000	0.005	0.020	0.430	2.700	1.909	1.904	1.899	1.919	1.914	1.909
0.005	0.010	0.005	0.000	0.005	0.000	0.425	2.642	1.904	1.904	1.899	1.919	1.914	1.904
0.005	0.005	0.000	0.000	0.005	-0.020	0.430	2.671	1.904	1.904	1.899	1.919	1.909	1.904
0.010	0.005	0.000	0.000	0.005	-0.063	0.430	2.690	1.899	1.899	1.899	1.914	1.909	1.890
0.005	0.000	0.005	0.000	0.005	-0.024	0.430	2.803	1.909	1.899	1.899	1.919	1.914	1.909
0.015	0.000	0.005	0.005	0.005	-0.029	0.430	2.744	1.919	1.909	1.899	1.919	1.914	1.909
0.010	0.000	0.005	0.000	0.000	-0.015	0.430	2.690	1.914	1.909	1.899	1.919	1.914	1.919
0.005	-0.010	0.000	0.005	0.000	-0.020	0.430	2.651	1.904	1.909	1.904	1.919	1.919	1.919
0.005	0.000	0.005	0.005	-0.005	-0.034	0.435	2.695	1.909	1.909	1.909	1.924	1.914	1.914
0.005	-0.010	0.000	0.005	-0.005	0.000	0.425	2.651	1.904	1.904	1.904	1.924	1.919	1.924
0.005	-0.010	0.000	0.000	-0.005	-0.020	0.435	2.656	1.924	1.909	1.904	1.924	1.919	1.919
-0.010	0.000	0.005	-0.005	0.000	0.005	0.425	2.734	1.919	1.914	1.909	1.924	1.919	1.924
-0.010	0.000	0.000	0.000	0.000	-0.005	0.435	2.651	1.909	1.909	1.909	1.929	1.919	1.919
0.005	-0.005	0.005	0.005	-0.005	-0.024	0.425	2.651	1.909	1.914	1.909	1.924	1.919	1.914
-0.005	0.005	-0.005	0.000	-0.005	-0.024	0.430	2.632	1.899	1.909	1.909	1.924	1.919	1.919
-0.020	0.010	0.000	0.000	-0.005	0.010	0.425	2.651	1.895	1.899	1.904	1.924	1.919	1.924
-0.005	-0.005	-0.005	-0.005	-0.005	0.020	0.430	2.734	1.904	1.899	1.899	1.919	1.919	1.924
-0.010	0.005	0.000	0.000	0.000	0.029	0.435	2.686	1.904	1.899	1.899	1.919	1.919	1.924
0.000	0.000	0.000	0.000	0.000	0.020	0.435	2.676	1.899	1.899	1.899	1.919	1.914	1.924
0.020	0.005	0.000	0.005	0.005	0.020	0.425	2.686	1.904	1.904	1.899	1.919	1.914	1.914
0.020	0.000	0.000	0.000	0.015	0.000	0.435	2.686	1.909	1.904	1.899	1.919	1.919	1.914
0.010	0.005	0.000	0.005	0.010	0.005	0.425	2.681	1.904	1.904	1.899	1.919	1.914	1.914
0.015	0.000	0.000	0.005	0.005	0.005	0.435	2.705	1.909	1.904	1.899	1.919	1.914	1.914
0.015	0.000	0.000	0.005	0.000	0.005	0.425	2.681	1.909	1.904	1.899	1.919	1.914	1.919
0.000	0.000	0.000	0.000	0.000	-0.010	0.430	2.686	1.909	1.904	1.904	1.919	1.914	1.909
0.000	0.000	0.005	0.000	0.010	-0.005	0.430	2.686	1.904	1.909	1.909	1.924	1.919	1.914
0.000	0.000	0.000	0.000	0.005	-0.010	0.430	2.686	1.904	1.909	1.904	1.924	1.919	1.914
-0.005	0.000	0.000	0.005	0.000	-0.034	0.430	2.686	1.904	1.904	1.904	1.924	1.914	1.909
-0.015	0.000	0.000	0.005	0.005	-0.020	0.430	2.671	1.904	1.904	1.904	1.924	1.919	1.919
-0.010	0.000	0.000	0.005	0.010	-0.034	0.435	2.686	1.904	1.904	1.904	1.924	1.919	1.919
-0.005	0.005	0.000	0.005	0.015	-0.005	0.425	2.686	1.899	1.904	1.904	1.924	1.919	1.924
-0.005	0.005	0.005	0.005	0.020	-0.015	0.439	2.690	1.904	1.904	1.904	1.919	1.919	1.919
-0.015	0.005	0.000	0.005	0.020	0.010	0.425	2.705	1.904	1.904	1.904	1.919	1.919	1.924
-0.020	0.005	0.005	0.005	0.015	0.024	0.439	2.676	1.899	1.899	1.899	1.919	1.914	1.924
-0.015	0.000	0.000	0.005	0.010	0.005	0.420	2.690	1.904	1.899	1.899	1.919	1.909	1.914
-0.005	0.000	0.000	0.000	0.005	0.029	0.439	2.705	1.904	1.899	1.895	1.914	1.909	1.919
0.005	-0.005	0.005	0.010	-0.010	0.020	0.425	2.690	1.909	1.899	1.899	1.919	1.904	1.914
0.005	0.005	0.005	0.000	-0.015	0.020	0.435	2.705	1.914	1.904	1.899	1.914	1.904	1.909
0.015	0.010	0.005	0.005	-0.015	0.024	0.425	2.690	1.909	1.904	1.899	1.919	1.909	1.914
0.015	0.005	0.005	0.005	-0.015	0.010	0.430	2.705	1.909	1.909	1.899	1.914	1.909	1.904
0.010	0.000	-0.005	0.000	-0.015	0.020	0.430	2.700	1.909	1.909	1.899	1.919	1.914	1.914
0.020	-0.005	0.000	0.005	-0.015	0.015	0.430	2.651	1.909	1.909	1.904	1.924	1.914	1.909
0.044	-0.005	-0.005	-0.005	-0.010	0.005	0.430	2.656	1.914	1.909	1.909	1.919	1.914	1.909
0.039	0.005	0.000	-0.005	-0.020	0.005	0.430	2.690	1.909	1.914	1.909	1.924	1.914	1.914
0.029	0.005	0.005	0.000	-0.020	0.010	0.430	2.803	1.924	1.914	1.909	1.929	1.914	1.914
0.024	0.000	0.000	-0.005	-0.024	0.005	0.430	2.734	1.919	1.914	1.909	1.929	1.919	1.914
-0.005	-0.005	-0.005	0.000	-0.010	-0.024	0.435	2.676	1.904	1.909	1.909	1.929	1.919	1.904
-0.015	0.000	-0.005	0.000	0.015	-0.010	0.430	2.739	1.909	1.904	1.909	1.929	1.929	1.914
-0.020	-0.005	0.000	0.005	0.015	-0.015	0.430	2.676	1.895	1.899	1.904	1.924	1.929	1.919
-0.020	-0.005	0.000	0.005	0.024	-0.024	0.430	2.661	1.895	1.899	1.904	1.924	1.924	1.914
-0.020	0.000	-0.005	0.005	0.024	-0.010	0.430	2.666	1.909	1.904	1.899	1.924	1.924	1.919
-0.005	0.000	0.000	0.005	0.024	-0.039	0.430	2.720	1.909	1.904	1.899	1.924	1.919	1.909
0.000	0.015	0.005	0.005	0.020	0.005	0.430	2.646	1.904	1.904	1.899	1.919	1.924	1.929
-0.005	0.005	0.005	0.005	0.010	-0.020	0.425	2.729	1.909	1.904	1.904	1.919	1.914	1.914
0.005	0.005	0.005	0.005	0.005	0.000	0.430	2.656	1.904	1.904	1.904	1.924	1.914	1.924
0.000	0.005	0.005	0.005	0.000	0.005	0.425	2.651	1.904	1.904	1.899	1.919	1.914	1.919
0.000	-0.005	0.005	0.005	-0.005	0.010	0.430	2.744	1.909	1.904	1.899	1.919	1.919	1.924
-0.005	0.000	0.005	0.005	0.010	0.005	0.425	2.686	1.909	1.904	1.904	1.924	1.919	1.924
0.000	0.000	0.000	0.005	0.005	0.000	0.435	2.690	1.914	1.904	1.904	1.919	1.919	1.919
0.000	0.005	0.000	0.000	0.000	0.020	0.420	2.690	1.909	1.914	1.909	1.924	1.919	1.929
0.005	0.005	0.005	0.000	0.010	0.020	0.435	2.686	1.914	1.909	1.909	1.924	1.924	1.924
0.010	0.010	0.000	0.000	0.010	0.010	0.425	2.690	1.909	1.914	1.909	1.924	1.919	1.924
-0.005	0.010	0.005	-0.005	0.010	0.015	0.435	2.681	1.909	1.909	1.909	1.924	1.919	1.919
0.000	0.000	0.000	0.000	-0.005	-0.005	0.425	2.705	1.909	1.909	1.904	1.924	1.914	1.914
-0.005	0.000	-0.005	0.000	0.005	0.010	0.435	2.686	1.904	1.904	1.904	1.924	1.919	1.919
-0.005	0.010	0.000	0.000	0.005	0.010	0.425	2.681	1.904	1.904	1.904	1.924	1.919	1.919
0.005	-0.024	0.000	0.005	-0.005	0.010	0.435	2.690	1.909	1.895	1.899	1.924	1.914	1.914
0.000	-0.015	-0.005	-0.005	-0.010	0.005	0.425	2.705	1.909	1.899	1.899	1.919	1.914	1.909
0.000	0.000	-0.005	0.000	0.005	0.010	0.430	2.686	1.904	1.904	1.899	1.919	1.914	1.914
0.010	0.005	0.005	0.000	0.005	0.005	0.430	2.710	1.909	1.909	1.904	1.919	1.914	1.914
0.010	0.010	0.000	0.000	0.000	-0.015	0.430	2.690	1.904	1.904	1.899	1.919	1.909	1.909
0.000	-0.005	0.005	0.000	-0.005	-0.015	0.425	2.690	1.904	1.899	1.904	1.919	1.909	1.909
-0.005	-0.005	0.005	0.000	-0.010	-0.024	0.430	2.710	1.904	1.904	1.899	1.919	1.909	1.904
-0.010	0.000	-0.005	0.000	0.000	-0.015	0.430	2.690	1.904	1.904	1.899	1.924	1.919	1.909
0.000	0.000	0.005	0.005	0.010	0.010	0.425	2.705	1.914	1.904	1.904	1.924	1.924	1.924
0.000	0.000	0.000	0.000	0.015	0.024	0.430	2.710	1.919	1.909	1.904	1.924	1.924	1.929
0.000	0.020	0.000	0.005	0.015	0.015	0.425	2.695	1.914	1.914	1.909	1.929	1.924	1.924
-0.005	0.010	0.005	0.000	0.015	0.020	0.435	2.710	1.919	1.914	1.909	1.924	1.919	1.924
0.005	0.010	0.000	0.000	-0.005	0.015	0.425	2.690	1.919	1.914	1.909	1.924	1.914	1.919
0.000	0.000	0.000	0.005	-0.010	0.010	0.435	2.695	1.914	1.909	1.909	1.929	1.914	1.919
-0.005	0.000	0.000	0.000	-0.010	-0.005	0.420	2.695	1.914	1.909	1.909	1.924	1.914	1.909
-0.010	0.020	0.005	0.000	0.005	0.015	0.430	2.651	1.904	1.909	1.909	1.924	1.919	1.919
0.000	0.010	0.000	0.005	0.005	0.020	0.425	2.656	1.899	1.904	1.904	1.924	1.924	1.924
0.010	0.015	0.000	0.005	0.000	-0.005	0.430	2.705	1.904	1.904	1.904	1.924	1.919	1.914
0.010	0.005	0.005	0.010	0.005	0.005	0.430	2.803	1.914	1.899	1.904	1.924	1.919	1.919
0.010	0.005	0.000	0.005	0.000	0.000	0.430	2.725	1.914	1.904	1.899	1.919	1.914	1.914
0.005	-0.005	0.000	0.005	0.005	0.000	0.425	2.676	1.904	1.899	1.899	1.919	1.919	1.914
0.000	0.000	0.000	-0.005	0.000	-0.005	0.435	2.661	1.904	1.904	1.899	1.919	1.914	1.914
0.010	0.000	0.000	0.000	0.000	-0.005	0.425	2.690	1.904	1.899	1.899	1.919	1.914	1.914
0.005	-0.005	0.005	0.000	-0.005	0.010	0.430	2.651	1.904	1.904	1.904	1.919	1.914	1.919
0.000	-0.005	0.000	0.005	0.005	-0.020	0.430	2.661	1.899	1.904	1.899	1.924	1.919	1.909
0.005	-0.005	0.000	0.000	0.005	0.000	0.430	2.754	1.909	1.904	1.899	1.924	1.919	1.914
0.000	-0.005	0.000	0.000	0.005	0.005	0.430	2.739	1.914	1.904	1.904	1.924	1.919	1.924
0.000	-0.010	0.005	0.005	0.000	0.010	0.425	2.686	1.919	1.909	1.904	1.924	1.919	1.924
-0.005	-0.010	0.010	-0.005	0.000	0.010	0.430	2.642	1.909	1.909	1.909	1.924	1.919	1.919
-0.010	-0.005	0.005	-0.005	0.000	0.010	0.425	2.642	1.899	1.909	1.909	1.924	1.919	1.924
0.000	-0.005	0.005	0.000	0.005	-0.005	0.435	2.744	1.914	1.909	1.909	1.924	1.919	1.914
-0.015	-0.005	0.005	0.000	0.000	0.000	0.430	2.686	1.904	1.909	1.904	1.924	1.919	1.919
-0.005	0.005	0.000	0.000	0.010	-0.015	0.435	2.705	1.909	1.909	1.909	1.924	1.919	1.914
0.005	0.015	0.000	0.000	0.010	-0.044	0.425	2.686	1.904	1.909	1.904	1.924	1.914	1.904
0.005	0.015	0.005	0.005	0.020	-0.020	0.430	2.686	1.904	1.904	1.904	1.924	1.919	1.914
-0.005	0.000	0.000	0.000	0.020	-0.015	0.425	2.686	1.899	1.895	1.899	1.919	1.919	1.914
0.000	0.000	0.005	0.000	0.024	-0.010	0.430	2.710	1.904	1.899	1.899	1.919	1.919	1.919
-0.005	0.005	0.005	0.000	0.034	0.000	0.435	2.681	1.904	1.899	1.899	1.919	1.919	1.924
0.010	-0.005	0.000	0.010	0.005	-0.020	0.435	2.686	1.904	1.895	1.895	1.919	1.909	1.914
0.005	0.000	-0.010	0.000	-0.005	0.005	0.425	2.690	1.904	1.899	1.895	1.919	1.909	1.919
0.000	-0.005	0.000	0.005	-0.024	0.049	0.435	2.700	1.909	1.899	1.899	1.914	1.909	1.924
0.015	0.000	0.000	0.015	-0.029	0.024	0.430	2.681	1.909	1.904	1.899	1.919	1.909	1.914
0.010	-0.010	0.000	0.005	-0.034	0.015	0.425	2.690	1.909	1.904	1.899	1.919	1.909	1.914
0.005	0.000	0.005	0.010	-0.044	0.024	0.420	2.705	1.909	1.909	1.904	1.924	1.909	1.914
0.005	0.005	0.005	-0.005	-0.034	0.044	0.425	2.686	1.909	1.909	1.904	1.924	1.914	1.919
0.015	0.010	0.010	0.000	-0.029	0.029	0.425	2.700	1.919	1.914	1.909	1.924	1.919	1.914
0.010	0.010	0.005	0.000	-0.010	0.024	0.430	2.700	1.909	1.914	1.909	1.924	1.924	1.919
0.015	0.010	0.010	0.005	0.000	0.000	0.420	2.705	1.909	1.909	1.914	1.929	1.924	1.914
0.000	0.015	0.010	0.005	-0.034	-0.024	0.435	2.705	1.909	1.909	1.909	1.929	1.914	1.904
-0.005	0.005	0.000	0.000	-0.039	-0.024	0.430	2.705	1.904	1.904	1.904	1.924	1.914	1.904
-0.010	-0.005	0.005	0.000	-0.039	-0.049	0.425	2.700	1.904	1.899	1.904	1.919	1.914	1.899
-0.005	0.000	-0.005	0.000	0.010	-0.015	0.430	2.695	1.899	1.899	1.899	1.924	1.934	1.919
0.000	0.000	0.000	0.000	0.044	-0.039	0.435	2.690	1.899	1.895	1.895	1.919	1.929	1.919
0.000	0.010	0.000	0.000	0.059	-0.020	0.430	2.681	1.899	1.904	1.899	1.919	1.934	1.929
0.005	0.010	0.000	-0.005	0.049	0.024	0.435	2.695	1.904	1.899	1.899	1.914	1.924	1.938
0.000	0.015	0.000	0.000	0.044	0.029	0.430	2.642	1.899	1.899	1.899	1.919	1.924	1.934
0.015	0.000	0.005	0.005	0.034	0.020	0.425	2.661	1.904	1.904	1.899	1.919	1.919	1.924
0.000	-0.005	0.000	0.000	0.024	0.015	0.425	2.705	1.904	1.899	1.895	1.914	1.909	1.919
-0.005	-0.005	0.005	0.000	0.010	0.015	0.430	2.808	1.924	1.899	1.899	1.919	1.909	1.919
0.000	-0.010	0.005	0.005	0.015	0.010	0.430	2.744	1.924	1.909	1.899	1.919	1.914	1.919
0.005	-0.005	0.000	0.005	0.000	0.005	0.425	2.686	1.924	1.919	1.904	1.919	1.909	1.914
-0.005	0.000	-0.005	0.000	-0.010	-0.010	0.435	2.734	1.919	1.919	1.909	1.924	1.909	1.909
0.000	0.000	0.005	0.005	0.000	-0.010	0.420	2.681	1.919	1.919	1.914	1.924	1.914	1.909
-0.005	-0.005	0.000	0.000	-0.010	-0.005	0.430	2.646	1.909	1.914	1.909	1.929	1.914	1.914
-0.005	-0.005	0.000	0.005	-0.010	0.000	0.425	2.656	1.914	1.919	1.909	1.924	1.919	1.914
-0.005	-0.005	-0.005	0.005	0.000	-0.005	0.435	2.720	1.909	1.914	1.909	1.929	1.919	1.919
-0.005	0.005	0.005	0.005	0.005	0.015	0.425	2.734	1.914	1.914	1.909	1.929	1.919	1.919
-0.010	0.005	0.005	0.005	0.005	-0.010	0.430	2.725	1.914	1.909	1.909	1.924	1.919	1.919
-0.005	-0.005	0.005	0.005	0.005	-0.005	0.425	2.627	1.904	1.909	1.909	1.924	1.919	1.919
-0.005	0.000	0.000	0.005	-0.005	-0.005	0.435	2.754	1.909	1.909	1.909	1.924	1.919	1.914
0.005	0.005	0.000	0.005	0.005	0.000	0.435	2.739	1.904	1.904	1.904	1.924	1.919	1.914
0.000	0.005	0.010	0.005	0.010	-0.005	0.435	2.686	1.904	1.904	1.904	1.924	1.919	1.919
0.000	0.010	0.000	0.005	0.020	-0.039	0.420	2.686	1.904	1.904	1.904	1.924	1.924	1.909
-0.015	0.000	0.005	0.000	0.015	0.000	0.425	2.705	1.904	1.904	1.904	1.924	1.919	1.924
0.010	0.000	0.000	0.000	-0.005	0.005	0.425	2.690	1.914	1.904	1.904	1.929	1.919	1.924
0.010	-0.005	0.000	0.000	0.000	0.015	0.430	2.686	1.909	1.909	1.904	1.924	1.919	1.924
0.010	0.010	0.005	0.000	0.000	0.015	0.430	2.690	1.914	1.909	1.909	1.924	1.924	1.924
0.000	0.005	0.010	0.000	-0.005	0.015	0.425	2.705	1.909	1.909	1.909	1.929	1.924	1.924
0.000	0.010	0.010	0.000	-0.005	0.005	0.430	2.700	1.914	1.914	1.909	1.929	1.919	1.919
0.010	0.000	0.000	-0.005	0.000	-0.015	0.425	2.690	1.914	1.909	1.904	1.924	1.919	1.914
0.010	0.000	0.000	0.005	0.000	-0.005	0.425	2.671	1.909	1.909	1.909	1.929	1.924	1.919
-0.005	0.010	0.005	0.005	-0.010	0.024	0.430	2.700	1.909	1.909	1.909	1.929	1.919	1.929
-0.010	0.000	0.005	0.000	-0.005	0.015	0.435	2.690	1.909	1.904	1.904	1.924	1.919	1.924
0.005	0.005	0.000	-0.005	0.000	0.005	0.430	2.686	1.909	1.909	1.904	1.924	1.919	1.919
0.000	0.005	0.000	0.000	0.005	0.000	0.435	2.686	1.904	1.909	1.904	1.919	1.919	1.919
-0.015	-0.005	0.005	0.000	-0.005	-0.010	0.420	2.695	1.899	1.895	1.899	1.919	1.914	1.909
-0.010	0.005	0.005	0.000	0.005	0.005	0.435	2.695	1.904	1.899	1.899	1.924	1.919	1.919
-0.005	0.000	0.000	0.000	0.005	0.005	0.435	2.705	1.904	1.904	1.899	1.919	1.914	1.919
0.000	0.000	0.000	0.005	0.010	0.005	0.439	2.705	1.914	1.904	1.899	1.919	1.919	1.919
0.000	0.000	0.000	0.000	0.010	0.000	0.425	2.686	1.909	1.904	1.899	1.919	1.919	1.919
-0.005	-0.010	0.000	0.005	0.010	0.005	0.430	2.686	1.909	1.904	1.899	1.919	1.919	1.914
0.010	0.000	0.000	0.000	0.005	0.015	0.425	2.705	1.914	1.909	1.904	1.919	1.914	1.924
0.010	-0.005	0.000	0.000	0.000	0.020	0.435	2.700	1.919	1.909	1.904	1.919	1.914	1.919
0.020	-0.005	0.005	0.005	0.000	0.000	0.430	2.700	1.919	1.914	1.909	1.924	1.919	1.914
0.020	0.000	0.005	0.005	0.005	0.005	0.435	2.695	1.919	1.919	1.909	1.929	1.924	1.914
0.020	-0.005	0.000	0.000	-0.005	0.010	0.425	2.783	1.924	1.919	1.914	1.929	1.919	1.919
0.020	-0.010	-0.005	0.005	-0.005	0.005	0.435	2.656	1.914	1.914	1.914	1.924	1.919	1.919
0.020	-0.005	0.005	0.000	-0.005	0.000	0.425	2.710	1.919	1.914	1.914	1.929	1.919	1.919
0.010	0.010	0.000	0.000	-0.029	0.005	0.425	2.783	1.924	1.919	1.914	1.924	1.914	1.914
0.010	0.005	0.005	0.000	-0.029	-0.029	0.430	2.642	1.904	1.914	1.914	1.929	1.914	1.904
-0.005	0.010	0.000	0.005	-0.020	0.000	0.435	2.681	1.899	1.909	1.914	1.929	1.919	1.914
-0.005	0.005	0.000	0.005	-0.024	0.005	0.430	2.729	1.904	1.909	1.904	1.929	1.919	1.919
-0.005	0.015	0.000	0.010	-0.015	-0.005	0.435	2.681	1.904	1.904	1.904	1.929	1.919	1.914
-0.015	0.010	0.000	0.005	0.020	0.000	0.430	2.729	1.904	1.899	1.904	1.924	1.929	1.924
-0.010	0.010	-0.005	0.000	0.029	0.000	0.435	2.651	1.899	1.899	1.904	1.924	1.929	1.929
-0.005	0.015	0.005	0.000	0.024	0.010	0.435	2.744	1.914	1.904	1.904	1.924	1.924	1.929
-0.005	0.005	0.005	0.005	0.015	0.000	0.435	2.642	1.919	1.909	1.904	1.924	1.919	1.919
-0.005	0.000	0.000	0.000	0.005	-0.005	0.425	2.759	1.924	1.909	1.904	1.924	1.919	1.919
0.000	0.000	0.005	0.000	0.015	0.005	0.430	2.754	1.929	1.919	1.909	1.924	1.919	1.924
0.000	0.005	0.005	0.000	0.010	0.005	0.430	2.754	1.934	1.919	1.914	1.924	1.919	1.924
0.000	0.000	0.000	0.005	-0.005	0.005	0.430	2.651	1.924	1.924	1.914	1.929	1.919	1.924
-0.005	0.005	0.005	0.010	-0.010	0.005	0.439	2.676	1.919	1.924	1.914	1.934	1.919	1.924
-0.005	0.010	0.000	0.000	0.000	-0.005	0.425	2.695	1.919	1.924	1.919	1.934	1.924	1.919
0.010	0.005	0.005	0.000	0.010	0.005	0.430	2.681	1.914	1.919	1.919	1.934	1.929	1.924
0.005	-0.005	0.000	0.005	0.015	0.000	0.430	2.676	1.909	1.914	1.919	1.934	1.929	1.929
0.000	0.000	0.010	0.005	0.005	0.005	0.430	2.710	1.909	1.914	1.914	1.934	1.929	1.924
-0.005	0.000	0.005	0.005	0.000	0.005	0.435	2.690	1.909	1.909	1.914	1.929	1.924	1.929
-0.005	-0.010	0.000	0.000	0.000	0.010	0.430	2.686	1.904	1.899	1.909	1.929	1.919	1.924
-0.010	-0.005	0.005	0.000	-0.005	0.015	0.430	2.695	1.904	1.904	1.904	1.929	1.924	1.924
0.000	-0.005	0.005	0.000	0.005	0.005	0.435	2.690	1.904	1.904	1.904	1.924	1.924	1.924
0.000	0.000	0.005	0.000	0.000	0.015	0.425	2.695	1.904	1.904	1.899	1.924	1.919	1.919
0.000	0.005	-0.005	0.000	-0.005	0.010	0.435	2.705	1.909	1.904	1.899	1.924	1.919	1.919
0.010	0.000	0.000	0.000	-0.015	0.010	0.430	2.700	1.909	1.904	1.904	1.919	1.914	1.919
0.015	0.000	0.000	0.000	0.005	0.000	0.435	2.686	1.914	1.909	1.904	1.924	1.924	1.919
0.010	0.010	-0.005	0.000	0.010	0.000	0.435	2.690	1.914	1.909	1.909	1.929	1.919	1.919
0.000	0.010	0.000	0.000	-0.010	0.000	0.430	2.695	1.914	1.914	1.909	1.929	1.919	1.919
-0.005	0.000	0.005	0.005	-0.005	-0.005	0.430	2.686	1.909	1.909	1.909	1.924	1.924	1.919
0.010	0.000	0.005	0.000	0.000	-0.029	0.430	2.681	1.909	1.909	1.909	1.929	1.919	1.914
0.000	0.000	0.000	0.005	0.005	0.015	0.425	2.710	1.914	1.914	1.909	1.929	1.929	1.929
0.000	0.005	0.005	0.005	0.005	0.010	0.430	2.715	1.914	1.909	1.909	1.929	1.929	1.924
0.005	-0.005	0.005	0.000	0.000	0.005	0.435	2.705	1.914	1.909	1.914	1.929	1.924	1.929
0.005	0.010	0.000	0.000	0.020	0.000	0.430	2.681	1.909	1.914	1.909	1.929	1.929	1.924
-0.005	0.000	0.005	-0.005	-0.005	0.015	0.435	2.715	1.909	1.909	1.909	1.929	1.919	1.924
0.005	-0.005	0.005	0.000	-0.015	0.000	0.430	2.686	1.909	1.904	1.904	1.924	1.914	1.919
0.005	-0.010	0.005	0.000	-0.005	0.000	0.430	2.690	1.904	1.899	1.904	1.919	1.919	1.919
-0.005	-0.010	0.000	0.000	0.015	-0.015	0.425	2.646	1.899	1.899	1.899	1.919	1.919	1.919
-0.005	0.005	0.005	0.005	0.024	0.015	0.435	2.661	1.895	1.899	1.899	1.919	1.924	1.924
0.000	-0.005	0.005	0.000	0.020	0.015	0.425	2.686	1.904	1.899	1.899	1.919	1.919	1.919
-0.005	0.000	0.000	0.000	0.029	0.005	0.430	2.798	1.914	1.904	1.899	1.919	1.919	1.919
0.010	0.005	0.000	0.000	0.015	-0.015	0.430	2.734	1.924	1.904	1.899	1.919	1.914	1.914
0.015	0.010	0.000	0.005	-0.005	0.010	0.430	2.695	1.924	1.914	1.904	1.919	1.909	1.919
0.010	0.005	0.000	0.005	-0.005	0.010	0.425	2.754	1.924	1.914	1.909	1.924	1.914	1.919
0.010	0.000	0.000	0.000	-0.005	0.010	0.430	2.681	1.919	1.914	1.909	1.924	1.919	1.924
0.010	0.000	0.000	0.005	0.015	0.005	0.430	2.661	1.914	1.919	1.914	1.924	1.924	1.924
0.015	0.010	-0.005	0.010	0.005	-0.029	0.425	2.671	1.909	1.919	1.914	1.929	1.924	1.914
0.005	-0.005	0.005	0.000	0.005	-0.005	0.425	2.734	1.914	1.914	1.914	1.929	1.924	1.919
0.000	0.010	0.000	0.000	-0.005	-0.020	0.435	2.739	1.914	1.914	1.914	1.929	1.919	1.919
-0.005	0.005	0.005	0.005	-0.010	-0.005	0.425	2.632	1.919	1.914	1.914	1.934	1.919	1.919
-0.010	0.010	0.000	0.000	0.000	-0.034	0.435	2.627	1.904	1.909	1.914	1.929	1.919	1.914
-0.005	0.005	0.000	0.000	0.010	-0.020	0.430	2.739	1.909	1.909	1.909	1.929	1.924	1.924
-0.005	0.010	0.000	0.000	0.000	-0.010	0.430	2.734	1.914	1.909	1.909	1.929	1.924	1.924
-0.005	-0.005	0.005	0.005	0.000	0.020	0.430	2.681	1.909	1.899	1.904	1.924	1.924	1.924
0.010	-0.024	0.005	0.000	-0.005	0.010	0.430	2.690	1.909	1.899	1.899	1.924	1.919	1.924
0.000	-0.005	0.005	0.000	-0.015	0.015	0.430	2.690	1.904	1.909	1.899	1.924	1.914	1.924
-0.005	-0.005	0.000	0.000	-0.010	0.015	0.430	2.681	1.904	1.909	1.899	1.924	1.919	1.919
-0.005	-0.010	0.005	0.000	0.005	0.049	0.430	2.686	1.904	1.904	1.899	1.919	1.919	1.929
0.005	-0.005	0.005	0.000	0.000	0.044	0.435	2.700	1.909	1.909	1.904	1.919	1.919	1.929
-0.005	0.000	0.005	0.000	-0.005	0.044	0.425	2.700	1.909	1.909	1.904	1.924	1.919	1.924
0.000	0.005	0.000	0.000	-0.020	0.020	0.430	2.690	1.914	1.914	1.909	1.924	1.914	1.919
0.005	0.005	0.000	0.000	-0.039	0.005	0.430	2.690	1.914	1.914	1.909	1.924	1.909	1.909
-0.005	0.015	0.000	0.000	-0.039	-0.029	0.420	2.681	1.914	1.914	1.909	1.924	1.914	1.904
0.000	0.000	0.000	0.000	-0.010	-0.015	0.435	2.700	1.909	1.909	1.909	1.929	1.924	1.914
0.000	0.005	0.005	0.000	-0.005	-0.015	0.425	2.686	1.904	1.909	1.909	1.929	1.924	1.919
0.005	0.005	0.000	0.000	0.010	-0.020	0.435	2.700	1.909	1.909	1.909	1.929	1.929	1.924
0.000	0.010	0.000	0.000	0.015	0.000	0.420	2.686	1.909	1.909	1.909	1.929	1.929	1.929
-0.005	0.024	0.000	0.000	0.015	0.000	0.430	2.705	1.904	1.909	1.909	1.929	1.924	1.929
-0.015	0.015	0.000	0.000	0.000	0.010	0.430	2.710	1.904	1.904	1.904	1.924	1.924	1.929
-0.020	0.020	-0.005	0.000	0.010	-0.005	0.430	2.686	1.904	1.904	1.904	1.924	1.924	1.919
-0.020	0.015	0.005	0.005	0.010	-0.015	0.435	2.705	1.909	1.899	1.904	1.924	1.919	1.919
-0.015	0.005	0.000	0.000	0.005	-0.034	0.425	2.686	1.904	1.899	1.899	1.919	1.919	1.914
0.000	0.005	0.000	0.000	0.005	-0.005	0.430	2.686	1.909	1.895	1.899	1.919	1.914	1.919
0.000	0.000	0.005	0.005	0.005	-0.024	0.425	2.695	1.904	1.899	1.895	1.919	1.914	1.914
0.005	-0.005	0.005	0.000	0.005	-0.005	0.430	2.710	1.914	1.904	1.899	1.919	1.914	1.924
0.015	0.005	0.000	0.005	-0.005	0.000	0.430	2.700	1.914	1.909	1.899	1.919	1.914	1.919
0.024	0.000	0.005	0.005	0.000	-0.005	0.425	2.695	1.919	1.909	1.904	1.919	1.914	1.919
0.029	0.005	0.000	0.005	0.005	-0.010	0.435	2.651	1.914	1.914	1.909	1.924	1.919	1.919
0.044	-0.005	0.000	0.010	0.015	0.020	0.425	2.671	1.914	1.909	1.909	1.924	1.924	1.929
0.039	0.005	0.005	0.010	0.024	0.024	0.435	2.700	1.914	1.914	1.914	1.924	1.929	1.929
0.024	0.000	0.005	0.015	0.029	0.029	0.430	2.788	1.924	1.919	1.914	1.929	1.929	1.929
0.029	0.000	-0.005	0.005	0.029	0.000	0.430	2.729	1.919	1.914	1.909	1.929	1.924	1.919
0.000	-0.005	0.000	0.000	0.020	0.024	0.425	2.705	1.914	1.914	1.909	1.929	1.924	1.934
0.000	0.000	0.000	0.000	0.015	0.024	0.425	2.651	1.909	1.914	1.909	1.929	1.924	1.924
0.000	0.000	0.000	0.005	0.029	0.034	0.430	2.676	1.904	1.909	1.909	1.929	1.924	1.929
-0.005	0.000	0.000	0.000	0.029	0.024	0.430	2.744	1.909	1.904	1.909	1.924	1.919	1.929
-0.029	-0.010	0.000	0.005	0.015	0.034	0.425	2.681	1.899	1.899	1.904	1.924	1.919	1.924
-0.020	0.000	0.005	0.005	0.010	0.020	0.425	2.744	1.909	1.904	1.899	1.924	1.914	1.914
-0.029	-0.005	0.005	0.000	0.010	0.005	0.430	2.642	1.899	1.899	1.899	1.919	1.914	1.909
-0.039	-0.005	0.000	0.005	0.000	-0.005	0.430	2.666	1.890	1.895	1.895	1.919	1.909	1.904
-0.029	-0.005	-0.005	0.000	0.005	-0.005	0.435	2.651	1.895	1.895	1.899	1.919	1.914	1.909
-0.015	-0.005	0.000	0.005	0.010	0.020	0.425	2.632	1.895	1.895	1.895	1.919	1.919	1.919
0.000	-0.005	-0.005	0.005	0.010	0.024	0.435	2.734	1.914	1.899	1.899	1.914	1.909	1.919
0.000	0.000	-0.005	0.005	0.005	0.010	0.425	2.690	1.909	1.904	1.904	1.919	1.914	1.914
0.010	-0.005	0.005	0.005	0.005	0.010	0.430	2.705	1.914	1.909	1.904	1.919	1.914	1.914
0.020	-0.005	0.005	0.000	0.000	0.010	0.430	2.710	1.919	1.909	1.909	1.924	1.914	1.919
0.010	-0.005	0.010	0.005	0.000	0.010	0.430	2.686	1.914	1.914	1.909	1.924	1.919	1.914
0.000	0.000	0.005	-0.005	-0.005	0.010	0.430	2.690	1.914	1.914	1.909	1.924	1.919	1.914
0.000	0.015	0.005	0.000	-0.005	0.005	0.430	2.690	1.909	1.919	1.909	1.929	1.919	1.914
0.010	0.010	0.010	0.000	-0.015	0.000	0.430	2.690	1.914	1.914	1.914	1.929	1.914	1.914
0.005	-0.005	0.010	0.000	-0.010	0.000	0.435	2.686	1.909	1.909	1.909	1.924	1.919	1.914
0.005	0.000	0.005	0.000	-0.015	0.000	0.425	2.695	1.904	1.904	1.904	1.924	1.914	1.914
0.000	-0.005	0.005	0.000	-0.015	0.000	0.435	2.690	1.904	1.904	1.904	1.924	1.914	1.914
0.010	-0.005	0.000	0.000	-0.010	0.000	0.420	2.681	1.899	1.899	1.899	1.919	1.914	1.914
-0.010	0.005	0.005	0.005	-0.010	0.000	0.435	2.681	1.895	1.899	1.899	1.924	1.914	1.914
0.000	0.010	-0.005	0.010	-0.010	-0.005	0.425	2.700	1.899	1.899	1.895	1.924	1.914	1.914
0.005	0.005	-0.005	0.005	-0.010	-0.005	0.435	2.686	1.904	1.899	1.895	1.919	1.914	1.914
0.005	0.015	0.000	0.005	-0.005	-0.005	0.425	2.695	1.904	1.904	1.899	1.919	1.914	1.914
0.000	0.010	-0.005	0.005	-0.010	-0.015	0.435	2.705	1.904	1.899	1.899	1.914	1.914	1.909
0.000	0.010	0.000	0.000	-0.010	0.000	0.425	2.710	1.909	1.904	1.899	1.919	1.914	1.914
-0.005	0.000	0.005	0.000	-0.010	-0.015	0.425	2.705	1.909	1.904	1.904	1.919	1.914	1.914
0.000	0.010	0.005	0.005	-0.005	-0.005	0.430	2.681	1.914	1.909	1.904	1.924	1.919	1.919
-0.015	0.005	0.005	0.000	0.000	-0.015	0.430	2.695	1.909	1.909	1.909	1.924	1.919	1.919
-0.010	0.010	0.005	0.005	-0.005	0.000	0.439	2.705	1.914	1.909	1.909	1.929	1.919	1.924
-0.005	0.000	0.005	0.000	0.000	-0.010	0.420	2.705	1.919	1.909	1.909	1.924	1.924	1.919
0.000	-0.005	0.005	0.000	0.000	0.000	0.435	2.695	1.914	1.909	1.909	1.924	1.924	1.924
0.000	0.010	0.005	-0.005	0.010	0.005	0.425	2.695	1.914	1.914	1.909	1.924	1.924	1.924
0.000	0.005	0.005	-0.005	0.000	-0.024	0.430	2.651	1.904	1.909	1.909	1.924	1.919	1.909
0.005	-0.005	0.000	0.000	0.005	-0.005	0.425	2.656	1.904	1.904	1.904	1.924	1.919	1.924
-0.005	-0.005	0.000	-0.005	0.005	0.010	0.435	2.695	1.904	1.899	1.899	1.919	1.919	1.924
0.010	0.000	0.000	0.005	0.005	0.015	0.425	2.798	1.919	1.899	1.904	1.924	1.919	1.924
0.029	-0.005	0.000	0.000	0.005	0.015	0.430	2.725	1.924	1.909	1.899	1.919	1.914	1.914
0.015	0.000	0.005	-0.005	-0.005	0.005	0.430	2.695	1.914	1.904	1.904	1.919	1.914	1.914
0.005	-0.010	0.000	-0.005	0.000	-0.024	0.430	2.656	1.904	1.904	1.899	1.919	1.914	1.904
0.005	-0.005	0.000	-0.005	0.010	-0.005	0.430	2.681	1.899	1.904	1.904	1.919	1.914	1.919
-0.005	-0.005	0.000	0.000	0.010	-0.024	0.435	2.744	1.904	1.904	1.904	1.919	1.914	1.909
-0.005	0.000	0.005	0.000	0.000	-0.020	0.430	2.681	1.909	1.904	1.904	1.919	1.914	1.909
0.000	0.005	-0.005	0.005	-0.005	0.005	0.430	2.749	1.919	1.914	1.909	1.924	1.919	1.919
-0.005	0.010	0.000	0.000	0.000	0.015	0.425	2.744	1.924	1.919	1.909	1.929	1.919	1.924
0.000	0.005	0.000	0.005	0.005	0.020	0.435	2.656	1.914	1.914	1.914	1.929	1.924	1.924
0.010	0.005	0.000	0.005	0.015	-0.024	0.425	2.637	1.909	1.914	1.909	1.929	1.924	1.914
0.010	0.005	0.005	0.000	0.010	0.010	0.420	2.734	1.919	1.914	1.909	1.929	1.924	1.924
0.010	0.000	0.000	0.005	0.005	-0.005	0.430	2.734	1.924	1.914	1.914	1.929	1.924	1.924
0.015	0.005	0.000	0.005	0.000	0.005	0.430	2.676	1.914	1.914	1.914	1.929	1.924	1.924
0.010	0.010	0.000	0.000	0.010	0.005	0.430	2.671	1.909	1.914	1.909	1.929	1.924	1.924
0.000	0.010	0.000	0.000	0.010	-0.005	0.425	2.700	1.904	1.904	1.909	1.929	1.924	1.924
-0.005	0.005	0.000	0.000	0.000	0.005	0.430	2.695	1.904	1.904	1.904	1.924	1.919	1.919
-0.024	0.005	0.005	0.000	-0.015	0.020	0.430	2.681	1.890	1.899	1.904	1.924	1.914	1.924
-0.010	0.005	0.000	0.000	-0.020	0.015	0.430	2.700	1.899	1.899	1.899	1.924	1.914	1.914
-0.015	0.005	-0.005	0.000	-0.020	-0.020	0.425	2.681	1.895	1.899	1.899	1.919	1.914	1.909
-0.024	0.010	0.005	0.000	-0.005	0.020	0.435	2.690	1.899	1.899	1.899	1.919	1.919	1.924
-0.015	-0.005	0.010	0.000	0.005	-0.010	0.430	2.695	1.904	1.899	1.899	1.919	1.919	1.914
-0.005	-0.005	0.000	0.005	0.010	-0.020	0.435	2.686	1.914	1.904	1.899	1.919	1.919	1.914
-0.005	0.000	-0.005	-0.005	0.010	0.015	0.425	2.686	1.909	1.904	1.899	1.919	1.924	1.924
0.010	0.010	-0.005	0.000	0.010	0.005	0.425	2.676	1.919	1.914	1.904	1.924	1.919	1.924
0.010	0.005	-0.005	0.000	0.015	0.000	0.425	2.690	1.914	1.914	1.909	1.924	1.919	1.924
0.024	0.005	0.005	0.005	0.015	0.015	0.435	2.695	1.919	1.914	1.909	1.924	1.924	1.924
0.024	0.005	0.000	0.005	0.034	0.029	0.435	2.681	1.914	1.914	1.914	1.929	1.929	1.929
0.010	0.000	0.000	0.000	0.029	0.034	0.425	2.705	1.909	1.909	1.909	1.929	1.924	1.929
0.005	-0.010	0.005	0.000	-0.010	0.010	0.420	2.695	1.909	1.909	1.909	1.929	1.914	1.919
0.015	-0.005	0.000	0.000	-0.024	-0.024	0.430	2.700	1.909	1.909	1.909	1.924	1.909	1.909
0.015	-0.005	-0.005	0.000	0.005	0.015	0.425	2.681	1.904	1.904	1.904	1.924	1.924	1.919
0.015	0.000	0.000	0.005	0.015	0.024	0.435	2.710	1.909	1.904	1.904	1.929	1.924	1.919
0.000	0.010	0.000	0.000	0.024	-0.010	0.430	2.715	1.909	1.909	1.904	1.924	1.924	1.919
-0.005	0.005	0.000	0.000	0.005	0.020	0.435	2.676	1.904	1.904	1.904	1.919	1.914	1.924
0.005	-0.005	0.000	0.000	-0.024	0.005	0.425	2.695	1.899	1.899	1.899	1.919	1.904	1.914
0.000	0.000	0.005	0.000	-0.054	0.005	0.425	2.700	1.904	1.899	1.899	1.914	1.899	1.909
-0.005	0.000	0.005	0.000	-0.034	0.000	0.435	2.646	1.899	1.899	1.899	1.919	1.909	1.909
0.010	0.000	0.005	0.000	-0.010	-0.005	0.430	2.661	1.899	1.899	1.899	1.919	1.919	1.909
0.000	0.000	0.005	0.010	0.000	-0.010	0.425	2.686	1.899	1.904	1.899	1.924	1.924	1.914
0.000	-0.005	0.000	0.005	0.015	-0.005	0.425	2.793	1.914	1.899	1.899	1.924	1.924	1.919
0.005	-0.010	0.000	0.005	0.010	-0.005	0.425	2.734	1.919	1.909	1.904	1.924	1.924	1.919
0.000	-0.005	0.000	0.005	0.024	0.000	0.435	2.671	1.919	1.914	1.904	1.924	1.929	1.919
-0.005	-0.020	0.000	0.005	0.005	-0.005	0.430	2.661	1.909	1.909	1.909	1.919	1.919	1.919
-0.005	-0.010	0.000	0.000	0.000	-0.029	0.425	2.686	1.904	1.909	1.909	1.919	1.914	1.914
0.000	0.000	0.005	0.005	-0.005	0.000	0.435	2.651	1.904	1.914	1.909	1.924	1.914	1.919
-0.005	0.015	0.005	-0.005	-0.020	0.000	0.425	2.681	1.904	1.914	1.909	1.924	1.914	1.919
-0.005	0.020	0.000	0.005	-0.005	0.000	0.435	2.734	1.909	1.909	1.909	1.924	1.919	1.919
-0.010	0.005	0.005	0.000	-0.005	0.000	0.430	2.734	1.909	1.904	1.909	1.929	1.919	1.919
-0.005	0.020	0.000	0.000	0.000	0.005	0.435	2.651	1.904	1.904	1.904	1.924	1.919	1.919
-0.005	0.015	0.005	0.005	0.015	0.005	0.420	2.651	1.899	1.899	1.904	1.924	1.924	1.919
-0.010	0.010	0.005	0.000	0.020	0.000	0.430	2.749	1.904	1.899	1.904	1.919	1.924	1.919
0.005	0.010	0.000	0.000	0.015	-0.010	0.435	2.739	1.909	1.899	1.899	1.919	1.919	1.914
-0.005	0.010	0.000	0.000	0.024	-0.024	0.430	2.681	1.899	1.899	1.899	1.919	1.919	1.909
0.000	0.010	0.000	0.005	0.029	-0.024	0.425	2.686	1.904	1.904	1.899	1.919	1.919	1.914
0.000	0.005	0.000	0.005	0.020	0.000	0.435	2.681	1.904	1.895	1.899	1.919	1.919	1.924
0.000	-0.005	0.000	0.000	0.005	0.005	0.430	2.681	1.909	1.904	1.899	1.919	1.914	1.919
0.005	-0.005	0.000	0.005	0.000	0.005	0.425	2.676	1.909	1.904	1.899	1.919	1.914	1.919
0.015	0.000	0.000	0.005	-0.005	0.005	0.425	2.710	1.919	1.909	1.904	1.924	1.914	1.919
0.015	0.000	0.010	0.000	-0.010	0.015	0.425	2.715	1.919	1.914	1.904	1.924	1.914	1.919
0.010	0.005	0.010	0.000	-0.010	0.024	0.425	2.710	1.914	1.919	1.909	1.924	1.914	1.919
0.020	0.010	0.000	0.005	0.000	0.024	0.430	2.686	1.909	1.914	1.909	1.929	1.919	1.924
0.020	0.010	0.005	0.000	0.015	0.034	0.430	2.705	1.909	1.909	1.909	1.929	1.924	1.924
0.015	0.010	0.000	0.005	0.015	0.010	0.430	2.715	1.909	1.909	1.909	1.929	1.929	1.919
0.005	-0.005	0.000	0.005	0.020	0.024	0.435	2.681	1.904	1.904	1.904	1.924	1.924	1.924
-0.005	0.005	0.000	0.000	0.010	0.010	0.435	2.705	1.904	1.899	1.904	1.924	1.919	1.914
0.024	-0.015	0.000	0.005	0.000	-0.010	0.435	2.686	1.909	1.899	1.899	1.924	1.914	1.904
0.020	-0.010	0.000	0.005	-0.005	-0.005	0.430	2.700	1.899	1.899	1.899	1.919	1.909	1.914
0.005	-0.005	0.010	0.000	-0.010	-0.005	0.425	2.710	1.904	1.899	1.899	1.919	1.909	1.904
-0.005	-0.005	0.000	0.000	-0.010	-0.020	0.420	2.690	1.895	1.899	1.899	1.919	1.914	1.909
-0.015	0.005	0.000	0.000	0.020	0.000	0.430	2.700	1.895	1.899	1.899	1.919	1.919	1.919
-0.024	0.005	0.005	0.005	0.010	0.015	0.430	2.715	1.899	1.899	1.899	1.919	1.914	1.919
-0.010	0.000	0.005	0.005	-0.005	0.015	0.439	2.715	1.904	1.899	1.899	1.919	1.909	1.914
-0.010	-0.005	0.005	0.005	-0.015	0.015	0.425	2.700	1.904	1.899	1.899	1.919	1.914	1.919
-0.005	0.000	0.005	-0.005	-0.005	0.005	0.425	2.695	1.914	1.904	1.899	1.919	1.914	1.914
0.000	-0.005	0.000	0.005	0.000	0.005	0.425	2.695	1.909	1.909	1.899	1.919	1.919	1.914
0.000	0.005	0.000	0.005	0.010	-0.005	0.430	2.695	1.909	1.909	1.904	1.924	1.919	1.914
-0.005	0.000	0.000	0.000	0.005	-0.010	0.430	2.646	1.909	1.909	1.904	1.924	1.914	1.914
-0.005	0.010	0.000	0.000	-0.010	-0.024	0.430	2.651	1.904	1.909	1.904	1.924	1.909	1.914
-0.020	0.024	0.000	0.000	-0.005	-0.024	0.430	2.690	1.895	1.909	1.909	1.919	1.914	1.914
-0.010	0.015	0.000	-0.005	0.029	0.010	0.435	2.793	1.914	1.904	1.904	1.924	1.924	1.929
-0.005	0.005	0.000	-0.005	0.010	0.010	0.430	2.739	1.919	1.904	1.904	1.919	1.914	1.924
0.000	0.010	0.000	-0.005	0.000	0.015	0.435	2.695	1.919	1.909	1.904	1.919	1.914	1.924
0.005	0.010	0.005	-0.005	-0.020	0.024	0.420	2.671	1.914	1.909	1.904	1.919	1.904	1.914
0.015	-0.005	-0.005	0.000	-0.034	0.005	0.430	2.671	1.904	1.904	1.899	1.919	1.904	1.909
0.020	0.000	0.000	0.000	-0.010	0.005	0.430	2.646	1.899	1.904	1.899	1.919	1.914	1.914
0.020	0.005	0.000	0.000	0.005	0.010	0.425	2.661	1.899	1.904	1.899	1.919	1.914	1.909
0.024	-0.005	0.005	0.000	0.000	0.000	0.425	2.749	1.909	1.899	1.904	1.919	1.914	1.914
0.029	-0.005	0.005	-0.005	0.000	-0.005	0.420	2.651	1.904	1.899	1.904	1.919	1.914	1.909
0.029	-0.010	0.005	0.000	0.000	0.000	0.430	2.764	1.895	1.899	1.904	1.924	1.914	1.914
0.020	-0.005	0.005	0.000	0.000	0.010	0.430	2.632	1.890	1.899	1.899	1.919	1.919	1.919
0.010	-0.005	0.005	0.005	0.000	0.010	0.435	2.651	1.895	1.899	1.899	1.924	1.919	1.919
0.010	0.000	0.000	0.010	-0.010	0.005	0.430	2.744	1.904	1.899	1.899	1.924	1.914	1.919
-0.005	0.010	0.000	0.010	-0.015	-0.020	0.435	2.676	1.899	1.899	1.899	1.924	1.914	1.914
-0.015	0.000	0.000	0.015	-0.005	-0.005	0.430	2.695	1.904	1.899	1.899	1.924	1.919	1.919
-0.010	0.005	0.010	0.015	0.015	-0.010	0.435	2.720	1.909	1.904	1.899	1.924	1.924	1.919
-0.015	-0.010	0.005	0.020	0.020	-0.039	0.425	2.686	1.904	1.899	1.899	1.919	1.924	1.914
-0.010	-0.005	0.000	0.010	0.024	-0.005	0.430	2.676	1.904	1.899	1.895	1.919	1.919	1.919
-0.010	-0.005	0.000	0.005	0.005	0.005	0.425	2.700	1.904	1.904	1.895	1.914	1.914	1.924
-0.015	0.000	0.000	0.000	0.010	0.024	0.435	2.695	1.904	1.899	1.895	1.914	1.914	1.924
-0.005	0.005	0.000	-0.005	0.020	0.005	0.420	2.681	1.904	1.899	1.895	1.914	1.909	1.914
-0.005	-0.005	0.000	0.000	0.005	0.029	0.425	2.671	1.904	1.899	1.895	1.914	1.909	1.919
0.000	0.000	0.000	0.000	0.015	0.010	0.435	2.695	1.904	1.899	1.899	1.909	1.909	1.914
0.000	0.015	0.000	-0.005	0.024	0.024	0.435	2.705	1.909	1.904	1.899	1.914	1.914	1.914
-0.005	0.010	0.000	-0.005	0.034	0.024	0.430	2.686	1.909	1.909	1.899	1.914	1.914	1.914
-0.005	0.015	0.005	-0.005	0.015	0.000	0.435	2.686	1.904	1.909	1.904	1.914	1.909	1.904
-0.005	0.015	0.005	-0.005	0.024	0.005	0.425	2.695	1.904	1.904	1.904	1.919	1.909	1.909
-0.010	0.005	0.000	-0.005	0.005	0.005	0.430	2.710	1.909	1.909	1.904	1.919	1.909	1.909
0.000	0.010	0.000	0.005	-0.010	-0.010	0.430	2.710	1.919	1.909	1.904	1.919	1.904	1.904
-0.005	0.005	0.000	0.000	-0.010	-0.015	0.435	2.705	1.914	1.909	1.909	1.924	1.909	1.904
0.010	0.005	0.000	0.005	-0.005	-0.005	0.425	2.705	1.914	1.914	1.909	1.924	1.914	1.909
0.010	0.000	0.000	0.000	-0.015	-0.005	0.425	2.700	1.919	1.914	1.909	1.924	1.914	1.914
0.020	0.005	0.005	0.000	-0.015	-0.034	0.430	2.700	1.919	1.914	1.909	1.924	1.914	1.904
0.015	0.005	0.000	0.005	0.000	0.000	0.430	2.676	1.909	1.914	1.909	1.924	1.924	1.919
0.020	0.005	0.000	0.010	0.005	-0.015	0.430	2.700	1.909	1.909	1.909	1.929	1.924	1.914
0.024	0.000	0.000	0.000	0.010	-0.010	0.435	2.686	1.904	1.904	1.904	1.924	1.924	1.919
0.005	0.005	0.005	0.005	0.005	-0.005	0.439	2.705	1.904	1.904	1.904	1.924	1.919	1.919
0.020	-0.005	0.000	0.000	0.020	0.000	0.425	2.788	1.914	1.899	1.899	1.919	1.924	1.919
0.015	0.000	-0.005	0.005	0.015	-0.020	0.430	2.666	1.904	1.904	1.899	1.919	1.919	1.914
0.005	-0.005	-0.005	0.000	0.000	0.000	0.425	2.720	1.899	1.899	1.899	1.914	1.914	1.919
0.000	0.005	0.000	-0.005	0.015	0.010	0.430	2.734	1.914	1.904	1.899	1.919	1.919	1.924
0.005	-0.015	0.000	0.000	0.010	0.010	0.420	2.744	1.924	1.909	1.904	1.919	1.914	1.919
0.005	-0.010	0.000	0.000	-0.024	0.005	0.430	2.690	1.914	1.909	1.904	1.919	1.904	1.914
0.000	0.005	0.005	0.000	-0.034	0.000	0.430	2.739	1.919	1.919	1.909	1.919	1.909	1.914
-0.005	0.000	0.000	0.000	-0.029	0.010	0.430	2.695	1.909	1.914	1.909	1.924	1.909	1.914
-0.005	-0.010	-0.005	0.000	-0.015	0.010	0.425	2.627	1.909	1.909	1.909	1.929	1.919	1.919
0.000	0.005	0.000	-0.005	-0.005	0.029	0.435	2.651	1.904	1.914	1.914	1.929	1.924	1.924
-0.005	0.000	0.005	0.005	-0.029	0.029	0.430	2.749	1.909	1.909	1.914	1.934	1.919	1.924
-0.010	0.000	0.000	0.005	-0.024	0.039	0.435	2.642	1.904	1.909	1.909	1.929	1.924	1.924
-0.005	0.000	0.000	0.005	-0.029	0.015	0.425	2.656	1.899	1.909	1.909	1.929	1.919	1.914
-0.005	0.000	-0.005	0.000	-0.024	-0.020	0.430	2.754	1.909	1.904	1.904	1.929	1.919	1.909
-0.015	0.005	0.000	0.005	0.020	-0.005	0.430	2.651	1.899	1.904	1.909	1.929	1.934	1.924
0.000	0.005	0.000	0.010	0.068	-0.005	0.430	2.739	1.904	1.899	1.909	1.929	1.943	1.929
0.005	0.005	0.000	0.005	0.034	0.000	0.430	2.676	1.904	1.899	1.904	1.924	1.924	1.929
0.000	0.000	-0.005	0.005	0.015	-0.015	0.425	2.705	1.909	1.899	1.899	1.919	1.914	1.924
-0.010	0.005	0.005	-0.005	0.015	-0.005	0.430	2.705	1.909	1.904	1.899	1.919	1.914	1.919
0.010	0.000	0.000	0.000	0.020	-0.005	0.425	2.690	1.909	1.904	1.899	1.919	1.919	1.919
0.005	0.010	0.005	0.000	0.015	-0.010	0.435	2.690	1.904	1.904	1.899	1.919	1.914	1.914
-0.010	0.010	0.005	0.000	0.005	-0.020	0.430	2.690	1.904	1.909	1.904	1.919	1.914	1.914
-0.020	0.010	0.010	0.010	0.010	0.000	0.435	2.705	1.904	1.904	1.904	1.924	1.914	1.919
-0.015	0.005	0.000	0.000	0.005	0.000	0.425	2.690	1.904	1.904	1.899	1.919	1.914	1.919
-0.005	0.000	0.005	0.005	0.015	-0.010	0.425	2.690	1.904	1.904	1.904	1.919	1.919	1.919
0.005	-0.005	0.000	0.010	0.005	0.005	0.430	2.700	1.914	1.909	1.904	1.924	1.919	1.924
0.010	0.005	0.000	0.010	0.005	-0.010	0.430	2.705	1.914	1.909	1.909	1.924	1.919	1.919
-0.010	-0.010	0.000	0.005	0.010	0.010	0.430	2.700	1.914	1.909	1.904	1.924	1.919	1.919
0.015	0.015	-0.005	0.005	0.000	0.015	0.430	2.690	1.924	1.919	1.904	1.924	1.914	1.924
0.034	-0.005	0.000	0.000	0.000	0.005	0.425	2.681	1.924	1.909	1.909	1.924	1.919	1.919
0.029	0.000	0.005	0.000	0.005	0.024	0.435	2.686	1.914	1.914	1.909	1.924	1.919	1.929
0.024	-0.005	0.000	-0.005	0.005	0.029	0.425	2.686	1.914	1.909	1.909	1.924	1.919	1.924
0.020	0.000	-0.005	-0.005	0.000	0.029	0.435	2.710	1.909	1.909	1.904	1.924	1.914	1.914
0.010	0.005	0.000	-0.005	-0.010	0.020	0.420	2.686	1.899	1.909	1.904	1.919	1.909	1.914
0.010	0.005	0.000	-0.005	-0.005	-0.005	0.430	2.705	1.904	1.899	1.899	1.919	1.914	1.909
0.015	0.000	0.000	0.000	-0.005	-0.015	0.430	2.695	1.899	1.899	1.904	1.924	1.914	1.904
0.000	0.005	0.005	0.005	-0.005	-0.015	0.435	2.690	1.899	1.899	1.899	1.924	1.919	1.909
-0.005	-0.015	0.005	0.005	0.000	0.015	0.430	2.710	1.899	1.895	1.899	1.924	1.919	1.919
-0.020	-0.005	0.005	0.005	0.005	0.000	0.425	2.705	1.899	1.895	1.895	1.919	1.919	1.914
-0.020	0.000	0.005	0.005	-0.010	-0.029	0.435	2.705	1.904	1.899	1.899	1.919	1.914	1.909
-0.015	-0.005	0.000	0.005	-0.015	0.000	0.430	2.646	1.899	1.899	1.899	1.919	1.914	1.919
0.000	0.000	0.000	0.000	-0.010	0.010	0.430	2.666	1.904	1.904	1.899	1.919	1.914	1.924
0.005	-0.005	0.000	0.000	-0.020	-0.005	0.430	2.695	1.909	1.899	1.904	1.919	1.914	1.914
0.024	-0.005	0.000	0.000	-0.024	0.005	0.430	2.793	1.929	1.909	1.904	1.919	1.914	1.919
0.005	-0.005	0.005	0.000	-0.020	0.024	0.430	2.729	1.924	1.914	1.909	1.924	1.919	1.929
0.010	-0.005	0.005	0.005	-0.005	0.024	0.425	2.671	1.919	1.914	1.909	1.924	1.924	1.919
0.000	-0.005	0.000	0.000	-0.005	0.015	0.435	2.661	1.904	1.909	1.909	1.924	1.919	1.924
-0.005	0.010	0.005	0.000	-0.015	-0.005	0.435	2.681	1.899	1.909	1.904	1.924	1.914	1.909
-0.015	-0.005	-0.005	0.000	-0.034	0.000	0.430	2.656	1.895	1.899	1.904	1.924	1.909	1.914
-0.020	0.000	0.005	0.005	-0.034	0.010	0.430	2.676	1.895	1.899	1.904	1.919	1.909	1.914
-0.015	0.010	0.005	0.005	-0.049	0.015	0.430	2.749	1.899	1.895	1.899	1.919	1.909	1.909
-0.020	0.005	0.005	0.005	-0.010	0.000	0.430	2.646	1.904	1.899	1.899	1.924	1.919	1.909
-0.020	0.020	-0.005	0.000	0.044	-0.010	0.425	2.642	1.895	1.899	1.899	1.914	1.934	1.919
-0.015	0.020	0.000	0.000	0.044	0.015	0.430	2.642	1.895	1.899	1.899	1.919	1.924	1.924
-0.005	0.010	0.005	0.000	0.034	0.020	0.425	2.734	1.909	1.899	1.899	1.919	1.919	1.924
0.000	0.000	0.000	-0.005	0.024	0.000	0.430	2.759	1.919	1.899	1.895	1.919	1.919	1.919
-0.010	0.010	0.000	0.000	0.024	-0.015	0.425	2.666	1.909	1.904	1.899	1.914	1.914	1.919
0.000	0.000	0.000	-0.005	0.015	-0.010	0.435	2.690	1.919	1.909	1.904	1.919	1.914	1.914
0.010	0.000	0.000	0.005	0.029	-0.010	0.425	2.690	1.919	1.909	1.904	1.924	1.914	1.914
0.005	0.000	-0.005	-0.005	0.024	-0.029	0.435	2.686	1.914	1.909	1.904	1.924	1.914	1.909
0.005	-0.010	0.000	0.000	0.010	0.000	0.425	2.686	1.909	1.904	1.909	1.924	1.914	1.919
0.010	0.000	0.000	0.000	0.010	-0.005	0.435	2.705	1.914	1.909	1.909	1.924	1.914	1.919
0.020	0.020	0.000	0.000	0.015	-0.024	0.430	2.686	1.919	1.914	1.909	1.924	1.919	1.914
0.015	0.000	0.000	0.000	0.010	0.005	0.435	2.710	1.909	1.909	1.909	1.929	1.919	1.919
0.000	0.010	0.010	0.005	0.005	-0.010	0.430	2.695	1.904	1.909	1.909	1.924	1.919	1.914
0.000	-0.005	0.005	0.005	-0.005	0.015	0.430	2.715	1.909	1.904	1.904	1.924	1.914	1.919
-0.005	-0.005	0.010	0.000	0.010	0.020	0.435	2.705	1.904	1.899	1.904	1.924	1.919	1.919
0.000	0.005	0.005	-0.005	0.010	0.020	0.425	2.695	1.904	1.899	1.899	1.919	1.919	1.919
-0.015	0.000	0.000	0.000	0.000	-0.020	0.430	2.705	1.899	1.899	1.895	1.919	1.914	1.904
0.005	-0.005	0.005	0.005	-0.010	0.010	0.430	2.690	1.909	1.904	1.899	1.919	1.909	1.919
0.005	0.005	0.000	0.000	0.000	-0.015	0.435	2.705	1.909	1.909	1.899	1.919	1.914	1.904
0.010	-0.005	0.005	0.000	-0.005	0.000	0.425	2.700	1.909	1.904	1.899	1.914	1.914	1.909
0.015	-0.005	0.000	0.000	0.005	0.000	0.425	2.700	1.914	1.909	1.904	1.919	1.914	1.919
0.029	0.005	0.000	0.005	0.000	-0.005	0.430	2.710	1.919	1.914	1.909	1.924	1.914	1.919
0.015	-0.005	0.005	0.005	-0.005	-0.010	0.430	2.700	1.914	1.914	1.909	1.924	1.914	1.914
0.015	0.000	0.000	0.005	0.000	-0.010	0.435	2.705	1.909	1.909	1.909	1.924	1.919	1.919
0.010	0.005	0.005	0.000	0.000	-0.010	0.430	2.681	1.909	1.914	1.914	1.929	1.924	1.919
0.000	0.000	0.000	0.000	-0.005	0.005	0.430	2.700	1.904	1.909	1.914	1.929	1.924	1.924
-0.010	0.000	0.000	0.010	-0.010	-0.010	0.435	2.690	1.904	1.904	1.909	1.929	1.919	1.919
-0.020	0.000	0.005	0.010	0.000	0.005	0.430	2.686	1.899	1.904	1.909	1.929	1.924	1.919
-0.010	-0.005	0.000	0.000	-0.005	0.000	0.430	2.651	1.899	1.899	1.899	1.924	1.919	1.924
0.000	0.000	0.000	0.000	0.010	0.000	0.430	2.666	1.895	1.899	1.899	1.919	1.924	1.924
-0.005	-0.010	0.000	0.000	0.000	-0.005	0.435	2.681	1.895	1.895	1.895	1.919	1.919	1.914
0.000	0.000	0.000	0.000	0.015	0.000	0.430	2.783	1.909	1.895	1.895	1.914	1.919	1.919
0.000	-0.005	0.000	0.000	-0.005	-0.020	0.425	2.734	1.914	1.895	1.895	1.914	1.909	1.914
-0.005	0.005	-0.005	0.000	0.000	0.000	0.425	2.676	1.909	1.899	1.895	1.919	1.914	1.919
0.005	0.000	0.000	0.000	-0.005	0.005	0.435	2.749	1.914	1.904	1.899	1.914	1.909	1.914
0.005	0.000	0.000	0.010	0.000	-0.010	0.425	2.676	1.909	1.909	1.899	1.914	1.914	1.914
0.005	0.000	0.000	0.005	0.000	0.015	0.430	2.661	1.909	1.909	1.904	1.919	1.914	1.919
-0.015	0.005	-0.005	0.000	-0.020	-0.005	0.425	2.700	1.899	1.904	1.904	1.919	1.904	1.909
-0.029	0.000	0.005	0.000	-0.073	0.000	0.430	2.754	1.909	1.904	1.904	1.919	1.895	1.904
-0.015	-0.005	0.005	0.000	-0.093	0.010	0.430	2.729	1.914	1.909	1.904	1.919	1.899	1.909
-0.020	-0.005	0.005	0.000	-0.078	0.015	0.435	2.661	1.909	1.909	1.904	1.924	1.909	1.909
-0.010	0.015	0.000	0.005	-0.049	0.020	0.425	2.764	1.919	1.914	1.909	1.924	1.919	1.919
0.005	0.005	0.000	0.005	0.005	0.010	0.425	2.734	1.919	1.914	1.909	1.929	1.934	1.919
0.005	0.005	0.000	0.005	0.039	0.024	0.425	2.749	1.924	1.919	1.909	1.929	1.943	1.929
0.020	0.000	-0.005	0.005	0.059	0.029	0.430	2.661	1.919	1.914	1.914	1.929	1.938	1.934
0.015	0.000	0.005	0.000	0.049	0.015	0.435	2.710	1.919	1.914	1.909	1.929	1.934	1.929
0.029	-0.005	0.005	-0.005	0.073	0.020	0.430	2.681	1.914	1.909	1.909	1.929	1.934	1.929
0.029	0.000	0.000	0.005	0.029	-0.020	0.430	2.676	1.904	1.909	1.909	1.929	1.919	1.914
0.024	0.000	-0.005	0.000	0.063	-0.034	0.425	2.676	1.904	1.909	1.904	1.924	1.929	1.919
0.020	0.000	0.000	0.005	0.054	-0.005	0.430	2.710	1.904	1.904	1.904	1.924	1.924	1.924
0.015	0.000	0.000	0.005	0.034	0.000	0.430	2.690	1.904	1.899	1.904	1.924	1.919	1.924
0.005	0.000	0.000	0.010	0.015	-0.005	0.430	2.681	1.899	1.899	1.904	1.924	1.914	1.919
-0.005	0.000	0.000	0.005	0.024	-0.005	0.420	2.695	1.899	1.899	1.904	1.924	1.914	1.919
-0.005	0.005	0.000	0.000	0.044	-0.015	0.425	2.715	1.909	1.904	1.899	1.924	1.924	1.914
-0.005	0.000	0.000	0.005	0.054	-0.049	0.425	2.676	1.909	1.904	1.904	1.924	1.924	1.909
0.005	0.010	0.005	0.010	0.039	-0.010	0.430	2.686	1.909	1.904	1.904	1.924	1.924	1.929
