0.000	-0.010	0.005	0.000	-0.005	0.005	0.430	2.671	2.505	2.119	1.973	1.929	1.953	1.948
0.000	-0.005	0.000	0.000	0.000	0.000	0.435	2.676	2.354	2.187	2.031	1.963	1.953	1.943
0.000	0.000	0.005	0.000	-0.005	-0.034	0.430	2.734	2.251	2.212	2.080	1.997	1.963	1.943
0.000	0.005	0.000	0.000	0.005	-0.010	0.435	2.671	2.168	2.202	2.119	2.036	1.987	1.958
-0.005	0.005	0.000	0.000	0.005	0.010	0.435	2.646	2.104	2.178	2.134	2.070	2.007	1.978
0.000	0.000	0.005	-0.005	0.005	0.005	0.430	2.651	2.061	2.144	2.139	2.095	2.031	1.992
-0.005	0.015	0.000	-0.005	0.000	-0.005	0.435	2.715	2.026	2.119	2.134	2.109	2.046	2.002
0.005	-0.005	0.005	-0.005	0.000	0.000	0.430	2.666	2.012	2.085	2.119	2.114	2.065	2.021
0.005	0.005	0.000	0.005	0.005	0.000	0.435	2.642	1.987	2.056	2.104	2.119	2.075	2.036
0.005	0.005	0.000	0.005	0.010	0.000	0.430	2.729	1.992	2.036	2.085	2.114	2.090	2.046
0.000	0.010	0.005	0.000	0.000	0.015	0.435	2.690	1.987	2.026	2.070	2.104	2.090	2.061
0.000	0.000	0.000	0.000	0.005	-0.010	0.430	2.656	1.978	2.007	2.051	2.100	2.090	2.065
0.005	0.000	0.005	0.005	0.000	-0.020	0.430	2.690	1.978	1.997	2.036	2.085	2.085	2.065
-0.005	0.005	0.000	-0.005	0.000	0.015	0.430	2.734	1.982	1.992	2.021	2.070	2.085	2.080
0.000	0.000	0.005	0.005	0.000	0.000	0.435	2.695	1.987	1.987	2.012	2.061	2.075	2.075
0.005	0.000	0.000	0.000	-0.005	0.010	0.425	2.695	1.992	1.992	2.007	2.051	2.070	2.080
-0.010	-0.010	0.005	0.005	-0.005	0.010	0.435	2.705	1.992	1.992	2.007	2.046	2.061	2.075
0.000	0.000	0.000	0.005	0.000	0.005	0.425	2.686	1.992	1.997	2.002	2.036	2.056	2.070
0.000	0.010	-0.005	0.000	0.005	-0.015	0.435	2.705	1.992	2.002	2.002	2.031	2.046	2.061
0.000	0.000	0.000	0.000	0.005	-0.005	0.425	2.705	1.992	1.992	1.997	2.031	2.041	2.061
0.005	-0.005	0.005	0.005	0.000	0.005	0.439	2.686	1.992	1.992	1.997	2.026	2.036	2.056
0.005	0.010	0.005	0.010	0.005	-0.005	0.425	2.686	1.992	1.997	1.997	2.026	2.031	2.041
-0.005	0.005	0.000	0.005	0.000	0.000	0.439	2.705	1.992	1.992	1.992	2.021	2.026	2.041
0.000	0.000	0.000	0.005	0.005	0.000	0.425	2.710	1.992	1.992	1.992	2.017	2.021	2.041
-0.010	0.005	0.005	0.005	0.005	-0.015	0.435	2.690	1.982	1.987	1.987	2.012	2.017	2.026
0.000	0.005	0.005	0.000	0.005	0.005	0.425	2.686	1.982	1.982	1.987	2.012	2.017	2.031
0.000	0.010	0.005	0.000	0.005	0.015	0.439	2.695	1.978	1.982	1.987	2.007	2.012	2.026
-0.005	0.010	-0.005	0.000	0.010	-0.005	0.425	2.700	1.978	1.978	1.982	2.007	2.007	2.017
0.010	0.000	0.000	-0.005	0.005	0.005	0.439	2.686	1.982	1.978	1.978	2.002	2.002	2.017
0.000	0.005	0.000	0.000	0.005	0.015	0.425	2.681	1.973	1.978	1.978	1.997	2.002	2.012
-0.005	0.000	0.005	0.000	0.000	0.015	0.435	2.705	1.973	1.973	1.973	1.997	1.997	2.007
0.005	0.005	0.000	0.000	0.000	0.010	0.430	2.690	1.978	1.978	1.973	1.997	1.997	2.002
0.000	0.010	0.005	0.000	0.000	0.010	0.435	2.715	1.978	1.978	1.978	1.997	1.997	2.002
-0.005	0.000	0.000	0.000	-0.005	-0.015	0.425	2.710	1.982	1.978	1.978	1.997	1.992	1.992
0.005	0.000	0.000	-0.005	0.000	0.020	0.430	2.710	1.982	1.978	1.978	1.997	1.997	2.002
0.010	-0.010	0.000	0.000	-0.005	-0.005	0.439	2.690	1.982	1.973	1.978	1.997	1.992	2.002
0.010	-0.005	0.005	0.005	-0.005	0.010	0.425	2.690	1.978	1.978	1.978	1.997	1.992	1.997
0.010	-0.015	0.005	0.005	-0.005	0.005	0.435	2.661	1.973	1.973	1.978	1.997	1.997	1.997
-0.005	-0.005	-0.005	0.005	0.000	0.000	0.430	2.671	1.968	1.973	1.978	1.997	1.992	1.992
0.005	-0.005	0.000	0.005	0.005	-0.010	0.435	2.642	1.963	1.968	1.973	1.992	1.992	1.992
0.000	-0.005	0.005	0.005	0.005	-0.010	0.430	2.651	1.953	1.968	1.973	1.992	1.992	1.992
0.005	0.000	0.005	0.010	0.000	0.000	0.435	2.671	1.953	1.963	1.968	1.992	1.992	1.992
-0.005	0.005	0.005	0.000	0.000	-0.015	0.425	2.744	1.958	1.958	1.963	1.987	1.987	1.987
-0.005	0.005	0.000	0.005	0.000	0.010	0.435	2.671	1.973	1.958	1.958	1.987	1.982	1.987
0.000	0.000	0.000	0.005	0.005	-0.010	0.430	2.637	1.953	1.958	1.958	1.978	1.982	1.982
0.005	0.000	0.005	0.000	0.000	0.005	0.435	2.651	1.953	1.953	1.958	1.978	1.978	1.987
0.010	-0.005	0.010	-0.005	-0.005	0.005	0.430	2.642	1.948	1.953	1.953	1.978	1.973	1.978
0.000	0.010	0.000	0.000	0.000	-0.020	0.430	2.646	1.943	1.953	1.953	1.973	1.973	1.973
0.010	0.010	0.000	0.000	0.000	0.010	0.430	2.666	1.943	1.953	1.953	1.973	1.973	1.982
0.010	0.010	0.005	0.000	-0.005	0.005	0.439	2.744	1.953	1.953	1.953	1.973	1.973	1.978
0.005	0.005	0.005	0.000	-0.005	0.015	0.435	2.666	1.953	1.953	1.953	1.978	1.973	1.978
0.000	0.005	0.000	0.000	0.000	0.010	0.435	2.656	1.948	1.948	1.953	1.973	1.973	1.973
0.000	0.000	0.000	0.000	0.000	-0.024	0.435	2.695	1.948	1.953	1.953	1.973	1.973	1.968
-0.010	0.024	0.000	0.000	0.000	0.010	0.439	2.744	1.953	1.958	1.948	1.973	1.973	1.978
-0.005	0.024	-0.005	-0.005	0.005	0.005	0.430	2.705	1.958	1.958	1.953	1.973	1.973	1.978
0.000	0.015	0.000	0.000	0.005	0.000	0.435	2.686	1.953	1.953	1.953	1.973	1.968	1.973
0.005	0.005	0.005	0.000	0.005	-0.015	0.435	2.686	1.948	1.948	1.953	1.973	1.968	1.968
-0.005	0.000	0.005	0.000	0.005	0.005	0.430	2.676	1.943	1.943	1.948	1.973	1.968	1.973
0.005	0.000	0.000	0.000	0.005	-0.015	0.435	2.686	1.943	1.943	1.948	1.968	1.968	1.968
0.000	-0.010	0.000	0.000	0.000	-0.005	0.430	2.676	1.938	1.938	1.943	1.963	1.963	1.968
-0.010	-0.015	0.000	0.005	0.005	-0.015	0.435	2.690	1.938	1.934	1.938	1.963	1.958	1.963
0.005	0.000	0.000	0.000	0.005	-0.005	0.425	2.686	1.934	1.938	1.938	1.958	1.958	1.963
0.000	-0.010	0.000	0.000	0.000	-0.015	0.435	2.695	1.934	1.934	1.938	1.958	1.953	1.953
0.005	-0.010	0.000	0.000	0.005	0.005	0.430	2.700	1.938	1.934	1.934	1.958	1.953	1.963
-0.005	0.010	0.000	0.000	0.000	0.010	0.439	2.690	1.938	1.938	1.938	1.953	1.958	1.963
0.005	-0.005	0.000	0.000	0.000	0.000	0.430	2.690	1.938	1.934	1.934	1.958	1.953	1.958
0.005	0.000	0.005	0.010	0.000	0.005	0.430	2.690	1.938	1.934	1.938	1.958	1.953	1.958
0.005	0.020	0.005	0.000	0.000	0.005	0.435	2.710	1.943	1.943	1.938	1.958	1.958	1.953
0.000	0.010	0.000	0.000	-0.005	-0.010	0.430	2.695	1.943	1.943	1.943	1.958	1.953	1.948
-0.005	0.010	0.005	0.000	0.000	-0.020	0.435	2.705	1.943	1.938	1.943	1.963	1.953	1.953
-0.005	0.005	0.000	0.000	0.005	0.015	0.425	2.700	1.943	1.938	1.938	1.958	1.958	1.963
0.005	0.005	0.005	0.000	0.010	0.010	0.430	2.690	1.943	1.938	1.938	1.963	1.958	1.958
0.010	-0.005	0.005	0.005	0.010	0.020	0.435	2.715	1.943	1.938	1.938	1.958	1.958	1.963
0.005	-0.010	0.000	0.000	0.024	0.015	0.435	2.710	1.943	1.938	1.938	1.958	1.958	1.963
0.010	-0.005	0.010	0.005	0.024	0.020	0.430	2.705	1.943	1.938	1.938	1.958	1.958	1.958
0.005	0.000	0.005	0.000	0.034	0.000	0.430	2.695	1.934	1.934	1.934	1.958	1.958	1.953
-0.005	-0.005	0.005	0.005	0.034	0.020	0.439	2.700	1.929	1.934	1.934	1.953	1.953	1.958
-0.010	-0.005	0.005	0.005	0.024	0.015	0.435	2.666	1.924	1.929	1.929	1.948	1.948	1.953
-0.005	-0.010	0.005	0.000	0.024	0.024	0.439	2.671	1.924	1.929	1.929	1.948	1.948	1.958
0.010	0.000	0.000	0.005	0.020	0.015	0.430	2.656	1.924	1.924	1.924	1.948	1.943	1.948
0.000	0.010	0.000	0.005	0.020	0.015	0.435	2.651	1.919	1.924	1.924	1.948	1.943	1.943
0.005	0.000	0.000	0.005	0.010	0.015	0.435	2.671	1.924	1.924	1.924	1.943	1.943	1.943
0.000	0.005	0.000	0.010	0.000	0.010	0.435	2.739	1.929	1.929	1.924	1.943	1.938	1.943
0.010	-0.005	0.005	0.005	0.000	0.010	0.435	2.661	1.929	1.924	1.929	1.948	1.943	1.943
-0.005	0.005	0.000	0.005	0.005	0.010	0.430	2.656	1.919	1.924	1.924	1.948	1.943	1.943
0.000	-0.005	0.000	0.010	0.005	0.010	0.430	2.759	1.934	1.924	1.924	1.943	1.938	1.938
0.010	0.000	0.000	0.010	0.000	0.015	0.430	2.715	1.934	1.929	1.929	1.948	1.943	1.943
0.005	0.000	0.000	0.005	0.000	0.000	0.430	2.661	1.929	1.934	1.929	1.948	1.943	1.938
0.010	0.000	0.000	0.005	0.000	0.000	0.430	2.646	1.919	1.924	1.929	1.943	1.943	1.943
0.005	-0.005	0.005	0.000	0.000	0.005	0.435	2.734	1.929	1.924	1.929	1.943	1.938	1.938
0.000	0.005	0.000	0.005	0.000	0.010	0.435	2.690	1.924	1.924	1.924	1.943	1.938	1.938
0.000	0.000	0.000	0.000	0.000	0.010	0.435	2.729	1.929	1.924	1.919	1.943	1.938	1.938
0.000	-0.005	0.005	0.000	-0.005	-0.005	0.439	2.681	1.919	1.924	1.919	1.938	1.934	1.934
-0.005	0.010	0.005	0.000	-0.010	0.005	0.435	2.744	1.924	1.919	1.919	1.938	1.934	1.934
-0.005	0.005	0.005	0.000	-0.010	0.010	0.435	2.686	1.919	1.919	1.914	1.938	1.929	1.934
0.000	0.000	0.005	0.000	-0.010	0.005	0.430	2.695	1.919	1.919	1.914	1.934	1.929	1.934
-0.005	0.005	0.000	0.000	-0.010	-0.010	0.430	2.700	1.914	1.919	1.914	1.934	1.929	1.924
0.005	0.000	0.000	0.000	-0.015	0.000	0.435	2.690	1.919	1.914	1.914	1.934	1.929	1.929
0.010	0.000	0.000	0.000	-0.015	-0.024	0.430	2.690	1.924	1.919	1.914	1.934	1.929	1.924
0.005	0.010	0.000	0.005	-0.010	0.005	0.435	2.705	1.919	1.919	1.919	1.938	1.934	1.938
0.000	0.010	0.000	-0.005	-0.020	0.000	0.425	2.686	1.924	1.919	1.919	1.938	1.934	1.934
0.000	-0.005	0.005	0.000	-0.015	-0.005	0.430	2.690	1.924	1.919	1.919	1.938	1.934	1.934
0.010	0.000	0.005	0.000	-0.015	-0.005	0.425	2.695	1.924	1.924	1.919	1.938	1.934	1.934
0.000	0.005	0.005	0.000	-0.005	-0.010	0.439	2.686	1.924	1.919	1.924	1.938	1.938	1.934
0.005	0.000	0.005	0.000	-0.005	-0.005	0.430	2.686	1.924	1.924	1.919	1.938	1.938	1.934
0.010	0.000	0.000	0.005	0.000	-0.010	0.435	2.700	1.919	1.919	1.919	1.938	1.934	1.929
0.005	0.015	0.005	0.000	0.000	-0.005	0.435	2.690	1.919	1.924	1.919	1.943	1.938	1.938
0.000	0.015	0.005	0.000	0.000	0.015	0.435	2.700	1.924	1.919	1.919	1.938	1.934	1.938
-0.005	0.000	0.005	0.000	-0.005	-0.020	0.425	2.695	1.914	1.914	1.914	1.934	1.934	1.934
-0.005	-0.005	0.000	0.005	-0.005	0.010	0.435	2.686	1.909	1.914	1.909	1.934	1.934	1.938
0.005	-0.005	0.000	0.005	0.005	0.005	0.430	2.700	1.909	1.909	1.914	1.934	1.934	1.934
-0.005	0.000	0.005	0.005	0.005	0.005	0.430	2.690	1.909	1.909	1.909	1.929	1.929	1.934
-0.005	0.005	-0.005	0.005	0.005	0.010	0.435	2.705	1.914	1.914	1.909	1.929	1.929	1.934
0.005	0.000	-0.005	0.005	0.010	0.005	0.430	2.690	1.914	1.909	1.909	1.929	1.924	1.929
0.005	-0.005	0.005	-0.005	0.000	0.010	0.435	2.705	1.914	1.909	1.909	1.929	1.924	1.924
0.005	0.000	0.000	0.000	-0.005	0.005	0.435	2.686	1.914	1.909	1.909	1.929	1.924	1.924
0.005	0.005	0.005	0.000	0.000	0.000	0.435	2.700	1.914	1.909	1.909	1.929	1.924	1.924
0.000	0.000	0.000	-0.005	0.000	-0.010	0.435	2.666	1.909	1.909	1.909	1.929	1.924	1.919
0.000	0.005	0.005	0.000	0.005	-0.005	0.435	2.681	1.914	1.914	1.909	1.929	1.929	1.924
0.010	-0.005	0.005	0.000	0.000	0.005	0.430	2.656	1.909	1.909	1.909	1.929	1.929	1.934
0.010	-0.005	0.000	0.000	0.005	0.000	0.430	2.656	1.909	1.909	1.914	1.934	1.929	1.929
-0.005	-0.005	0.005	0.000	0.005	-0.020	0.435	2.671	1.909	1.909	1.909	1.934	1.929	1.919
0.000	0.000	0.000	0.000	0.005	-0.024	0.430	2.734	1.914	1.909	1.909	1.929	1.929	1.924
0.000	-0.005	0.005	0.005	0.005	-0.005	0.430	2.651	1.909	1.909	1.909	1.929	1.929	1.929
-0.005	0.015	0.000	0.000	0.005	-0.005	0.439	2.642	1.899	1.909	1.909	1.929	1.924	1.924
-0.005	0.005	0.000	0.005	0.010	0.005	0.435	2.729	1.904	1.904	1.904	1.924	1.919	1.929
0.000	0.005	0.000	0.000	0.000	0.010	0.435	2.646	1.899	1.904	1.904	1.924	1.924	1.929
0.005	0.000	0.000	0.000	0.010	-0.010	0.430	2.661	1.899	1.899	1.899	1.919	1.919	1.914
0.005	-0.005	0.005	0.005	0.005	0.010	0.439	2.646	1.895	1.895	1.899	1.919	1.914	1.919
-0.005	0.010	0.000	0.005	0.005	0.015	0.430	2.676	1.890	1.899	1.895	1.914	1.914	1.924
0.010	0.005	0.005	0.005	0.005	0.020	0.435	2.686	1.895	1.895	1.899	1.919	1.914	1.924
0.000	0.005	0.000	0.010	0.005	0.015	0.430	2.646	1.895	1.899	1.895	1.919	1.919	1.919
-0.005	0.015	0.005	-0.005	0.005	0.015	0.430	2.700	1.899	1.899	1.899	1.914	1.914	1.919
0.005	-0.005	0.005	0.000	0.005	0.015	0.435	2.656	1.899	1.899	1.895	1.914	1.914	1.914
0.005	0.005	0.000	0.000	0.005	0.010	0.439	2.681	1.904	1.899	1.899	1.919	1.914	1.914
0.000	0.000	0.000	0.000	0.000	-0.005	0.425	2.710	1.909	1.904	1.899	1.919	1.914	1.909
0.010	0.000	0.005	0.005	0.000	0.005	0.435	2.686	1.909	1.904	1.899	1.919	1.919	1.914
0.005	-0.005	0.005	0.005	0.000	-0.024	0.430	2.681	1.904	1.904	1.904	1.919	1.914	1.909
0.005	0.005	0.000	0.000	0.000	0.000	0.435	2.681	1.904	1.904	1.899	1.919	1.914	1.914
0.000	0.005	0.000	0.000	0.005	0.000	0.425	2.681	1.904	1.904	1.904	1.919	1.914	1.914
-0.005	0.005	0.000	0.000	0.005	0.000	0.430	2.700	1.899	1.899	1.899	1.919	1.914	1.914
0.000	0.005	0.000	0.000	0.005	0.000	0.430	2.686	1.904	1.899	1.899	1.919	1.914	1.914
0.000	0.005	0.005	0.000	0.015	-0.015	0.435	2.671	1.899	1.899	1.899	1.914	1.914	1.909
0.005	0.005	-0.005	0.000	0.005	0.005	0.425	2.686	1.904	1.899	1.895	1.914	1.909	1.914
-0.015	0.000	0.005	0.000	0.005	-0.010	0.430	2.690	1.895	1.899	1.895	1.914	1.909	1.904
0.005	0.010	0.000	0.005	0.005	-0.010	0.430	2.700	1.899	1.895	1.895	1.909	1.909	1.904
-0.005	0.000	-0.005	0.000	0.005	0.000	0.425	2.690	1.899	1.895	1.895	1.909	1.909	1.914
0.005	0.000	0.000	0.000	0.005	0.010	0.430	2.705	1.904	1.895	1.895	1.914	1.909	1.909
0.000	0.000	0.005	0.000	-0.005	0.005	0.430	2.686	1.904	1.899	1.895	1.909	1.904	1.909
0.020	0.000	0.000	0.005	-0.005	-0.005	0.430	2.686	1.909	1.904	1.899	1.914	1.904	1.904
0.015	0.000	0.000	0.005	0.000	0.005	0.425	2.681	1.899	1.899	1.899	1.919	1.909	1.909
0.000	0.000	0.000	0.000	0.005	0.005	0.435	2.705	1.904	1.904	1.899	1.919	1.909	1.909
0.010	-0.005	0.000	0.005	0.000	0.005	0.435	2.710	1.909	1.904	1.899	1.919	1.909	1.914
0.005	0.005	0.000	0.005	0.005	-0.005	0.439	2.686	1.904	1.909	1.904	1.919	1.914	1.909
0.000	0.005	0.005	0.000	-0.005	0.015	0.439	2.710	1.909	1.909	1.904	1.924	1.914	1.914
0.000	-0.005	0.005	0.005	0.000	-0.005	0.435	2.705	1.904	1.904	1.904	1.919	1.914	1.904
0.000	0.000	0.000	0.005	0.000	-0.005	0.425	2.695	1.904	1.904	1.904	1.919	1.914	1.909
-0.005	-0.005	0.000	0.005	0.010	0.010	0.435	2.666	1.895	1.899	1.899	1.919	1.914	1.919
-0.005	0.000	-0.005	0.000	0.005	0.000	0.430	2.661	1.895	1.899	1.899	1.919	1.914	1.909
0.000	0.000	0.005	0.005	0.000	-0.005	0.435	2.656	1.890	1.890	1.895	1.914	1.909	1.904
-0.005	0.005	0.000	0.005	0.000	-0.005	0.430	2.651	1.885	1.890	1.895	1.914	1.909	1.904
-0.005	-0.010	0.005	0.000	0.005	0.010	0.435	2.666	1.885	1.885	1.890	1.909	1.909	1.914
0.005	-0.005	0.000	0.005	0.005	0.000	0.430	2.739	1.895	1.885	1.890	1.909	1.909	1.909
0.005	0.000	0.005	0.005	0.000	0.010	0.435	2.651	1.895	1.890	1.885	1.909	1.909	1.909
0.000	0.024	0.000	0.005	0.005	0.000	0.435	2.651	1.890	1.899	1.890	1.909	1.904	1.909
0.000	0.020	-0.005	0.000	0.005	0.000	0.430	2.656	1.895	1.895	1.890	1.909	1.904	1.909
-0.005	0.015	0.000	0.000	-0.005	0.010	0.425	2.734	1.899	1.895	1.890	1.909	1.904	1.904
0.005	0.005	0.000	0.000	0.000	0.000	0.435	2.661	1.899	1.895	1.895	1.914	1.904	1.904
0.010	0.010	0.010	0.000	0.000	0.010	0.430	2.651	1.899	1.895	1.895	1.914	1.909	1.909
0.000	0.000	0.000	0.005	0.000	-0.020	0.435	2.661	1.895	1.895	1.895	1.914	1.909	1.899
-0.005	0.000	0.010	0.005	0.000	0.020	0.435	2.676	1.895	1.895	1.895	1.914	1.914	1.914
0.005	0.005	0.000	-0.005	0.000	0.005	0.430	2.754	1.895	1.895	1.899	1.914	1.909	1.914
0.000	0.010	0.000	0.005	0.000	0.005	0.430	2.695	1.890	1.890	1.895	1.914	1.909	1.909
0.010	-0.005	0.000	0.000	0.005	-0.010	0.435	2.759	1.904	1.890	1.890	1.909	1.909	1.904
0.005	-0.005	0.005	0.005	0.005	-0.010	0.439	2.705	1.904	1.895	1.895	1.914	1.909	1.909
0.010	-0.005	0.005	0.005	0.005	0.010	0.430	2.686	1.895	1.895	1.890	1.909	1.909	1.914
0.005	0.000	-0.005	0.000	0.005	0.005	0.439	2.700	1.895	1.890	1.890	1.904	1.904	1.909
-0.010	0.005	0.005	0.000	0.005	0.020	0.430	2.681	1.885	1.890	1.890	1.904	1.904	1.909
0.000	0.000	0.005	0.000	0.000	0.015	0.435	2.681	1.890	1.890	1.885	1.904	1.899	1.904
0.000	0.000	-0.005	0.000	0.005	-0.005	0.435	2.690	1.895	1.890	1.890	1.904	1.899	1.899
0.010	0.005	0.000	0.000	0.000	0.010	0.439	2.700	1.899	1.890	1.890	1.904	1.899	1.904
0.000	-0.005	0.005	0.005	0.005	0.000	0.435	2.695	1.895	1.890	1.885	1.904	1.899	1.899
0.000	0.005	0.000	0.000	-0.005	0.005	0.439	2.686	1.895	1.895	1.890	1.904	1.899	1.899
0.000	0.010	-0.005	-0.005	0.000	-0.010	0.430	2.695	1.899	1.895	1.890	1.909	1.904	1.899
0.000	0.000	0.000	-0.005	0.000	-0.015	0.439	2.700	1.899	1.895	1.895	1.909	1.904	1.899
-0.005	0.005	0.000	-0.005	0.000	0.010	0.435	2.710	1.899	1.899	1.895	1.909	1.909	1.904
0.005	0.005	-0.005	0.000	0.000	0.000	0.430	2.686	1.904	1.899	1.899	1.914	1.909	1.899
0.010	-0.005	0.000	0.000	-0.005	-0.005	0.430	2.700	1.904	1.895	1.895	1.914	1.909	1.904
-0.005	0.000	0.005	0.005	0.000	-0.010	0.439	2.695	1.899	1.899	1.895	1.914	1.909	1.904
-0.005	-0.010	0.000	0.000	0.000	0.010	0.430	2.700	1.899	1.899	1.899	1.914	1.909	1.909
0.005	-0.005	0.005	0.010	0.000	0.005	0.435	2.690	1.895	1.899	1.895	1.914	1.909	1.909
-0.005	0.010	0.000	0.010	0.010	-0.005	0.435	2.686	1.895	1.895	1.895	1.914	1.909	1.904
-0.015	0.015	0.010	0.000	0.010	0.010	0.430	2.720	1.895	1.895	1.895	1.909	1.909	1.909
-0.005	0.005	0.005	0.000	0.000	-0.020	0.435	2.681	1.890	1.895	1.895	1.909	1.904	1.899
0.000	0.000	0.000	-0.005	0.005	0.010	0.430	2.705	1.890	1.890	1.890	1.909	1.904	1.904
0.000	0.000	0.000	0.000	0.010	0.015	0.430	2.686	1.885	1.885	1.890	1.909	1.904	1.909
-0.005	0.010	0.000	0.000	0.010	0.010	0.435	2.695	1.890	1.890	1.885	1.904	1.904	1.904
0.005	-0.005	0.000	0.005	0.000	0.000	0.435	2.666	1.890	1.885	1.885	1.904	1.899	1.904
0.005	0.005	0.005	0.000	0.000	0.000	0.430	2.676	1.890	1.885	1.890	1.909	1.899	1.904
0.010	0.005	0.005	0.005	0.000	-0.005	0.430	2.651	1.885	1.885	1.890	1.909	1.899	1.899
-0.005	-0.005	0.000	0.000	-0.005	-0.005	0.430	2.666	1.885	1.885	1.885	1.909	1.899	1.899
0.000	-0.005	-0.005	0.000	-0.005	-0.005	0.435	2.671	1.890	1.885	1.885	1.904	1.904	1.899
0.000	0.010	0.000	0.000	0.000	0.005	0.430	2.744	1.899	1.890	1.890	1.909	1.904	1.904
0.005	0.000	0.005	0.005	0.000	0.005	0.435	2.666	1.895	1.890	1.890	1.909	1.909	1.904
0.010	0.005	0.005	0.005	0.000	0.005	0.435	2.646	1.890	1.895	1.895	1.909	1.904	1.909
0.005	-0.005	0.000	0.005	0.000	0.005	0.435	2.749	1.895	1.890	1.890	1.909	1.904	1.904
0.000	-0.010	0.000	0.005	0.005	0.000	0.430	2.720	1.890	1.885	1.890	1.909	1.904	1.904
0.010	-0.010	0.000	0.005	0.000	0.010	0.435	2.651	1.890	1.890	1.890	1.904	1.904	1.904
-0.005	0.000	0.000	-0.005	0.005	0.005	0.430	2.734	1.880	1.880	1.885	1.904	1.904	1.904
0.000	-0.005	0.000	0.000	0.005	0.000	0.435	2.642	1.880	1.880	1.885	1.899	1.899	1.899
-0.005	0.010	0.000	0.000	0.005	0.010	0.430	2.686	1.880	1.885	1.885	1.904	1.899	1.899
0.010	0.000	0.010	0.005	0.000	-0.010	0.435	2.754	1.895	1.885	1.880	1.904	1.895	1.890
0.000	0.005	0.000	0.005	0.000	0.010	0.430	2.695	1.890	1.880	1.880	1.899	1.895	1.899
-0.005	0.005	0.000	0.000	0.005	0.010	0.439	2.744	1.895	1.885	1.880	1.904	1.895	1.899
-0.005	0.015	0.005	0.005	0.000	0.005	0.435	2.695	1.895	1.890	1.885	1.899	1.895	1.899
0.010	0.015	0.005	0.005	0.005	-0.005	0.435	2.700	1.899	1.890	1.885	1.904	1.899	1.895
0.005	0.010	0.005	0.010	0.010	-0.010	0.439	2.686	1.895	1.890	1.885	1.904	1.899	1.899
0.005	0.010	0.000	0.005	0.000	0.010	0.435	2.690	1.895	1.895	1.890	1.904	1.899	1.904
0.005	0.005	0.005	0.010	0.000	-0.015	0.435	2.700	1.899	1.895	1.895	1.909	1.899	1.895
0.010	0.005	0.000	0.005	-0.005	-0.010	0.425	2.690	1.899	1.895	1.890	1.909	1.899	1.899
0.005	0.015	0.005	0.005	0.000	0.005	0.435	2.695	1.895	1.899	1.895	1.909	1.904	1.904
0.000	0.020	0.000	0.005	0.005	-0.005	0.435	2.700	1.895	1.899	1.895	1.909	1.904	1.899
0.000	0.015	0.000	0.000	0.010	0.010	0.439	2.700	1.895	1.895	1.895	1.909	1.904	1.909
0.005	0.010	0.005	0.000	0.015	0.010	0.430	2.681	1.895	1.895	1.895	1.909	1.909	1.909
-0.005	0.005	0.000	-0.005	0.010	0.010	0.435	2.690	1.890	1.890	1.890	1.909	1.904	1.904
0.000	0.010	0.000	0.000	0.010	-0.015	0.430	2.695	1.890	1.885	1.890	1.909	1.904	1.895
0.000	0.000	0.000	0.000	0.005	-0.005	0.425	2.686	1.890	1.885	1.885	1.904	1.899	1.899
0.000	0.000	-0.005	0.000	0.005	0.005	0.435	2.695	1.890	1.880	1.880	1.904	1.899	1.899
0.005	-0.005	0.000	0.005	0.010	0.010	0.435	2.686	1.885	1.885	1.885	1.904	1.899	1.904
0.015	0.005	0.005	0.000	0.000	0.000	0.435	2.690	1.890	1.885	1.885	1.904	1.895	1.904
0.005	0.000	0.005	0.000	0.000	-0.015	0.430	2.710	1.890	1.885	1.885	1.904	1.895	1.895
0.010	0.005	0.000	0.005	0.000	-0.015	0.430	2.705	1.895	1.885	1.885	1.904	1.899	1.890
0.000	0.000	0.000	0.000	-0.005	0.005	0.435	2.710	1.895	1.885	1.885	1.904	1.899	1.899
0.000	-0.010	0.005	0.000	-0.005	0.010	0.425	2.690	1.895	1.890	1.890	1.904	1.899	1.899
0.010	-0.010	0.000	0.005	0.000	-0.015	0.439	2.695	1.890	1.890	1.885	1.909	1.904	1.895
0.010	-0.005	0.000	0.005	0.000	0.000	0.425	2.686	1.895	1.890	1.890	1.904	1.904	1.899
0.000	-0.005	0.005	0.005	0.000	0.010	0.435	2.695	1.895	1.895	1.890	1.909	1.904	1.904
-0.015	0.005	0.005	0.005	0.000	0.015	0.430	2.666	1.885	1.895	1.890	1.909	1.904	1.904
-0.005	0.000	0.000	0.000	0.000	0.005	0.435	2.671	1.890	1.890	1.890	1.909	1.904	1.904
-0.010	0.000	0.005	0.005	0.000	0.005	0.430	2.661	1.885	1.885	1.890	1.909	1.904	1.904
0.005	0.000	-0.005	0.000	0.005	-0.015	0.435	2.651	1.890	1.890	1.885	1.904	1.899	1.895
-0.005	0.000	0.000	0.000	0.000	0.000	0.435	2.676	1.885	1.885	1.885	1.904	1.899	1.899
-0.005	0.000	0.000	0.000	0.015	0.010	0.439	2.739	1.890	1.880	1.885	1.904	1.904	1.899
-0.005	-0.010	0.000	-0.005	0.005	0.010	0.435	2.671	1.885	1.880	1.880	1.899	1.899	1.899
0.005	-0.010	0.000	0.005	0.005	0.020	0.435	2.656	1.880	1.880	1.880	1.899	1.899	1.904
0.000	-0.010	0.000	-0.005	0.005	-0.010	0.430	2.661	1.890	1.880	1.880	1.895	1.895	1.890
0.015	0.000	0.005	0.000	0.000	0.000	0.435	2.656	1.890	1.885	1.880	1.899	1.890	1.895
0.010	-0.005	0.000	0.000	0.000	0.000	0.430	2.661	1.880	1.885	1.880	1.895	1.890	1.895
0.000	-0.005	0.000	0.000	0.000	0.015	0.435	2.749	1.885	1.885	1.880	1.899	1.895	1.895
0.000	0.000	0.005	0.000	0.000	0.010	0.430	2.656	1.885	1.885	1.880	1.899	1.895	1.895
0.005	0.034	0.005	0.005	0.000	-0.010	0.435	2.676	1.895	1.899	1.890	1.904	1.895	1.890
0.005	0.029	0.000	0.000	-0.005	0.005	0.425	2.754	1.899	1.895	1.895	1.904	1.899	1.899
0.000	0.015	0.000	0.000	0.000	0.000	0.425	2.695	1.895	1.895	1.895	1.904	1.899	1.895
0.000	0.005	0.005	0.005	0.000	0.000	0.430	2.754	1.899	1.895	1.890	1.909	1.899	1.895
0.005	0.010	0.000	0.000	0.005	-0.024	0.435	2.690	1.899	1.895	1.890	1.909	1.904	1.895
0.005	0.005	0.005	0.000	0.005	0.005	0.430	2.690	1.895	1.895	1.895	1.909	1.904	1.904
0.015	0.005	0.005	0.000	0.005	-0.005	0.435	2.690	1.895	1.890	1.890	1.909	1.904	1.904
0.000	0.005	0.005	0.005	0.005	0.005	0.430	2.676	1.885	1.890	1.890	1.909	1.904	1.904
0.000	-0.005	0.000	0.005	0.005	0.005	0.435	2.681	1.890	1.885	1.890	1.904	1.904	1.899
0.000	-0.010	0.000	0.005	0.005	0.010	0.435	2.681	1.890	1.885	1.890	1.904	1.899	1.904
0.000	0.000	0.000	0.005	0.005	0.015	0.425	2.676	1.885	1.885	1.885	1.904	1.899	1.904
0.000	-0.005	-0.005	0.005	0.005	0.005	0.439	2.686	1.880	1.880	1.885	1.899	1.899	1.899
-0.005	0.005	-0.005	0.000	-0.005	0.000	0.430	2.686	1.880	1.880	1.885	1.899	1.895	1.899
0.005	0.000	0.000	0.000	0.000	0.010	0.439	2.681	1.880	1.875	1.880	1.899	1.899	1.899
0.000	-0.005	0.005	0.005	0.000	0.000	0.430	2.695	1.885	1.880	1.880	1.899	1.895	1.895
0.010	0.000	0.005	0.000	0.000	0.005	0.439	2.710	1.890	1.885	1.880	1.899	1.895	1.895
0.000	-0.005	0.005	0.000	0.000	0.010	0.425	2.686	1.890	1.885	1.885	1.899	1.899	1.899
-0.005	-0.015	0.000	0.000	0.000	-0.005	0.435	2.690	1.890	1.880	1.880	1.899	1.895	1.895
0.000	-0.005	0.000	0.000	0.000	0.005	0.425	2.695	1.895	1.885	1.885	1.904	1.899	1.899
-0.005	0.000	0.005	0.000	0.000	-0.005	0.435	2.700	1.895	1.890	1.885	1.904	1.899	1.895
0.005	0.005	0.000	0.000	0.000	0.005	0.430	2.705	1.895	1.895	1.890	1.904	1.899	1.899
-0.005	0.005	0.005	0.000	0.000	0.005	0.435	2.700	1.895	1.895	1.890	1.904	1.899	1.899
-0.010	0.000	0.000	0.000	0.000	-0.010	0.435	2.715	1.895	1.890	1.890	1.909	1.899	1.895
0.000	0.005	0.000	0.000	0.010	-0.005	0.430	2.695	1.895	1.895	1.890	1.909	1.904	1.895
0.000	0.005	0.005	-0.005	0.005	-0.010	0.435	2.690	1.890	1.890	1.890	1.904	1.899	1.895
-0.005	-0.005	0.000	-0.005	0.005	0.005	0.435	2.690	1.885	1.885	1.885	1.904	1.904	1.899
0.000	-0.010	0.000	0.005	0.010	0.005	0.430	2.695	1.885	1.880	1.885	1.904	1.899	1.899
-0.005	-0.005	0.000	0.000	0.005	-0.010	0.435	2.671	1.885	1.880	1.880	1.899	1.895	1.890
0.010	0.005	0.000	0.005	0.005	0.000	0.430	2.656	1.885	1.885	1.880	1.899	1.895	1.895
0.000	0.005	0.000	0.000	0.000	-0.010	0.435	2.651	1.875	1.880	1.880	1.899	1.895	1.899
0.005	0.010	0.000	0.005	0.005	0.005	0.430	2.656	1.880	1.880	1.880	1.899	1.895	1.899
-0.005	0.005	0.000	0.000	-0.005	0.005	0.435	2.661	1.875	1.875	1.880	1.895	1.890	1.895
0.010	0.010	0.000	0.005	0.000	0.010	0.430	2.749	1.895	1.885	1.885	1.899	1.895	1.899
0.005	0.010	0.000	0.005	-0.005	0.005	0.430	2.666	1.890	1.885	1.885	1.904	1.895	1.899
0.005	0.005	-0.005	0.005	0.005	0.005	0.439	2.642	1.885	1.885	1.880	1.904	1.899	1.899
-0.005	0.005	0.005	0.000	0.005	0.010	0.430	2.759	1.899	1.890	1.885	1.904	1.899	1.899
-0.010	0.005	0.005	0.005	0.000	0.010	0.439	2.642	1.904	1.890	1.885	1.904	1.899	1.899
-0.005	0.005	0.000	0.000	-0.005	0.000	0.430	2.651	1.899	1.890	1.885	1.899	1.899	1.899
0.005	0.005	0.005	0.000	0.005	-0.024	0.439	2.754	1.904	1.895	1.890	1.904	1.899	1.895
0.005	-0.005	0.000	0.000	0.000	-0.020	0.435	2.651	1.895	1.895	1.890	1.904	1.899	1.895
-0.005	0.005	0.005	0.005	0.000	0.000	0.439	2.671	1.890	1.895	1.890	1.904	1.899	1.899
0.010	0.000	0.000	0.000	0.005	0.000	0.425	2.715	1.890	1.890	1.890	1.904	1.899	1.899
0.000	0.010	0.000	0.005	0.005	-0.010	0.439	2.690	1.890	1.890	1.890	1.904	1.899	1.895
0.000	0.005	0.005	0.005	0.005	0.000	0.430	2.739	1.890	1.885	1.885	1.904	1.899	1.895
0.000	0.010	0.000	0.000	0.005	0.029	0.439	2.715	1.895	1.890	1.885	1.904	1.899	1.904
0.000	-0.010	0.000	-0.005	0.005	0.005	0.430	2.681	1.890	1.880	1.885	1.899	1.899	1.895
0.000	0.005	0.005	0.000	0.000	0.010	0.439	2.681	1.885	1.885	1.885	1.899	1.895	1.895
-0.005	-0.005	0.000	0.005	0.000	-0.015	0.430	2.690	1.885	1.880	1.885	1.904	1.895	1.885
0.005	-0.005	0.000	0.000	0.000	-0.015	0.435	2.700	1.890	1.885	1.880	1.899	1.895	1.895
0.005	0.005	-0.005	0.000	0.005	0.015	0.435	2.686	1.890	1.885	1.885	1.904	1.899	1.904
0.000	0.005	0.005	0.000	0.005	0.015	0.439	2.700	1.895	1.890	1.885	1.904	1.899	1.899
0.000	-0.005	0.005	0.000	0.000	0.010	0.439	2.690	1.895	1.890	1.890	1.904	1.899	1.899
0.005	0.024	-0.005	0.000	-0.005	0.000	0.439	2.695	1.895	1.899	1.890	1.909	1.899	1.899
-0.005	-0.010	-0.005	0.000	0.000	0.000	0.439	2.705	1.895	1.890	1.890	1.904	1.899	1.899
0.005	0.000	0.000	0.005	0.005	-0.029	0.439	2.686	1.899	1.890	1.890	1.909	1.904	1.890
0.010	-0.005	0.005	0.000	0.005	-0.015	0.435	2.710	1.895	1.890	1.890	1.909	1.904	1.899
0.010	-0.010	0.000	0.000	0.000	0.010	0.439	2.690	1.895	1.890	1.885	1.909	1.904	1.904
0.000	-0.010	0.000	0.005	0.005	-0.010	0.439	2.700	1.890	1.890	1.890	1.909	1.904	1.899
-0.005	-0.005	0.000	-0.005	0.000	0.005	0.435	2.686	1.890	1.885	1.885	1.904	1.899	1.904
-0.010	0.000	0.000	0.000	0.005	0.015	0.435	2.681	1.880	1.885	1.885	1.904	1.899	1.904
0.000	0.005	0.005	0.010	0.000	0.010	0.435	2.690	1.885	1.885	1.885	1.904	1.899	1.899
0.005	0.000	0.010	0.000	0.000	0.010	0.439	2.690	1.885	1.885	1.885	1.899	1.895	1.899
0.000	-0.005	0.000	0.000	0.005	0.005	0.430	2.695	1.890	1.885	1.885	1.899	1.895	1.895
0.005	0.010	0.000	0.000	0.000	0.015	0.435	2.700	1.890	1.885	1.880	1.899	1.895	1.899
0.015	0.020	-0.005	0.005	0.005	-0.010	0.435	2.690	1.890	1.890	1.885	1.899	1.895	1.895
0.020	0.020	0.000	0.005	0.000	0.000	0.435	2.690	1.890	1.890	1.885	1.899	1.895	1.895
0.015	0.020	0.005	0.000	-0.005	0.015	0.435	2.700	1.895	1.895	1.885	1.904	1.899	1.899
0.000	0.010	0.005	0.005	-0.005	-0.005	0.435	2.676	1.890	1.890	1.890	1.904	1.899	1.895
0.000	0.000	0.005	0.005	-0.005	0.005	0.430	2.671	1.890	1.885	1.890	1.904	1.899	1.895
0.000	0.005	0.000	0.005	0.000	0.000	0.430	2.661	1.885	1.885	1.890	1.909	1.904	1.899
0.010	-0.010	0.005	0.005	0.000	-0.015	0.425	2.666	1.890	1.885	1.890	1.909	1.904	1.899
0.005	0.000	0.005	0.005	0.005	0.005	0.435	2.671	1.885	1.880	1.885	1.904	1.904	1.899
0.005	-0.010	0.000	0.000	0.005	0.010	0.425	2.744	1.895	1.885	1.880	1.904	1.904	1.899
0.000	-0.005	0.000	0.000	0.005	0.005	0.430	2.656	1.885	1.880	1.880	1.899	1.899	1.904
0.010	0.000	0.000	0.000	0.010	-0.005	0.435	2.646	1.880	1.885	1.880	1.899	1.899	1.899
-0.005	0.010	0.005	0.000	0.005	-0.015	0.435	2.749	1.885	1.880	1.880	1.899	1.899	1.895
-0.010	0.005	0.000	0.000	0.005	-0.005	0.435	2.749	1.890	1.880	1.880	1.899	1.895	1.895
0.000	0.010	0.000	0.005	0.005	0.005	0.430	2.651	1.880	1.880	1.880	1.899	1.895	1.895
0.010	0.005	0.000	0.005	0.000	-0.015	0.435	2.739	1.890	1.875	1.875	1.895	1.895	1.890
0.005	-0.005	-0.005	0.000	0.000	0.010	0.435	2.759	1.895	1.880	1.875	1.895	1.895	1.895
0.000	0.005	0.005	0.000	0.000	0.000	0.435	2.690	1.890	1.885	1.880	1.895	1.890	1.890
-0.005	0.000	0.000	0.000	-0.005	0.015	0.435	2.749	1.885	1.885	1.880	1.899	1.890	1.895
0.000	-0.010	0.000	0.000	-0.005	-0.005	0.425	2.681	1.885	1.885	1.880	1.895	1.890	1.885
0.000	-0.005	0.000	0.000	-0.005	-0.010	0.425	2.744	1.895	1.885	1.880	1.899	1.895	1.890
0.000	-0.005	0.005	0.005	0.000	0.010	0.430	2.695	1.895	1.890	1.885	1.904	1.895	1.899
0.000	0.000	0.005	0.000	-0.005	0.000	0.425	2.695	1.895	1.895	1.885	1.904	1.895	1.895
0.005	0.010	0.005	0.000	0.005	0.010	0.430	2.700	1.895	1.899	1.890	1.899	1.899	1.895
0.010	-0.015	0.000	0.005	0.010	-0.020	0.425	2.690	1.895	1.890	1.890	1.904	1.899	1.895
-0.005	-0.015	0.000	-0.005	0.005	0.010	0.430	2.690	1.895	1.890	1.890	1.904	1.904	1.904
0.000	-0.005	0.000	0.005	0.005	0.020	0.430	2.710	1.895	1.890	1.890	1.904	1.904	1.904
0.005	-0.005	0.005	0.000	0.005	0.010	0.435	2.695	1.895	1.890	1.890	1.904	1.904	1.904
0.005	-0.005	-0.005	-0.005	0.005	-0.010	0.425	2.705	1.890	1.890	1.890	1.904	1.899	1.895
0.005	-0.005	0.005	0.000	0.000	-0.005	0.430	2.705	1.890	1.890	1.885	1.904	1.895	1.890
-0.005	0.005	0.005	0.000	0.005	0.015	0.425	2.700	1.890	1.895	1.890	1.904	1.899	1.899
0.005	0.015	0.000	0.005	0.000	0.005	0.435	2.686	1.885	1.895	1.890	1.899	1.895	1.899
0.005	0.010	-0.005	0.000	0.000	0.005	0.430	2.705	1.890	1.885	1.885	1.904	1.895	1.895
-0.005	0.024	0.000	0.000	0.000	0.005	0.430	2.695	1.885	1.890	1.890	1.904	1.899	1.895
-0.005	0.010	0.005	0.005	0.000	0.005	0.425	2.686	1.885	1.885	1.885	1.904	1.899	1.895
-0.005	0.000	0.010	0.005	0.005	-0.010	0.430	2.681	1.885	1.880	1.885	1.904	1.899	1.895
-0.005	0.005	0.000	0.000	0.000	-0.024	0.425	2.710	1.885	1.880	1.885	1.904	1.899	1.890
0.010	0.010	0.005	0.000	0.000	0.010	0.435	2.710	1.890	1.885	1.885	1.909	1.904	1.904
0.010	0.000	0.005	0.000	0.000	0.005	0.435	2.690	1.895	1.890	1.885	1.904	1.904	1.904
-0.005	0.005	0.000	0.000	0.005	0.000	0.435	2.695	1.890	1.890	1.885	1.904	1.904	1.899
0.000	0.005	0.010	0.000	0.000	0.010	0.435	2.710	1.895	1.890	1.890	1.909	1.904	1.904
0.000	0.000	0.000	0.005	0.005	0.000	0.430	2.710	1.890	1.890	1.890	1.909	1.904	1.904
-0.005	-0.010	-0.005	0.005	0.005	-0.015	0.425	2.681	1.890	1.885	1.885	1.904	1.904	1.899
0.000	-0.005	-0.005	0.005	0.005	0.000	0.435	2.700	1.895	1.885	1.885	1.904	1.899	1.899
0.005	-0.005	0.005	0.000	0.000	0.000	0.435	2.666	1.890	1.885	1.885	1.904	1.899	1.899
0.000	-0.005	0.005	0.000	0.005	0.000	0.435	2.671	1.880	1.885	1.885	1.904	1.899	1.899
-0.005	0.015	-0.005	0.005	0.000	0.000	0.430	2.651	1.880	1.890	1.880	1.899	1.895	1.895
0.000	0.005	0.000	0.005	0.000	0.000	0.425	2.656	1.875	1.880	1.880	1.899	1.899	1.895
0.005	0.020	0.000	0.000	0.005	0.005	0.435	2.686	1.880	1.885	1.880	1.899	1.895	1.895
0.015	0.010	0.000	0.005	0.000	0.000	0.430	2.744	1.885	1.880	1.880	1.899	1.895	1.895
0.000	0.010	0.000	0.005	0.000	0.000	0.425	2.656	1.880	1.875	1.880	1.899	1.895	1.895
0.000	0.010	0.000	0.005	0.000	0.000	0.430	2.734	1.885	1.880	1.880	1.895	1.895	1.895
0.000	0.000	0.000	0.005	0.000	0.005	0.430	2.734	1.890	1.880	1.880	1.899	1.895	1.895
0.010	0.000	0.000	0.005	0.005	-0.029	0.425	2.661	1.890	1.885	1.880	1.899	1.895	1.890
0.005	0.010	0.000	0.005	0.000	0.015	0.439	2.637	1.880	1.885	1.880	1.899	1.895	1.899
0.005	0.005	0.005	0.010	-0.005	0.005	0.430	2.744	1.895	1.885	1.885	1.904	1.899	1.899
0.000	0.000	0.005	0.000	0.000	-0.010	0.435	2.754	1.899	1.890	1.885	1.899	1.899	1.890
-0.005	-0.005	0.005	0.005	0.005	0.010	0.430	2.666	1.890	1.890	1.885	1.904	1.899	1.899
0.010	-0.005	0.005	0.000	0.005	0.005	0.439	2.749	1.904	1.890	1.890	1.899	1.899	1.899
0.005	-0.005	0.000	0.005	0.005	0.005	0.435	2.690	1.890	1.890	1.885	1.904	1.899	1.899
-0.005	0.000	0.000	0.000	0.005	-0.010	0.435	2.637	1.890	1.890	1.890	1.904	1.899	1.895
0.000	-0.005	0.000	0.000	0.005	0.015	0.435	2.681	1.885	1.890	1.890	1.904	1.899	1.899
-0.005	0.000	0.000	0.000	0.000	-0.005	0.430	2.700	1.880	1.885	1.885	1.904	1.895	1.895
0.000	0.000	0.000	0.000	0.000	-0.005	0.425	2.686	1.885	1.880	1.885	1.899	1.895	1.890
0.000	-0.005	0.005	0.000	0.005	0.010	0.435	2.690	1.885	1.880	1.880	1.899	1.895	1.899
0.000	0.005	0.005	0.005	0.005	0.015	0.435	2.690	1.885	1.880	1.880	1.899	1.895	1.899
0.005	0.000	0.000	0.000	0.000	0.010	0.430	2.710	1.890	1.880	1.875	1.895	1.890	1.895
0.000	-0.005	0.000	0.000	-0.005	0.005	0.425	2.671	1.880	1.880	1.880	1.895	1.890	1.890
0.015	0.005	0.005	0.005	0.000	0.005	0.430	2.686	1.885	1.885	1.880	1.895	1.890	1.890
0.000	0.000	0.000	0.000	0.000	0.000	0.435	2.695	1.885	1.885	1.880	1.899	1.895	1.890
0.000	0.010	0.000	0.005	0.005	0.005	0.439	2.681	1.890	1.890	1.885	1.899	1.899	1.895
0.005	0.000	0.005	0.000	0.000	0.005	0.435	2.690	1.890	1.885	1.885	1.899	1.895	1.895
0.005	0.010	0.005	0.005	-0.005	0.010	0.435	2.700	1.895	1.890	1.890	1.904	1.899	1.895
0.005	0.005	0.000	0.000	0.000	0.005	0.435	2.690	1.895	1.890	1.890	1.904	1.899	1.895
0.005	0.010	0.005	0.005	0.000	0.010	0.439	2.700	1.895	1.890	1.890	1.904	1.899	1.899
0.010	0.005	0.000	0.005	0.005	0.000	0.435	2.686	1.890	1.890	1.890	1.904	1.904	1.895
0.005	-0.020	0.000	0.000	0.000	-0.010	0.430	2.686	1.885	1.880	1.885	1.904	1.899	1.895
0.000	-0.005	0.005	0.000	0.010	0.010	0.435	2.681	1.885	1.885	1.885	1.904	1.899	1.899
0.000	0.000	0.000	0.000	0.010	0.000	0.425	2.681	1.890	1.890	1.885	1.904	1.899	1.899
-0.005	0.000	0.000	0.000	0.010	-0.024	0.435	2.681	1.885	1.885	1.885	1.899	1.895	1.890
-0.005	-0.005	0.000	0.000	0.000	-0.015	0.430	2.686	1.880	1.880	1.880	1.899	1.895	1.895
0.005	0.005	0.005	0.005	0.005	0.020	0.439	2.690	1.885	1.880	1.880	1.899	1.899	1.904
0.005	0.000	0.005	0.005	0.000	0.010	0.435	2.700	1.885	1.880	1.880	1.899	1.895	1.895
0.000	0.000	0.000	0.005	-0.005	0.000	0.435	2.695	1.885	1.880	1.880	1.899	1.890	1.890
0.000	-0.005	0.000	0.005	0.000	0.010	0.435	2.676	1.880	1.875	1.880	1.895	1.895	1.895
0.005	0.005	0.000	0.005	-0.005	0.005	0.435	2.661	1.880	1.880	1.880	1.895	1.895	1.895
0.005	0.005	0.005	0.000	0.005	0.005	0.430	2.656	1.880	1.880	1.880	1.899	1.895	1.895
0.005	0.010	0.005	0.000	0.005	-0.010	0.435	2.671	1.885	1.880	1.880	1.899	1.895	1.890
0.005	0.005	0.005	0.005	0.000	0.000	0.430	2.676	1.880	1.880	1.880	1.904	1.895	1.895
0.010	0.015	0.000	0.000	0.005	0.005	0.435	2.729	1.890	1.890	1.885	1.899	1.899	1.899
0.010	0.020	0.000	0.000	0.005	0.005	0.430	2.661	1.890	1.890	1.885	1.904	1.899	1.899
0.000	0.010	0.005	0.005	0.000	0.000	0.444	2.646	1.880	1.885	1.885	1.904	1.899	1.895
-0.010	0.005	0.000	0.005	0.005	0.010	0.430	2.754	1.890	1.885	1.885	1.904	1.899	1.904
0.005	0.000	0.000	0.000	0.000	-0.010	0.435	2.646	1.885	1.880	1.880	1.899	1.895	1.895
0.005	0.005	0.005	0.000	0.005	0.005	0.430	2.651	1.885	1.880	1.880	1.899	1.899	1.899
-0.005	-0.005	0.000	0.000	0.000	0.005	0.430	2.651	1.875	1.875	1.880	1.899	1.895	1.895
0.010	-0.005	0.005	0.000	0.000	0.005	0.439	2.739	1.885	1.875	1.880	1.895	1.895	1.895
-0.005	0.005	0.005	-0.005	0.005	0.005	0.435	2.700	1.885	1.880	1.875	1.895	1.895	1.890
0.000	0.000	0.000	0.000	0.000	0.010	0.425	2.700	1.875	1.875	1.875	1.895	1.890	1.890
-0.005	0.000	-0.005	0.000	0.005	0.005	0.430	2.686	1.875	1.875	1.875	1.895	1.890	1.890
0.000	0.005	0.005	0.000	0.005	0.000	0.435	2.744	1.885	1.875	1.875	1.895	1.890	1.890
-0.005	0.005	0.000	0.005	0.000	0.005	0.430	2.671	1.885	1.880	1.875	1.890	1.890	1.890
0.020	-0.005	0.000	0.005	0.005	-0.029	0.439	2.690	1.890	1.880	1.880	1.895	1.890	1.885
0.005	0.010	-0.005	0.000	0.000	0.005	0.425	2.705	1.880	1.885	1.880	1.895	1.890	1.895
0.010	0.005	-0.005	0.000	-0.005	0.005	0.435	2.690	1.885	1.885	1.880	1.899	1.890	1.895
0.000	0.005	0.000	0.005	0.000	0.005	0.430	2.690	1.885	1.885	1.880	1.899	1.890	1.890
0.005	0.005	0.000	0.005	0.005	0.000	0.439	2.686	1.890	1.890	1.885	1.899	1.895	1.895
0.000	-0.015	0.005	0.005	0.005	-0.015	0.425	2.686	1.885	1.880	1.885	1.899	1.895	1.890
0.000	-0.015	0.005	0.000	0.005	-0.005	0.435	2.705	1.890	1.880	1.885	1.904	1.895	1.890
0.005	0.000	0.005	0.005	0.000	-0.005	0.430	2.715	1.895	1.890	1.885	1.904	1.899	1.899
0.000	-0.005	0.000	0.010	0.000	0.015	0.435	2.700	1.895	1.890	1.885	1.904	1.899	1.895
-0.005	0.005	0.005	0.000	0.000	0.015	0.435	2.695	1.890	1.890	1.885	1.899	1.895	1.895
0.005	-0.005	0.000	0.005	0.005	-0.010	0.430	2.705	1.890	1.880	1.880	1.899	1.895	1.890
-0.005	-0.005	0.000	0.000	0.005	0.010	0.430	2.686	1.885	1.880	1.880	1.895	1.895	1.895
0.000	0.005	0.000	0.000	0.005	0.000	0.430	2.686	1.880	1.880	1.880	1.895	1.890	1.895
0.000	0.010	0.000	0.000	0.005	0.005	0.435	2.690	1.885	1.880	1.880	1.895	1.890	1.890
0.000	0.005	0.000	0.000	0.000	0.005	0.430	2.695	1.885	1.880	1.875	1.895	1.890	1.890
-0.005	0.024	0.005	0.005	0.000	-0.010	0.435	2.715	1.885	1.885	1.880	1.899	1.890	1.885
0.000	0.029	0.000	0.005	-0.005	-0.020	0.430	2.700	1.890	1.885	1.880	1.899	1.890	1.885
0.005	0.020	0.005	0.000	-0.005	0.015	0.430	2.715	1.890	1.885	1.885	1.899	1.890	1.895
0.000	0.005	0.000	0.000	0.000	0.010	0.435	2.695	1.885	1.885	1.885	1.904	1.895	1.895
0.000	0.010	0.000	0.000	0.000	0.010	0.430	2.710	1.890	1.885	1.885	1.904	1.899	1.895
0.000	0.010	0.000	0.000	0.000	-0.020	0.430	2.690	1.895	1.890	1.885	1.899	1.895	1.890
-0.005	0.010	0.000	0.000	0.000	0.015	0.435	2.690	1.890	1.885	1.885	1.904	1.899	1.899
0.000	0.000	0.005	0.000	0.000	0.000	0.435	2.671	1.890	1.885	1.885	1.904	1.899	1.895
-0.005	0.000	0.005	0.000	0.005	0.005	0.430	2.661	1.885	1.885	1.890	1.904	1.899	1.899
0.000	0.000	0.000	0.005	0.000	0.010	0.435	2.651	1.885	1.885	1.885	1.904	1.899	1.899
-0.005	-0.005	0.000	0.000	0.005	0.000	0.430	2.651	1.880	1.880	1.880	1.899	1.899	1.899
0.005	0.005	0.005	0.000	0.005	0.000	0.430	2.681	1.880	1.880	1.880	1.904	1.899	1.895
0.000	0.000	0.000	0.005	0.010	0.005	0.430	2.749	1.885	1.880	1.875	1.899	1.895	1.895
0.005	-0.005	0.000	0.000	0.005	-0.024	0.435	2.661	1.880	1.880	1.880	1.895	1.895	1.890
0.005	-0.010	0.005	0.000	0.000	-0.005	0.430	2.739	1.890	1.880	1.875	1.895	1.895	1.890
0.000	-0.010	0.005	0.005	0.005	0.005	0.430	2.754	1.890	1.880	1.880	1.895	1.895	1.895
0.015	0.000	0.000	0.005	0.005	0.005	0.430	2.729	1.895	1.885	1.880	1.895	1.890	1.895
0.015	0.010	0.000	0.005	0.005	0.000	0.430	2.651	1.890	1.890	1.880	1.895	1.890	1.890
0.005	0.000	0.000	0.000	-0.005	0.010	0.439	2.749	1.890	1.885	1.880	1.899	1.890	1.890
-0.005	-0.005	0.005	0.000	0.000	0.010	0.430	2.759	1.904	1.890	1.880	1.899	1.895	1.895
0.000	0.005	0.005	0.000	-0.005	0.005	0.435	2.676	1.899	1.895	1.890	1.899	1.895	1.895
-0.005	0.005	0.000	-0.005	0.000	0.000	0.435	2.729	1.895	1.895	1.890	1.899	1.895	1.895
0.000	0.000	0.000	-0.005	-0.005	0.005	0.430	2.695	1.895	1.895	1.890	1.904	1.895	1.895
0.000	0.000	0.010	-0.005	0.005	-0.010	0.435	2.749	1.904	1.899	1.895	1.909	1.899	1.895
-0.005	0.010	0.000	0.000	0.005	-0.005	0.439	2.705	1.899	1.895	1.895	1.909	1.899	1.895
0.010	0.000	0.005	0.005	0.005	-0.024	0.425	2.705	1.899	1.895	1.895	1.914	1.899	1.895
0.000	-0.005	0.005	0.005	0.005	0.015	0.435	2.695	1.895	1.895	1.895	1.909	1.909	1.904
0.015	-0.005	0.000	0.005	0.000	0.015	0.425	2.690	1.895	1.890	1.890	1.909	1.904	1.904
0.000	-0.010	0.000	0.005	0.005	0.015	0.439	2.695	1.890	1.890	1.885	1.909	1.904	1.899
0.005	0.000	0.000	0.005	0.000	0.005	0.425	2.681	1.885	1.890	1.885	1.909	1.904	1.895
0.010	0.000	0.005	0.010	0.000	-0.010	0.435	2.690	1.885	1.885	1.885	1.904	1.904	1.895
0.005	0.000	0.000	0.010	-0.005	0.020	0.430	2.700	1.880	1.880	1.880	1.904	1.899	1.904
0.000	-0.010	0.000	0.005	0.000	0.010	0.435	2.686	1.885	1.880	1.880	1.899	1.899	1.899
0.000	-0.005	0.000	0.005	0.005	0.000	0.430	2.705	1.890	1.880	1.880	1.899	1.899	1.895
0.000	0.000	0.000	0.000	0.000	-0.010	0.430	2.686	1.885	1.885	1.880	1.899	1.895	1.895
0.005	0.005	0.005	0.000	0.005	-0.010	0.425	2.681	1.885	1.885	1.885	1.899	1.895	1.895
0.005	0.000	0.005	0.000	-0.005	0.015	0.439	2.690	1.890	1.885	1.885	1.899	1.899	1.899
-0.005	-0.005	0.005	0.005	0.000	-0.005	0.430	2.700	1.890	1.885	1.885	1.904	1.899	1.895
0.010	0.005	0.000	0.000	-0.005	0.015	0.435	2.690	1.895	1.890	1.885	1.904	1.899	1.899
0.010	0.000	0.000	0.000	-0.005	0.015	0.430	2.710	1.895	1.890	1.890	1.904	1.899	1.904
0.005	-0.005	0.000	0.000	0.000	0.005	0.435	2.705	1.895	1.890	1.890	1.904	1.904	1.899
0.000	0.010	0.005	0.000	0.000	0.015	0.430	2.710	1.895	1.895	1.890	1.909	1.899	1.904
0.005	0.000	0.005	0.000	0.000	0.010	0.439	2.710	1.899	1.895	1.890	1.909	1.904	1.899
0.005	-0.005	-0.005	0.005	0.000	0.005	0.435	2.690	1.895	1.890	1.890	1.909	1.904	1.899
0.005	-0.005	0.000	0.005	0.000	0.000	0.435	2.671	1.890	1.890	1.890	1.904	1.899	1.895
-0.005	0.000	0.000	0.000	0.005	0.005	0.435	2.681	1.885	1.885	1.890	1.904	1.899	1.895
0.005	-0.005	0.000	0.005	0.005	-0.010	0.425	2.690	1.885	1.885	1.885	1.904	1.899	1.895
0.005	0.000	0.000	0.010	0.005	0.000	0.430	2.666	1.880	1.880	1.885	1.904	1.899	1.895
0.000	0.000	0.005	0.010	0.005	-0.005	0.430	2.656	1.875	1.880	1.880	1.899	1.899	1.895
-0.005	0.000	0.005	0.005	0.000	0.015	0.435	2.661	1.875	1.880	1.880	1.899	1.895	1.899
-0.005	0.005	0.000	0.000	0.000	0.005	0.430	2.666	1.875	1.875	1.880	1.899	1.895	1.890
-0.010	0.010	0.000	0.000	0.000	-0.005	0.435	2.666	1.875	1.880	1.875	1.899	1.895	1.895
0.005	0.005	0.000	0.000	0.000	-0.005	0.435	2.744	1.890	1.880	1.875	1.895	1.895	1.890
0.005	0.000	0.000	0.005	-0.005	0.015	0.444	2.661	1.885	1.880	1.880	1.899	1.895	1.895
0.005	0.005	0.005	0.005	-0.005	0.015	0.430	2.739	1.890	1.890	1.885	1.899	1.895	1.899
-0.005	0.010	0.000	0.000	0.000	0.010	0.439	2.749	1.899	1.890	1.885	1.899	1.899	1.899
0.000	-0.005	0.000	0.000	0.000	0.010	0.430	2.725	1.899	1.890	1.885	1.899	1.899	1.899
0.005	-0.005	0.000	0.010	0.000	0.015	0.435	2.671	1.895	1.890	1.890	1.904	1.899	1.899
0.000	-0.005	0.000	0.005	0.000	0.005	0.435	2.744	1.899	1.895	1.890	1.904	1.899	1.899
0.010	-0.005	0.000	0.005	0.005	-0.005	0.430	2.661	1.909	1.895	1.890	1.904	1.899	1.890
0.000	0.000	0.005	0.000	0.005	-0.005	0.435	2.690	1.899	1.895	1.890	1.904	1.899	1.899
0.000	-0.005	0.005	0.005	0.010	-0.005	0.430	2.637	1.890	1.895	1.890	1.904	1.899	1.895
0.000	0.000	0.000	0.005	0.005	-0.005	0.430	2.686	1.880	1.890	1.890	1.904	1.899	1.899
0.010	0.000	0.005	0.000	0.010	0.000	0.435	2.749	1.895	1.885	1.885	1.904	1.895	1.895
-0.010	0.010	0.005	0.000	0.005	0.000	0.430	2.705	1.890	1.890	1.885	1.899	1.899	1.895
0.000	0.000	0.000	0.000	0.005	0.005	0.430	2.715	1.890	1.885	1.885	1.904	1.895	1.895
0.005	0.000	0.000	0.005	0.000	0.000	0.435	2.700	1.890	1.885	1.885	1.904	1.895	1.895
0.010	0.005	0.005	0.005	0.000	0.005	0.435	2.695	1.890	1.890	1.885	1.904	1.899	1.895
0.000	0.005	0.005	0.005	0.005	0.005	0.430	2.705	1.890	1.890	1.885	1.904	1.899	1.895
0.010	0.005	0.000	0.000	0.000	-0.015	0.430	2.671	1.890	1.890	1.890	1.899	1.899	1.890
0.005	-0.015	0.005	-0.005	-0.005	0.010	0.430	2.710	1.895	1.885	1.885	1.909	1.899	1.899
0.005	-0.010	0.000	0.005	0.000	0.005	0.430	2.710	1.895	1.890	1.885	1.904	1.904	1.899
0.000	-0.005	0.005	0.010	0.005	0.000	0.435	2.690	1.895	1.890	1.890	1.909	1.904	1.899
0.005	0.000	0.005	0.000	0.005	-0.015	0.435	2.676	1.895	1.895	1.890	1.909	1.904	1.899
-0.005	0.000	0.010	0.000	0.000	0.015	0.435	2.705	1.895	1.890	1.890	1.909	1.904	1.904
0.000	0.000	0.000	0.000	-0.005	0.010	0.425	2.710	1.895	1.895	1.890	1.909	1.904	1.904
0.005	0.010	0.000	0.000	0.000	0.005	0.435	2.686	1.895	1.895	1.890	1.909	1.904	1.904
0.000	0.010	0.000	0.000	0.000	0.010	0.430	2.686	1.895	1.895	1.890	1.909	1.899	1.899
0.000	0.005	0.005	0.000	0.005	0.015	0.435	2.686	1.890	1.890	1.890	1.909	1.904	1.904
0.000	0.005	0.000	0.005	0.005	0.010	0.435	2.686	1.885	1.885	1.890	1.909	1.904	1.904
0.010	0.005	0.000	0.000	0.005	-0.005	0.430	2.695	1.890	1.885	1.885	1.904	1.899	1.895
0.010	0.005	0.005	0.000	0.000	-0.005	0.430	2.700	1.885	1.885	1.885	1.904	1.899	1.895
0.005	0.020	0.000	0.000	0.005	0.000	0.430	2.700	1.885	1.885	1.885	1.899	1.899	1.899
0.010	0.024	0.000	0.000	0.000	0.005	0.435	2.700	1.890	1.885	1.885	1.904	1.899	1.899
-0.005	0.015	0.005	0.005	0.005	0.010	0.435	2.700	1.890	1.885	1.885	1.904	1.899	1.899
0.005	0.005	0.000	0.000	0.000	0.010	0.435	2.681	1.895	1.885	1.885	1.904	1.899	1.899
0.000	0.000	0.000	0.000	0.000	-0.024	0.435	2.686	1.890	1.885	1.885	1.904	1.895	1.890
0.000	0.005	0.000	0.000	0.000	0.000	0.425	2.666	1.885	1.890	1.885	1.904	1.899	1.899
0.005	0.000	0.000	0.000	0.000	-0.024	0.435	2.661	1.890	1.885	1.885	1.904	1.899	1.899
0.000	-0.005	0.000	0.000	0.000	-0.029	0.430	2.651	1.880	1.885	1.885	1.904	1.899	1.895
-0.005	0.010	0.000	0.000	0.000	-0.005	0.430	2.661	1.880	1.885	1.885	1.904	1.904	1.899
0.005	0.005	0.000	0.005	0.005	0.015	0.435	2.666	1.885	1.890	1.885	1.904	1.904	1.909
0.005	-0.005	-0.005	0.005	-0.005	0.010	0.435	2.725	1.890	1.885	1.885	1.904	1.899	1.904
-0.005	0.000	0.000	0.005	0.000	0.005	0.435	2.661	1.885	1.885	1.885	1.904	1.899	1.899
0.005	-0.005	0.000	-0.005	0.005	0.010	0.430	2.734	1.885	1.880	1.885	1.899	1.899	1.899
0.000	-0.005	0.005	0.000	0.000	0.015	0.430	2.744	1.890	1.885	1.885	1.899	1.895	1.899
0.005	0.000	0.005	0.005	0.000	-0.005	0.430	2.725	1.895	1.885	1.885	1.899	1.895	1.895
0.010	-0.005	0.010	-0.005	0.005	0.000	0.439	2.651	1.890	1.885	1.885	1.899	1.895	1.899
0.005	0.000	0.000	0.000	0.005	0.020	0.430	2.656	1.885	1.885	1.880	1.899	1.895	1.899
-0.005	-0.005	0.000	0.000	0.005	0.005	0.430	2.656	1.880	1.880	1.880	1.899	1.895	1.895
0.005	0.010	0.000	0.000	-0.005	0.015	0.425	2.681	1.880	1.880	1.880	1.895	1.890	1.895
0.005	0.000	0.010	0.005	0.005	0.010	0.439	2.661	1.880	1.880	1.880	1.899	1.895	1.895
0.015	0.015	0.005	0.010	0.005	0.000	0.430	2.705	1.890	1.885	1.880	1.904	1.895	1.890
-0.005	-0.005	0.000	0.005	0.005	0.010	0.435	2.744	1.890	1.880	1.880	1.899	1.899	1.899
0.000	0.005	0.000	0.005	0.000	0.000	0.430	2.700	1.899	1.885	1.885	1.904	1.895	1.899
0.000	-0.005	0.005	0.005	0.000	-0.005	0.435	2.705	1.899	1.890	1.885	1.904	1.899	1.895
0.005	-0.015	0.000	0.005	0.000	-0.039	0.435	2.671	1.890	1.890	1.890	1.904	1.899	1.895
0.000	-0.020	-0.005	0.010	0.005	-0.020	0.430	2.681	1.885	1.885	1.885	1.904	1.899	1.895
-0.005	0.010	0.000	0.005	0.005	-0.020	0.425	2.686	1.890	1.890	1.890	1.904	1.895	1.895
0.010	0.005	0.005	0.005	0.005	0.010	0.430	2.705	1.899	1.890	1.890	1.904	1.904	1.904
0.005	0.005	0.005	0.005	0.005	0.010	0.430	2.681	1.890	1.890	1.890	1.904	1.904	1.899
-0.005	0.010	0.000	0.000	0.000	0.000	0.435	2.700	1.890	1.890	1.885	1.904	1.899	1.904
-0.005	0.010	0.000	-0.005	0.000	0.015	0.435	2.690	1.885	1.885	1.885	1.899	1.895	1.899
0.005	0.000	0.000	0.005	0.000	0.005	0.435	2.695	1.890	1.885	1.885	1.899	1.899	1.895
0.005	0.000	0.005	-0.005	0.000	0.010	0.430	2.681	1.880	1.885	1.885	1.899	1.895	1.895
0.000	0.005	0.005	0.000	0.005	0.015	0.435	2.700	1.885	1.880	1.880	1.904	1.895	1.899
0.000	0.000	0.005	-0.005	0.000	0.029	0.430	2.690	1.885	1.880	1.880	1.899	1.895	1.899
-0.005	-0.005	0.000	-0.005	0.005	0.010	0.435	2.681	1.880	1.875	1.875	1.899	1.895	1.890
0.000	0.000	0.005	-0.005	0.000	-0.015	0.435	2.686	1.880	1.880	1.880	1.899	1.895	1.885
0.005	0.000	0.000	0.005	0.005	0.015	0.430	2.710	1.890	1.885	1.880	1.899	1.899	1.895
0.000	0.000	0.000	0.000	0.005	0.005	0.435	2.705	1.895	1.885	1.885	1.899	1.899	1.895
0.000	0.005	-0.005	0.000	0.000	-0.015	0.425	2.686	1.895	1.895	1.885	1.904	1.899	1.890
0.005	0.005	0.005	0.005	0.000	-0.010	0.430	2.695	1.890	1.890	1.890	1.904	1.899	1.895
0.010	0.000	0.000	0.005	0.005	0.000	0.425	2.700	1.895	1.890	1.885	1.904	1.899	1.899
0.005	0.000	0.000	0.000	0.005	0.005	0.435	2.710	1.899	1.890	1.890	1.904	1.899	1.899
0.010	0.000	0.005	0.005	0.005	0.000	0.430	2.681	1.895	1.895	1.890	1.904	1.904	1.899
0.000	0.005	0.000	0.000	0.005	-0.005	0.439	2.700	1.895	1.895	1.890	1.904	1.899	1.899
0.000	0.000	0.000	0.000	0.005	-0.005	0.420	2.661	1.885	1.885	1.885	1.904	1.899	1.899
0.000	0.000	0.005	0.000	0.005	0.000	0.435	2.666	1.880	1.880	1.885	1.904	1.899	1.899
0.000	-0.005	0.005	0.000	0.005	-0.005	0.430	2.646	1.880	1.880	1.885	1.899	1.899	1.899
-0.005	-0.005	0.000	0.000	0.005	0.010	0.439	2.661	1.880	1.880	1.880	1.899	1.895	1.899
0.000	-0.005	-0.005	0.000	0.005	0.000	0.435	2.666	1.875	1.875	1.875	1.895	1.895	1.895
0.005	0.000	-0.005	0.000	0.005	-0.034	0.430	2.725	1.885	1.875	1.875	1.895	1.890	1.880
0.005	0.005	0.000	0.005	0.000	0.005	0.435	2.676	1.885	1.880	1.880	1.895	1.890	1.895
-0.005	0.005	0.000	0.000	0.000	0.005	0.430	2.739	1.890	1.880	1.880	1.899	1.890	1.895
0.000	0.000	0.000	0.010	0.000	-0.015	0.435	2.656	1.885	1.880	1.880	1.899	1.895	1.890
0.005	0.005	0.005	0.000	0.000	0.005	0.439	2.729	1.895	1.885	1.880	1.899	1.895	1.899
0.005	-0.005	0.000	0.005	-0.005	0.015	0.435	2.656	1.895	1.885	1.885	1.899	1.895	1.899
0.005	-0.010	0.000	0.005	0.000	-0.010	0.430	2.734	1.899	1.890	1.885	1.899	1.899	1.890
0.000	0.005	0.000	0.005	0.005	0.005	0.430	2.739	1.895	1.890	1.890	1.904	1.899	1.895
0.000	0.005	-0.005	0.000	0.000	-0.005	0.425	2.666	1.895	1.895	1.890	1.904	1.895	1.899
0.000	0.005	0.005	0.000	0.000	0.015	0.435	2.744	1.899	1.890	1.890	1.909	1.899	1.899
0.005	-0.005	0.010	0.005	0.000	0.010	0.430	2.700	1.899	1.895	1.890	1.904	1.899	1.895
0.010	-0.005	0.005	0.005	0.005	0.015	0.430	2.749	1.904	1.895	1.890	1.909	1.904	1.899
0.005	0.010	0.005	0.005	0.000	-0.005	0.425	2.700	1.895	1.895	1.890	1.909	1.899	1.895
-0.005	0.005	0.000	0.000	0.005	0.005	0.430	2.705	1.890	1.895	1.890	1.904	1.899	1.895
0.005	-0.005	0.000	0.000	0.000	0.005	0.430	2.671	1.890	1.890	1.885	1.904	1.899	1.899
0.005	0.005	-0.005	0.000	0.000	0.005	0.439	2.681	1.885	1.890	1.885	1.899	1.899	1.899
0.000	0.005	-0.005	0.005	0.000	0.000	0.435	2.690	1.885	1.880	1.885	1.904	1.895	1.890
0.005	0.005	0.005	0.000	0.000	0.000	0.430	2.700	1.890	1.885	1.885	1.899	1.895	1.895
0.005	0.000	0.000	0.000	0.000	0.015	0.430	2.710	1.885	1.885	1.885	1.904	1.899	1.899
0.000	-0.005	0.000	0.000	0.000	0.005	0.430	2.700	1.890	1.885	1.885	1.904	1.899	1.899
0.005	-0.005	0.000	0.005	0.005	0.000	0.430	2.686	1.890	1.885	1.885	1.904	1.899	1.899
0.005	0.010	0.000	0.000	0.000	0.010	0.435	2.686	1.895	1.890	1.890	1.904	1.899	1.899
-0.005	0.000	0.000	0.000	-0.005	-0.010	0.435	2.710	1.890	1.890	1.885	1.904	1.899	1.895
-0.005	0.000	0.005	0.000	0.000	0.010	0.430	2.700	1.890	1.890	1.890	1.899	1.899	1.899
0.010	0.005	0.005	0.005	0.000	0.010	0.425	2.681	1.895	1.895	1.890	1.909	1.904	1.904
0.005	0.000	0.000	0.005	0.000	0.005	0.435	2.700	1.895	1.895	1.890	1.909	1.904	1.899
0.005	0.000	0.000	0.005	0.005	-0.010	0.430	2.690	1.895	1.895	1.895	1.909	1.904	1.899
0.010	0.005	0.000	0.005	0.005	-0.020	0.439	2.700	1.890	1.890	1.890	1.909	1.899	1.895
0.000	0.010	0.005	0.000	0.005	-0.005	0.435	2.705	1.890	1.890	1.890	1.909	1.904	1.904
0.010	0.005	0.005	0.005	0.005	-0.005	0.439	2.705	1.895	1.890	1.890	1.909	1.904	1.899
0.005	0.000	0.005	0.005	0.010	-0.010	0.435	2.695	1.890	1.885	1.885	1.904	1.904	1.899
0.005	0.000	0.000	0.005	0.005	-0.005	0.430	2.686	1.885	1.885	1.880	1.904	1.899	1.904
0.000	0.000	0.005	0.005	0.005	0.005	0.435	2.695	1.890	1.885	1.885	1.899	1.899	1.899
0.005	0.010	0.005	0.005	0.005	0.000	0.430	2.686	1.885	1.885	1.880	1.899	1.899	1.899
-0.005	0.005	0.000	0.000	0.005	-0.010	0.430	2.705	1.885	1.885	1.885	1.899	1.899	1.890
-0.005	-0.015	0.005	0.005	0.005	0.005	0.430	2.666	1.880	1.875	1.880	1.899	1.899	1.899
0.000	-0.020	0.000	0.005	0.005	-0.005	0.435	2.671	1.880	1.875	1.880	1.895	1.895	1.895
0.000	-0.010	0.000	0.005	-0.005	-0.005	0.430	2.646	1.880	1.880	1.880	1.899	1.895	1.895
-0.005	-0.005	0.005	0.000	0.000	-0.024	0.430	2.671	1.880	1.885	1.880	1.899	1.895	1.890
0.000	-0.005	0.005	0.000	0.000	-0.029	0.435	2.671	1.885	1.885	1.880	1.899	1.899	1.890
0.000	0.005	0.000	0.000	-0.010	-0.005	0.435	2.739	1.890	1.890	1.885	1.899	1.895	1.899
0.000	0.024	0.000	-0.005	0.000	0.010	0.435	2.666	1.895	1.899	1.890	1.904	1.899	1.904
0.000	0.024	-0.005	0.000	0.000	0.020	0.435	2.632	1.885	1.895	1.885	1.904	1.899	1.904
-0.005	0.020	0.000	-0.005	0.000	0.024	0.425	2.734	1.895	1.890	1.885	1.904	1.899	1.909
0.005	0.015	0.005	0.000	0.005	0.029	0.439	2.725	1.890	1.885	1.890	1.909	1.899	1.904
-0.005	0.000	0.000	0.000	0.005	-0.005	0.430	2.646	1.875	1.880	1.885	1.904	1.899	1.895
-0.010	0.005	0.000	-0.005	0.005	0.015	0.439	2.739	1.875	1.875	1.880	1.904	1.899	1.899
0.000	0.000	0.000	0.010	0.005	0.005	0.430	2.651	1.875	1.875	1.880	1.904	1.895	1.895
0.000	0.000	0.005	0.005	-0.005	-0.015	0.439	2.686	1.875	1.875	1.875	1.899	1.895	1.885
-0.005	-0.005	0.000	0.010	0.000	0.000	0.430	2.661	1.870	1.870	1.875	1.895	1.895	1.895
0.000	-0.005	0.000	0.005	0.010	-0.029	0.430	2.686	1.875	1.875	1.875	1.895	1.895	1.880
0.010	-0.005	0.005	0.005	0.000	0.010	0.435	2.642	1.880	1.875	1.870	1.890	1.890	1.895
0.000	0.010	0.005	0.005	0.000	-0.015	0.435	2.686	1.880	1.875	1.875	1.890	1.890	1.890
0.010	0.005	0.000	0.000	-0.005	0.015	0.435	2.676	1.880	1.875	1.875	1.895	1.885	1.895
0.005	0.000	0.000	0.005	0.000	0.020	0.430	2.710	1.885	1.880	1.875	1.895	1.890	1.895
0.000	0.005	0.000	0.000	0.000	0.005	0.439	2.690	1.890	1.885	1.875	1.895	1.890	1.890
0.005	0.000	-0.005	-0.005	0.000	0.000	0.430	2.686	1.895	1.885	1.880	1.899	1.890	1.890
0.010	0.005	0.000	0.000	-0.005	0.005	0.435	2.700	1.895	1.890	1.885	1.899	1.890	1.895
0.000	-0.005	-0.005	0.000	0.000	-0.005	0.435	2.695	1.890	1.890	1.885	1.899	1.890	1.890
0.015	-0.005	0.005	0.000	0.005	0.000	0.435	2.686	1.890	1.885	1.885	1.904	1.895	1.895
0.000	0.000	0.005	0.005	0.010	-0.005	0.430	2.686	1.885	1.890	1.885	1.899	1.895	1.890
0.000	0.005	0.000	0.000	0.010	0.000	0.435	2.705	1.890	1.885	1.885	1.899	1.895	1.895
0.005	-0.015	0.005	0.005	0.010	0.005	0.430	2.686	1.885	1.880	1.885	1.899	1.895	1.895
-0.005	-0.010	0.005	0.005	0.020	0.015	0.435	2.690	1.885	1.880	1.880	1.899	1.899	1.899
0.005	0.000	0.000	0.005	0.020	0.015	0.425	2.695	1.885	1.885	1.880	1.899	1.899	1.895
0.000	0.010	0.000	0.000	0.010	0.010	0.435	2.690	1.880	1.885	1.880	1.895	1.890	1.890
-0.005	0.000	-0.005	0.000	0.015	-0.020	0.430	2.676	1.880	1.880	1.880	1.895	1.890	1.885
0.005	0.015	0.005	0.005	0.010	0.000	0.435	2.681	1.880	1.880	1.880	1.895	1.895	1.890
0.005	0.005	0.005	0.005	0.005	0.000	0.430	2.686	1.880	1.875	1.875	1.895	1.890	1.890
0.010	0.010	0.000	0.000	0.000	-0.020	0.439	2.695	1.885	1.880	1.880	1.895	1.890	1.890
-0.005	0.000	0.005	0.005	-0.010	0.020	0.430	2.695	1.890	1.880	1.880	1.899	1.890	1.895
0.000	0.005	0.000	0.000	-0.015	0.020	0.435	2.690	1.890	1.885	1.880	1.899	1.890	1.895
0.000	0.005	0.000	0.000	-0.010	0.010	0.435	2.710	1.890	1.885	1.880	1.899	1.890	1.890
-0.005	0.005	0.005	0.005	-0.005	0.000	0.430	2.710	1.895	1.890	1.885	1.899	1.895	1.890
-0.005	0.000	0.000	0.005	-0.005	-0.015	0.435	2.700	1.895	1.890	1.885	1.904	1.895	1.885
0.005	0.000	0.005	0.000	0.000	-0.010	0.430	2.671	1.890	1.890	1.885	1.899	1.899	1.890
-0.005	0.005	0.005	0.000	0.010	-0.015	0.430	2.666	1.880	1.885	1.885	1.904	1.899	1.895
-0.005	0.005	0.005	0.005	0.010	-0.020	0.435	2.651	1.880	1.885	1.885	1.904	1.899	1.895
0.000	-0.005	0.000	0.000	0.010	-0.024	0.430	2.656	1.875	1.880	1.885	1.904	1.899	1.890
0.000	0.005	0.000	0.000	0.005	-0.010	0.435	2.671	1.875	1.880	1.880	1.899	1.895	1.895
-0.005	-0.010	0.005	0.005	0.005	-0.005	0.430	2.729	1.880	1.875	1.880	1.895	1.895	1.895
0.005	0.005	0.005	0.005	-0.005	-0.010	0.439	2.656	1.880	1.880	1.880	1.899	1.895	1.895
0.000	0.000	0.005	0.005	0.005	0.024	0.430	2.729	1.880	1.875	1.875	1.895	1.895	1.899
0.000	0.000	0.005	0.000	0.005	0.015	0.435	2.749	1.890	1.875	1.875	1.895	1.890	1.895
0.005	0.005	0.005	0.000	-0.005	-0.005	0.430	2.637	1.880	1.880	1.875	1.895	1.890	1.890
0.000	0.000	0.000	0.005	-0.005	0.029	0.435	2.651	1.880	1.880	1.875	1.895	1.890	1.895
0.005	0.000	0.005	0.005	-0.005	0.024	0.430	2.666	1.875	1.875	1.875	1.895	1.890	1.890
0.005	-0.005	-0.005	0.005	-0.005	0.020	0.435	2.754	1.890	1.880	1.875	1.895	1.895	1.895
-0.005	0.005	0.000	0.005	0.000	0.000	0.435	2.681	1.890	1.885	1.880	1.895	1.890	1.890
0.005	-0.005	0.005	0.005	0.005	-0.005	0.435	2.739	1.890	1.885	1.880	1.899	1.895	1.890
0.000	-0.010	0.000	0.000	0.005	-0.020	0.435	2.686	1.890	1.885	1.885	1.899	1.895	1.885
-0.005	0.000	0.005	0.005	0.005	-0.015	0.435	2.749	1.899	1.890	1.890	1.899	1.895	1.890
-0.005	0.010	0.005	0.000	0.005	-0.015	0.439	2.686	1.895	1.895	1.890	1.899	1.895	1.895
0.005	0.010	0.000	0.000	0.010	-0.005	0.430	2.686	1.895	1.895	1.885	1.904	1.899	1.895
-0.005	0.010	0.000	0.000	0.005	-0.005	0.435	2.690	1.890	1.890	1.885	1.904	1.899	1.895
-0.005	0.005	0.000	0.005	0.010	0.005	0.425	2.690	1.890	1.890	1.885	1.904	1.899	1.895
-0.005	0.005	0.005	0.005	0.005	-0.015	0.435	2.686	1.890	1.885	1.885	1.899	1.895	1.890
0.005	0.000	0.000	0.005	0.005	0.010	0.430	2.710	1.890	1.885	1.885	1.899	1.895	1.895
-0.005	-0.005	0.000	0.005	0.000	0.015	0.430	2.681	1.875	1.880	1.880	1.899	1.895	1.899
0.010	0.000	0.005	0.005	-0.005	0.020	0.430	2.700	1.885	1.875	1.880	1.899	1.895	1.895
-0.005	-0.005	0.000	0.005	-0.005	0.044	0.435	2.681	1.880	1.880	1.880	1.899	1.895	1.904
0.005	0.000	0.005	0.000	-0.005	0.034	0.439	2.695	1.880	1.885	1.880	1.895	1.895	1.899
0.005	0.010	0.005	0.005	-0.015	0.034	0.430	2.700	1.890	1.885	1.880	1.899	1.890	1.895
0.005	0.005	0.000	0.005	-0.020	0.010	0.435	2.686	1.885	1.885	1.880	1.895	1.890	1.885
0.010	0.005	0.005	0.000	-0.015	-0.024	0.435	2.676	1.890	1.890	1.885	1.899	1.890	1.875
0.005	0.005	0.000	0.000	-0.015	-0.005	0.435	2.695	1.885	1.885	1.885	1.899	1.895	1.890
0.005	0.005	0.005	0.000	0.000	-0.029	0.439	2.686	1.890	1.885	1.885	1.899	1.895	1.885
0.000	-0.005	0.000	0.000	-0.005	0.000	0.430	2.695	1.890	1.885	1.885	1.904	1.899	1.895
0.005	0.015	0.000	0.000	-0.010	-0.010	0.439	2.705	1.890	1.890	1.890	1.904	1.899	1.895
-0.005	0.000	0.000	0.000	0.005	0.000	0.425	2.705	1.895	1.890	1.885	1.904	1.899	1.895
0.005	-0.005	0.000	0.000	0.005	0.005	0.435	2.700	1.890	1.885	1.885	1.904	1.904	1.904
0.010	-0.005	0.000	0.000	0.020	0.005	0.425	2.686	1.890	1.885	1.885	1.904	1.904	1.904
-0.010	-0.010	0.005	0.000	0.015	-0.015	0.435	2.705	1.880	1.880	1.885	1.904	1.899	1.895
0.000	-0.010	0.005	0.000	0.010	0.010	0.430	2.690	1.885	1.880	1.880	1.899	1.899	1.899
-0.010	-0.005	0.000	-0.005	0.005	-0.020	0.430	2.700	1.880	1.880	1.875	1.895	1.890	1.890
-0.010	0.005	0.000	0.000	0.005	0.005	0.430	2.666	1.880	1.880	1.875	1.895	1.895	1.895
0.000	-0.005	0.005	0.000	0.005	0.005	0.435	2.671	1.875	1.875	1.875	1.895	1.890	1.895
0.000	0.005	0.000	-0.005	0.000	0.000	0.435	2.661	1.880	1.880	1.875	1.895	1.890	1.890
0.005	0.000	0.005	0.005	0.005	-0.024	0.430	2.661	1.875	1.880	1.875	1.895	1.890	1.885
0.000	0.020	0.005	-0.005	0.005	0.005	0.435	2.671	1.875	1.880	1.880	1.895	1.890	1.895
0.005	0.020	0.000	0.000	0.000	0.005	0.435	2.744	1.890	1.880	1.880	1.899	1.890	1.890
-0.005	0.015	0.005	0.000	0.000	0.005	0.435	2.671	1.890	1.885	1.880	1.899	1.895	1.895
0.000	0.010	0.000	0.000	0.000	-0.005	0.430	2.739	1.895	1.885	1.880	1.899	1.895	1.890
0.005	0.015	0.000	0.005	0.010	-0.010	0.435	2.754	1.904	1.890	1.885	1.899	1.899	1.895
0.015	0.010	0.005	0.000	0.010	-0.005	0.430	2.642	1.895	1.895	1.890	1.899	1.899	1.895
0.000	0.005	0.005	0.005	-0.005	-0.005	0.430	2.661	1.890	1.890	1.890	1.904	1.895	1.895
0.005	-0.010	0.000	0.005	-0.005	-0.005	0.435	2.749	1.899	1.890	1.890	1.904	1.895	1.895
0.005	-0.010	0.000	0.005	0.000	-0.015	0.425	2.739	1.899	1.890	1.890	1.904	1.899	1.890
0.000	-0.005	0.005	0.005	0.000	0.000	0.425	2.686	1.890	1.890	1.890	1.904	1.895	1.895
0.005	-0.005	0.000	0.000	0.005	0.005	0.435	2.651	1.885	1.890	1.890	1.899	1.899	1.899
0.005	0.000	0.000	0.000	0.010	-0.015	0.425	2.695	1.885	1.885	1.885	1.904	1.899	1.895
0.005	0.005	0.000	0.000	0.005	0.015	0.435	2.661	1.885	1.885	1.885	1.904	1.899	1.899
0.000	0.000	0.000	0.005	0.005	0.015	0.430	2.690	1.880	1.880	1.885	1.899	1.895	1.895
-0.005	0.000	0.005	0.005	0.015	0.010	0.430	2.695	1.880	1.880	1.880	1.899	1.899	1.895
0.000	0.005	0.005	0.010	0.024	-0.015	0.430	2.686	1.885	1.880	1.880	1.899	1.899	1.890
0.005	0.000	0.000	0.000	0.015	0.024	0.439	2.695	1.885	1.880	1.875	1.899	1.895	1.899
0.005	-0.005	0.000	0.005	0.000	0.024	0.435	2.671	1.885	1.885	1.880	1.899	1.895	1.899
0.010	0.005	0.005	0.005	0.010	0.015	0.435	2.700	1.890	1.885	1.885	1.899	1.895	1.899
0.000	0.000	0.000	0.000	0.015	0.024	0.435	2.695	1.885	1.890	1.885	1.904	1.899	1.899
0.010	0.005	-0.005	0.005	0.034	0.024	0.435	2.686	1.890	1.890	1.890	1.904	1.904	1.899
-0.005	0.000	0.000	0.005	0.024	0.029	0.435	2.690	1.890	1.885	1.885	1.904	1.899	1.899
0.005	0.000	0.005	0.005	0.024	0.029	0.439	2.690	1.890	1.895	1.890	1.904	1.904	1.899
-0.010	0.010	0.000	0.005	0.015	-0.005	0.435	2.700	1.890	1.895	1.890	1.904	1.895	1.890
-0.005	0.000	0.000	0.000	0.000	0.015	0.430	2.705	1.895	1.890	1.890	1.904	1.895	1.899
-0.005	-0.005	0.005	0.005	0.005	0.015	0.430	2.695	1.890	1.890	1.890	1.904	1.899	1.895
0.000	0.005	0.010	0.005	0.010	-0.010	0.435	2.681	1.890	1.890	1.885	1.904	1.899	1.890
0.005	-0.005	0.005	0.010	0.010	0.005	0.439	2.686	1.885	1.885	1.885	1.904	1.899	1.895
0.000	-0.005	0.005	0.005	0.020	0.005	0.430	2.681	1.885	1.885	1.880	1.899	1.899	1.895
0.005	0.000	0.000	0.005	0.010	-0.015	0.430	2.686	1.885	1.880	1.885	1.899	1.895	1.890
0.000	-0.005	-0.005	0.000	-0.005	0.020	0.425	2.700	1.885	1.880	1.880	1.899	1.890	1.895
0.010	0.005	0.000	0.000	-0.005	0.010	0.430	2.705	1.890	1.885	1.875	1.899	1.890	1.890
0.010	0.000	0.000	0.005	-0.005	0.005	0.425	2.681	1.885	1.880	1.880	1.895	1.890	1.890
0.005	0.005	0.005	0.005	0.000	0.000	0.439	2.705	1.885	1.880	1.880	1.899	1.890	1.890
0.000	0.005	0.005	0.000	0.000	0.000	0.439	2.690	1.890	1.885	1.885	1.899	1.895	1.890
0.000	0.000	0.005	0.005	-0.010	0.000	0.435	2.705	1.895	1.885	1.885	1.904	1.895	1.890
0.010	-0.005	0.000	0.010	0.000	0.000	0.425	2.646	1.885	1.885	1.880	1.899	1.895	1.895
0.010	0.005	0.005	0.005	-0.010	0.005	0.435	2.686	1.885	1.890	1.885	1.904	1.895	1.895
0.005	0.010	0.000	0.005	-0.005	-0.005	0.425	2.646	1.880	1.885	1.885	1.904	1.899	1.895
0.000	-0.015	0.005	0.000	-0.015	0.000	0.430	2.671	1.885	1.880	1.885	1.899	1.895	1.895
0.005	-0.010	0.000	0.000	-0.020	0.000	0.425	2.661	1.880	1.880	1.880	1.899	1.895	1.895
-0.005	0.000	0.000	0.000	-0.024	0.000	0.439	2.725	1.885	1.885	1.880	1.899	1.895	1.890
0.010	0.005	0.000	0.000	-0.024	0.000	0.430	2.651	1.885	1.890	1.880	1.895	1.895	1.895
0.000	-0.005	0.000	0.005	-0.020	-0.015	0.430	2.720	1.885	1.880	1.880	1.899	1.895	1.895
-0.010	0.005	0.005	-0.010	-0.020	0.005	0.430	2.754	1.890	1.880	1.875	1.895	1.895	1.890
0.000	0.015	0.005	0.000	-0.015	0.000	0.430	2.651	1.880	1.885	1.880	1.899	1.895	1.895
-0.005	0.005	0.000	0.000	-0.005	0.010	0.435	2.671	1.880	1.880	1.880	1.895	1.895	1.895
-0.005	0.000	0.000	-0.005	0.000	0.000	0.435	2.734	1.885	1.875	1.875	1.895	1.895	1.895
-0.005	0.000	0.000	0.000	0.000	0.005	0.430	2.651	1.895	1.880	1.875	1.895	1.895	1.890
0.005	0.015	0.005	0.000	0.005	-0.005	0.430	2.671	1.890	1.885	1.880	1.895	1.895	1.890
0.005	0.010	0.000	0.005	0.005	-0.010	0.435	2.646	1.880	1.880	1.880	1.895	1.895	1.890
0.010	0.010	0.005	0.000	0.005	-0.020	0.435	2.690	1.885	1.885	1.885	1.899	1.895	1.890
0.005	0.000	0.000	0.000	0.010	0.015	0.435	2.642	1.880	1.880	1.885	1.899	1.899	1.899
0.000	0.000	0.010	0.000	0.005	0.000	0.439	2.695	1.885	1.880	1.885	1.899	1.895	1.890
0.000	0.000	0.000	-0.005	0.000	-0.005	0.430	2.681	1.885	1.885	1.880	1.899	1.895	1.895
0.005	0.000	0.000	0.000	0.000	0.000	0.430	2.686	1.885	1.890	1.885	1.899	1.895	1.899
0.010	0.005	0.000	0.005	-0.005	-0.005	0.425	2.690	1.890	1.885	1.880	1.904	1.895	1.895
-0.005	0.005	0.000	0.005	-0.005	0.015	0.430	2.686	1.890	1.890	1.885	1.904	1.895	1.895
-0.005	-0.005	0.005	-0.005	0.000	0.010	0.430	2.686	1.885	1.885	1.885	1.899	1.899	1.899
-0.005	0.000	0.000	0.000	0.005	0.005	0.425	2.710	1.885	1.885	1.885	1.904	1.895	1.895
-0.020	0.000	0.000	0.005	0.005	0.015	0.435	2.700	1.885	1.885	1.885	1.899	1.899	1.899
-0.005	0.005	0.000	0.010	0.000	-0.010	0.435	2.686	1.890	1.885	1.880	1.899	1.895	1.890
-0.015	0.005	0.000	0.015	0.005	0.010	0.430	2.695	1.885	1.885	1.880	1.899	1.899	1.895
-0.010	0.015	-0.005	0.005	0.010	-0.020	0.430	2.705	1.885	1.880	1.880	1.899	1.895	1.890
-0.010	0.010	0.005	0.010	0.015	0.005	0.444	2.710	1.885	1.880	1.885	1.899	1.895	1.895
-0.005	0.015	0.005	0.010	0.015	0.000	0.435	2.681	1.885	1.885	1.885	1.899	1.895	1.890
0.005	0.000	0.005	0.000	0.005	-0.015	0.439	2.700	1.890	1.875	1.880	1.899	1.890	1.890
0.020	0.005	0.005	0.000	0.005	-0.005	0.435	2.690	1.895	1.885	1.880	1.899	1.895	1.890
0.005	-0.005	0.005	0.000	0.000	-0.024	0.430	2.705	1.885	1.880	1.880	1.899	1.895	1.890
0.000	-0.010	0.005	0.000	-0.005	0.000	0.435	2.700	1.885	1.885	1.880	1.895	1.895	1.895
0.010	-0.010	0.000	0.000	-0.005	-0.024	0.439	2.700	1.895	1.890	1.880	1.899	1.895	1.890
0.010	0.010	0.005	0.005	0.000	0.010	0.425	2.710	1.899	1.895	1.885	1.904	1.895	1.899
0.015	0.000	0.005	0.000	0.000	0.010	0.430	2.705	1.899	1.895	1.890	1.904	1.899	1.895
0.015	0.005	0.000	0.005	0.000	0.015	0.435	2.705	1.895	1.895	1.885	1.904	1.899	1.899
0.000	0.005	0.000	-0.005	0.005	0.010	0.435	2.690	1.895	1.895	1.890	1.904	1.899	1.899
-0.005	-0.005	0.000	0.000	0.005	0.005	0.430	2.705	1.895	1.890	1.885	1.904	1.895	1.895
0.005	0.000	0.005	0.000	0.000	0.000	0.430	2.666	1.890	1.890	1.890	1.904	1.899	1.895
-0.005	0.000	0.005	-0.010	0.010	-0.005	0.430	2.666	1.880	1.885	1.885	1.904	1.899	1.895
0.005	-0.005	0.000	-0.005	0.010	0.010	0.430	2.651	1.880	1.880	1.880	1.899	1.899	1.899
0.000	0.000	0.005	0.010	0.010	-0.005	0.435	2.666	1.875	1.880	1.880	1.904	1.899	1.895
0.005	-0.005	0.005	0.005	0.005	0.000	0.435	2.666	1.875	1.875	1.880	1.899	1.895	1.899
0.020	0.000	0.000	-0.005	0.010	-0.005	0.425	2.725	1.885	1.875	1.880	1.895	1.890	1.890
0.020	0.005	0.000	0.005	0.005	-0.024	0.430	2.671	1.885	1.880	1.875	1.899	1.890	1.890
0.015	0.005	0.005	0.005	0.000	-0.020	0.435	2.734	1.890	1.885	1.880	1.899	1.895	1.895
0.010	0.000	0.000	0.005	0.000	0.010	0.430	2.651	1.880	1.880	1.880	1.899	1.895	1.899
0.010	-0.005	0.010	0.010	0.000	0.010	0.435	2.734	1.890	1.885	1.880	1.899	1.895	1.899
0.005	0.000	0.005	0.005	0.000	0.005	0.430	2.651	1.890	1.890	1.885	1.899	1.899	1.899
-0.005	-0.005	0.000	0.000	0.000	0.015	0.439	2.666	1.885	1.885	1.885	1.899	1.899	1.899
-0.015	0.005	0.005	-0.005	0.000	0.020	0.430	2.661	1.890	1.885	1.885	1.899	1.899	1.904
-0.005	0.010	0.000	-0.005	0.005	0.020	0.435	2.681	1.890	1.890	1.885	1.904	1.899	1.904
-0.015	-0.005	0.000	0.000	0.000	0.005	0.435	2.646	1.885	1.890	1.880	1.904	1.899	1.895
-0.010	-0.005	0.000	0.005	0.000	0.015	0.435	2.690	1.885	1.885	1.885	1.899	1.899	1.899
-0.005	-0.005	0.005	0.005	0.000	0.015	0.435	2.627	1.880	1.880	1.885	1.899	1.899	1.895
0.010	0.005	0.000	0.000	0.005	0.010	0.439	2.690	1.885	1.885	1.885	1.899	1.895	1.895
0.005	0.000	0.000	-0.005	0.010	0.000	0.435	2.686	1.885	1.880	1.880	1.899	1.895	1.890
0.010	-0.005	0.000	0.005	0.005	-0.005	0.435	2.695	1.885	1.880	1.880	1.899	1.895	1.890
0.015	0.000	0.000	0.005	0.005	-0.015	0.425	2.681	1.885	1.875	1.875	1.895	1.890	1.890
-0.005	0.000	0.000	0.000	-0.005	-0.005	0.430	2.705	1.880	1.875	1.880	1.895	1.890	1.890
0.000	0.000	0.005	0.000	0.000	-0.020	0.430	2.690	1.880	1.880	1.875	1.895	1.895	1.885
0.005	0.000	0.000	0.000	0.000	-0.005	0.435	2.676	1.880	1.880	1.875	1.895	1.890	1.890
0.000	0.000	0.000	0.000	0.005	-0.020	0.430	2.705	1.885	1.880	1.880	1.895	1.895	1.885
-0.005	0.010	0.005	0.000	0.000	0.000	0.430	2.710	1.885	1.885	1.880	1.899	1.895	1.895
0.000	0.000	0.000	0.005	0.005	-0.015	0.425	2.695	1.890	1.885	1.880	1.899	1.895	1.890
0.000	0.000	0.005	0.005	0.000	0.020	0.439	2.695	1.890	1.885	1.880	1.899	1.895	1.904
-0.005	0.000	0.005	-0.005	0.005	0.015	0.430	2.681	1.890	1.885	1.885	1.899	1.895	1.899
-0.005	0.000	0.000	0.000	0.000	0.005	0.435	2.686	1.890	1.890	1.885	1.904	1.899	1.895
0.005	0.010	0.000	0.005	0.005	0.015	0.430	2.686	1.895	1.890	1.890	1.904	1.899	1.899
0.005	0.005	0.005	0.005	0.005	0.010	0.430	2.690	1.895	1.895	1.890	1.904	1.899	1.895
0.000	0.000	0.000	0.000	0.000	0.010	0.430	2.705	1.890	1.890	1.890	1.909	1.895	1.899
0.000	-0.005	0.000	0.005	0.000	0.005	0.435	2.686	1.890	1.890	1.885	1.904	1.899	1.895
-0.005	-0.005	0.000	0.005	0.010	0.015	0.439	2.705	1.885	1.880	1.885	1.899	1.899	1.899
-0.005	0.005	0.005	0.000	0.005	0.010	0.439	2.710	1.890	1.885	1.885	1.899	1.899	1.895
-0.015	0.000	0.000	0.000	0.000	0.000	0.435	2.690	1.880	1.885	1.880	1.899	1.895	1.890
-0.010	0.000	0.000	0.000	0.000	-0.005	0.435	2.690	1.880	1.880	1.880	1.895	1.890	1.885
-0.005	0.005	0.005	0.005	0.010	-0.010	0.439	2.695	1.885	1.880	1.880	1.899	1.895	1.885
0.000	-0.005	0.000	0.005	0.000	-0.005	0.425	2.695	1.885	1.880	1.875	1.899	1.890	1.890
0.005	0.000	0.005	0.000	0.005	-0.010	0.435	2.681	1.880	1.880	1.875	1.899	1.895	1.890
0.015	-0.010	0.005	0.005	-0.005	-0.024	0.435	2.671	1.885	1.885	1.880	1.899	1.890	1.885
0.005	-0.005	-0.005	0.005	-0.010	0.000	0.435	2.651	1.880	1.880	1.875	1.899	1.895	1.890
0.005	-0.005	0.000	0.000	-0.005	0.015	0.430	2.671	1.885	1.885	1.880	1.899	1.895	1.899
0.015	0.010	0.005	0.005	0.000	0.015	0.435	2.686	1.890	1.890	1.885	1.904	1.899	1.895
0.020	0.020	0.000	0.010	0.005	-0.015	0.430	2.725	1.890	1.890	1.885	1.904	1.899	1.890
0.015	0.010	0.000	0.005	0.005	0.010	0.439	2.666	1.890	1.890	1.890	1.904	1.899	1.899
0.024	0.010	0.005	0.000	-0.005	0.015	0.430	2.739	1.899	1.895	1.890	1.904	1.899	1.904
0.020	0.000	0.010	0.005	0.000	-0.005	0.435	2.749	1.899	1.890	1.890	1.904	1.899	1.895
0.024	0.000	0.005	0.005	0.000	-0.005	0.435	2.725	1.899	1.890	1.890	1.904	1.899	1.890
0.010	0.010	0.000	0.000	0.005	0.010	0.430	2.642	1.890	1.895	1.890	1.904	1.899	1.899
0.000	0.005	0.000	0.000	0.000	0.010	0.430	2.646	1.875	1.885	1.885	1.904	1.904	1.899
-0.005	0.010	0.000	0.000	0.005	0.020	0.435	2.646	1.870	1.880	1.885	1.899	1.899	1.899
-0.005	0.005	0.000	0.000	0.005	0.000	0.430	2.666	1.870	1.875	1.880	1.899	1.899	1.895
-0.005	0.000	0.005	0.005	0.010	0.020	0.435	2.749	1.880	1.875	1.875	1.899	1.899	1.895
0.000	0.010	0.005	-0.005	0.010	-0.005	0.430	2.700	1.885	1.880	1.880	1.895	1.895	1.895
-0.005	0.000	0.005	0.000	0.010	-0.010	0.430	2.632	1.875	1.875	1.875	1.895	1.895	1.890
0.005	0.010	0.005	0.005	0.005	0.005	0.439	2.686	1.880	1.880	1.875	1.895	1.890	1.895
0.020	-0.005	0.005	0.000	0.005	0.000	0.430	2.690	1.885	1.875	1.875	1.895	1.890	1.895
0.024	0.000	0.000	0.000	0.000	-0.029	0.430	2.676	1.885	1.885	1.880	1.895	1.890	1.885
0.010	0.000	0.000	0.005	0.000	-0.005	0.430	2.690	1.885	1.880	1.880	1.899	1.890	1.895
0.000	0.005	0.000	0.005	0.000	-0.005	0.439	2.715	1.890	1.885	1.880	1.899	1.895	1.890
-0.005	0.000	-0.005	0.005	0.000	-0.015	0.430	2.705	1.890	1.880	1.880	1.899	1.895	1.895
-0.010	0.000	0.000	0.005	0.000	-0.020	0.435	2.690	1.885	1.885	1.880	1.899	1.895	1.890
-0.015	0.005	0.005	0.000	0.000	-0.015	0.430	2.690	1.890	1.885	1.885	1.899	1.895	1.895
-0.005	-0.005	0.000	0.000	0.010	-0.010	0.435	2.705	1.895	1.885	1.880	1.899	1.895	1.895
0.010	0.000	0.005	0.000	0.000	-0.015	0.435	2.681	1.895	1.885	1.885	1.904	1.895	1.895
0.000	0.000	0.000	0.000	0.005	0.000	0.435	2.690	1.885	1.885	1.885	1.899	1.895	1.895
-0.005	0.005	0.000	0.000	0.000	0.010	0.430	2.686	1.885	1.880	1.880	1.899	1.895	1.895
-0.010	0.000	-0.005	0.000	0.000	-0.010	0.430	2.690	1.885	1.880	1.875	1.899	1.895	1.890
0.005	0.000	0.005	0.005	0.005	0.020	0.435	2.710	1.890	1.880	1.880	1.899	1.895	1.895
0.005	0.010	0.005	0.000	0.005	0.029	0.435	2.695	1.885	1.880	1.880	1.899	1.890	1.899
-0.005	0.000	0.000	0.000	0.000	0.029	0.435	2.690	1.885	1.885	1.880	1.895	1.895	1.899
0.000	0.005	-0.005	0.000	0.000	0.034	0.430	2.710	1.885	1.880	1.875	1.895	1.890	1.895
0.005	0.015	-0.005	0.005	0.000	0.034	0.430	2.710	1.895	1.885	1.880	1.899	1.890	1.895
0.010	0.010	0.005	0.000	0.000	0.020	0.430	2.705	1.895	1.890	1.885	1.899	1.895	1.890
0.005	0.010	0.000	-0.005	0.000	0.005	0.435	2.695	1.890	1.890	1.885	1.899	1.895	1.890
-0.005	-0.005	0.005	-0.005	-0.005	-0.005	0.435	2.700	1.885	1.885	1.885	1.904	1.895	1.885
0.000	0.000	0.005	0.000	-0.005	-0.039	0.430	2.695	1.890	1.890	1.890	1.904	1.895	1.885
-0.005	0.000	0.010	-0.005	-0.005	-0.005	0.439	2.695	1.890	1.890	1.890	1.904	1.899	1.895
-0.010	-0.005	0.010	-0.005	0.000	-0.005	0.435	2.656	1.880	1.885	1.885	1.909	1.899	1.895
0.000	0.000	0.010	0.000	0.000	-0.010	0.430	2.671	1.885	1.885	1.885	1.904	1.899	1.895
-0.005	0.005	0.010	0.005	0.010	-0.015	0.435	2.661	1.885	1.885	1.885	1.909	1.904	1.895
0.000	0.005	0.005	0.005	0.005	-0.005	0.435	2.661	1.880	1.885	1.885	1.904	1.904	1.899
-0.005	0.000	0.000	0.005	0.010	-0.005	0.430	2.676	1.880	1.880	1.880	1.899	1.904	1.899
0.000	-0.005	0.000	0.005	0.015	-0.020	0.430	2.744	1.885	1.875	1.880	1.904	1.899	1.890
0.000	-0.010	0.000	0.010	0.015	-0.024	0.435	2.656	1.880	1.875	1.875	1.899	1.895	1.895
-0.005	-0.005	0.005	0.010	0.000	0.005	0.430	2.637	1.895	1.880	1.875	1.895	1.895	1.899
0.005	0.005	0.000	0.010	0.005	0.005	0.435	2.632	1.885	1.885	1.875	1.890	1.895	1.899
-0.010	0.000	0.000	0.000	0.005	0.015	0.430	2.739	1.875	1.875	1.875	1.895	1.890	1.899
-0.005	0.005	0.000	0.000	-0.010	0.015	0.439	2.637	1.875	1.880	1.875	1.895	1.890	1.895
-0.015	0.015	0.000	0.000	-0.005	0.010	0.430	2.734	1.880	1.875	1.875	1.895	1.890	1.890
0.005	0.010	0.000	0.005	-0.005	-0.010	0.439	2.744	1.890	1.885	1.880	1.895	1.890	1.885
0.005	0.005	0.005	0.005	-0.005	-0.034	0.435	2.666	1.890	1.885	1.880	1.899	1.895	1.885
0.005	0.000	0.005	0.000	-0.005	-0.005	0.439	2.754	1.895	1.885	1.880	1.899	1.890	1.890
0.010	0.000	0.000	0.005	-0.005	-0.005	0.430	2.695	1.895	1.890	1.885	1.899	1.895	1.895
0.005	0.010	0.005	0.000	0.000	0.005	0.444	2.729	1.904	1.895	1.890	1.904	1.899	1.899
0.010	0.000	0.000	-0.005	-0.005	0.000	0.435	2.705	1.899	1.895	1.890	1.904	1.899	1.899
0.000	0.005	0.000	-0.005	0.000	0.020	0.435	2.695	1.895	1.895	1.890	1.904	1.899	1.899
0.005	0.005	-0.005	0.000	0.005	0.015	0.425	2.676	1.890	1.890	1.890	1.904	1.899	1.899
0.005	0.000	0.000	0.005	0.005	0.015	0.439	2.686	1.890	1.890	1.890	1.904	1.899	1.899
0.005	0.000	0.000	0.005	0.000	0.010	0.425	2.690	1.885	1.885	1.890	1.904	1.895	1.899
0.000	-0.005	0.005	0.005	0.005	0.000	0.435	2.681	1.880	1.880	1.885	1.904	1.895	1.895
-0.010	0.000	-0.005	0.005	0.005	0.024	0.435	2.700	1.885	1.880	1.885	1.904	1.899	1.899
0.010	0.005	-0.005	0.005	0.005	0.029	0.435	2.695	1.890	1.885	1.880	1.899	1.895	1.899
0.000	0.000	0.000	0.000	0.000	0.005	0.435	2.690	1.880	1.880	1.880	1.899	1.895	1.890
0.005	0.000	0.000	0.000	-0.005	0.015	0.430	2.700	1.885	1.880	1.875	1.899	1.895	1.890
-0.005	0.000	0.000	0.000	0.005	-0.029	0.435	2.686	1.880	1.880	1.875	1.899	1.895	1.880
0.000	0.000	0.000	0.005	-0.005	-0.020	0.425	2.710	1.890	1.885	1.880	1.904	1.895	1.885
-0.005	0.000	0.005	0.005	0.000	-0.020	0.439	2.695	1.890	1.885	1.880	1.899	1.899	1.890
-0.005	0.015	0.005	0.010	0.005	-0.024	0.435	2.695	1.885	1.890	1.885	1.904	1.899	1.895
-0.010	0.010	0.005	0.005	0.010	-0.005	0.435	2.686	1.885	1.885	1.885	1.904	1.904	1.899
-0.010	-0.005	0.010	0.000	0.000	-0.005	0.435	2.686	1.890	1.885	1.885	1.904	1.899	1.904
0.000	-0.005	0.010	0.000	0.005	-0.024	0.435	2.695	1.895	1.890	1.890	1.904	1.899	1.895
0.000	0.000	0.005	0.000	0.000	0.015	0.425	2.700	1.890	1.890	1.885	1.904	1.899	1.909
0.000	0.000	0.010	0.000	0.005	0.000	0.435	2.690	1.890	1.890	1.885	1.904	1.899	1.899
-0.005	0.000	0.010	0.000	0.005	0.000	0.430	2.710	1.890	1.885	1.885	1.904	1.899	1.899
0.000	0.000	0.005	0.000	0.000	0.020	0.435	2.700	1.890	1.890	1.885	1.899	1.899	1.904
0.010	0.000	-0.005	0.005	0.005	0.015	0.430	2.695	1.890	1.885	1.880	1.899	1.899	1.899
0.010	0.000	0.000	0.000	0.005	0.024	0.435	2.681	1.885	1.885	1.880	1.899	1.895	1.899
0.000	-0.005	-0.005	0.000	-0.005	0.015	0.430	2.651	1.875	1.880	1.880	1.899	1.890	1.890
0.000	0.000	0.000	0.000	0.000	0.010	0.435	2.666	1.875	1.875	1.880	1.899	1.895	1.895
0.000	0.005	0.000	0.005	0.000	0.010	0.430	2.656	1.880	1.875	1.880	1.899	1.890	1.890
0.005	0.015	0.010	0.005	-0.010	0.015	0.435	2.676	1.880	1.885	1.885	1.899	1.890	1.890
0.015	0.005	0.005	0.005	-0.010	-0.005	0.435	2.686	1.880	1.875	1.880	1.899	1.890	1.885
0.005	0.005	0.005	0.005	-0.005	-0.015	0.439	2.671	1.885	1.880	1.875	1.899	1.895	1.890
0.005	0.015	0.000	0.010	0.005	-0.020	0.435	2.651	1.885	1.885	1.880	1.899	1.899	1.890
0.015	0.000	0.000	0.005	0.000	-0.005	0.430	2.734	1.890	1.885	1.880	1.899	1.899	1.895
0.024	-0.005	0.000	0.005	0.000	-0.010	0.435	2.754	1.904	1.885	1.885	1.899	1.899	1.890
0.020	-0.005	0.005	0.000	0.015	-0.010	0.439	2.637	1.890	1.890	1.885	1.904	1.899	1.899
0.029	-0.005	0.005	0.005	0.005	-0.005	0.435	2.661	1.890	1.890	1.890	1.904	1.899	1.904
0.024	0.000	0.010	-0.005	0.010	-0.005	0.435	2.646	1.899	1.890	1.890	1.904	1.904	1.899
0.029	-0.005	0.000	-0.005	0.000	0.000	0.430	2.749	1.899	1.890	1.885	1.904	1.899	1.899
0.034	0.000	0.000	0.000	0.005	0.020	0.435	2.661	1.890	1.895	1.890	1.904	1.899	1.904
0.015	0.005	0.000	-0.005	0.000	0.044	0.435	2.749	1.890	1.890	1.885	1.904	1.899	1.904
-0.010	0.005	0.010	-0.005	0.000	0.044	0.425	2.700	1.885	1.890	1.890	1.904	1.899	1.904
-0.010	-0.005	0.005	0.000	0.000	0.015	0.425	2.646	1.875	1.885	1.885	1.899	1.899	1.895
-0.020	0.000	0.000	0.000	0.005	0.024	0.425	2.700	1.875	1.875	1.880	1.899	1.895	1.895
-0.024	0.005	0.000	0.000	0.000	0.010	0.430	2.681	1.875	1.875	1.880	1.899	1.895	1.890
-0.034	0.000	0.000	0.005	0.000	0.005	0.430	2.715	1.880	1.875	1.875	1.899	1.895	1.890
-0.029	0.015	0.005	0.005	0.000	0.010	0.435	2.690	1.880	1.880	1.880	1.899	1.895	1.895
-0.015	0.015	0.000	0.005	0.000	-0.005	0.435	2.690	1.890	1.880	1.880	1.899	1.895	1.890
-0.020	0.005	0.005	0.005	0.005	-0.024	0.435	2.700	1.890	1.880	1.880	1.899	1.895	1.890
-0.005	-0.010	0.000	0.015	-0.005	-0.010	0.435	2.686	1.895	1.885	1.880	1.899	1.899	1.895
-0.015	0.000	-0.010	0.015	0.000	-0.005	0.435	2.686	1.895	1.890	1.880	1.899	1.899	1.899
0.005	0.000	-0.010	0.005	0.000	-0.024	0.425	2.705	1.899	1.890	1.885	1.899	1.899	1.895
0.010	0.000	-0.005	0.005	-0.005	-0.005	0.435	2.705	1.899	1.895	1.885	1.899	1.895	1.895
0.010	-0.005	0.000	0.005	0.000	-0.005	0.425	2.686	1.895	1.895	1.885	1.904	1.899	1.899
0.010	0.000	0.000	-0.005	0.000	-0.005	0.435	2.700	1.899	1.899	1.890	1.899	1.895	1.895
0.010	0.000	0.005	-0.010	0.005	0.000	0.435	2.690	1.895	1.895	1.895	1.904	1.899	1.899
0.010	0.000	0.005	-0.005	0.000	-0.005	0.444	2.695	1.890	1.895	1.890	1.904	1.899	1.899
0.010	-0.005	0.010	0.000	0.005	0.000	0.435	2.686	1.890	1.890	1.890	1.904	1.899	1.899
-0.005	0.000	0.005	0.005	0.000	-0.005	0.439	2.695	1.880	1.885	1.885	1.904	1.899	1.895
-0.010	-0.005	0.010	0.000	0.000	0.015	0.435	2.710	1.885	1.880	1.885	1.904	1.899	1.899
-0.005	-0.005	0.010	0.000	0.005	0.000	0.430	2.700	1.880	1.880	1.880	1.899	1.899	1.895
-0.005	-0.005	0.005	0.000	0.000	0.000	0.435	2.700	1.880	1.880	1.880	1.899	1.895	1.895
-0.005	0.015	0.005	0.000	0.000	0.005	0.435	2.710	1.885	1.885	1.880	1.899	1.895	1.895
-0.005	0.015	0.010	-0.005	0.000	0.005	0.435	2.705	1.890	1.890	1.885	1.899	1.895	1.890
-0.005	0.020	0.005	-0.005	0.000	0.005	0.430	2.690	1.890	1.890	1.885	1.899	1.895	1.899
0.005	0.000	0.005	-0.005	0.000	0.005	0.425	2.690	1.895	1.885	1.885	1.904	1.895	1.895
0.000	0.005	0.005	0.010	0.000	-0.005	0.430	2.671	1.890	1.885	1.885	1.909	1.899	1.895
0.005	0.000	0.005	0.010	-0.005	0.010	0.435	2.661	1.890	1.890	1.885	1.904	1.899	1.899
0.010	0.000	-0.005	0.005	0.000	0.005	0.430	2.642	1.885	1.890	1.885	1.904	1.899	1.899
0.005	-0.005	0.000	0.010	0.005	-0.015	0.435	2.666	1.885	1.885	1.885	1.909	1.904	1.895
0.010	-0.005	0.000	0.010	-0.005	-0.010	0.430	2.681	1.890	1.885	1.890	1.909	1.904	1.895
0.010	0.005	0.000	0.010	0.010	-0.005	0.439	2.729	1.890	1.890	1.890	1.904	1.904	1.899
0.005	0.000	0.005	0.000	0.015	0.000	0.435	2.666	1.890	1.890	1.885	1.904	1.904	1.899
0.005	0.000	0.000	0.000	0.010	-0.005	0.430	2.739	1.895	1.890	1.880	1.904	1.899	1.899
0.005	0.005	0.005	0.000	0.005	-0.015	0.435	2.754	1.895	1.890	1.885	1.899	1.899	1.895
-0.005	0.010	0.005	-0.005	0.010	0.015	0.430	2.646	1.880	1.890	1.880	1.899	1.899	1.899
-0.005	0.000	0.005	-0.005	0.010	0.010	0.430	2.651	1.880	1.885	1.885	1.899	1.895	1.899
0.000	0.000	0.005	-0.010	0.010	0.020	0.435	2.642	1.880	1.880	1.880	1.899	1.895	1.899
0.000	0.000	0.000	-0.010	0.010	0.024	0.435	2.739	1.885	1.880	1.880	1.899	1.895	1.899
0.010	-0.005	0.000	-0.005	0.005	0.024	0.439	2.671	1.885	1.880	1.880	1.899	1.890	1.899
0.000	0.000	0.000	0.000	0.005	0.005	0.430	2.637	1.880	1.880	1.880	1.899	1.895	1.895
0.000	-0.005	0.005	0.000	0.005	0.020	0.435	2.695	1.885	1.880	1.880	1.899	1.895	1.895
-0.005	-0.005	0.005	0.000	-0.005	0.020	0.435	2.646	1.880	1.880	1.880	1.899	1.890	1.895
0.015	-0.005	0.000	0.005	-0.010	0.010	0.435	2.690	1.890	1.885	1.880	1.904	1.895	1.885
0.020	0.005	-0.005	0.005	-0.020	-0.020	0.430	2.710	1.895	1.890	1.880	1.899	1.890	1.885
0.010	0.010	0.005	0.005	-0.020	-0.005	0.439	2.676	1.890	1.895	1.890	1.904	1.895	1.890
-0.005	0.000	0.005	0.010	-0.015	-0.005	0.425	2.690	1.885	1.885	1.890	1.909	1.899	1.895
-0.024	0.005	0.010	0.005	-0.010	-0.015	0.430	2.686	1.880	1.885	1.885	1.904	1.899	1.890
-0.005	0.005	0.005	0.010	-0.010	-0.005	0.435	2.690	1.885	1.885	1.885	1.904	1.899	1.895
-0.010	0.010	0.005	0.010	-0.005	-0.005	0.439	2.686	1.885	1.885	1.885	1.904	1.899	1.895
-0.010	-0.005	0.000	0.015	-0.005	0.000	0.435	2.700	1.885	1.880	1.880	1.904	1.899	1.899
-0.005	-0.005	0.000	0.005	-0.005	0.005	0.430	2.690	1.885	1.880	1.880	1.899	1.899	1.899
0.000	0.005	0.005	0.010	0.005	0.000	0.430	2.705	1.890	1.885	1.880	1.899	1.899	1.895
0.010	0.005	0.000	0.005	0.010	-0.005	0.430	2.700	1.890	1.885	1.880	1.899	1.899	1.895
0.015	0.010	-0.005	0.000	0.010	0.005	0.435	2.700	1.890	1.885	1.875	1.895	1.895	1.899
0.015	0.000	0.000	0.000	0.029	0.020	0.435	2.681	1.890	1.885	1.880	1.895	1.899	1.899
0.010	0.000	0.000	-0.010	0.024	0.015	0.435	2.686	1.890	1.885	1.880	1.895	1.895	1.895
0.015	-0.005	0.005	0.000	0.015	-0.010	0.435	2.686	1.885	1.885	1.880	1.895	1.890	1.890
0.020	0.005	0.005	0.000	0.005	0.005	0.439	2.686	1.890	1.890	1.885	1.899	1.890	1.895
0.005	-0.005	0.000	-0.005	0.015	0.005	0.430	2.705	1.890	1.885	1.885	1.899	1.895	1.895
0.005	0.000	0.005	-0.005	0.010	0.005	0.435	2.710	1.890	1.890	1.885	1.904	1.895	1.895
0.005	0.000	0.005	-0.005	0.005	0.000	0.430	2.700	1.890	1.890	1.890	1.899	1.895	1.895
0.005	-0.005	0.005	-0.005	0.005	0.010	0.430	2.690	1.890	1.890	1.890	1.904	1.899	1.895
-0.005	0.005	0.005	-0.005	-0.005	0.010	0.430	2.710	1.890	1.890	1.890	1.904	1.895	1.895
0.010	-0.010	0.005	-0.005	-0.010	0.000	0.435	2.700	1.895	1.890	1.890	1.904	1.895	1.895
0.000	-0.005	0.000	0.000	-0.005	-0.015	0.425	2.700	1.890	1.890	1.890	1.909	1.899	1.890
0.010	0.000	0.000	0.000	-0.010	-0.020	0.430	2.651	1.885	1.890	1.885	1.904	1.899	1.890
0.005	0.010	0.000	0.000	-0.005	-0.039	0.430	2.671	1.880	1.890	1.890	1.904	1.895	1.885
-0.005	0.000	0.005	0.005	-0.005	-0.020	0.435	2.656	1.875	1.880	1.885	1.904	1.899	1.895
0.000	0.000	-0.005	0.005	-0.005	0.005	0.425	2.676	1.875	1.875	1.880	1.899	1.899	1.899
-0.005	0.005	0.005	0.010	-0.005	0.015	0.435	2.681	1.875	1.875	1.875	1.899	1.895	1.899
0.000	0.000	0.000	0.010	0.010	0.010	0.435	2.632	1.880	1.875	1.875	1.899	1.899	1.899
0.000	0.005	0.000	0.000	0.010	0.020	0.435	2.671	1.880	1.875	1.875	1.895	1.895	1.899
-0.015	0.010	0.000	0.000	0.000	0.005	0.430	2.734	1.885	1.880	1.875	1.895	1.890	1.899
-0.010	0.005	0.000	-0.005	0.000	0.034	0.435	2.661	1.885	1.880	1.875	1.895	1.895	1.899
-0.005	0.010	0.000	-0.005	0.000	0.020	0.425	2.729	1.895	1.885	1.875	1.895	1.890	1.895
-0.010	0.000	0.005	-0.005	0.000	0.029	0.439	2.646	1.890	1.885	1.880	1.895	1.890	1.895
-0.015	0.005	0.000	-0.005	-0.005	0.015	0.430	2.739	1.885	1.885	1.880	1.899	1.890	1.890
-0.010	0.005	0.005	0.000	0.005	0.005	0.435	2.651	1.880	1.885	1.885	1.899	1.895	1.895
0.000	0.000	0.000	0.010	0.000	0.000	0.435	2.666	1.885	1.885	1.885	1.904	1.899	1.890
-0.010	0.000	0.005	0.005	0.005	-0.010	0.430	2.637	1.875	1.880	1.885	1.904	1.895	1.890
0.000	0.005	0.005	0.005	0.010	0.005	0.435	2.700	1.890	1.885	1.885	1.904	1.899	1.895
0.010	0.000	0.010	0.005	0.005	0.010	0.430	2.642	1.885	1.885	1.880	1.899	1.899	1.899
0.015	0.005	-0.005	-0.005	0.010	0.000	0.425	2.700	1.890	1.880	1.880	1.899	1.899	1.895
0.024	0.005	0.000	-0.005	0.005	0.005	0.430	2.695	1.890	1.885	1.880	1.895	1.890	1.890
0.034	-0.005	0.005	-0.005	0.010	0.005	0.430	2.700	1.890	1.880	1.875	1.895	1.890	1.890
0.034	0.010	0.000	0.005	0.005	-0.010	0.435	2.686	1.885	1.885	1.880	1.895	1.890	1.890
0.015	0.000	0.005	0.010	0.000	-0.005	0.435	2.700	1.880	1.875	1.880	1.899	1.890	1.890
0.010	-0.005	0.005	0.005	-0.005	-0.020	0.435	2.695	1.880	1.875	1.875	1.899	1.890	1.880
0.005	0.005	0.000	0.005	0.000	-0.005	0.439	2.705	1.880	1.880	1.875	1.895	1.890	1.890
0.000	0.000	0.005	0.010	-0.005	0.000	0.435	2.686	1.880	1.880	1.880	1.895	1.890	1.895
0.005	-0.005	0.000	0.010	-0.005	0.000	0.425	2.710	1.890	1.880	1.880	1.895	1.890	1.895
-0.005	0.010	0.005	0.015	-0.005	-0.005	0.430	2.705	1.890	1.885	1.880	1.895	1.895	1.890
-0.010	0.000	0.000	0.010	-0.005	0.015	0.435	2.690	1.885	1.885	1.885	1.899	1.895	1.895
0.000	0.005	0.005	0.010	0.005	0.010	0.425	2.695	1.890	1.885	1.885	1.899	1.895	1.899
-0.005	0.005	0.000	-0.005	-0.005	0.010	0.430	2.686	1.895	1.890	1.885	1.899	1.895	1.895
-0.005	0.005	0.000	0.000	0.010	0.000	0.435	2.686	1.890	1.890	1.885	1.899	1.899	1.890
-0.005	0.005	0.000	0.000	0.010	0.000	0.435	2.681	1.890	1.885	1.885	1.899	1.899	1.899
0.005	0.005	0.000	-0.005	0.005	0.000	0.430	2.690	1.890	1.890	1.885	1.899	1.895	1.890
0.010	-0.010	0.005	0.000	0.005	0.010	0.430	2.705	1.895	1.890	1.885	1.899	1.895	1.895
0.024	0.005	0.010	0.010	0.010	-0.010	0.425	2.690	1.895	1.890	1.885	1.904	1.895	1.890
0.015	0.000	0.005	0.005	0.005	0.005	0.430	2.715	1.885	1.885	1.880	1.899	1.895	1.895
0.010	0.000	0.005	-0.005	-0.005	-0.024	0.435	2.686	1.880	1.885	1.880	1.899	1.895	1.885
0.005	-0.005	0.005	-0.005	0.005	0.000	0.439	2.700	1.880	1.880	1.880	1.895	1.895	1.895
0.005	-0.010	-0.005	-0.010	0.000	-0.010	0.439	2.710	1.880	1.875	1.875	1.895	1.890	1.890
-0.005	-0.010	0.005	-0.005	0.005	0.005	0.439	2.695	1.880	1.880	1.875	1.895	1.895	1.895
0.000	-0.010	0.000	-0.005	-0.005	0.005	0.435	2.671	1.880	1.875	1.875	1.895	1.890	1.895
-0.015	0.005	0.000	-0.005	-0.005	-0.005	0.435	2.671	1.875	1.880	1.875	1.895	1.890	1.890
-0.010	0.000	0.000	0.000	-0.005	0.010	0.430	2.651	1.875	1.880	1.875	1.895	1.890	1.895
0.000	0.010	0.000	0.000	-0.005	0.024	0.435	2.676	1.880	1.880	1.880	1.899	1.895	1.899
0.005	0.005	0.000	0.005	-0.005	0.020	0.430	2.671	1.880	1.880	1.880	1.899	1.895	1.895
-0.005	-0.005	0.005	0.000	-0.015	0.015	0.435	2.739	1.895	1.880	1.880	1.899	1.890	1.895
-0.010	-0.005	0.000	0.000	-0.020	0.010	0.439	2.656	1.880	1.880	1.880	1.899	1.895	1.895
-0.010	0.000	0.000	0.005	-0.010	0.020	0.435	2.744	1.890	1.885	1.880	1.899	1.895	1.895
-0.005	0.000	0.000	0.005	0.000	0.015	0.430	2.651	1.885	1.885	1.885	1.899	1.899	1.895
-0.005	0.005	0.005	0.005	0.005	0.005	0.430	2.754	1.895	1.890	1.880	1.899	1.899	1.895
-0.005	0.000	0.005	0.005	0.010	0.005	0.435	2.651	1.885	1.885	1.880	1.904	1.899	1.895
-0.005	-0.005	-0.005	0.010	0.015	-0.005	0.435	2.715	1.890	1.885	1.880	1.899	1.895	1.890
-0.005	0.010	0.000	0.005	0.010	-0.034	0.430	2.642	1.885	1.885	1.880	1.899	1.895	1.880
0.010	0.005	0.005	0.010	0.015	-0.034	0.425	2.681	1.885	1.885	1.880	1.899	1.895	1.885
0.000	0.015	0.000	0.005	0.020	-0.010	0.439	2.725	1.890	1.885	1.880	1.899	1.895	1.895
0.005	0.005	0.000	0.000	0.024	-0.015	0.430	2.695	1.890	1.885	1.880	1.895	1.895	1.895
-0.005	0.015	0.000	0.005	0.020	-0.005	0.439	2.637	1.875	1.880	1.880	1.895	1.895	1.895
0.005	0.005	0.010	0.010	0.010	0.015	0.430	2.710	1.885	1.875	1.880	1.899	1.890	1.899
0.005	0.000	0.005	0.005	0.000	-0.005	0.444	2.695	1.890	1.885	1.880	1.895	1.890	1.890
-0.005	-0.015	0.005	0.005	0.000	0.000	0.430	2.710	1.890	1.880	1.880	1.899	1.890	1.895
0.005	-0.010	0.000	0.000	0.005	0.029	0.439	2.686	1.890	1.885	1.880	1.899	1.895	1.899
0.000	-0.005	0.005	0.005	-0.010	0.020	0.430	2.700	1.890	1.890	1.880	1.899	1.895	1.895
0.005	0.000	0.000	0.000	-0.010	0.024	0.439	2.695	1.895	1.890	1.885	1.899	1.895	1.899
0.000	0.010	0.000	0.000	-0.005	0.034	0.430	2.690	1.895	1.895	1.890	1.904	1.899	1.899
0.000	0.000	-0.005	0.000	0.005	0.029	0.439	2.686	1.890	1.890	1.890	1.904	1.904	1.899
0.000	0.005	0.000	0.000	0.000	-0.010	0.425	2.690	1.890	1.890	1.890	1.904	1.899	1.885
0.005	0.024	0.000	0.005	0.010	-0.010	0.435	2.695	1.890	1.895	1.890	1.904	1.899	1.890
0.000	0.015	0.000	0.000	0.000	-0.010	0.430	2.686	1.885	1.890	1.885	1.904	1.899	1.890
0.005	0.005	0.000	0.005	0.005	-0.015	0.425	2.690	1.885	1.885	1.885	1.904	1.899	1.890
0.010	0.005	0.000	0.000	0.010	-0.015	0.439	2.681	1.885	1.880	1.885	1.904	1.899	1.890
0.000	0.005	0.005	0.000	0.005	-0.010	0.430	2.700	1.875	1.880	1.885	1.899	1.899	1.895
-0.010	0.000	0.000	0.000	0.005	-0.024	0.439	2.676	1.875	1.875	1.875	1.899	1.895	1.895
0.005	0.005	0.000	0.000	0.000	-0.015	0.430	2.686	1.880	1.875	1.875	1.895	1.890	1.890
0.010	0.000	-0.005	0.010	0.000	0.010	0.439	2.700	1.885	1.880	1.875	1.899	1.895	1.899
0.010	0.010	0.000	0.005	-0.005	0.005	0.430	2.705	1.890	1.880	1.880	1.895	1.890	1.895
0.010	0.005	0.000	0.010	0.015	0.034	0.435	2.705	1.890	1.880	1.880	1.899	1.899	1.904
0.015	0.005	0.005	0.005	0.005	0.039	0.435	2.690	1.895	1.885	1.885	1.899	1.895	1.904
0.005	0.005	0.000	0.005	0.000	0.015	0.430	2.705	1.895	1.885	1.885	1.904	1.895	1.895
-0.005	0.000	0.000	0.010	-0.015	-0.010	0.435	2.705	1.890	1.890	1.890	1.904	1.890	1.885
-0.005	0.005	0.005	0.005	-0.010	-0.010	0.430	2.700	1.890	1.890	1.885	1.904	1.895	1.890
-0.005	-0.005	0.000	0.010	-0.015	-0.034	0.430	2.661	1.885	1.885	1.885	1.904	1.890	1.885
-0.005	0.000	0.000	0.000	-0.010	-0.029	0.435	2.661	1.880	1.890	1.885	1.899	1.895	1.895
-0.005	0.000	0.000	0.010	0.010	-0.039	0.430	2.651	1.880	1.880	1.885	1.904	1.899	1.890
0.005	-0.005	0.000	0.000	0.010	0.005	0.435	2.681	1.880	1.880	1.880	1.899	1.899	1.899
0.000	0.000	0.005	-0.005	0.020	0.015	0.435	2.681	1.875	1.880	1.880	1.899	1.904	1.909
-0.010	0.000	0.000	-0.005	0.015	0.015	0.435	2.646	1.885	1.880	1.880	1.899	1.895	1.899
0.000	0.005	0.005	-0.005	0.015	0.020	0.430	2.651	1.885	1.880	1.880	1.899	1.895	1.899
0.005	0.000	0.000	-0.005	0.010	0.020	0.435	2.637	1.875	1.875	1.875	1.895	1.890	1.899
0.015	0.000	0.005	-0.005	0.005	0.020	0.435	2.759	1.890	1.875	1.875	1.895	1.885	1.890
0.020	-0.005	0.000	0.000	0.010	0.010	0.439	2.705	1.895	1.880	1.875	1.895	1.890	1.885
0.020	-0.005	0.005	0.015	0.000	0.005	0.435	2.744	1.899	1.885	1.880	1.895	1.890	1.890
0.005	0.000	0.000	0.015	-0.005	0.005	0.435	2.642	1.885	1.885	1.880	1.899	1.890	1.890
0.005	0.010	0.000	0.010	-0.005	-0.034	0.425	2.651	1.880	1.890	1.885	1.899	1.890	1.875
0.005	0.005	0.005	0.010	-0.005	-0.024	0.439	2.666	1.880	1.880	1.885	1.899	1.895	1.885
0.020	0.010	0.010	0.005	-0.020	0.000	0.439	2.734	1.895	1.885	1.885	1.899	1.890	1.890
0.000	0.010	0.000	0.000	-0.010	0.005	0.430	2.700	1.890	1.885	1.885	1.899	1.895	1.899
0.010	0.005	0.000	0.005	-0.005	0.005	0.435	2.734	1.885	1.885	1.885	1.904	1.899	1.899
0.000	0.005	0.000	-0.005	0.005	0.015	0.435	2.690	1.885	1.885	1.880	1.899	1.899	1.899
-0.005	-0.005	0.010	-0.005	0.010	0.015	0.430	2.705	1.890	1.880	1.880	1.899	1.899	1.899
0.000	-0.005	0.000	-0.010	0.000	0.010	0.430	2.690	1.885	1.880	1.880	1.899	1.895	1.895
0.000	-0.005	0.005	-0.010	0.005	0.005	0.435	2.705	1.885	1.880	1.880	1.899	1.895	1.895
-0.005	0.000	0.005	0.000	0.000	0.005	0.430	2.715	1.885	1.880	1.880	1.899	1.895	1.890
0.000	-0.010	0.005	0.000	0.010	0.005	0.435	2.695	1.885	1.880	1.880	1.899	1.895	1.890
-0.015	-0.005	0.005	0.000	0.015	0.010	0.425	2.690	1.880	1.875	1.880	1.895	1.895	1.899
-0.005	0.000	-0.005	0.000	0.015	0.015	0.435	2.710	1.885	1.880	1.875	1.895	1.895	1.895
0.000	0.000	-0.005	0.005	0.010	0.000	0.430	2.695	1.885	1.880	1.875	1.895	1.890	1.890
0.000	0.000	0.000	0.005	0.010	0.010	0.439	2.695	1.885	1.880	1.875	1.895	1.890	1.890
0.000	0.010	0.010	0.005	0.010	0.000	0.430	2.710	1.890	1.885	1.880	1.895	1.890	1.890
0.000	-0.005	0.010	0.000	0.005	-0.005	0.439	2.715	1.890	1.880	1.880	1.895	1.890	1.890
0.005	0.005	0.010	0.000	-0.005	-0.020	0.430	2.681	1.890	1.885	1.880	1.899	1.890	1.880
0.005	0.010	0.005	0.005	0.005	0.000	0.435	2.705	1.890	1.890	1.885	1.899	1.895	1.895
0.010	0.015	0.000	0.010	-0.005	-0.020	0.435	2.686	1.895	1.890	1.885	1.904	1.895	1.885
0.005	0.005	0.000	0.010	0.000	0.010	0.435	2.705	1.890	1.890	1.885	1.904	1.899	1.904
0.005	0.005	-0.005	0.010	0.000	-0.005	0.430	2.700	1.890	1.890	1.885	1.904	1.899	1.899
-0.005	0.000	0.000	0.010	-0.005	0.015	0.430	2.671	1.890	1.890	1.885	1.904	1.899	1.899
0.000	0.010	0.000	0.005	-0.005	0.010	0.435	2.705	1.890	1.890	1.885	1.904	1.899	1.895
0.000	0.005	0.005	0.005	-0.005	-0.005	0.435	2.686	1.890	1.890	1.890	1.904	1.899	1.899
0.000	-0.005	0.005	0.000	0.005	0.020	0.435	2.695	1.885	1.885	1.885	1.904	1.899	1.904
-0.015	-0.010	0.005	0.000	0.000	-0.010	0.425	2.695	1.880	1.880	1.880	1.899	1.895	1.890
-0.020	0.000	0.005	-0.005	0.000	-0.015	0.439	2.690	1.880	1.885	1.880	1.899	1.895	1.890
-0.010	0.000	0.005	-0.005	0.010	0.005	0.435	2.656	1.880	1.880	1.880	1.899	1.895	1.899
-0.020	0.010	0.000	0.000	0.024	0.005	0.435	2.671	1.875	1.880	1.880	1.899	1.899	1.899
-0.005	0.005	0.005	0.000	0.015	-0.005	0.435	2.646	1.880	1.880	1.875	1.895	1.895	1.890
0.010	0.005	0.000	0.005	0.015	0.015	0.435	2.656	1.875	1.880	1.875	1.895	1.895	1.895
0.005	0.005	0.000	0.005	-0.005	-0.010	0.430	2.690	1.880	1.880	1.880	1.895	1.890	1.890
0.005	0.000	-0.005	-0.005	0.015	0.020	0.435	2.734	1.890	1.880	1.880	1.895	1.895	1.899
0.015	-0.005	0.000	-0.005	0.000	0.010	0.435	2.661	1.885	1.880	1.880	1.895	1.890	1.890
0.020	-0.005	-0.005	0.005	-0.005	0.000	0.430	2.637	1.890	1.885	1.880	1.899	1.890	1.890
0.024	0.000	0.000	0.005	-0.015	0.000	0.430	2.734	1.899	1.890	1.885	1.899	1.890	1.890
0.024	0.015	0.005	0.010	-0.024	-0.005	0.439	2.744	1.904	1.899	1.890	1.904	1.890	1.890
0.010	0.005	0.000	0.005	-0.020	-0.015	0.430	2.642	1.885	1.890	1.890	1.904	1.895	1.885
0.015	0.005	-0.005	0.005	-0.005	0.000	0.430	2.739	1.890	1.890	1.890	1.904	1.904	1.899
0.005	0.000	0.000	0.010	-0.010	0.010	0.425	2.661	1.885	1.885	1.890	1.904	1.899	1.899
0.000	0.000	0.005	0.010	-0.005	-0.010	0.430	2.671	1.880	1.885	1.885	1.904	1.899	1.895
-0.005	0.000	0.000	0.005	0.005	0.010	0.435	2.651	1.875	1.880	1.885	1.904	1.904	1.899
-0.020	0.000	0.000	0.005	-0.010	0.010	0.430	2.695	1.875	1.880	1.880	1.899	1.895	1.899
-0.010	-0.010	0.005	0.005	-0.005	0.005	0.430	2.749	1.885	1.875	1.875	1.899	1.895	1.895
-0.010	0.000	0.000	0.000	0.005	0.005	0.430	2.681	1.880	1.880	1.880	1.895	1.895	1.895
-0.005	0.010	0.000	-0.005	0.000	-0.015	0.430	2.705	1.890	1.880	1.875	1.895	1.890	1.890
0.000	0.000	0.000	-0.005	0.000	0.015	0.439	2.695	1.885	1.885	1.875	1.895	1.890	1.899
-0.005	0.000	0.000	-0.015	-0.005	0.010	0.430	2.686	1.885	1.885	1.875	1.895	1.890	1.899
0.005	0.010	0.000	-0.015	0.000	0.020	0.439	2.681	1.880	1.885	1.880	1.890	1.890	1.895
0.010	-0.005	0.000	-0.010	-0.005	-0.020	0.430	2.681	1.885	1.880	1.885	1.899	1.890	1.890
0.005	0.000	0.005	0.005	0.024	0.020	0.435	2.690	1.895	1.885	1.880	1.904	1.899	1.899
0.010	0.000	0.000	0.005	0.029	0.015	0.439	2.705	1.895	1.890	1.885	1.904	1.904	1.899
0.010	0.005	0.005	0.015	0.015	0.005	0.439	2.695	1.895	1.895	1.890	1.909	1.899	1.899
0.005	0.000	0.000	0.015	-0.010	-0.024	0.439	2.695	1.890	1.890	1.885	1.909	1.895	1.890
0.000	-0.005	0.000	0.015	-0.010	0.010	0.430	2.705	1.890	1.885	1.885	1.909	1.899	1.899
-0.005	0.000	0.005	0.020	0.000	0.000	0.435	2.710	1.895	1.890	1.885	1.909	1.899	1.895
-0.010	-0.005	0.005	0.015	0.000	0.000	0.430	2.705	1.890	1.890	1.885	1.904	1.899	1.899
0.000	0.020	0.000	0.010	0.000	0.000	0.430	2.681	1.890	1.890	1.885	1.904	1.899	1.899
0.005	0.000	0.005	0.005	0.000	0.024	0.430	2.705	1.895	1.890	1.885	1.904	1.899	1.904
0.005	-0.005	-0.005	0.005	0.005	0.010	0.425	2.690	1.890	1.885	1.880	1.895	1.895	1.895
0.010	-0.015	0.000	0.000	0.005	-0.010	0.430	2.681	1.890	1.880	1.880	1.899	1.895	1.890
0.000	-0.005	0.000	0.000	0.020	-0.010	0.439	2.695	1.885	1.885	1.880	1.899	1.899	1.890
0.000	0.015	0.000	0.000	0.024	-0.015	0.430	2.700	1.880	1.885	1.880	1.899	1.895	1.895
-0.005	0.000	0.005	-0.005	0.015	-0.024	0.439	2.690	1.885	1.880	1.880	1.895	1.890	1.890
-0.010	0.005	0.000	-0.010	-0.005	-0.029	0.435	2.695	1.885	1.880	1.880	1.895	1.885	1.890
-0.005	-0.005	0.005	-0.010	0.005	0.005	0.435	2.715	1.890	1.880	1.880	1.899	1.895	1.899
0.000	0.005	0.000	-0.005	0.024	0.010	0.430	2.695	1.890	1.880	1.880	1.899	1.899	1.899
0.000	0.005	0.000	0.005	0.020	-0.005	0.439	2.632	1.885	1.885	1.885	1.904	1.895	1.899
-0.005	0.000	-0.005	0.000	-0.005	0.000	0.435	2.661	1.885	1.885	1.885	1.904	1.895	1.899
0.005	-0.005	0.005	-0.005	-0.005	-0.005	0.439	2.661	1.890	1.885	1.885	1.904	1.895	1.895
-0.005	0.000	0.010	0.000	0.000	0.020	0.430	2.803	1.880	1.885	1.885	1.904	1.899	1.904
0.000	0.005	0.000	0.005	0.010	0.005	0.430	2.676	1.885	1.885	1.885	1.904	1.899	1.895
0.000	0.000	0.005	0.000	0.005	0.029	0.425	2.651	1.885	1.880	1.885	1.904	1.899	1.904
-0.005	0.010	0.000	0.000	0.010	0.029	0.430	2.651	1.885	1.885	1.880	1.899	1.899	1.904
-0.005	0.005	-0.005	0.000	-0.024	0.005	0.430	2.725	1.885	1.885	1.880	1.899	1.890	1.890
-0.010	0.005	0.000	0.000	-0.005	0.034	0.435	2.637	1.875	1.875	1.880	1.899	1.895	1.899
0.000	0.005	0.000	0.000	-0.005	0.015	0.425	2.729	1.885	1.880	1.875	1.899	1.890	1.890
-0.005	0.000	0.005	0.010	-0.020	0.015	0.435	2.651	1.880	1.880	1.875	1.895	1.890	1.890
0.005	0.005	0.000	0.005	-0.029	-0.015	0.430	2.642	1.875	1.875	1.875	1.895	1.885	1.880
0.020	0.010	0.005	0.005	-0.010	-0.005	0.430	2.671	1.880	1.875	1.875	1.895	1.890	1.890
0.015	0.005	0.000	0.005	0.000	0.000	0.435	2.690	1.875	1.875	1.875	1.895	1.895	1.890
0.005	-0.010	0.000	0.005	0.005	0.005	0.425	2.622	1.870	1.870	1.870	1.895	1.895	1.890
-0.005	-0.010	0.000	0.005	0.005	0.000	0.430	2.686	1.875	1.870	1.875	1.895	1.895	1.890
-0.024	-0.010	0.000	0.000	0.000	-0.010	0.435	2.734	1.870	1.870	1.870	1.890	1.890	1.890
-0.024	0.005	0.000	0.005	0.005	-0.005	0.430	2.710	1.875	1.875	1.875	1.895	1.890	1.890
-0.024	-0.005	0.000	0.005	0.015	-0.029	0.430	2.705	1.880	1.875	1.875	1.890	1.895	1.890
-0.029	0.000	0.000	0.000	0.005	-0.015	0.430	2.681	1.885	1.880	1.875	1.890	1.890	1.890
-0.010	-0.005	0.000	0.000	-0.010	0.000	0.430	2.686	1.890	1.885	1.875	1.890	1.885	1.895
0.015	0.005	0.000	0.000	0.024	0.000	0.435	2.710	1.895	1.890	1.880	1.895	1.895	1.895
0.015	0.000	-0.005	0.000	0.024	0.000	0.425	2.695	1.895	1.890	1.880	1.899	1.895	1.895
0.029	0.010	0.000	0.000	0.015	-0.005	0.439	2.705	1.899	1.895	1.885	1.899	1.890	1.890
0.029	0.000	-0.005	0.000	0.029	-0.015	0.435	2.695	1.895	1.890	1.885	1.895	1.895	1.895
0.029	0.000	-0.005	0.000	0.029	-0.010	0.439	2.700	1.890	1.885	1.885	1.899	1.895	1.895
0.039	0.000	0.000	0.000	0.024	0.005	0.435	2.686	1.890	1.885	1.885	1.899	1.890	1.895
0.039	0.024	0.005	0.005	0.024	0.024	0.435	2.690	1.890	1.895	1.885	1.899	1.895	1.895
0.020	0.015	0.005	-0.005	0.020	0.024	0.435	2.686	1.885	1.885	1.885	1.899	1.895	1.899
0.039	0.005	0.000	0.000	-0.005	0.020	0.435	2.690	1.890	1.880	1.885	1.899	1.885	1.890
0.015	0.005	0.005	0.005	-0.005	0.000	0.430	2.710	1.880	1.880	1.880	1.899	1.890	1.885
0.010	0.005	0.000	0.010	-0.010	-0.020	0.439	2.681	1.880	1.885	1.880	1.899	1.890	1.885
-0.005	0.005	0.000	0.005	-0.010	-0.024	0.425	2.695	1.880	1.880	1.880	1.899	1.890	1.880
-0.005	0.015	0.000	0.005	-0.024	-0.020	0.430	2.690	1.885	1.880	1.880	1.899	1.890	1.885
-0.010	0.005	0.005	0.000	-0.020	-0.024	0.425	2.690	1.875	1.880	1.880	1.899	1.895	1.885
-0.020	0.005	0.000	0.005	-0.029	-0.044	0.430	2.700	1.880	1.880	1.885	1.899	1.890	1.880
-0.024	-0.005	0.005	0.000	-0.020	-0.049	0.425	2.710	1.885	1.880	1.880	1.904	1.895	1.885
-0.020	-0.005	0.005	0.005	-0.015	-0.029	0.435	2.715	1.890	1.880	1.880	1.899	1.899	1.895
-0.015	-0.010	0.000	0.010	-0.010	-0.005	0.430	2.700	1.885	1.880	1.880	1.899	1.899	1.904
-0.015	-0.015	0.000	0.000	0.005	0.044	0.430	2.695	1.885	1.875	1.875	1.899	1.904	1.919
-0.020	-0.010	0.000	0.000	0.010	0.044	0.435	2.666	1.885	1.880	1.875	1.895	1.904	1.909
-0.010	-0.005	0.005	0.000	0.015	0.039	0.430	2.676	1.890	1.885	1.875	1.899	1.899	1.904
-0.005	-0.005	-0.005	0.005	0.005	0.029	0.430	2.637	1.880	1.885	1.875	1.895	1.890	1.899
-0.005	0.005	0.005	-0.005	0.000	0.049	0.435	2.700	1.880	1.880	1.875	1.895	1.890	1.899
-0.005	0.005	0.005	0.005	0.000	0.049	0.435	2.671	1.875	1.880	1.880	1.895	1.890	1.899
-0.005	0.010	0.005	-0.005	0.005	0.020	0.435	2.637	1.885	1.880	1.875	1.895	1.890	1.890
-0.010	0.005	-0.005	0.005	0.010	0.034	0.430	2.651	1.885	1.880	1.875	1.890	1.890	1.890
0.005	0.000	0.005	0.000	-0.010	0.010	0.439	2.744	1.890	1.880	1.880	1.895	1.885	1.880
0.005	-0.010	0.005	0.000	-0.010	0.015	0.435	2.651	1.885	1.875	1.880	1.895	1.890	1.885
0.010	0.005	0.000	0.005	0.000	-0.010	0.430	2.651	1.880	1.885	1.875	1.895	1.890	1.880
0.010	-0.005	0.005	0.005	0.000	-0.039	0.430	2.646	1.880	1.885	1.880	1.895	1.890	1.875
0.000	-0.005	0.000	0.000	0.000	0.000	0.430	2.642	1.875	1.880	1.880	1.899	1.895	1.890
0.010	0.000	0.000	0.000	0.005	-0.020	0.435	2.651	1.875	1.880	1.880	1.899	1.895	1.885
0.010	0.010	0.000	0.010	-0.010	-0.010	0.435	2.681	1.875	1.885	1.885	1.899	1.890	1.895
0.000	0.010	0.005	0.005	-0.015	-0.044	0.430	2.632	1.875	1.880	1.880	1.899	1.890	1.885
0.005	0.020	0.000	0.010	-0.010	0.000	0.435	2.695	1.880	1.880	1.880	1.904	1.895	1.895
0.005	0.005	0.005	0.010	0.005	-0.005	0.435	2.676	1.880	1.875	1.875	1.899	1.899	1.890
0.005	-0.005	-0.005	0.000	0.000	-0.005	0.435	2.686	1.875	1.870	1.875	1.895	1.895	1.899
0.010	-0.010	0.000	0.000	-0.005	0.005	0.435	2.690	1.885	1.875	1.870	1.895	1.890	1.895
-0.005	0.010	0.000	0.000	0.005	-0.010	0.435	2.686	1.880	1.875	1.870	1.890	1.890	1.890
0.010	0.000	0.005	0.000	0.015	0.005	0.435	2.671	1.880	1.875	1.875	1.890	1.890	1.895
0.010	0.000	0.000	-0.005	0.015	0.020	0.425	2.710	1.880	1.875	1.875	1.890	1.890	1.890
0.000	-0.005	0.000	-0.005	0.010	-0.005	0.435	2.705	1.880	1.875	1.870	1.890	1.885	1.885
0.000	-0.005	0.010	0.000	0.005	-0.005	0.425	2.690	1.880	1.875	1.875	1.885	1.885	1.880
0.000	-0.005	0.010	0.000	0.000	-0.015	0.430	2.690	1.880	1.880	1.875	1.890	1.885	1.880
0.010	0.000	0.005	0.005	0.015	-0.015	0.430	2.710	1.890	1.885	1.880	1.895	1.890	1.885
-0.005	0.005	0.005	0.005	0.020	-0.010	0.430	2.690	1.885	1.885	1.880	1.895	1.895	1.885
0.000	0.000	0.005	0.005	0.005	-0.010	0.425	2.700	1.885	1.880	1.880	1.895	1.890	1.885
0.005	-0.015	0.000	0.000	-0.005	0.000	0.435	2.690	1.895	1.880	1.880	1.895	1.885	1.890
0.010	-0.005	0.005	0.005	0.000	0.015	0.439	2.686	1.895	1.890	1.880	1.899	1.895	1.895
0.000	0.010	0.005	0.000	0.010	0.039	0.435	2.705	1.890	1.890	1.885	1.899	1.895	1.899
0.005	0.015	0.000	-0.005	0.015	0.039	0.425	2.686	1.890	1.890	1.885	1.899	1.899	1.904
0.000	0.000	0.005	0.005	0.020	0.044	0.430	2.695	1.890	1.890	1.885	1.899	1.899	1.899
-0.015	0.000	0.000	0.000	0.010	0.039	0.435	2.705	1.885	1.880	1.885	1.899	1.895	1.899
0.000	0.005	0.000	0.000	0.000	0.015	0.430	2.690	1.885	1.880	1.880	1.899	1.890	1.890
-0.015	0.005	0.000	0.005	0.005	0.010	0.435	2.705	1.885	1.880	1.880	1.899	1.890	1.885
-0.005	0.000	0.005	0.005	-0.010	0.000	0.425	2.705	1.885	1.880	1.880	1.895	1.890	1.880
-0.005	-0.005	0.005	0.005	-0.005	-0.005	0.435	2.700	1.880	1.880	1.880	1.895	1.890	1.885
-0.005	0.000	-0.005	0.005	0.010	-0.029	0.435	2.695	1.880	1.875	1.880	1.899	1.895	1.880
0.000	0.015	0.005	0.005	0.024	-0.010	0.430	2.705	1.880	1.880	1.875	1.895	1.895	1.885
0.000	0.000	0.005	0.010	-0.010	-0.020	0.430	2.656	1.875	1.875	1.880	1.895	1.885	1.880
0.000	0.000	0.005	0.005	-0.039	0.005	0.435	2.676	1.875	1.875	1.875	1.895	1.880	1.885
0.000	0.000	0.000	0.005	-0.054	0.005	0.430	2.637	1.875	1.875	1.875	1.890	1.880	1.885
0.005	0.010	-0.005	0.000	-0.039	-0.005	0.435	2.812	1.890	1.880	1.875	1.895	1.890	1.890
0.000	0.010	0.000	-0.005	-0.029	0.010	0.430	2.671	1.885	1.885	1.880	1.895	1.890	1.890
-0.005	-0.005	0.005	0.000	0.005	0.039	0.435	2.632	1.880	1.880	1.880	1.899	1.904	1.904
0.000	-0.005	0.010	0.000	0.034	0.034	0.439	2.666	1.885	1.885	1.880	1.899	1.909	1.904
-0.024	-0.010	0.000	0.000	0.039	0.029	0.430	2.725	1.885	1.880	1.880	1.899	1.904	1.904
-0.024	0.005	0.000	0.000	0.024	0.005	0.435	2.651	1.880	1.885	1.880	1.899	1.899	1.895
-0.024	0.015	0.005	0.005	0.039	-0.020	0.435	2.754	1.895	1.885	1.880	1.899	1.899	1.890
-0.010	0.015	0.000	0.005	0.029	-0.015	0.435	2.651	1.885	1.885	1.880	1.899	1.895	1.890
0.005	0.015	0.000	0.000	0.005	-0.010	0.435	2.739	1.895	1.885	1.880	1.895	1.885	1.890
0.015	-0.005	0.000	0.005	-0.029	-0.005	0.430	2.661	1.890	1.880	1.875	1.895	1.880	1.885
0.024	0.000	-0.005	0.015	-0.078	-0.005	0.435	2.666	1.890	1.885	1.880	1.895	1.870	1.880
0.024	-0.010	0.005	-0.005	-0.049	-0.020	0.430	2.661	1.880	1.875	1.875	1.890	1.880	1.875
0.020	0.000	-0.005	-0.005	0.024	0.000	0.430	2.686	1.880	1.880	1.875	1.895	1.904	1.890
0.034	-0.005	0.000	-0.005	0.078	0.010	0.435	2.749	1.885	1.880	1.875	1.895	1.914	1.899
0.024	-0.010	0.005	-0.005	0.078	0.010	0.430	2.695	1.880	1.880	1.880	1.895	1.904	1.899
0.039	0.005	0.005	0.005	0.024	0.020	0.435	2.705	1.890	1.885	1.880	1.895	1.890	1.899
0.005	0.005	0.000	0.005	0.029	0.010	0.435	2.705	1.885	1.885	1.880	1.899	1.895	1.895
0.010	0.000	0.005	0.000	0.054	0.000	0.430	2.695	1.885	1.880	1.880	1.899	1.899	1.895
-0.005	0.005	0.005	0.000	0.039	-0.010	0.435	2.695	1.890	1.885	1.885	1.904	1.895	1.895
-0.015	0.024	0.000	0.000	0.000	-0.015	0.435	2.690	1.890	1.890	1.885	1.904	1.885	1.890
-0.015	0.020	0.005	0.010	0.015	-0.039	0.435	2.705	1.890	1.890	1.885	1.904	1.895	1.880
0.010	0.015	0.005	0.005	0.020	-0.063	0.430	2.695	1.899	1.890	1.885	1.904	1.899	1.880
0.015	0.010	0.005	0.005	-0.020	-0.039	0.430	2.705	1.895	1.890	1.885	1.904	1.885	1.885
-0.005	-0.005	0.010	0.005	-0.049	-0.029	0.435	2.695	1.885	1.880	1.885	1.899	1.880	1.890
-0.010	-0.005	0.005	0.005	-0.054	-0.005	0.435	2.695	1.885	1.880	1.880	1.904	1.885	1.895
-0.015	-0.005	0.005	0.000	-0.020	0.010	0.435	2.690	1.880	1.875	1.880	1.899	1.895	1.895
-0.020	-0.010	0.000	-0.005	-0.005	0.020	0.430	2.686	1.880	1.875	1.875	1.895	1.899	1.899
-0.029	0.000	0.000	-0.005	0.010	0.044	0.430	2.705	1.875	1.875	1.875	1.895	1.899	1.904
-0.024	0.005	0.005	0.000	0.024	0.063	0.430	2.676	1.880	1.875	1.875	1.895	1.899	1.909
-0.020	0.000	0.000	-0.005	0.024	0.059	0.439	2.686	1.885	1.880	1.875	1.895	1.899	1.904
-0.015	0.015	-0.005	-0.005	0.010	0.054	0.425	2.690	1.895	1.885	1.875	1.890	1.890	1.899
0.005	0.005	-0.005	-0.005	-0.005	0.049	0.435	2.710	1.895	1.885	1.875	1.890	1.885	1.895
0.010	0.000	0.005	0.000	-0.010	0.029	0.425	2.705	1.895	1.885	1.880	1.895	1.885	1.885
0.010	-0.005	0.005	0.000	-0.024	-0.010	0.439	2.710	1.899	1.895	1.885	1.899	1.885	1.875
0.005	0.005	-0.005	0.000	-0.024	-0.010	0.430	2.705	1.899	1.895	1.885	1.904	1.890	1.880
0.020	0.000	0.000	0.000	-0.034	-0.024	0.435	2.695	1.899	1.895	1.890	1.904	1.890	1.875
0.015	0.005	0.000	0.000	-0.010	-0.024	0.430	2.690	1.890	1.895	1.890	1.904	1.895	1.880
0.015	0.010	0.000	0.005	-0.015	-0.015	0.430	2.651	1.885	1.895	1.890	1.904	1.899	1.895
0.015	0.000	0.000	0.005	-0.015	-0.029	0.435	2.671	1.885	1.890	1.890	1.909	1.899	1.890
0.005	0.000	0.005	0.000	-0.034	-0.024	0.435	2.651	1.880	1.885	1.885	1.909	1.895	1.890
0.005	0.000	0.005	0.000	-0.024	-0.015	0.430	2.803	1.875	1.880	1.885	1.904	1.899	1.895
-0.005	0.005	0.010	0.005	-0.024	-0.005	0.430	2.676	1.875	1.880	1.885	1.904	1.899	1.895
-0.005	0.010	0.010	0.005	0.000	-0.039	0.435	2.651	1.870	1.875	1.880	1.904	1.904	1.895
-0.010	0.000	0.005	0.000	0.010	0.000	0.435	2.661	1.870	1.870	1.875	1.899	1.909	1.904
-0.005	0.000	0.005	0.005	0.054	-0.024	0.435	2.734	1.880	1.870	1.875	1.895	1.914	1.899
0.000	0.005	0.000	0.005	0.039	-0.015	0.435	2.661	1.875	1.875	1.870	1.895	1.904	1.904
-0.015	0.005	-0.005	-0.005	0.020	-0.005	0.430	2.651	1.885	1.875	1.870	1.890	1.895	1.899
-0.015	-0.005	0.005	0.005	0.024	0.000	0.430	2.739	1.895	1.875	1.870	1.890	1.895	1.899
-0.005	-0.005	0.005	0.000	0.034	0.005	0.435	2.739	1.895	1.880	1.875	1.890	1.895	1.904
-0.005	0.005	0.000	0.005	0.049	0.000	0.430	2.754	1.899	1.885	1.875	1.895	1.899	1.899
0.000	0.005	0.000	0.005	0.054	0.005	0.435	2.666	1.899	1.895	1.885	1.895	1.899	1.904
0.005	0.000	0.005	0.005	0.029	0.000	0.430	2.744	1.909	1.895	1.885	1.899	1.890	1.895
0.010	0.005	0.000	0.000	0.015	-0.010	0.435	2.700	1.904	1.899	1.885	1.899	1.890	1.890
0.005	0.005	0.000	0.005	0.010	-0.024	0.435	2.690	1.890	1.895	1.890	1.904	1.890	1.890
0.005	0.005	-0.005	0.005	0.015	-0.024	0.435	2.686	1.890	1.895	1.890	1.909	1.890	1.890
0.010	0.005	0.000	0.000	-0.005	0.015	0.430	2.705	1.890	1.890	1.895	1.909	1.895	1.899
0.010	0.000	0.000	0.000	-0.015	0.020	0.435	2.690	1.895	1.890	1.895	1.909	1.890	1.895
0.010	0.000	0.005	0.000	-0.020	0.020	0.435	2.686	1.890	1.885	1.890	1.909	1.895	1.895
0.010	-0.005	0.005	0.005	-0.024	0.049	0.430	2.690	1.885	1.885	1.890	1.904	1.895	1.904
0.010	-0.005	0.005	0.005	-0.015	0.044	0.430	2.700	1.885	1.880	1.885	1.904	1.899	1.899
0.010	-0.010	0.005	0.005	0.015	0.024	0.425	2.695	1.885	1.880	1.880	1.904	1.904	1.895
0.010	-0.020	0.005	-0.005	0.024	0.029	0.430	2.681	1.880	1.875	1.875	1.899	1.904	1.895
0.005	-0.020	0.005	-0.005	0.039	0.024	0.425	2.690	1.875	1.875	1.875	1.895	1.904	1.895
-0.005	-0.015	0.000	0.000	0.044	0.015	0.439	2.690	1.880	1.880	1.875	1.895	1.904	1.899
-0.005	0.005	0.005	0.000	0.020	0.010	0.435	2.695	1.885	1.885	1.880	1.895	1.890	1.890
-0.010	0.010	0.005	0.005	0.010	-0.005	0.435	2.700	1.885	1.885	1.880	1.899	1.890	1.890
0.000	0.010	0.005	0.005	-0.005	-0.005	0.430	2.686	1.890	1.885	1.880	1.899	1.890	1.890
0.005	0.020	-0.005	0.000	-0.024	-0.015	0.439	2.700	1.895	1.890	1.885	1.899	1.880	1.885
-0.005	0.005	0.005	0.010	-0.039	0.005	0.435	2.686	1.890	1.885	1.885	1.904	1.885	1.890
-0.005	0.010	0.005	0.005	-0.029	-0.010	0.430	2.690	1.890	1.890	1.890	1.904	1.890	1.890
-0.005	0.020	0.010	0.010	-0.024	-0.010	0.430	2.700	1.890	1.890	1.890	1.904	1.895	1.890
0.005	0.010	0.010	0.010	-0.034	-0.034	0.435	2.690	1.890	1.890	1.890	1.909	1.895	1.885
0.005	0.015	0.005	0.010	-0.044	-0.024	0.435	2.700	1.890	1.890	1.890	1.904	1.895	1.890
0.005	0.010	0.000	0.010	-0.049	-0.034	0.430	2.695	1.890	1.885	1.885	1.904	1.895	1.885
0.000	0.010	0.005	0.005	-0.049	-0.029	0.435	2.700	1.885	1.885	1.885	1.899	1.895	1.890
0.000	0.000	0.005	0.005	-0.024	-0.015	0.425	2.686	1.885	1.880	1.880	1.899	1.899	1.895
0.005	0.005	0.000	0.005	0.005	0.000	0.435	2.686	1.880	1.880	1.880	1.899	1.909	1.904
0.000	-0.015	0.000	0.000	0.010	0.000	0.435	2.651	1.880	1.875	1.875	1.895	1.904	1.904
0.005	0.000	0.000	0.000	0.029	0.005	0.430	2.656	1.875	1.875	1.875	1.895	1.904	1.904
0.005	0.010	0.005	0.000	0.015	0.000	0.435	2.656	1.875	1.880	1.875	1.895	1.899	1.895
0.015	0.010	0.000	0.005	0.020	-0.010	0.430	2.808	1.880	1.880	1.875	1.895	1.895	1.895
0.010	0.024	0.005	0.000	0.024	0.020	0.430	2.681	1.880	1.885	1.880	1.895	1.895	1.904
0.010	0.005	0.000	-0.005	0.034	0.039	0.435	2.646	1.880	1.875	1.875	1.895	1.899	1.904
0.015	-0.005	0.005	0.000	0.024	0.024	0.435	2.666	1.890	1.875	1.880	1.895	1.895	1.899
0.005	0.000	0.000	0.000	0.020	0.034	0.435	2.720	1.890	1.880	1.875	1.895	1.895	1.904
-0.005	0.000	0.000	0.000	0.000	0.034	0.439	2.637	1.885	1.880	1.880	1.895	1.885	1.895
0.000	0.000	0.000	-0.005	-0.024	0.020	0.435	2.656	1.880	1.885	1.880	1.899	1.885	1.895
-0.005	-0.005	0.000	0.005	-0.029	0.015	0.435	2.749	1.895	1.885	1.880	1.899	1.885	1.890
-0.005	-0.005	0.000	0.010	-0.024	0.020	0.430	2.642	1.880	1.880	1.880	1.899	1.890	1.890
-0.024	-0.005	0.000	0.015	-0.034	0.015	0.435	2.646	1.870	1.880	1.880	1.899	1.890	1.890
-0.029	0.000	0.005	0.010	-0.054	-0.005	0.435	2.671	1.875	1.880	1.880	1.899	1.885	1.875
-0.029	0.000	-0.005	0.005	-0.034	-0.015	0.430	2.749	1.880	1.875	1.875	1.895	1.890	1.885
-0.020	0.005	-0.005	0.005	0.000	-0.020	0.435	2.686	1.885	1.875	1.875	1.895	1.899	1.880
-0.010	-0.005	0.000	0.005	0.015	-0.024	0.430	2.632	1.880	1.870	1.870	1.895	1.899	1.885
-0.005	0.000	0.005	0.005	0.039	-0.039	0.435	2.686	1.880	1.875	1.870	1.890	1.899	1.885
0.024	0.005	0.010	0.010	0.034	0.000	0.435	2.710	1.890	1.885	1.875	1.890	1.899	1.899
-0.005	0.015	0.005	0.000	0.015	0.015	0.435	2.690	1.890	1.880	1.875	1.890	1.890	1.899
0.024	0.015	0.000	-0.005	0.020	0.010	0.425	2.690	1.895	1.885	1.875	1.890	1.890	1.899
0.044	0.010	-0.005	0.000	0.034	0.020	0.435	2.715	1.899	1.890	1.880	1.890	1.890	1.895
0.034	0.000	0.000	-0.005	0.020	0.005	0.435	2.710	1.899	1.890	1.885	1.895	1.885	1.890
0.020	-0.010	0.000	-0.005	0.010	0.000	0.435	2.705	1.895	1.890	1.885	1.899	1.890	1.890
0.020	-0.005	0.000	-0.005	0.024	-0.024	0.435	2.676	1.890	1.890	1.885	1.899	1.895	1.885
0.015	0.000	0.000	-0.005	0.015	-0.010	0.439	2.690	1.890	1.890	1.885	1.904	1.895	1.890
0.000	-0.005	0.000	-0.005	0.024	-0.005	0.430	2.690	1.885	1.890	1.885	1.899	1.899	1.890
-0.005	-0.010	0.005	-0.005	0.029	-0.039	0.435	2.715	1.890	1.885	1.890	1.904	1.895	1.880
-0.005	-0.020	0.005	0.000	-0.010	-0.063	0.435	2.686	1.885	1.880	1.885	1.899	1.885	1.875
-0.005	-0.010	0.005	-0.005	-0.034	-0.063	0.444	2.686	1.880	1.885	1.885	1.904	1.890	1.885
-0.010	-0.005	0.005	-0.005	-0.034	-0.029	0.435	2.690	1.880	1.880	1.880	1.899	1.890	1.890
-0.020	-0.005	0.005	-0.005	-0.034	-0.010	0.425	2.686	1.875	1.875	1.880	1.895	1.890	1.895
-0.020	0.000	0.000	0.000	-0.029	0.010	0.425	2.700	1.880	1.875	1.875	1.899	1.890	1.895
-0.005	0.015	0.010	0.005	-0.005	0.039	0.435	2.681	1.880	1.885	1.880	1.899	1.904	1.909
-0.005	0.015	0.005	0.005	0.010	0.049	0.430	2.681	1.880	1.885	1.880	1.899	1.904	1.909
0.005	0.015	0.000	-0.005	-0.005	0.020	0.430	2.700	1.885	1.880	1.875	1.895	1.895	1.890
0.000	0.020	0.000	0.005	-0.015	0.010	0.435	2.715	1.890	1.880	1.880	1.899	1.890	1.890
0.000	0.020	0.010	0.000	0.000	0.015	0.435	2.710	1.890	1.885	1.885	1.899	1.895	1.895
0.000	0.010	0.005	0.000	0.034	0.010	0.435	2.695	1.885	1.880	1.880	1.899	1.904	1.895
-0.005	0.000	0.005	0.000	0.049	-0.005	0.430	2.695	1.885	1.880	1.880	1.899	1.904	1.895
0.010	0.005	0.005	0.005	0.039	0.005	0.435	2.646	1.890	1.885	1.880	1.899	1.904	1.895
0.005	0.000	0.000	0.000	0.049	-0.015	0.430	2.671	1.885	1.885	1.880	1.899	1.899	1.895
0.010	-0.005	0.000	0.005	0.034	0.005	0.430	2.651	1.885	1.885	1.885	1.899	1.899	1.904
0.000	0.005	0.000	0.005	0.000	0.005	0.425	2.661	1.880	1.885	1.885	1.904	1.890	1.899
0.020	0.005	0.005	0.005	-0.020	0.024	0.435	2.681	1.890	1.885	1.885	1.899	1.885	1.899
0.000	0.000	0.000	0.005	-0.010	0.010	0.425	2.739	1.890	1.885	1.880	1.899	1.890	1.895
0.000	0.000	0.005	0.010	-0.005	0.054	0.435	2.671	1.885	1.880	1.885	1.899	1.895	1.904
-0.010	0.000	-0.005	0.005	0.005	0.063	0.430	2.637	1.870	1.880	1.880	1.899	1.899	1.904
-0.024	-0.015	0.000	0.000	0.005	0.063	0.435	2.729	1.880	1.875	1.875	1.899	1.899	1.899
-0.029	-0.015	-0.005	0.005	0.000	0.049	0.435	2.729	1.885	1.870	1.875	1.895	1.890	1.890
-0.029	-0.010	-0.005	0.010	0.000	0.020	0.435	2.651	1.880	1.875	1.870	1.895	1.890	1.885
-0.005	0.010	0.000	0.010	0.010	0.000	0.435	2.651	1.890	1.885	1.875	1.895	1.890	1.880
0.000	0.024	0.000	0.005	0.029	-0.029	0.430	2.666	1.885	1.885	1.875	1.895	1.895	1.875
0.010	0.029	0.005	0.005	0.044	-0.020	0.425	2.681	1.890	1.885	1.885	1.895	1.899	1.885
0.024	0.000	0.015	0.000	0.044	0.005	0.430	2.651	1.885	1.880	1.885	1.895	1.895	1.895
0.034	0.000	0.005	0.005	0.015	0.005	0.435	2.695	1.890	1.880	1.880	1.899	1.885	1.890
0.029	0.000	0.005	0.005	-0.010	-0.005	0.435	2.646	1.880	1.880	1.880	1.899	1.880	1.890
0.029	-0.010	0.005	0.000	-0.015	-0.039	0.430	2.700	1.890	1.880	1.885	1.899	1.880	1.875
0.034	-0.005	0.010	0.010	-0.010	-0.029	0.430	2.705	1.890	1.885	1.885	1.899	1.890	1.880
0.015	-0.005	0.000	0.005	0.000	-0.034	0.435	2.681	1.885	1.885	1.885	1.899	1.895	1.890
0.015	0.000	-0.005	0.005	-0.005	-0.024	0.435	2.686	1.885	1.885	1.885	1.904	1.895	1.890
0.005	0.010	-0.005	0.000	-0.029	-0.015	0.439	2.705	1.885	1.885	1.880	1.899	1.890	1.890
0.010	0.005	-0.005	0.000	-0.029	0.000	0.430	2.686	1.885	1.885	1.885	1.899	1.890	1.895
0.010	0.000	0.000	0.000	-0.020	0.015	0.435	2.686	1.880	1.880	1.885	1.899	1.895	1.899
-0.005	0.000	-0.005	-0.005	-0.010	0.010	0.430	2.690	1.880	1.875	1.880	1.899	1.895	1.899
-0.010	0.005	0.000	0.000	-0.005	0.020	0.435	2.676	1.875	1.880	1.880	1.899	1.895	1.895
-0.010	0.000	0.000	0.005	-0.029	0.015	0.435	2.695	1.880	1.875	1.875	1.899	1.890	1.890
-0.010	0.005	-0.005	0.000	-0.005	0.005	0.439	2.690	1.880	1.875	1.875	1.895	1.890	1.885
0.000	0.005	0.000	0.005	-0.005	0.000	0.430	2.686	1.885	1.880	1.875	1.895	1.895	1.890
0.000	0.005	0.000	0.005	0.000	0.005	0.430	2.681	1.880	1.875	1.875	1.890	1.890	1.895
0.000	0.000	0.000	0.005	-0.015	0.000	0.425	2.705	1.880	1.875	1.875	1.895	1.885	1.885
-0.005	-0.005	0.005	0.000	-0.015	0.010	0.430	2.705	1.885	1.875	1.875	1.890	1.890	1.885
-0.005	-0.005	0.005	0.000	0.000	-0.010	0.425	2.681	1.885	1.880	1.875	1.895	1.895	1.890
-0.010	0.005	0.010	0.000	-0.010	-0.005	0.439	2.686	1.885	1.885	1.880	1.895	1.890	1.890
-0.015	0.000	-0.005	0.005	-0.010	-0.015	0.439	2.710	1.890	1.880	1.875	1.895	1.890	1.885
0.000	-0.005	-0.005	0.000	0.034	-0.005	0.439	2.686	1.890	1.885	1.880	1.899	1.909	1.899
-0.005	0.000	-0.005	0.000	0.044	0.000	0.430	2.686	1.890	1.890	1.885	1.899	1.904	1.899
-0.005	-0.010	0.005	0.000	0.049	0.010	0.435	2.710	1.895	1.890	1.885	1.899	1.904	1.899
0.000	0.000	0.005	0.005	0.010	-0.005	0.430	2.705	1.890	1.890	1.885	1.899	1.890	1.890
-0.005	-0.020	0.000	0.005	-0.039	0.015	0.439	2.695	1.890	1.885	1.885	1.899	1.880	1.895
0.005	-0.005	0.000	0.005	-0.054	0.015	0.430	2.637	1.885	1.885	1.880	1.899	1.880	1.890
-0.005	0.005	0.005	0.000	-0.034	0.010	0.435	2.671	1.880	1.885	1.885	1.899	1.890	1.885
0.005	0.005	0.000	0.000	-0.005	0.000	0.425	2.642	1.875	1.885	1.880	1.899	1.895	1.885
-0.005	0.024	0.000	0.000	-0.005	0.010	0.430	2.808	1.870	1.880	1.880	1.899	1.895	1.895
0.000	0.005	0.000	-0.005	0.034	-0.005	0.430	2.666	1.875	1.870	1.880	1.895	1.904	1.890
0.000	0.000	0.000	-0.005	0.093	-0.020	0.435	2.637	1.870	1.870	1.875	1.895	1.914	1.895
0.000	-0.005	0.005	0.000	0.107	-0.010	0.435	2.651	1.870	1.870	1.870	1.895	1.914	1.899
0.005	0.000	0.005	-0.005	0.093	-0.020	0.425	2.734	1.880	1.875	1.870	1.895	1.904	1.899
0.000	0.000	0.000	0.005	0.000	-0.010	0.435	2.632	1.875	1.875	1.870	1.890	1.875	1.895
0.005	0.000	0.000	0.010	-0.044	-0.010	0.435	2.656	1.880	1.880	1.875	1.895	1.865	1.885
0.005	0.020	0.005	0.010	-0.034	0.000	0.435	2.754	1.895	1.885	1.880	1.895	1.880	1.890
0.010	0.020	0.000	0.005	-0.034	0.005	0.430	2.646	1.885	1.890	1.880	1.895	1.880	1.885
0.005	0.015	0.000	0.010	-0.034	0.000	0.435	2.666	1.885	1.885	1.880	1.899	1.890	1.885
0.005	0.020	0.000	0.010	-0.010	-0.010	0.435	2.671	1.880	1.885	1.885	1.899	1.895	1.880
-0.020	0.010	-0.005	0.000	-0.005	-0.015	0.430	2.725	1.875	1.880	1.880	1.895	1.895	1.890
-0.020	0.020	0.005	0.000	-0.010	-0.005	0.430	2.690	1.880	1.885	1.885	1.895	1.895	1.890
-0.010	0.020	0.005	-0.005	-0.010	0.005	0.439	2.632	1.880	1.875	1.880	1.895	1.895	1.895
-0.010	0.010	-0.005	-0.010	-0.015	0.015	0.430	2.695	1.875	1.875	1.875	1.895	1.890	1.895
0.005	0.000	0.000	-0.005	0.000	0.029	0.439	2.705	1.890	1.875	1.875	1.895	1.895	1.895
0.005	-0.005	0.000	-0.005	-0.015	0.020	0.435	2.695	1.885	1.875	1.875	1.890	1.890	1.890
0.010	-0.005	0.000	0.000	-0.005	0.005	0.439	2.686	1.885	1.875	1.875	1.890	1.890	1.890
0.020	-0.010	0.000	0.000	-0.010	-0.005	0.430	2.686	1.885	1.875	1.870	1.890	1.885	1.880
0.029	-0.020	0.005	0.005	-0.029	-0.010	0.435	2.690	1.890	1.880	1.875	1.890	1.880	1.880
0.029	0.010	0.005	0.000	-0.059	-0.015	0.425	2.686	1.885	1.885	1.875	1.895	1.875	1.875
0.034	-0.020	0.005	0.000	-0.059	-0.010	0.430	2.700	1.885	1.880	1.875	1.890	1.880	1.880
0.024	-0.005	0.000	0.005	-0.024	0.015	0.430	2.710	1.885	1.885	1.880	1.895	1.890	1.890
0.024	-0.005	0.000	0.005	-0.010	-0.005	0.430	2.720	1.890	1.885	1.880	1.895	1.895	1.885
0.010	-0.005	0.000	0.005	0.005	0.020	0.435	2.695	1.890	1.885	1.885	1.899	1.904	1.899
0.000	0.000	0.000	0.000	0.029	0.010	0.435	2.690	1.885	1.890	1.885	1.899	1.909	1.899
0.005	0.005	0.000	0.005	0.049	0.005	0.430	2.700	1.895	1.890	1.885	1.904	1.914	1.904
-0.005	-0.005	0.005	0.000	0.073	0.010	0.430	2.705	1.890	1.890	1.890	1.904	1.914	1.909
-0.020	0.005	0.010	-0.005	0.088	-0.015	0.435	2.690	1.885	1.885	1.885	1.904	1.914	1.904
