0.005	-0.005	0.005	0.000	0.010	0.000	0.405	2.690	4.653	3.154	2.793	2.476	2.544	2.422
0.010	0.000	0.005	0.000	0.005	-0.005	0.410	2.681	4.028	3.418	2.959	2.607	2.554	2.451
0.000	0.000	0.005	0.005	0.000	0.000	0.396	2.803	3.569	3.467	3.096	2.739	2.598	2.490
0.000	0.015	0.010	-0.005	0.000	0.000	0.405	2.744	3.228	3.423	3.188	2.866	2.666	2.539
0.000	0.015	0.000	0.000	0.005	0.005	0.391	2.705	2.988	3.311	3.228	2.969	2.749	2.593
-0.005	0.010	0.000	0.000	-0.005	-0.005	0.400	2.686	2.812	3.179	3.218	3.047	2.822	2.651
0.000	0.015	0.000	0.005	0.000	0.000	0.396	2.686	2.695	3.052	3.174	3.086	2.896	2.720
0.000	0.005	0.000	0.005	0.005	0.015	0.405	2.705	2.617	2.935	3.115	3.101	2.954	2.788
0.005	-0.005	0.000	0.000	0.000	-0.015	0.391	2.695	2.568	2.837	3.042	3.091	2.988	2.837
-0.005	0.005	0.000	0.005	-0.005	0.015	0.400	2.690	2.539	2.764	2.964	3.062	3.013	2.886
0.000	-0.005	0.000	0.005	-0.005	0.005	0.396	2.681	2.520	2.695	2.891	3.022	3.013	2.925
0.010	-0.005	0.000	0.005	0.000	-0.015	0.396	2.700	2.515	2.651	2.827	2.974	3.003	2.944
-0.005	0.005	0.000	0.000	0.000	0.010	0.400	2.700	2.510	2.617	2.773	2.930	2.988	2.964
0.005	-0.005	0.000	0.000	-0.005	0.010	0.400	2.700	2.515	2.593	2.720	2.881	2.959	2.964
0.005	0.005	0.000	0.005	-0.005	0.015	0.405	2.681	2.515	2.573	2.681	2.827	2.925	2.959
0.005	0.000	0.000	0.005	-0.005	0.015	0.405	2.690	2.510	2.563	2.651	2.788	2.886	2.935
0.005	0.000	0.000	0.000	0.005	0.000	0.396	2.700	2.515	2.549	2.622	2.749	2.847	2.910
0.000	0.010	0.005	0.000	0.010	-0.020	0.396	2.695	2.510	2.544	2.598	2.710	2.808	2.881
0.005	0.005	0.005	0.005	0.005	0.010	0.400	2.695	2.505	2.539	2.583	2.681	2.778	2.861
0.000	0.000	-0.005	0.000	0.000	-0.024	0.405	2.676	2.500	2.529	2.563	2.651	2.739	2.812
0.000	0.005	-0.005	0.000	0.010	0.015	0.396	2.695	2.495	2.524	2.549	2.627	2.710	2.798
-0.005	0.010	0.000	0.000	0.000	0.010	0.391	2.686	2.490	2.515	2.539	2.607	2.676	2.764
-0.005	-0.005	0.000	0.005	-0.005	0.005	0.400	2.681	2.485	2.505	2.529	2.588	2.651	2.734
0.000	0.005	0.000	0.000	0.000	0.000	0.396	2.686	2.476	2.500	2.520	2.573	2.627	2.705
0.005	0.000	0.005	0.000	0.000	0.010	0.396	2.705	2.476	2.490	2.515	2.563	2.612	2.681
0.005	0.005	0.005	0.005	0.005	0.005	0.400	2.686	2.466	2.490	2.505	2.554	2.593	2.651
-0.005	-0.005	0.005	0.000	0.000	0.005	0.405	2.690	2.456	2.480	2.495	2.539	2.578	2.637
0.000	-0.010	0.005	0.000	-0.005	-0.005	0.396	2.671	2.446	2.476	2.490	2.529	2.563	2.612
0.000	0.005	0.005	0.000	0.005	-0.005	0.405	2.661	2.441	2.471	2.485	2.524	2.554	2.598
0.010	-0.005	0.005	0.000	0.000	0.005	0.405	2.661	2.432	2.461	2.480	2.520	2.544	2.588
0.005	-0.005	0.000	0.005	-0.005	0.000	0.405	2.642	2.422	2.451	2.471	2.510	2.529	2.568
0.005	0.000	0.000	0.000	0.000	0.000	0.396	2.642	2.417	2.446	2.466	2.505	2.524	2.559
0.000	0.005	0.000	0.005	0.005	0.000	0.410	2.739	2.417	2.441	2.461	2.495	2.515	2.549
-0.005	0.005	0.000	0.005	0.005	0.000	0.396	2.754	2.417	2.437	2.451	2.495	2.510	2.539
0.000	0.000	0.000	0.005	0.005	0.005	0.405	2.642	2.397	2.427	2.446	2.485	2.500	2.534
-0.010	-0.005	0.005	0.000	0.000	-0.005	0.396	2.739	2.397	2.417	2.437	2.476	2.490	2.515
0.005	0.000	0.005	-0.005	0.005	-0.015	0.405	2.671	2.388	2.407	2.427	2.466	2.485	2.505
0.000	0.005	0.000	0.000	0.005	-0.010	0.400	2.725	2.378	2.402	2.422	2.456	2.471	2.495
0.010	0.000	0.000	0.000	-0.005	0.015	0.405	2.686	2.373	2.393	2.412	2.446	2.466	2.495
0.000	0.000	0.005	0.000	0.010	0.005	0.396	2.632	2.354	2.383	2.402	2.437	2.461	2.480
0.000	0.005	0.005	0.005	0.005	0.000	0.410	2.695	2.354	2.378	2.393	2.432	2.451	2.476
0.005	0.015	0.005	0.005	0.000	0.000	0.400	2.642	2.344	2.368	2.388	2.427	2.441	2.461
0.015	0.010	0.000	0.005	0.000	-0.010	0.400	2.798	2.354	2.368	2.383	2.417	2.432	2.451
0.010	0.005	-0.005	0.005	0.000	0.000	0.400	2.725	2.349	2.358	2.373	2.412	2.427	2.446
0.015	0.000	0.000	0.000	0.000	-0.005	0.405	2.686	2.339	2.354	2.368	2.407	2.417	2.437
-0.005	-0.005	0.005	0.000	0.000	0.010	0.405	2.695	2.334	2.344	2.363	2.402	2.417	2.437
0.005	0.000	0.010	0.000	0.000	0.024	0.405	2.690	2.334	2.349	2.358	2.397	2.412	2.437
0.005	0.000	0.000	0.000	-0.005	0.020	0.405	2.705	2.319	2.339	2.354	2.388	2.402	2.427
0.005	0.000	0.000	0.000	0.000	0.020	0.400	2.686	2.314	2.339	2.349	2.383	2.397	2.417
0.005	0.010	0.000	0.005	0.005	0.015	0.405	2.705	2.310	2.329	2.344	2.378	2.393	2.412
-0.005	-0.005	0.000	0.010	0.005	-0.010	0.405	2.686	2.300	2.324	2.339	2.373	2.388	2.397
0.000	-0.005	0.000	0.000	0.005	0.000	0.400	2.700	2.290	2.310	2.329	2.363	2.378	2.397
-0.005	-0.005	0.000	0.000	0.000	0.005	0.405	2.681	2.290	2.305	2.324	2.358	2.368	2.388
0.000	-0.005	0.000	-0.005	0.005	0.005	0.396	2.700	2.280	2.300	2.314	2.349	2.363	2.383
-0.005	0.000	0.000	0.000	0.000	0.000	0.400	2.686	2.271	2.295	2.310	2.344	2.354	2.373
0.005	0.005	0.000	0.000	0.005	0.015	0.405	2.686	2.261	2.285	2.300	2.339	2.349	2.373
0.005	0.010	0.005	0.005	0.005	0.015	0.405	2.700	2.261	2.280	2.295	2.329	2.344	2.363
0.000	0.005	0.005	0.000	0.010	0.005	0.410	2.720	2.261	2.275	2.285	2.324	2.339	2.349
0.005	0.005	0.000	0.005	0.000	0.010	0.396	2.705	2.256	2.271	2.280	2.319	2.329	2.349
0.000	-0.005	0.005	0.005	0.000	0.015	0.400	2.686	2.246	2.261	2.275	2.310	2.324	2.339
0.015	0.000	0.005	0.000	0.005	0.000	0.391	2.700	2.246	2.261	2.271	2.305	2.319	2.334
-0.005	0.010	-0.005	0.000	0.000	-0.005	0.400	2.700	2.236	2.251	2.266	2.300	2.310	2.324
-0.005	0.005	-0.005	0.000	0.000	-0.015	0.405	2.710	2.241	2.251	2.261	2.295	2.310	2.324
0.010	0.005	0.005	0.005	-0.005	-0.005	0.400	2.695	2.241	2.251	2.261	2.290	2.305	2.319
0.005	0.000	0.000	0.005	0.000	0.010	0.400	2.710	2.236	2.246	2.256	2.290	2.300	2.319
-0.005	0.000	0.000	0.000	0.005	0.010	0.400	2.710	2.231	2.241	2.251	2.285	2.295	2.314
-0.005	0.000	0.005	0.005	-0.005	0.005	0.396	2.686	2.217	2.236	2.246	2.280	2.285	2.305
0.010	-0.005	0.000	0.005	0.000	0.000	0.400	2.656	2.217	2.231	2.241	2.275	2.285	2.295
0.000	0.000	0.005	0.000	0.005	-0.015	0.396	2.656	2.202	2.227	2.236	2.271	2.280	2.285
-0.005	0.000	0.000	0.005	0.005	0.010	0.405	2.651	2.202	2.217	2.231	2.261	2.275	2.290
0.000	0.005	0.005	0.000	0.005	-0.020	0.400	2.637	2.192	2.212	2.222	2.256	2.266	2.280
-0.005	-0.010	0.000	0.000	0.005	0.005	0.405	2.637	2.192	2.202	2.217	2.251	2.261	2.275
-0.005	0.005	0.000	0.005	0.005	0.000	0.405	2.734	2.187	2.202	2.212	2.241	2.251	2.266
0.000	0.000	-0.005	0.000	0.000	0.005	0.405	2.749	2.187	2.192	2.202	2.236	2.246	2.266
0.005	0.005	0.000	0.000	0.000	-0.005	0.400	2.637	2.183	2.197	2.202	2.231	2.241	2.256
0.000	0.005	0.000	0.005	0.005	0.005	0.405	2.749	2.173	2.187	2.197	2.231	2.236	2.256
0.005	0.005	0.005	0.000	0.005	-0.005	0.400	2.661	2.168	2.187	2.192	2.227	2.236	2.246
-0.005	0.005	0.000	0.005	0.005	0.010	0.405	2.656	2.158	2.178	2.187	2.222	2.231	2.246
0.000	-0.005	0.000	0.005	0.000	0.010	0.405	2.700	2.168	2.178	2.187	2.217	2.227	2.241
0.000	0.005	0.000	0.000	-0.005	0.000	0.396	2.646	2.153	2.178	2.183	2.212	2.222	2.231
0.000	0.020	0.005	0.005	0.000	0.005	0.405	2.695	2.153	2.178	2.183	2.212	2.217	2.231
-0.005	0.000	0.005	0.000	0.000	-0.020	0.400	2.725	2.153	2.163	2.178	2.207	2.212	2.222
0.005	-0.005	0.000	0.000	0.000	0.005	0.396	2.788	2.163	2.163	2.173	2.202	2.207	2.227
0.000	0.005	0.005	0.000	0.005	0.010	0.400	2.734	2.163	2.168	2.168	2.197	2.207	2.222
0.000	0.005	0.000	0.000	0.000	-0.010	0.405	2.695	2.153	2.163	2.168	2.192	2.197	2.207
0.005	-0.005	0.000	0.005	0.010	0.005	0.400	2.690	2.153	2.158	2.163	2.187	2.197	2.212
0.000	-0.005	0.005	0.000	0.005	0.010	0.405	2.686	2.144	2.153	2.158	2.187	2.192	2.207
0.005	-0.005	0.000	0.000	0.000	0.000	0.396	2.695	2.134	2.144	2.153	2.183	2.187	2.197
0.000	0.000	0.000	0.000	0.000	-0.015	0.400	2.710	2.134	2.144	2.148	2.178	2.183	2.192
0.000	0.000	0.005	0.000	0.000	0.005	0.391	2.700	2.129	2.144	2.148	2.173	2.178	2.187
0.000	-0.005	0.005	0.000	0.005	0.000	0.400	2.686	2.124	2.134	2.144	2.168	2.178	2.187
0.005	-0.005	0.005	0.000	0.000	0.005	0.410	2.695	2.124	2.129	2.139	2.163	2.173	2.183
0.005	0.005	0.005	0.005	0.000	0.000	0.410	2.690	2.119	2.129	2.134	2.163	2.168	2.178
0.005	0.005	-0.005	0.000	0.005	-0.015	0.400	2.686	2.114	2.129	2.129	2.158	2.163	2.168
-0.005	0.005	0.005	-0.005	0.005	0.010	0.400	2.686	2.114	2.124	2.129	2.158	2.163	2.173
0.005	-0.005	0.000	0.005	0.000	0.000	0.396	2.690	2.114	2.124	2.129	2.153	2.163	2.168
0.010	0.010	0.005	0.005	-0.005	0.000	0.400	2.690	2.109	2.119	2.129	2.153	2.158	2.168
0.010	0.005	0.000	0.005	0.000	-0.010	0.391	2.705	2.109	2.119	2.124	2.153	2.158	2.163
0.000	-0.010	0.000	0.000	0.005	0.005	0.400	2.705	2.109	2.109	2.119	2.148	2.158	2.163
0.005	0.005	0.005	0.000	-0.005	0.010	0.391	2.686	2.104	2.114	2.119	2.144	2.148	2.163
0.000	0.000	0.005	0.005	0.005	0.005	0.391	2.695	2.100	2.109	2.119	2.144	2.153	2.163
-0.005	0.000	0.005	0.005	0.005	0.000	0.405	2.695	2.100	2.109	2.114	2.139	2.144	2.153
0.000	0.000	0.005	0.000	0.010	0.015	0.400	2.710	2.100	2.104	2.109	2.139	2.144	2.153
0.000	0.005	0.005	0.005	0.005	0.015	0.405	2.686	2.095	2.104	2.104	2.129	2.134	2.148
-0.005	0.005	0.000	0.005	0.000	0.000	0.410	2.690	2.085	2.095	2.100	2.129	2.134	2.139
0.000	-0.005	-0.005	0.005	0.005	0.005	0.400	2.700	2.080	2.090	2.095	2.124	2.124	2.134
0.000	0.010	0.000	0.010	0.005	0.010	0.405	2.695	2.080	2.085	2.090	2.119	2.124	2.134
-0.005	0.000	0.000	0.005	0.005	-0.010	0.400	2.666	2.065	2.075	2.085	2.114	2.119	2.129
-0.005	-0.005	0.000	0.000	0.005	-0.005	0.400	2.656	2.061	2.070	2.080	2.109	2.114	2.119
0.005	-0.005	0.000	0.005	0.000	0.000	0.396	2.646	2.085	2.075	2.080	2.104	2.109	2.119
0.000	0.000	0.000	0.005	0.005	0.005	0.400	2.651	2.075	2.080	2.080	2.104	2.109	2.124
0.010	0.005	0.005	0.000	0.000	0.010	0.410	2.646	2.075	2.080	2.080	2.104	2.109	2.114
0.015	-0.005	0.005	0.000	-0.005	-0.005	0.400	2.749	2.080	2.080	2.080	2.100	2.104	2.109
0.005	0.005	0.005	0.005	0.000	-0.005	0.400	2.749	2.075	2.085	2.080	2.100	2.104	2.109
-0.005	0.010	0.000	0.000	-0.005	0.005	0.396	2.739	2.075	2.080	2.080	2.100	2.100	2.114
0.010	0.010	-0.005	0.000	-0.005	0.005	0.405	2.651	2.075	2.085	2.080	2.100	2.100	2.109
0.005	0.010	-0.005	0.000	0.000	-0.010	0.400	2.676	2.070	2.080	2.080	2.100	2.100	2.104
0.000	0.000	0.000	0.000	0.005	0.015	0.400	2.739	2.065	2.065	2.080	2.100	2.100	2.104
0.000	-0.005	-0.005	0.005	0.005	0.005	0.400	2.681	2.061	2.065	2.075	2.100	2.100	2.104
0.000	0.000	0.005	0.000	0.000	-0.005	0.405	2.749	2.061	2.065	2.070	2.095	2.095	2.095
-0.005	-0.005	0.010	0.005	0.005	-0.005	0.405	2.700	2.051	2.061	2.065	2.090	2.095	2.095
0.000	-0.005	0.000	0.005	0.000	-0.010	0.405	2.749	2.051	2.056	2.061	2.085	2.090	2.090
0.000	0.005	0.005	0.000	0.000	0.020	0.396	2.651	2.041	2.051	2.056	2.080	2.085	2.095
0.005	0.005	0.000	0.000	0.000	-0.010	0.405	2.729	2.046	2.051	2.056	2.080	2.080	2.085
0.010	0.010	0.005	0.000	0.005	0.010	0.400	2.686	2.041	2.051	2.056	2.075	2.080	2.085
-0.005	0.005	0.000	0.005	0.000	0.024	0.410	2.690	2.046	2.046	2.051	2.075	2.080	2.085
0.010	0.005	-0.005	0.000	0.000	0.010	0.400	2.686	2.046	2.041	2.046	2.070	2.075	2.080
0.005	0.000	0.000	0.005	0.000	0.005	0.400	2.700	2.036	2.041	2.046	2.070	2.075	2.080
0.005	0.005	0.005	0.000	0.000	0.010	0.391	2.690	2.041	2.046	2.046	2.070	2.075	2.080
0.000	0.005	0.000	0.005	0.005	-0.010	0.400	2.705	2.036	2.041	2.046	2.070	2.070	2.075
0.010	-0.005	0.000	0.000	0.005	0.000	0.405	2.686	2.036	2.041	2.046	2.065	2.070	2.070
-0.005	0.010	0.005	0.000	0.000	-0.015	0.396	2.690	2.031	2.041	2.046	2.070	2.065	2.070
0.000	0.010	0.005	0.005	0.000	0.005	0.396	2.700	2.031	2.036	2.046	2.065	2.065	2.070
-0.005	0.010	-0.005	0.000	0.000	0.005	0.400	2.700	2.026	2.036	2.036	2.065	2.065	2.075
0.005	0.000	-0.005	0.000	0.005	0.010	0.400	2.686	2.031	2.031	2.036	2.061	2.065	2.070
0.000	0.000	0.000	0.000	0.005	0.010	0.400	2.690	2.026	2.026	2.031	2.056	2.061	2.070
0.000	-0.005	0.000	0.000	0.005	0.010	0.396	2.695	2.021	2.026	2.031	2.056	2.061	2.065
0.005	0.000	0.010	0.000	0.005	0.010	0.405	2.705	2.021	2.026	2.026	2.056	2.051	2.061
-0.005	-0.005	0.005	0.010	0.000	0.005	0.400	2.705	2.021	2.021	2.026	2.051	2.051	2.051
-0.005	0.005	0.005	0.005	0.000	-0.005	0.405	2.690	2.017	2.017	2.021	2.046	2.046	2.046
-0.005	0.000	0.005	0.000	-0.005	-0.005	0.396	2.705	2.017	2.017	2.021	2.041	2.046	2.046
0.005	0.000	0.005	0.005	0.000	-0.010	0.400	2.681	2.012	2.017	2.017	2.041	2.041	2.041
0.005	-0.005	0.005	0.000	0.005	0.010	0.400	2.710	2.017	2.017	2.017	2.041	2.041	2.051
0.000	0.000	0.000	0.005	0.005	-0.005	0.396	2.690	2.017	2.021	2.017	2.036	2.036	2.041
0.010	0.000	0.005	0.005	0.005	-0.010	0.400	2.710	2.017	2.017	2.017	2.036	2.036	2.041
-0.005	0.005	0.005	-0.005	0.000	0.010	0.400	2.710	2.012	2.017	2.017	2.036	2.036	2.046
-0.005	0.000	0.000	0.000	-0.005	-0.005	0.400	2.705	2.012	2.017	2.017	2.036	2.036	2.036
0.000	0.005	0.000	0.000	0.000	0.010	0.396	2.646	2.012	2.017	2.017	2.036	2.036	2.046
-0.005	0.005	-0.005	0.005	-0.005	0.010	0.400	2.661	2.002	2.017	2.017	2.036	2.036	2.041
-0.005	-0.005	0.000	-0.005	0.000	0.005	0.396	2.666	1.992	2.002	2.012	2.036	2.031	2.036
-0.005	0.005	-0.005	0.000	0.000	0.005	0.400	2.783	2.007	2.007	2.012	2.031	2.031	2.036
0.005	-0.005	0.005	0.000	0.000	0.010	0.400	2.637	2.002	2.007	2.012	2.031	2.031	2.036
0.000	0.005	0.005	0.005	0.005	0.000	0.400	2.695	2.002	2.007	2.007	2.026	2.031	2.031
0.000	0.000	0.000	0.000	0.000	0.005	0.391	2.642	1.992	2.002	2.002	2.026	2.026	2.031
0.000	0.005	0.005	0.005	0.005	-0.010	0.400	2.651	1.987	1.997	2.002	2.026	2.026	2.026
0.000	0.000	0.005	0.005	0.005	0.000	0.405	2.666	1.987	1.992	1.997	2.021	2.021	2.026
0.000	0.000	0.005	0.005	0.000	0.000	0.405	2.661	1.982	1.987	1.992	2.017	2.021	2.021
0.000	-0.005	-0.005	0.000	0.000	0.000	0.400	2.637	1.982	1.987	1.987	2.017	2.017	2.021
0.000	0.000	0.000	0.000	0.000	-0.005	0.405	2.681	1.982	1.982	1.987	2.012	2.012	2.021
0.005	-0.005	-0.005	0.005	0.000	0.000	0.400	2.754	1.992	1.987	1.987	2.012	2.012	2.017
0.005	0.000	0.000	0.005	0.005	0.005	0.400	2.842	2.012	1.992	1.987	2.012	2.012	2.017
0.005	0.005	0.005	0.005	0.005	0.010	0.396	2.729	2.007	1.997	1.992	2.012	2.012	2.017
0.000	-0.005	-0.005	0.005	0.005	0.015	0.400	2.627	1.992	1.997	1.992	2.012	2.012	2.021
0.010	0.000	0.005	0.000	0.000	0.020	0.405	2.744	2.002	2.002	1.997	2.012	2.012	2.017
0.010	0.020	0.000	0.005	0.000	0.010	0.400	2.705	2.002	2.012	2.002	2.017	2.012	2.012
0.005	0.000	0.005	0.005	0.000	0.005	0.400	2.686	1.997	1.997	1.997	2.017	2.012	2.012
0.005	0.000	-0.005	0.000	0.000	0.015	0.396	2.710	1.992	1.997	1.997	2.017	2.012	2.017
0.005	-0.010	0.000	0.000	0.005	0.000	0.396	2.686	1.987	1.992	1.997	2.012	2.012	2.012
0.005	-0.005	0.000	0.005	0.010	0.000	0.396	2.690	1.982	1.987	1.992	2.017	2.012	2.012
0.010	0.000	0.000	0.005	0.000	0.000	0.396	2.695	1.982	1.992	1.987	2.007	2.007	2.012
0.005	-0.005	-0.005	0.005	0.005	0.000	0.400	2.690	1.978	1.982	1.987	2.007	2.007	2.007
0.000	-0.010	0.005	0.000	0.005	-0.010	0.405	2.700	1.973	1.978	1.982	2.007	2.007	2.002
0.005	0.000	0.000	0.000	0.005	0.000	0.400	2.686	1.973	1.978	1.982	2.007	2.002	2.007
-0.005	0.005	0.010	0.000	0.000	0.005	0.400	2.710	1.973	1.978	1.978	2.002	2.002	2.002
0.000	0.005	0.005	0.000	0.000	-0.010	0.400	2.690	1.968	1.973	1.978	1.997	1.997	1.997
-0.005	0.005	0.000	0.000	0.005	-0.010	0.405	2.705	1.973	1.973	1.973	1.997	1.997	2.002
0.000	0.010	0.000	0.000	0.000	0.015	0.396	2.686	1.968	1.973	1.973	1.992	1.992	2.002
0.000	0.010	-0.005	0.000	0.000	0.005	0.400	2.676	1.978	1.978	1.973	1.997	1.997	1.997
-0.005	0.005	0.000	0.000	0.005	0.005	0.396	2.695	1.968	1.973	1.978	1.997	1.997	2.002
0.005	0.000	0.005	0.005	0.000	0.005	0.410	2.690	1.973	1.978	1.978	1.997	1.997	2.002
0.005	0.005	0.005	0.005	0.000	-0.005	0.396	2.700	1.978	1.978	1.978	2.002	1.997	1.997
0.005	0.005	0.005	0.000	0.000	-0.020	0.396	2.700	1.973	1.973	1.978	1.997	1.992	1.992
0.000	0.005	0.000	0.000	0.000	0.005	0.396	2.686	1.978	1.978	1.978	1.997	1.992	2.002
0.005	0.015	0.000	0.005	0.000	-0.010	0.400	2.686	1.973	1.973	1.978	1.992	1.992	1.992
0.005	0.005	0.000	0.000	0.000	0.005	0.400	2.695	1.968	1.968	1.973	1.992	1.997	1.997
-0.005	0.010	0.000	0.000	0.000	0.000	0.405	2.690	1.968	1.973	1.968	1.992	1.992	1.992
-0.005	0.005	0.005	0.000	0.005	0.015	0.400	2.700	1.963	1.968	1.968	1.992	1.992	1.997
-0.005	0.010	0.005	0.000	0.000	0.005	0.405	2.642	1.958	1.963	1.968	1.987	1.987	1.992
-0.005	0.005	-0.005	0.005	0.000	0.015	0.396	2.651	1.948	1.958	1.958	1.982	1.982	1.992
-0.005	0.010	0.005	0.000	0.005	0.010	0.405	2.646	1.948	1.953	1.958	1.978	1.982	1.987
0.000	0.015	-0.005	0.005	0.005	0.005	0.400	2.646	1.948	1.953	1.953	1.978	1.978	1.982
0.000	0.015	0.000	0.005	0.000	-0.005	0.396	2.637	1.943	1.948	1.953	1.978	1.973	1.978
-0.005	0.005	0.000	0.005	0.000	-0.010	0.405	2.734	1.953	1.948	1.953	1.973	1.973	1.978
0.005	0.000	0.000	0.005	0.005	0.010	0.396	2.656	1.953	1.948	1.948	1.973	1.978	1.982
0.010	0.010	0.005	0.000	0.005	-0.005	0.405	2.729	1.963	1.953	1.953	1.973	1.968	1.973
0.005	0.005	0.005	0.000	0.005	0.010	0.400	2.744	1.963	1.958	1.953	1.973	1.973	1.982
0.005	-0.005	0.000	0.005	-0.005	0.010	0.400	2.646	1.963	1.958	1.958	1.973	1.973	1.978
0.010	-0.010	0.000	0.000	0.005	0.000	0.400	2.734	1.963	1.958	1.958	1.978	1.973	1.978
-0.005	0.005	0.005	0.000	0.005	0.015	0.396	2.700	1.963	1.958	1.958	1.973	1.973	1.978
0.000	-0.005	0.005	0.000	0.000	0.000	0.396	2.734	1.968	1.963	1.958	1.978	1.973	1.973
0.000	-0.005	0.010	0.005	-0.005	0.010	0.410	2.695	1.963	1.968	1.958	1.978	1.973	1.978
0.000	-0.005	0.005	0.005	0.005	0.005	0.396	2.734	1.963	1.963	1.958	1.978	1.973	1.973
0.005	0.000	0.005	0.005	0.005	0.005	0.400	2.627	1.953	1.963	1.958	1.973	1.973	1.973
-0.005	0.000	0.005	-0.005	0.005	0.000	0.396	2.651	1.943	1.948	1.953	1.973	1.968	1.968
0.010	0.000	0.005	0.000	0.000	0.000	0.405	2.690	1.948	1.948	1.953	1.973	1.968	1.968
-0.010	-0.005	0.005	0.005	0.010	0.010	0.405	2.676	1.943	1.943	1.948	1.973	1.973	1.973
-0.005	0.000	0.000	0.000	0.005	-0.015	0.405	2.695	1.948	1.943	1.943	1.968	1.968	1.963
0.000	0.000	0.000	0.000	0.005	-0.010	0.400	2.700	1.943	1.943	1.943	1.963	1.963	1.963
0.005	-0.010	0.000	0.005	0.000	0.005	0.410	2.705	1.943	1.943	1.943	1.968	1.963	1.968
0.000	0.000	0.000	-0.005	-0.005	-0.015	0.400	2.710	1.953	1.948	1.943	1.963	1.958	1.958
0.000	0.005	0.005	0.000	0.000	-0.010	0.410	2.690	1.948	1.953	1.943	1.963	1.963	1.968
0.005	0.000	0.000	0.000	0.005	0.010	0.405	2.695	1.948	1.948	1.948	1.963	1.963	1.973
0.005	-0.005	-0.005	0.000	0.000	0.000	0.405	2.695	1.948	1.948	1.948	1.968	1.963	1.968
0.005	-0.010	0.005	0.000	0.005	0.005	0.400	2.690	1.953	1.948	1.948	1.968	1.963	1.968
0.010	0.005	0.000	0.000	0.000	0.010	0.400	2.690	1.953	1.958	1.948	1.968	1.968	1.968
-0.005	0.005	0.000	0.005	0.000	0.005	0.391	2.690	1.943	1.948	1.948	1.968	1.963	1.963
0.010	0.005	0.000	0.000	0.000	0.000	0.400	2.710	1.948	1.953	1.948	1.968	1.963	1.968
0.000	-0.005	0.005	0.005	0.010	-0.015	0.396	2.686	1.938	1.948	1.948	1.968	1.963	1.963
-0.005	0.000	0.000	0.005	0.005	0.015	0.396	2.700	1.943	1.943	1.948	1.968	1.963	1.968
-0.005	0.000	0.000	0.000	0.000	0.000	0.405	2.690	1.938	1.943	1.943	1.963	1.958	1.963
0.000	0.010	0.005	0.000	0.005	0.010	0.396	2.695	1.943	1.943	1.938	1.963	1.963	1.963
-0.005	0.005	0.000	0.005	0.005	0.005	0.396	2.671	1.934	1.938	1.943	1.958	1.958	1.963
0.000	0.010	0.005	0.005	0.005	0.010	0.400	2.686	1.938	1.938	1.943	1.958	1.958	1.963
0.000	-0.005	0.005	0.005	0.000	0.005	0.400	2.690	1.938	1.934	1.934	1.958	1.953	1.958
0.005	0.005	0.000	0.000	0.000	0.010	0.400	2.710	1.938	1.934	1.934	1.953	1.953	1.953
0.005	-0.020	0.000	0.005	0.000	0.005	0.400	2.681	1.938	1.929	1.934	1.953	1.953	1.953
0.005	-0.005	0.000	0.000	0.000	-0.024	0.391	2.686	1.938	1.934	1.934	1.953	1.948	1.948
-0.005	-0.015	-0.005	0.000	0.005	0.010	0.400	2.666	1.934	1.934	1.934	1.958	1.953	1.958
0.015	0.005	0.005	0.000	0.000	-0.020	0.400	2.661	1.938	1.938	1.934	1.958	1.953	1.948
-0.005	0.005	0.000	0.005	0.005	-0.015	0.405	2.651	1.934	1.938	1.934	1.958	1.953	1.953
0.015	0.015	0.005	0.005	0.000	0.005	0.405	2.651	1.934	1.943	1.943	1.958	1.953	1.958
0.000	0.010	0.000	0.000	0.000	0.005	0.400	2.622	1.929	1.938	1.938	1.958	1.953	1.958
0.005	0.000	0.000	0.005	0.005	0.015	0.396	2.729	1.934	1.934	1.938	1.958	1.953	1.958
0.005	0.005	0.005	0.000	0.000	0.010	0.405	2.651	1.934	1.934	1.934	1.958	1.958	1.958
0.005	-0.005	0.000	0.005	0.005	0.005	0.396	2.637	1.924	1.929	1.934	1.953	1.953	1.958
0.000	-0.005	0.010	0.000	0.005	0.000	0.405	2.642	1.924	1.929	1.929	1.953	1.953	1.948
-0.005	0.000	0.000	0.000	0.010	-0.024	0.396	2.676	1.924	1.924	1.929	1.948	1.948	1.943
0.000	0.000	0.000	0.005	0.010	0.000	0.405	2.734	1.929	1.924	1.924	1.948	1.948	1.953
0.010	0.010	0.005	0.005	0.000	0.005	0.405	2.676	1.929	1.924	1.924	1.948	1.943	1.948
0.000	0.005	0.000	0.005	0.000	-0.029	0.400	2.739	1.929	1.924	1.924	1.943	1.938	1.938
-0.005	0.005	0.000	0.000	0.000	0.005	0.405	2.681	1.929	1.929	1.924	1.938	1.943	1.948
-0.010	0.015	-0.005	-0.005	0.000	-0.020	0.405	2.729	1.934	1.929	1.924	1.943	1.938	1.938
0.000	0.015	0.005	0.005	0.000	0.015	0.400	2.637	1.924	1.929	1.924	1.943	1.938	1.943
0.005	0.010	0.000	0.010	0.000	0.005	0.400	2.642	1.919	1.924	1.924	1.943	1.943	1.943
-0.005	0.000	0.005	0.005	0.000	-0.015	0.400	2.690	1.924	1.919	1.924	1.943	1.943	1.938
0.005	0.000	0.010	0.005	-0.005	0.015	0.405	2.681	1.934	1.929	1.929	1.943	1.943	1.948
0.000	-0.005	-0.005	0.000	0.000	0.010	0.405	2.681	1.929	1.924	1.924	1.943	1.943	1.948
0.005	-0.005	0.000	0.000	0.000	-0.010	0.400	2.705	1.929	1.929	1.924	1.943	1.943	1.938
0.005	0.000	0.005	0.000	0.005	-0.005	0.405	2.690	1.929	1.929	1.929	1.948	1.943	1.943
0.005	0.010	0.005	0.000	0.000	0.000	0.400	2.710	1.934	1.934	1.929	1.943	1.943	1.948
-0.005	0.010	0.000	0.005	0.005	0.010	0.400	2.686	1.929	1.934	1.929	1.948	1.943	1.948
0.000	0.024	0.005	0.005	0.005	0.005	0.400	2.686	1.929	1.934	1.929	1.948	1.943	1.943
-0.005	-0.005	0.005	0.005	0.000	-0.015	0.405	2.686	1.929	1.924	1.929	1.943	1.943	1.934
0.000	-0.005	0.000	0.005	0.005	0.020	0.400	2.700	1.929	1.924	1.924	1.943	1.943	1.943
0.005	-0.010	0.000	0.005	0.005	0.005	0.400	2.676	1.929	1.924	1.924	1.943	1.938	1.938
0.005	-0.005	-0.005	0.005	0.000	0.000	0.396	2.686	1.924	1.924	1.919	1.938	1.938	1.938
0.005	0.000	0.005	0.000	0.010	0.010	0.396	2.700	1.924	1.919	1.919	1.938	1.934	1.938
0.005	-0.005	0.005	0.005	0.005	0.000	0.396	2.700	1.929	1.924	1.919	1.938	1.938	1.938
-0.005	0.005	0.005	0.005	-0.005	-0.005	0.400	2.690	1.924	1.924	1.919	1.938	1.934	1.934
-0.005	0.010	0.000	0.000	0.000	-0.005	0.391	2.681	1.924	1.924	1.919	1.938	1.934	1.929
-0.005	-0.005	0.005	0.000	0.000	-0.015	0.405	2.715	1.924	1.919	1.919	1.938	1.934	1.934
0.000	0.000	0.005	0.000	-0.005	-0.010	0.400	2.695	1.929	1.924	1.919	1.938	1.934	1.938
0.010	0.020	0.000	0.000	0.005	0.010	0.405	2.690	1.934	1.934	1.924	1.943	1.938	1.943
0.005	0.015	0.000	0.000	0.000	0.010	0.400	2.690	1.934	1.929	1.929	1.943	1.938	1.938
0.000	0.000	0.000	0.000	-0.005	-0.010	0.400	2.705	1.934	1.929	1.924	1.943	1.938	1.938
0.005	0.000	0.005	0.005	-0.005	-0.005	0.400	2.700	1.929	1.929	1.929	1.943	1.938	1.938
0.005	0.005	0.000	0.005	0.000	0.000	0.405	2.700	1.929	1.929	1.929	1.943	1.943	1.943
0.005	0.005	0.005	0.005	0.005	-0.015	0.400	2.666	1.924	1.929	1.929	1.943	1.943	1.943
-0.005	0.005	0.000	0.000	0.000	-0.010	0.405	2.661	1.914	1.919	1.924	1.943	1.938	1.934
-0.005	-0.005	0.000	-0.005	0.000	0.005	0.396	2.637	1.909	1.914	1.919	1.938	1.938	1.943
-0.010	-0.010	0.005	0.000	0.000	-0.015	0.405	2.656	1.909	1.909	1.919	1.938	1.934	1.934
-0.005	0.000	0.000	0.010	0.010	-0.010	0.405	2.642	1.904	1.909	1.914	1.938	1.938	1.938
-0.005	-0.010	0.005	0.000	0.005	0.005	0.396	2.734	1.909	1.909	1.909	1.934	1.934	1.938
0.005	-0.010	0.000	0.000	0.000	0.010	0.400	2.642	1.909	1.909	1.909	1.929	1.929	1.938
0.010	0.005	0.000	0.000	0.000	0.010	0.396	2.759	1.924	1.914	1.909	1.929	1.929	1.934
0.005	0.010	0.000	0.005	0.000	0.005	0.400	2.744	1.929	1.919	1.909	1.929	1.929	1.934
-0.005	-0.010	0.005	0.000	-0.005	0.015	0.400	2.676	1.924	1.909	1.914	1.934	1.929	1.934
0.005	-0.010	0.000	0.005	0.000	0.010	0.396	2.729	1.929	1.919	1.914	1.934	1.929	1.934
0.000	-0.005	0.000	0.005	0.005	0.010	0.400	2.690	1.929	1.924	1.919	1.934	1.929	1.934
0.010	0.000	0.005	0.000	0.005	0.005	0.396	2.725	1.934	1.929	1.919	1.934	1.929	1.934
0.010	0.000	0.000	-0.005	0.000	0.005	0.400	2.690	1.934	1.929	1.924	1.938	1.929	1.929
-0.005	-0.005	0.005	0.000	0.000	-0.015	0.405	2.749	1.934	1.929	1.924	1.938	1.934	1.924
0.000	0.000	0.005	0.005	0.005	0.010	0.405	2.646	1.929	1.934	1.924	1.943	1.934	1.938
0.000	0.005	0.005	0.005	0.000	-0.005	0.405	2.729	1.929	1.934	1.929	1.943	1.938	1.934
-0.005	0.000	0.000	0.000	0.005	0.005	0.391	2.710	1.929	1.929	1.929	1.943	1.938	1.934
0.000	0.000	0.000	0.000	0.010	-0.005	0.400	2.686	1.924	1.924	1.929	1.943	1.938	1.934
0.005	-0.005	0.005	0.005	0.000	0.015	0.396	2.671	1.919	1.924	1.924	1.943	1.934	1.938
0.010	0.000	0.005	0.005	0.000	0.005	0.396	2.700	1.919	1.919	1.924	1.943	1.934	1.934
-0.005	0.015	0.005	0.005	0.005	-0.005	0.396	2.686	1.914	1.924	1.919	1.938	1.934	1.929
0.005	0.015	0.000	0.005	0.005	-0.020	0.400	2.705	1.919	1.919	1.919	1.938	1.934	1.929
0.005	0.015	0.000	0.000	0.000	-0.005	0.405	2.690	1.914	1.914	1.919	1.934	1.929	1.929
-0.005	0.005	0.000	-0.005	0.000	-0.020	0.400	2.690	1.914	1.909	1.914	1.934	1.929	1.924
0.010	0.005	0.005	0.000	0.000	-0.005	0.400	2.681	1.914	1.909	1.914	1.934	1.934	1.934
0.005	0.010	0.005	0.000	-0.005	-0.005	0.405	2.690	1.919	1.914	1.914	1.934	1.929	1.934
-0.005	0.005	0.000	0.005	0.005	0.010	0.391	2.676	1.914	1.914	1.914	1.938	1.934	1.938
-0.005	0.010	0.005	0.000	0.005	0.010	0.400	2.686	1.919	1.919	1.919	1.938	1.934	1.934
0.005	0.000	0.005	0.005	0.000	0.010	0.396	2.705	1.924	1.919	1.914	1.938	1.934	1.938
0.005	0.005	0.000	0.000	0.005	0.015	0.400	2.700	1.924	1.919	1.919	1.934	1.934	1.938
0.005	0.000	0.000	0.000	0.000	0.015	0.391	2.700	1.924	1.919	1.919	1.938	1.934	1.934
-0.005	0.005	0.000	0.000	0.000	-0.015	0.396	2.690	1.924	1.924	1.919	1.938	1.934	1.929
0.000	-0.005	0.005	-0.005	0.000	0.015	0.405	2.715	1.929	1.924	1.919	1.938	1.934	1.938
0.005	-0.005	0.005	0.000	0.000	-0.005	0.405	2.690	1.919	1.919	1.919	1.938	1.934	1.929
0.000	0.005	0.000	0.005	0.005	0.005	0.400	2.681	1.919	1.924	1.919	1.934	1.934	1.934
-0.005	-0.005	-0.005	0.000	0.005	0.005	0.400	2.686	1.914	1.914	1.914	1.934	1.934	1.934
0.000	-0.005	0.005	0.005	0.005	0.010	0.396	2.700	1.919	1.909	1.914	1.934	1.929	1.934
0.000	-0.010	0.000	0.005	0.010	-0.010	0.405	2.695	1.914	1.909	1.914	1.934	1.929	1.924
0.005	0.000	0.000	0.005	0.010	0.010	0.405	2.695	1.914	1.909	1.914	1.929	1.929	1.934
-0.005	-0.005	0.000	0.000	0.005	0.010	0.400	2.661	1.909	1.909	1.909	1.934	1.929	1.929
0.005	0.000	0.000	0.000	0.000	0.005	0.400	2.666	1.909	1.914	1.909	1.929	1.924	1.924
-0.005	0.000	0.005	0.005	0.005	0.000	0.396	2.651	1.904	1.909	1.909	1.929	1.924	1.929
0.010	0.005	0.010	0.005	0.000	-0.010	0.400	2.646	1.909	1.909	1.914	1.934	1.924	1.924
0.005	-0.005	0.000	0.005	0.005	-0.005	0.400	2.646	1.904	1.904	1.909	1.929	1.924	1.924
0.000	-0.005	0.000	0.000	0.000	-0.024	0.400	2.744	1.914	1.909	1.909	1.929	1.924	1.924
0.005	0.010	0.000	0.000	0.000	0.010	0.400	2.646	1.914	1.914	1.914	1.929	1.924	1.934
0.005	0.020	-0.005	0.000	0.000	0.000	0.405	2.617	1.904	1.919	1.914	1.934	1.929	1.929
0.000	0.005	0.010	0.005	0.000	0.010	0.400	2.749	1.919	1.914	1.914	1.934	1.929	1.929
-0.005	0.005	0.000	0.000	0.000	0.000	0.400	2.671	1.909	1.909	1.914	1.934	1.929	1.934
0.000	0.000	0.000	0.000	0.005	0.010	0.396	2.749	1.919	1.909	1.914	1.934	1.929	1.934
0.000	-0.005	0.000	-0.005	0.000	-0.015	0.405	2.690	1.909	1.909	1.909	1.929	1.924	1.924
0.015	-0.005	0.000	0.000	0.000	0.010	0.400	2.729	1.924	1.909	1.914	1.929	1.924	1.929
0.000	-0.015	0.005	-0.005	0.000	0.005	0.405	2.690	1.914	1.909	1.909	1.929	1.924	1.924
0.005	-0.010	0.005	0.005	0.000	0.000	0.396	2.734	1.919	1.909	1.904	1.924	1.919	1.924
0.005	0.000	0.000	0.010	0.000	0.000	0.405	2.617	1.904	1.909	1.904	1.929	1.919	1.924
-0.005	-0.005	-0.005	0.005	0.005	0.005	0.400	2.720	1.904	1.909	1.904	1.919	1.919	1.924
-0.005	-0.005	0.000	0.000	0.000	-0.020	0.405	2.700	1.909	1.909	1.904	1.924	1.919	1.914
-0.005	0.005	0.000	0.005	0.005	0.024	0.400	2.676	1.909	1.909	1.904	1.924	1.924	1.929
0.010	0.005	0.005	0.005	0.000	0.024	0.400	2.700	1.914	1.909	1.904	1.924	1.919	1.924
-0.005	0.005	0.005	-0.005	0.000	0.015	0.396	2.705	1.909	1.909	1.909	1.924	1.924	1.924
0.000	0.020	0.000	0.000	0.000	0.000	0.405	2.686	1.919	1.919	1.909	1.929	1.919	1.919
0.005	0.010	0.000	0.000	0.005	-0.015	0.396	2.710	1.919	1.919	1.914	1.929	1.924	1.914
0.000	0.005	0.000	0.005	0.005	-0.015	0.396	2.681	1.914	1.919	1.914	1.934	1.924	1.919
0.005	0.015	0.000	0.000	-0.005	0.000	0.400	2.700	1.919	1.919	1.914	1.934	1.929	1.924
0.005	0.010	0.005	0.000	0.000	0.015	0.405	2.686	1.919	1.919	1.914	1.934	1.929	1.934
-0.005	0.010	0.000	0.000	-0.005	0.000	0.405	2.695	1.914	1.914	1.914	1.934	1.929	1.929
0.000	0.005	0.005	-0.005	-0.005	0.005	0.400	2.690	1.919	1.914	1.914	1.934	1.929	1.924
-0.005	0.000	-0.005	0.000	0.000	0.010	0.396	2.700	1.914	1.914	1.909	1.934	1.929	1.929
0.010	-0.005	0.000	0.005	0.000	0.010	0.405	2.671	1.914	1.909	1.909	1.929	1.924	1.924
0.005	0.000	0.005	0.005	0.005	-0.005	0.405	2.686	1.909	1.909	1.909	1.929	1.929	1.924
0.000	0.000	0.005	0.005	0.005	-0.015	0.400	2.690	1.909	1.909	1.909	1.929	1.924	1.924
0.000	0.005	0.005	0.005	-0.005	0.010	0.396	2.681	1.904	1.909	1.904	1.924	1.924	1.929
0.005	-0.005	0.000	0.000	0.000	-0.015	0.391	2.705	1.909	1.904	1.904	1.924	1.924	1.914
0.005	0.000	0.005	0.000	0.005	-0.005	0.400	2.700	1.909	1.904	1.904	1.924	1.924	1.924
0.000	0.000	0.005	0.000	0.000	0.015	0.400	2.690	1.909	1.909	1.904	1.924	1.924	1.929
-0.005	0.005	-0.005	0.005	0.000	-0.010	0.405	2.686	1.909	1.909	1.904	1.924	1.919	1.919
0.000	-0.005	0.000	0.000	0.000	0.015	0.396	2.705	1.914	1.909	1.909	1.929	1.924	1.929
0.010	-0.005	0.000	0.005	0.005	0.000	0.405	2.700	1.914	1.914	1.909	1.929	1.924	1.924
0.010	-0.010	0.000	0.010	0.000	0.005	0.405	2.695	1.914	1.914	1.909	1.929	1.924	1.924
0.005	-0.005	0.005	0.005	0.005	0.000	0.405	2.637	1.909	1.914	1.909	1.929	1.924	1.924
0.015	-0.005	0.000	0.000	0.000	0.005	0.396	2.661	1.909	1.914	1.909	1.929	1.924	1.924
-0.005	0.005	0.000	0.000	0.005	0.005	0.400	2.661	1.904	1.914	1.914	1.929	1.924	1.929
0.000	0.005	0.000	0.000	0.000	0.000	0.396	2.646	1.899	1.909	1.909	1.929	1.924	1.924
0.000	0.000	0.000	0.000	0.000	0.000	0.400	2.637	1.899	1.904	1.909	1.929	1.924	1.924
-0.015	0.000	0.000	0.005	-0.005	0.000	0.405	2.744	1.904	1.899	1.904	1.929	1.924	1.924
0.000	0.000	0.000	0.000	0.005	0.000	0.400	2.637	1.904	1.899	1.899	1.924	1.924	1.924
0.000	0.010	0.000	0.000	0.000	0.000	0.400	2.642	1.899	1.904	1.899	1.924	1.919	1.919
0.000	0.010	0.000	0.000	0.000	0.005	0.400	2.749	1.909	1.904	1.899	1.919	1.919	1.924
-0.005	0.005	0.000	0.000	0.005	0.005	0.400	2.676	1.904	1.899	1.899	1.919	1.919	1.919
0.000	0.000	0.000	0.000	0.000	0.000	0.400	2.734	1.909	1.899	1.895	1.914	1.914	1.914
0.010	0.000	0.000	0.000	0.005	0.005	0.405	2.676	1.909	1.899	1.899	1.914	1.914	1.919
0.005	0.000	0.000	0.005	-0.005	0.000	0.396	2.744	1.914	1.904	1.899	1.919	1.914	1.914
0.015	0.005	0.010	0.005	-0.005	0.005	0.396	2.690	1.919	1.909	1.904	1.919	1.914	1.914
0.005	0.010	0.005	0.000	0.005	-0.015	0.400	2.739	1.919	1.914	1.909	1.919	1.914	1.909
0.000	0.000	0.000	0.000	0.000	0.005	0.396	2.656	1.914	1.909	1.909	1.924	1.919	1.919
0.005	0.000	0.005	0.000	-0.005	0.000	0.400	2.651	1.909	1.914	1.909	1.924	1.919	1.914
-0.005	-0.005	0.005	-0.005	0.000	0.010	0.400	2.700	1.914	1.909	1.909	1.924	1.919	1.919
-0.005	0.005	0.005	0.005	0.005	-0.020	0.400	2.690	1.914	1.914	1.909	1.929	1.919	1.914
-0.010	0.005	0.005	0.005	0.000	0.015	0.396	2.690	1.909	1.914	1.909	1.929	1.924	1.924
0.005	0.005	0.005	0.005	0.005	0.010	0.400	2.700	1.914	1.914	1.909	1.929	1.924	1.924
-0.005	0.000	0.000	0.005	-0.005	0.010	0.405	2.695	1.909	1.909	1.904	1.929	1.924	1.924
0.000	0.010	0.010	0.005	0.005	0.015	0.396	2.710	1.914	1.909	1.909	1.929	1.924	1.924
0.000	-0.005	-0.005	0.000	0.005	0.015	0.391	2.686	1.909	1.904	1.904	1.924	1.919	1.924
-0.005	-0.005	0.000	-0.005	0.000	-0.020	0.396	2.686	1.904	1.904	1.904	1.924	1.919	1.909
0.005	-0.005	0.000	0.000	0.000	-0.010	0.405	2.676	1.904	1.899	1.904	1.924	1.919	1.919
0.000	0.005	0.000	0.000	0.000	0.020	0.400	2.681	1.904	1.904	1.904	1.919	1.919	1.924
-0.005	0.000	0.000	0.000	0.000	0.020	0.400	2.686	1.904	1.904	1.899	1.924	1.919	1.919
0.000	0.010	0.000	0.005	0.000	0.000	0.391	2.710	1.909	1.904	1.899	1.919	1.914	1.919
0.010	-0.005	0.010	0.005	-0.005	0.015	0.400	2.700	1.909	1.899	1.904	1.919	1.914	1.919
0.015	0.005	0.005	0.005	0.000	0.005	0.405	2.710	1.919	1.909	1.904	1.924	1.919	1.919
0.010	0.000	0.000	0.000	0.000	0.000	0.410	2.710	1.919	1.909	1.904	1.919	1.919	1.914
0.005	0.000	0.005	0.005	0.005	-0.010	0.396	2.686	1.914	1.909	1.909	1.924	1.919	1.914
-0.010	0.005	0.005	0.005	-0.005	-0.029	0.400	2.705	1.909	1.909	1.909	1.924	1.919	1.914
0.010	0.005	0.000	0.005	0.005	0.015	0.391	2.705	1.914	1.914	1.909	1.924	1.924	1.929
0.005	0.024	0.005	0.005	0.000	0.024	0.405	2.705	1.919	1.919	1.914	1.929	1.924	1.929
0.005	0.020	0.000	-0.005	0.005	0.015	0.400	2.690	1.919	1.919	1.909	1.929	1.924	1.929
0.005	0.020	-0.005	0.005	0.000	-0.010	0.396	2.690	1.914	1.919	1.914	1.929	1.924	1.914
0.000	0.010	0.000	0.000	0.000	0.015	0.396	2.686	1.909	1.909	1.909	1.929	1.924	1.929
0.000	0.005	0.005	0.005	0.005	0.010	0.410	2.690	1.904	1.909	1.909	1.929	1.924	1.924
0.005	0.005	0.005	0.000	0.005	-0.005	0.400	2.646	1.904	1.899	1.909	1.929	1.924	1.919
0.015	0.000	0.000	0.005	0.005	0.005	0.405	2.661	1.899	1.899	1.904	1.924	1.919	1.919
0.000	-0.005	0.000	0.000	0.005	-0.005	0.391	2.661	1.909	1.895	1.899	1.919	1.919	1.919
-0.005	-0.015	0.000	0.010	0.005	-0.015	0.396	2.783	1.899	1.899	1.899	1.919	1.919	1.909
0.010	-0.005	0.000	0.005	0.005	0.015	0.400	2.627	1.899	1.899	1.899	1.919	1.919	1.924
0.000	0.000	0.000	0.000	0.005	0.010	0.405	2.739	1.909	1.904	1.899	1.919	1.914	1.919
-0.005	-0.005	0.005	0.005	0.000	0.000	0.400	2.739	1.914	1.904	1.899	1.919	1.914	1.914
0.000	0.005	0.000	0.000	0.005	-0.024	0.400	2.646	1.909	1.909	1.904	1.919	1.914	1.909
0.005	0.000	0.005	0.000	0.000	0.010	0.396	2.759	1.909	1.904	1.904	1.924	1.919	1.924
0.005	0.005	0.005	0.000	0.000	-0.024	0.396	2.661	1.909	1.909	1.909	1.919	1.914	1.914
0.000	-0.005	0.000	0.000	0.000	0.015	0.396	2.744	1.914	1.909	1.904	1.924	1.919	1.924
0.000	0.000	-0.005	0.000	-0.005	0.010	0.391	2.705	1.914	1.909	1.909	1.929	1.919	1.924
0.000	-0.010	0.005	0.005	-0.005	0.000	0.400	2.734	1.914	1.909	1.909	1.924	1.919	1.924
0.000	-0.005	0.000	0.000	0.005	0.005	0.391	2.690	1.914	1.914	1.909	1.924	1.924	1.924
-0.005	0.000	0.000	0.000	0.000	0.005	0.396	2.734	1.919	1.914	1.909	1.924	1.919	1.924
-0.005	-0.005	0.005	0.005	0.005	0.005	0.400	2.642	1.904	1.909	1.909	1.924	1.919	1.924
0.005	-0.010	0.000	0.005	0.010	0.010	0.400	2.744	1.914	1.909	1.904	1.924	1.919	1.924
0.005	-0.005	0.000	0.000	0.005	-0.024	0.396	2.705	1.909	1.904	1.904	1.924	1.919	1.909
0.005	-0.010	0.005	0.000	0.005	0.010	0.400	2.695	1.909	1.904	1.904	1.924	1.919	1.919
0.005	-0.005	0.005	0.010	0.005	-0.005	0.391	2.690	1.909	1.904	1.904	1.924	1.919	1.919
0.005	0.000	0.010	0.005	0.000	0.005	0.396	2.686	1.909	1.909	1.904	1.924	1.919	1.919
0.010	0.005	0.005	0.005	0.005	0.005	0.396	2.681	1.909	1.909	1.904	1.924	1.919	1.919
0.005	0.024	0.000	0.000	0.005	-0.010	0.396	2.705	1.909	1.909	1.909	1.919	1.914	1.914
-0.005	0.015	0.005	0.005	-0.005	-0.010	0.391	2.690	1.909	1.909	1.904	1.924	1.914	1.914
0.005	-0.010	0.000	0.000	-0.005	0.000	0.400	2.695	1.914	1.904	1.904	1.924	1.919	1.919
0.005	0.000	-0.005	0.000	0.000	0.005	0.391	2.700	1.909	1.909	1.904	1.924	1.919	1.919
0.005	0.000	0.000	0.000	-0.005	-0.005	0.400	2.700	1.919	1.914	1.909	1.929	1.919	1.919
0.000	0.024	0.000	0.005	0.000	-0.010	0.400	2.686	1.914	1.919	1.914	1.929	1.924	1.919
0.010	0.015	0.005	0.005	0.000	0.010	0.410	2.705	1.919	1.914	1.914	1.929	1.929	1.929
0.005	0.010	0.000	0.005	-0.005	0.005	0.405	2.700	1.909	1.914	1.914	1.929	1.924	1.929
-0.010	0.005	-0.005	0.000	0.000	0.015	0.400	2.695	1.909	1.909	1.909	1.929	1.924	1.929
-0.005	0.005	0.000	0.000	0.000	-0.020	0.396	2.695	1.914	1.909	1.909	1.929	1.924	1.914
0.000	0.010	0.000	0.000	0.000	0.010	0.400	2.686	1.909	1.909	1.909	1.929	1.924	1.924
-0.005	0.010	0.000	0.005	0.000	-0.005	0.400	2.695	1.909	1.909	1.909	1.929	1.924	1.919
0.000	-0.005	0.010	0.000	0.005	0.005	0.400	2.681	1.904	1.904	1.904	1.929	1.924	1.924
-0.005	-0.005	0.000	0.000	0.005	0.000	0.396	2.695	1.899	1.899	1.899	1.919	1.919	1.919
-0.005	-0.005	0.005	0.000	0.005	0.000	0.410	2.705	1.909	1.899	1.899	1.924	1.919	1.919
0.000	0.000	0.000	0.000	-0.010	0.005	0.400	2.700	1.904	1.904	1.899	1.919	1.914	1.919
0.010	-0.005	0.000	0.000	0.000	0.000	0.410	2.681	1.909	1.904	1.899	1.919	1.914	1.919
-0.005	0.015	0.000	-0.005	0.000	0.015	0.400	2.700	1.909	1.909	1.899	1.919	1.914	1.924
0.005	0.005	0.000	-0.005	0.000	0.010	0.400	2.656	1.909	1.909	1.904	1.919	1.914	1.924
0.005	0.010	0.000	-0.005	0.000	-0.005	0.410	2.656	1.909	1.909	1.909	1.924	1.919	1.919
0.005	0.010	0.000	0.000	0.000	-0.020	0.405	2.651	1.904	1.909	1.909	1.924	1.919	1.914
0.005	0.005	0.005	-0.005	-0.005	0.005	0.410	2.661	1.904	1.909	1.909	1.924	1.919	1.919
0.005	-0.005	0.000	0.000	0.005	0.000	0.400	2.637	1.904	1.904	1.904	1.929	1.924	1.919
0.000	0.000	0.000	0.005	0.005	-0.020	0.400	2.725	1.909	1.909	1.904	1.924	1.919	1.919
0.010	-0.010	0.000	0.000	0.000	0.005	0.410	2.734	1.914	1.909	1.904	1.929	1.924	1.924
0.000	0.010	0.000	0.000	0.005	-0.010	0.410	2.637	1.904	1.909	1.904	1.924	1.924	1.924
-0.005	0.000	0.005	0.000	0.000	0.005	0.405	2.661	1.899	1.909	1.904	1.929	1.919	1.924
0.000	-0.005	0.000	0.005	0.005	-0.005	0.410	2.651	1.904	1.904	1.904	1.924	1.919	1.919
-0.005	0.000	-0.005	0.000	0.005	-0.024	0.400	2.622	1.890	1.895	1.899	1.919	1.919	1.909
-0.005	0.000	0.000	0.005	0.000	0.000	0.415	2.671	1.890	1.899	1.899	1.919	1.919	1.919
0.010	-0.005	0.000	0.005	0.005	0.000	0.410	2.720	1.899	1.890	1.895	1.919	1.919	1.924
0.010	0.005	0.000	0.005	0.005	0.005	0.410	2.676	1.899	1.899	1.895	1.914	1.914	1.919
-0.005	0.005	0.000	0.005	0.000	0.020	0.405	2.729	1.904	1.895	1.895	1.914	1.914	1.919
0.024	0.005	0.000	0.010	0.005	0.005	0.405	2.808	1.929	1.904	1.895	1.914	1.914	1.914
0.020	-0.010	0.000	0.005	0.010	0.015	0.400	2.729	1.924	1.904	1.899	1.914	1.914	1.919
0.010	0.015	0.000	0.000	0.015	0.000	0.405	2.700	1.924	1.919	1.904	1.919	1.914	1.909
-0.010	0.000	0.000	0.005	0.024	0.000	0.405	2.700	1.919	1.914	1.909	1.924	1.924	1.919
0.000	0.000	0.000	0.010	0.024	0.024	0.415	2.690	1.919	1.914	1.909	1.924	1.924	1.924
-0.005	-0.005	0.005	0.005	0.024	0.024	0.410	2.700	1.914	1.914	1.909	1.924	1.924	1.924
0.005	0.010	0.005	0.005	0.029	0.024	0.415	2.690	1.919	1.919	1.914	1.929	1.924	1.924
-0.005	0.000	0.000	0.000	0.024	0.024	0.415	2.725	1.914	1.914	1.914	1.929	1.924	1.924
0.000	0.000	-0.005	0.010	0.015	0.015	0.410	2.676	1.914	1.919	1.914	1.929	1.924	1.924
0.000	0.005	0.000	0.005	0.010	0.020	0.410	2.690	1.914	1.914	1.914	1.929	1.919	1.924
0.005	0.005	0.005	0.005	0.015	0.015	0.405	2.700	1.909	1.914	1.914	1.929	1.924	1.919
-0.005	-0.005	0.000	0.000	0.015	0.020	0.405	2.690	1.904	1.904	1.909	1.929	1.924	1.924
-0.020	0.000	0.005	0.005	0.015	0.015	0.405	2.705	1.909	1.904	1.909	1.929	1.924	1.919
-0.005	-0.010	0.005	0.005	0.015	0.005	0.410	2.686	1.904	1.899	1.904	1.924	1.919	1.919
-0.010	-0.010	0.005	0.005	0.005	0.010	0.405	2.700	1.904	1.899	1.899	1.919	1.914	1.914
-0.005	0.000	0.000	-0.005	0.010	0.020	0.410	2.710	1.909	1.909	1.899	1.919	1.914	1.919
0.005	0.010	0.000	0.000	0.005	0.000	0.410	2.700	1.914	1.909	1.904	1.919	1.919	1.914
0.005	0.000	0.005	0.000	0.000	0.005	0.405	2.681	1.909	1.909	1.904	1.919	1.914	1.914
0.000	0.005	-0.005	0.005	-0.005	0.005	0.396	2.705	1.909	1.909	1.904	1.924	1.914	1.919
0.005	0.005	-0.005	0.010	-0.005	0.010	0.410	2.690	1.914	1.909	1.909	1.924	1.914	1.919
0.010	-0.005	0.005	0.000	-0.010	0.005	0.405	2.700	1.914	1.914	1.909	1.924	1.919	1.919
0.015	0.005	0.005	0.000	-0.010	-0.024	0.415	2.705	1.919	1.914	1.909	1.929	1.919	1.909
0.010	0.010	0.000	0.000	-0.010	0.005	0.405	2.695	1.914	1.919	1.914	1.929	1.919	1.919
0.000	0.005	0.000	0.000	-0.015	-0.005	0.410	2.700	1.914	1.914	1.919	1.934	1.919	1.919
0.005	0.005	0.005	0.005	-0.010	0.005	0.405	2.705	1.914	1.914	1.914	1.934	1.929	1.924
-0.005	0.005	0.005	0.000	-0.010	0.005	0.410	2.676	1.909	1.914	1.914	1.929	1.924	1.924
0.005	0.000	0.000	0.000	-0.010	-0.005	0.400	2.661	1.909	1.909	1.909	1.934	1.924	1.919
0.000	0.005	0.005	0.005	-0.015	0.000	0.415	2.646	1.899	1.909	1.909	1.929	1.924	1.919
-0.005	0.010	0.010	0.000	-0.010	-0.010	0.405	2.656	1.895	1.904	1.904	1.929	1.924	1.919
-0.005	0.000	0.000	0.005	-0.010	0.010	0.405	2.627	1.895	1.895	1.899	1.924	1.919	1.924
-0.005	0.000	0.000	0.000	-0.005	-0.020	0.405	2.744	1.899	1.899	1.895	1.919	1.919	1.914
0.005	-0.005	-0.005	0.000	-0.005	0.015	0.405	2.739	1.909	1.899	1.895	1.919	1.919	1.924
0.005	0.010	0.000	0.000	-0.010	0.010	0.405	2.632	1.904	1.904	1.899	1.919	1.914	1.919
0.015	-0.005	0.000	0.005	-0.005	0.005	0.410	2.661	1.904	1.899	1.899	1.919	1.919	1.919
-0.005	0.005	0.005	0.005	-0.005	0.005	0.410	2.651	1.895	1.899	1.899	1.919	1.919	1.919
0.000	0.005	0.000	0.005	-0.005	-0.005	0.405	2.651	1.895	1.899	1.899	1.914	1.919	1.919
0.005	0.005	0.000	0.000	-0.005	-0.010	0.405	2.661	1.904	1.899	1.904	1.919	1.914	1.914
0.005	0.015	0.000	-0.005	-0.005	-0.029	0.400	2.661	1.904	1.909	1.899	1.919	1.919	1.914
0.000	0.015	0.005	0.000	-0.005	-0.020	0.405	2.710	1.909	1.909	1.904	1.924	1.919	1.919
0.000	0.015	0.000	0.005	0.010	-0.015	0.415	2.739	1.914	1.909	1.904	1.924	1.924	1.919
0.000	0.024	0.005	0.000	0.000	0.005	0.410	2.803	1.924	1.914	1.909	1.924	1.919	1.924
0.000	0.000	0.000	0.000	0.000	-0.010	0.405	2.729	1.924	1.909	1.904	1.924	1.924	1.924
0.010	0.000	0.000	0.005	0.005	-0.015	0.410	2.700	1.924	1.919	1.909	1.924	1.924	1.919
0.000	0.005	-0.005	0.000	0.010	0.010	0.400	2.681	1.914	1.914	1.909	1.924	1.919	1.929
0.000	0.005	0.000	0.000	0.015	0.005	0.405	2.690	1.909	1.909	1.909	1.924	1.919	1.924
-0.005	-0.005	0.005	0.005	0.000	0.000	0.400	2.695	1.909	1.909	1.909	1.924	1.919	1.919
0.000	0.000	0.005	0.000	0.005	-0.005	0.405	2.681	1.904	1.904	1.904	1.924	1.914	1.919
0.000	-0.005	0.000	0.000	0.005	0.000	0.405	2.695	1.909	1.904	1.904	1.924	1.914	1.919
0.000	0.000	0.000	0.000	0.000	-0.005	0.405	2.681	1.904	1.904	1.904	1.924	1.914	1.914
0.000	0.020	0.005	0.005	0.000	0.010	0.400	2.695	1.904	1.909	1.904	1.924	1.919	1.919
0.000	0.005	0.005	0.005	0.005	0.000	0.415	2.671	1.904	1.904	1.904	1.924	1.919	1.914
0.005	0.010	0.000	0.000	0.005	0.000	0.410	2.681	1.904	1.904	1.904	1.919	1.919	1.919
0.000	0.000	0.000	0.000	0.000	-0.010	0.415	2.705	1.909	1.904	1.904	1.919	1.919	1.914
-0.005	0.010	0.000	-0.005	0.000	0.000	0.410	2.695	1.909	1.909	1.904	1.924	1.919	1.919
0.005	0.000	0.000	0.005	0.000	0.000	0.410	2.700	1.914	1.909	1.909	1.924	1.924	1.919
0.005	0.010	0.005	0.000	0.000	0.010	0.405	2.690	1.914	1.914	1.909	1.924	1.919	1.924
-0.005	0.000	0.000	0.000	0.000	0.005	0.415	2.700	1.914	1.914	1.909	1.924	1.924	1.919
0.010	0.000	0.000	0.005	0.000	-0.005	0.410	2.671	1.914	1.909	1.909	1.924	1.919	1.919
0.010	-0.005	0.000	0.005	0.005	0.000	0.415	2.710	1.914	1.909	1.909	1.924	1.924	1.924
-0.005	-0.005	0.000	0.005	0.005	-0.005	0.405	2.695	1.909	1.909	1.909	1.924	1.924	1.919
-0.005	-0.005	0.000	0.000	0.005	-0.005	0.405	2.705	1.909	1.909	1.909	1.924	1.924	1.919
0.005	-0.005	0.005	0.005	0.005	-0.005	0.400	2.686	1.909	1.909	1.904	1.924	1.919	1.919
-0.005	0.005	0.000	0.000	0.010	0.000	0.410	2.705	1.904	1.909	1.904	1.924	1.919	1.919
-0.005	0.005	0.000	0.000	0.000	0.005	0.410	2.710	1.909	1.904	1.899	1.919	1.914	1.914
0.000	0.005	0.000	0.000	0.005	-0.010	0.410	2.686	1.909	1.909	1.904	1.919	1.919	1.919
-0.005	0.000	0.005	0.005	0.005	0.005	0.415	2.661	1.899	1.904	1.899	1.919	1.919	1.919
-0.005	-0.005	0.000	0.000	0.000	-0.015	0.405	2.671	1.899	1.899	1.899	1.919	1.914	1.909
-0.005	-0.010	0.000	0.000	0.000	-0.015	0.410	2.661	1.899	1.895	1.899	1.919	1.914	1.914
0.000	-0.005	0.000	0.000	0.005	0.010	0.405	2.744	1.899	1.899	1.899	1.919	1.919	1.924
0.010	0.005	0.010	0.005	0.005	0.010	0.405	2.646	1.904	1.904	1.904	1.924	1.919	1.919
-0.005	-0.005	0.000	0.000	0.005	0.010	0.400	2.739	1.909	1.899	1.899	1.919	1.919	1.919
-0.005	0.005	0.005	-0.005	0.000	0.010	0.410	2.739	1.914	1.909	1.904	1.924	1.919	1.919
0.005	0.000	0.000	0.000	0.000	0.010	0.410	2.656	1.909	1.909	1.909	1.924	1.919	1.919
0.005	0.000	0.005	0.000	0.005	0.005	0.415	2.646	1.909	1.909	1.909	1.924	1.919	1.924
-0.005	0.010	0.000	0.000	0.000	0.005	0.405	2.661	1.904	1.909	1.904	1.924	1.919	1.924
0.005	0.015	0.000	0.000	0.005	-0.029	0.410	2.666	1.914	1.914	1.904	1.924	1.919	1.914
0.000	-0.005	-0.005	0.005	0.000	0.015	0.410	2.676	1.904	1.904	1.904	1.924	1.919	1.924
0.000	-0.020	-0.005	0.000	0.005	0.000	0.410	2.739	1.909	1.899	1.904	1.919	1.919	1.919
0.000	-0.005	0.005	0.000	0.005	0.005	0.400	2.690	1.914	1.904	1.904	1.919	1.919	1.924
0.000	0.000	0.005	0.000	0.005	-0.005	0.410	2.729	1.914	1.904	1.904	1.924	1.919	1.914
0.010	0.000	0.000	0.010	0.005	0.005	0.400	2.788	1.924	1.909	1.904	1.919	1.914	1.919
-0.005	-0.005	0.005	0.000	0.000	-0.015	0.405	2.637	1.919	1.909	1.904	1.919	1.914	1.909
0.000	0.000	0.005	0.000	0.005	0.010	0.400	2.705	1.914	1.909	1.904	1.924	1.914	1.914
-0.005	0.000	0.000	0.000	0.005	0.000	0.415	2.700	1.914	1.914	1.904	1.924	1.919	1.914
0.000	0.020	0.005	0.005	0.000	0.005	0.410	2.715	1.919	1.919	1.909	1.924	1.914	1.914
0.005	0.024	0.000	-0.005	0.005	0.015	0.405	2.710	1.919	1.919	1.909	1.929	1.919	1.919
0.005	0.010	0.000	0.000	0.000	0.015	0.400	2.686	1.919	1.914	1.914	1.929	1.919	1.924
0.000	0.010	0.000	0.000	0.000	0.000	0.415	2.710	1.914	1.919	1.914	1.929	1.919	1.924
0.000	0.000	0.000	0.000	0.000	-0.015	0.410	2.686	1.914	1.914	1.914	1.929	1.924	1.914
0.005	0.005	0.000	0.000	-0.005	0.010	0.405	2.690	1.914	1.919	1.914	1.929	1.924	1.924
0.000	0.005	-0.005	0.010	0.000	-0.005	0.400	2.700	1.909	1.914	1.914	1.934	1.929	1.924
-0.005	0.000	0.005	0.000	0.000	-0.005	0.410	2.690	1.909	1.914	1.919	1.934	1.929	1.924
0.000	0.005	0.000	0.000	0.005	-0.010	0.410	2.710	1.914	1.909	1.914	1.934	1.929	1.919
0.005	0.000	0.000	0.000	0.005	0.015	0.410	2.710	1.914	1.909	1.914	1.934	1.929	1.929
0.010	0.000	-0.005	0.000	0.005	0.010	0.400	2.700	1.909	1.909	1.909	1.929	1.929	1.924
0.010	0.000	0.000	0.000	0.005	0.005	0.405	2.705	1.914	1.904	1.909	1.929	1.924	1.929
0.000	0.000	0.005	0.005	0.010	0.000	0.415	2.695	1.904	1.909	1.909	1.929	1.924	1.924
-0.005	-0.005	0.000	0.010	0.005	0.000	0.410	2.671	1.904	1.904	1.904	1.924	1.919	1.924
0.000	0.010	0.000	0.005	0.005	-0.015	0.405	2.705	1.909	1.904	1.904	1.924	1.924	1.919
0.000	-0.005	-0.005	0.005	0.000	-0.024	0.410	2.700	1.909	1.904	1.899	1.919	1.919	1.914
-0.010	-0.005	0.000	0.005	-0.005	0.005	0.405	2.690	1.904	1.904	1.904	1.919	1.919	1.919
0.005	0.000	0.000	0.005	0.000	-0.005	0.410	2.700	1.914	1.904	1.904	1.919	1.919	1.924
0.005	-0.005	-0.005	0.005	-0.005	0.010	0.410	2.705	1.919	1.909	1.904	1.924	1.919	1.924
0.000	-0.005	0.005	0.000	0.000	0.010	0.400	2.720	1.919	1.909	1.909	1.924	1.919	1.924
0.000	-0.005	0.005	0.000	0.000	0.010	0.400	2.700	1.919	1.914	1.909	1.924	1.919	1.924
0.000	-0.010	0.005	-0.005	0.000	0.024	0.400	2.632	1.909	1.914	1.909	1.929	1.924	1.929
-0.005	0.010	0.005	0.000	0.005	0.024	0.415	2.671	1.909	1.914	1.914	1.929	1.924	1.924
-0.005	0.000	0.000	-0.005	0.005	-0.015	0.405	2.656	1.909	1.914	1.909	1.929	1.924	1.919
0.000	0.000	0.000	0.000	0.005	0.005	0.410	2.651	1.899	1.909	1.909	1.929	1.924	1.924
0.005	0.000	0.005	0.005	0.000	0.005	0.405	2.632	1.899	1.904	1.909	1.929	1.924	1.924
0.000	0.010	0.005	0.005	0.000	0.000	0.410	2.651	1.909	1.909	1.909	1.929	1.919	1.919
0.005	0.010	0.000	0.000	0.005	0.000	0.405	2.734	1.914	1.904	1.904	1.924	1.924	1.924
0.005	0.010	0.000	0.000	0.005	0.010	0.410	2.642	1.904	1.904	1.904	1.924	1.919	1.924
0.005	0.010	0.000	0.000	0.005	0.000	0.400	2.754	1.914	1.904	1.899	1.924	1.919	1.914
0.000	0.000	0.000	0.005	-0.005	0.010	0.405	2.671	1.904	1.899	1.899	1.919	1.919	1.919
-0.005	0.015	0.005	0.000	0.000	0.010	0.405	2.646	1.904	1.904	1.904	1.919	1.919	1.919
0.000	0.015	0.005	0.000	0.005	-0.010	0.410	2.686	1.899	1.899	1.904	1.919	1.914	1.914
0.015	0.010	0.000	0.000	0.005	0.000	0.415	2.754	1.914	1.909	1.904	1.919	1.919	1.919
0.010	0.005	0.005	0.000	0.005	0.005	0.410	2.686	1.914	1.909	1.904	1.919	1.919	1.919
-0.005	0.005	0.000	0.000	0.000	-0.005	0.405	2.749	1.914	1.909	1.899	1.919	1.914	1.914
0.005	0.005	0.005	0.000	0.000	0.005	0.405	2.812	1.934	1.914	1.909	1.924	1.919	1.924
0.000	-0.005	0.005	0.000	0.000	-0.010	0.410	2.734	1.929	1.914	1.909	1.924	1.919	1.919
-0.005	-0.005	0.000	0.000	0.000	0.000	0.405	2.681	1.924	1.919	1.914	1.929	1.919	1.919
0.005	0.000	0.000	0.005	0.000	-0.005	0.410	2.676	1.919	1.919	1.914	1.929	1.924	1.924
0.000	-0.005	0.005	0.005	0.000	-0.005	0.410	2.710	1.909	1.914	1.914	1.929	1.924	1.919
0.005	-0.015	-0.005	0.000	0.000	-0.020	0.410	2.700	1.914	1.909	1.909	1.929	1.924	1.919
0.000	-0.005	0.000	0.000	0.005	0.010	0.396	2.700	1.914	1.914	1.914	1.934	1.924	1.929
0.000	0.000	0.000	0.005	0.000	0.020	0.410	2.705	1.914	1.914	1.909	1.934	1.924	1.929
-0.005	-0.010	-0.005	-0.005	0.005	0.005	0.405	2.686	1.909	1.909	1.909	1.924	1.924	1.924
-0.005	-0.005	0.000	0.000	0.000	0.000	0.410	2.700	1.904	1.904	1.904	1.924	1.919	1.919
0.000	0.000	-0.005	0.000	0.010	0.005	0.405	2.671	1.899	1.904	1.904	1.924	1.924	1.919
0.000	0.000	0.000	0.005	0.000	0.015	0.405	2.690	1.904	1.904	1.904	1.924	1.919	1.924
-0.005	0.005	0.005	0.000	0.000	0.010	0.405	2.710	1.904	1.909	1.904	1.924	1.919	1.919
0.010	0.010	0.005	0.005	0.000	-0.010	0.420	2.710	1.914	1.909	1.904	1.924	1.919	1.919
0.005	0.000	0.005	0.000	0.000	-0.020	0.410	2.690	1.909	1.904	1.904	1.924	1.914	1.909
0.000	0.005	0.000	0.000	0.005	0.005	0.405	2.700	1.909	1.904	1.904	1.924	1.919	1.924
0.000	0.010	0.005	0.000	0.005	0.010	0.405	2.705	1.914	1.909	1.909	1.929	1.924	1.924
-0.005	0.010	0.005	0.005	0.000	0.000	0.415	2.690	1.914	1.914	1.909	1.924	1.919	1.924
0.005	0.005	0.000	0.005	0.000	0.005	0.405	2.700	1.914	1.914	1.909	1.929	1.924	1.929
0.000	0.000	0.000	0.000	0.005	0.020	0.405	2.700	1.914	1.914	1.914	1.929	1.924	1.929
0.005	0.000	0.000	0.000	0.000	0.000	0.410	2.686	1.914	1.914	1.914	1.929	1.924	1.919
0.000	0.000	0.005	0.000	0.005	0.015	0.415	2.710	1.914	1.909	1.909	1.929	1.924	1.924
0.005	0.005	0.000	0.005	0.005	0.000	0.410	2.690	1.914	1.914	1.909	1.929	1.924	1.924
0.015	0.005	0.005	0.000	0.000	-0.005	0.405	2.690	1.914	1.914	1.914	1.929	1.924	1.924
0.005	0.000	0.000	0.005	0.005	0.000	0.405	2.690	1.909	1.909	1.909	1.929	1.924	1.924
0.005	0.005	0.000	0.005	0.005	0.005	0.410	2.637	1.904	1.904	1.909	1.929	1.924	1.924
0.005	0.005	0.005	0.005	0.005	0.010	0.400	2.656	1.899	1.899	1.904	1.924	1.924	1.924
0.000	0.000	0.005	0.005	0.005	0.010	0.410	2.661	1.895	1.899	1.904	1.919	1.919	1.919
0.000	-0.005	0.005	0.005	0.000	0.005	0.405	2.715	1.895	1.890	1.899	1.919	1.919	1.914
0.005	-0.005	0.005	0.000	0.000	-0.015	0.410	2.651	1.895	1.895	1.899	1.919	1.914	1.909
0.000	-0.005	0.005	0.005	-0.005	0.005	0.405	2.651	1.890	1.890	1.895	1.914	1.914	1.919
-0.005	0.000	0.000	0.000	-0.005	0.010	0.405	2.729	1.899	1.895	1.895	1.914	1.914	1.914
0.005	-0.005	0.000	0.000	0.000	0.015	0.405	2.651	1.914	1.899	1.899	1.919	1.914	1.919
0.005	0.005	0.000	0.000	0.000	0.010	0.410	2.754	1.919	1.909	1.904	1.919	1.919	1.919
-0.005	0.005	0.000	0.000	-0.005	-0.010	0.405	2.681	1.914	1.909	1.904	1.919	1.914	1.919
0.000	-0.005	0.005	0.000	0.000	-0.010	0.405	2.661	1.909	1.909	1.909	1.919	1.914	1.914
0.005	0.000	0.000	0.000	0.000	0.024	0.410	2.686	1.909	1.909	1.904	1.924	1.919	1.929
0.005	-0.010	0.005	0.005	0.005	0.024	0.405	2.632	1.909	1.909	1.909	1.924	1.919	1.924
0.005	-0.005	0.000	0.000	0.010	-0.010	0.410	2.690	1.909	1.909	1.904	1.924	1.919	1.909
-0.010	-0.005	0.005	0.000	0.010	0.005	0.400	2.729	1.909	1.904	1.904	1.924	1.924	1.919
-0.005	0.000	0.005	0.005	0.010	-0.010	0.410	2.681	1.919	1.909	1.904	1.924	1.919	1.914
0.000	0.005	0.005	0.005	0.005	0.000	0.405	2.622	1.909	1.909	1.904	1.919	1.914	1.919
0.010	0.005	0.000	0.000	0.000	-0.010	0.405	2.686	1.904	1.904	1.904	1.919	1.914	1.919
0.000	0.000	-0.005	0.000	0.000	-0.005	0.400	2.681	1.904	1.899	1.904	1.919	1.914	1.914
-0.005	0.005	0.000	0.005	0.005	-0.024	0.405	2.710	1.904	1.899	1.899	1.919	1.914	1.909
0.005	-0.005	0.000	0.000	0.000	0.010	0.400	2.705	1.904	1.899	1.899	1.919	1.914	1.919
0.000	0.000	0.000	0.000	-0.005	0.000	0.415	2.695	1.904	1.904	1.899	1.914	1.914	1.914
0.000	0.005	0.000	0.005	0.000	0.015	0.410	2.686	1.909	1.909	1.904	1.919	1.914	1.919
0.010	0.000	0.000	0.000	0.005	0.015	0.415	2.686	1.909	1.904	1.904	1.919	1.914	1.919
0.000	0.015	0.010	0.000	0.000	0.010	0.410	2.710	1.909	1.909	1.904	1.924	1.914	1.914
0.000	0.005	0.000	0.005	0.000	0.010	0.415	2.705	1.909	1.909	1.904	1.924	1.919	1.919
0.005	-0.005	0.000	0.005	0.000	0.005	0.410	2.676	1.909	1.909	1.904	1.924	1.919	1.919
0.005	0.005	0.000	0.005	0.000	0.005	0.410	2.705	1.914	1.914	1.909	1.924	1.919	1.919
0.005	0.000	0.000	0.000	0.005	-0.024	0.396	2.690	1.909	1.909	1.909	1.929	1.924	1.909
0.010	-0.010	0.000	0.000	0.005	0.015	0.405	2.715	1.909	1.909	1.904	1.924	1.924	1.924
0.005	-0.015	0.005	0.010	0.000	0.005	0.400	2.681	1.904	1.909	1.909	1.924	1.924	1.924
-0.005	0.000	0.000	0.000	0.005	0.010	0.410	2.700	1.904	1.909	1.909	1.924	1.919	1.924
0.005	0.015	0.000	0.000	0.005	-0.005	0.405	2.686	1.909	1.909	1.909	1.924	1.919	1.919
0.005	0.010	0.000	0.005	0.005	0.010	0.400	2.710	1.909	1.909	1.909	1.924	1.919	1.919
-0.005	0.005	0.000	0.000	0.000	0.000	0.400	2.686	1.909	1.904	1.904	1.924	1.914	1.914
0.000	0.010	0.000	0.000	0.005	0.000	0.400	2.695	1.909	1.904	1.904	1.919	1.914	1.914
0.000	0.015	0.000	0.005	0.005	-0.015	0.405	2.686	1.909	1.904	1.904	1.924	1.914	1.909
0.000	0.005	0.005	0.005	0.000	-0.005	0.400	2.705	1.904	1.899	1.899	1.919	1.919	1.914
0.005	-0.005	0.005	0.000	-0.005	0.005	0.405	2.690	1.904	1.904	1.904	1.919	1.919	1.919
0.010	0.000	0.005	0.005	0.010	0.005	0.405	2.695	1.909	1.904	1.904	1.919	1.914	1.914
0.005	-0.010	0.000	0.000	0.005	0.015	0.410	2.661	1.904	1.899	1.904	1.924	1.919	1.924
0.000	-0.005	0.000	0.000	0.000	0.020	0.410	2.651	1.904	1.904	1.904	1.924	1.919	1.924
0.010	-0.010	0.000	0.000	-0.005	0.010	0.410	2.798	1.919	1.904	1.904	1.919	1.914	1.919
-0.005	-0.005	0.005	0.000	-0.005	-0.005	0.405	2.656	1.914	1.909	1.904	1.924	1.914	1.914
0.000	-0.005	0.000	0.000	-0.005	-0.015	0.415	2.632	1.909	1.909	1.909	1.924	1.919	1.914
0.005	0.015	0.005	0.000	0.000	0.015	0.410	2.744	1.914	1.919	1.909	1.924	1.919	1.924
0.000	0.010	0.010	0.000	0.000	0.010	0.400	2.769	1.919	1.914	1.909	1.929	1.919	1.919
0.000	0.010	0.000	0.010	0.005	0.005	0.400	2.646	1.924	1.919	1.909	1.929	1.924	1.919
0.000	0.010	0.005	0.000	0.005	-0.005	0.405	2.656	1.914	1.914	1.909	1.929	1.924	1.914
0.000	0.000	0.000	0.005	0.005	-0.005	0.405	2.651	1.904	1.909	1.909	1.929	1.919	1.919
0.005	0.005	0.010	0.000	0.005	0.000	0.410	2.637	1.890	1.904	1.909	1.924	1.919	1.919
-0.005	0.000	0.000	0.000	0.005	-0.010	0.405	2.666	1.890	1.895	1.899	1.919	1.919	1.914
-0.005	-0.005	0.000	0.000	0.000	0.000	0.410	2.739	1.899	1.895	1.895	1.919	1.914	1.914
0.005	0.005	-0.005	0.000	0.000	-0.010	0.405	2.681	1.909	1.899	1.899	1.914	1.914	1.919
0.000	0.000	0.005	0.000	0.000	0.000	0.410	2.729	1.909	1.904	1.895	1.914	1.914	1.914
0.010	0.005	0.005	0.005	0.000	-0.005	0.410	2.651	1.909	1.904	1.899	1.919	1.914	1.914
0.000	0.010	0.000	0.005	0.005	0.010	0.405	2.642	1.899	1.904	1.904	1.919	1.914	1.914
0.000	-0.005	0.000	0.000	0.000	-0.015	0.410	2.700	1.909	1.904	1.904	1.919	1.914	1.914
0.000	0.005	0.005	0.005	0.000	0.005	0.405	2.690	1.909	1.909	1.904	1.924	1.914	1.924
0.010	0.000	0.005	0.005	0.000	-0.020	0.400	2.715	1.914	1.909	1.904	1.924	1.914	1.914
0.000	0.000	0.000	0.000	0.000	0.010	0.415	2.690	1.909	1.909	1.904	1.924	1.919	1.924
0.000	0.000	0.005	0.005	0.000	0.000	0.405	2.700	1.909	1.909	1.904	1.924	1.919	1.919
0.000	0.000	0.005	0.005	0.005	-0.005	0.415	2.700	1.909	1.914	1.909	1.924	1.924	1.919
0.005	-0.015	0.005	0.010	0.005	0.005	0.415	2.686	1.914	1.904	1.909	1.929	1.919	1.919
0.005	-0.005	0.000	0.005	0.000	0.000	0.410	2.700	1.909	1.904	1.904	1.924	1.919	1.919
-0.005	-0.005	0.000	0.000	0.010	-0.015	0.405	2.686	1.904	1.904	1.904	1.924	1.919	1.914
-0.005	-0.010	0.000	0.005	0.005	0.015	0.410	2.695	1.904	1.904	1.899	1.919	1.919	1.924
0.000	-0.010	0.000	0.000	-0.005	0.015	0.410	2.700	1.909	1.904	1.899	1.914	1.914	1.924
-0.005	0.005	0.005	0.000	0.000	0.000	0.410	2.695	1.904	1.904	1.899	1.919	1.914	1.914
-0.010	0.010	0.000	-0.005	0.000	0.005	0.410	2.676	1.904	1.909	1.899	1.919	1.914	1.914
0.010	0.000	0.000	0.005	0.000	0.015	0.405	2.695	1.909	1.904	1.904	1.919	1.914	1.919
0.010	0.000	0.000	0.000	0.000	0.010	0.405	2.700	1.909	1.904	1.904	1.919	1.914	1.914
-0.005	0.000	0.000	0.005	0.000	0.015	0.405	2.686	1.904	1.904	1.899	1.919	1.914	1.914
0.000	0.005	0.000	0.000	0.005	0.010	0.410	2.705	1.909	1.904	1.899	1.919	1.914	1.914
0.005	0.005	0.000	-0.005	0.000	0.000	0.405	2.705	1.914	1.909	1.904	1.919	1.914	1.914
0.005	0.005	0.000	0.005	0.000	-0.020	0.405	2.695	1.914	1.909	1.909	1.924	1.914	1.909
0.000	0.024	-0.005	0.000	-0.005	0.005	0.400	2.690	1.914	1.914	1.909	1.924	1.914	1.919
0.000	0.020	0.000	0.000	-0.005	-0.020	0.400	2.715	1.909	1.914	1.909	1.924	1.919	1.909
0.010	0.015	0.000	0.000	0.005	0.005	0.405	2.715	1.919	1.919	1.909	1.929	1.924	1.919
0.005	0.010	0.000	0.005	0.005	0.010	0.410	2.686	1.909	1.909	1.914	1.929	1.924	1.924
0.000	-0.005	0.000	0.000	0.005	0.005	0.405	2.666	1.909	1.909	1.909	1.929	1.924	1.924
-0.005	-0.005	0.000	0.000	0.005	0.015	0.415	2.666	1.899	1.904	1.909	1.929	1.924	1.924
0.005	0.005	0.010	0.000	0.005	-0.005	0.405	2.661	1.904	1.904	1.904	1.924	1.919	1.919
0.000	-0.005	0.000	0.000	0.000	-0.020	0.410	2.788	1.895	1.899	1.899	1.924	1.919	1.914
-0.005	-0.005	0.005	0.005	0.000	0.010	0.400	2.632	1.890	1.890	1.899	1.919	1.919	1.924
0.000	0.010	-0.005	0.005	0.000	-0.010	0.410	2.642	1.890	1.895	1.895	1.919	1.919	1.919
0.000	-0.020	0.005	0.005	0.005	0.015	0.410	2.705	1.899	1.885	1.890	1.914	1.914	1.919
0.010	-0.020	0.005	0.010	0.005	0.010	0.405	2.637	1.909	1.895	1.890	1.914	1.914	1.919
0.000	-0.015	0.005	0.005	0.005	0.015	0.396	2.637	1.909	1.899	1.890	1.909	1.914	1.914
-0.005	-0.010	0.000	0.000	0.005	0.015	0.410	2.671	1.904	1.899	1.890	1.909	1.909	1.919
0.000	0.005	-0.005	0.000	0.000	-0.005	0.405	2.637	1.899	1.904	1.895	1.909	1.909	1.909
0.005	0.005	0.005	0.005	0.000	0.015	0.405	2.671	1.899	1.904	1.899	1.914	1.909	1.914
0.000	0.010	0.000	0.000	0.000	-0.010	0.405	2.734	1.909	1.909	1.899	1.914	1.909	1.909
0.000	0.010	0.005	0.000	-0.005	0.000	0.410	2.695	1.914	1.904	1.904	1.919	1.909	1.914
0.000	0.010	0.000	0.000	-0.005	0.010	0.400	2.734	1.914	1.909	1.904	1.919	1.914	1.914
0.005	0.010	0.005	0.005	0.000	-0.005	0.400	2.646	1.919	1.914	1.909	1.919	1.914	1.909
-0.015	0.015	0.000	0.000	0.000	-0.015	0.405	2.627	1.904	1.914	1.909	1.924	1.919	1.909
-0.005	0.020	0.005	0.005	0.005	0.010	0.405	2.681	1.904	1.909	1.909	1.924	1.919	1.919
-0.005	0.010	0.000	0.000	0.005	0.000	0.405	2.686	1.899	1.904	1.904	1.924	1.914	1.919
0.000	0.000	0.000	0.000	0.005	0.015	0.400	2.710	1.904	1.899	1.904	1.924	1.919	1.914
0.010	0.005	0.000	0.000	0.000	0.010	0.405	2.700	1.904	1.899	1.899	1.919	1.914	1.914
0.000	-0.005	0.000	0.000	0.005	0.005	0.400	2.676	1.899	1.899	1.899	1.919	1.914	1.914
0.010	0.005	0.000	0.000	0.005	-0.005	0.410	2.705	1.904	1.899	1.899	1.919	1.914	1.914
0.000	0.000	-0.005	0.005	0.005	0.005	0.400	2.690	1.899	1.899	1.895	1.914	1.909	1.909
0.010	-0.005	0.005	0.000	0.000	-0.024	0.405	2.715	1.909	1.899	1.895	1.919	1.909	1.904
0.000	-0.005	0.000	0.005	0.000	0.010	0.400	2.686	1.899	1.899	1.895	1.914	1.914	1.914
-0.005	-0.010	0.005	0.000	-0.005	0.000	0.405	2.705	1.904	1.899	1.899	1.919	1.914	1.914
0.010	-0.005	0.005	0.005	0.005	0.005	0.405	2.705	1.909	1.904	1.899	1.919	1.914	1.919
0.005	-0.005	0.000	0.000	-0.005	0.000	0.400	2.710	1.909	1.909	1.899	1.919	1.914	1.914
0.005	0.000	-0.005	0.005	0.000	0.010	0.400	2.690	1.909	1.909	1.899	1.919	1.914	1.914
0.010	-0.005	0.000	0.000	-0.005	0.010	0.400	2.681	1.909	1.909	1.904	1.919	1.919	1.924
0.000	0.005	0.000	0.000	0.000	-0.005	0.396	2.690	1.909	1.909	1.904	1.924	1.919	1.914
-0.005	0.010	0.000	0.010	0.005	0.015	0.400	2.686	1.909	1.909	1.904	1.924	1.919	1.919
0.010	0.010	0.000	0.000	0.000	0.015	0.400	2.700	1.909	1.914	1.904	1.924	1.919	1.924
0.005	0.000	0.000	0.000	0.000	-0.005	0.405	2.695	1.909	1.904	1.904	1.924	1.919	1.914
0.010	-0.005	0.000	0.000	0.005	-0.005	0.405	2.705	1.909	1.904	1.904	1.919	1.919	1.919
0.005	0.000	0.000	0.000	0.015	0.005	0.410	2.705	1.909	1.904	1.904	1.919	1.919	1.919
0.000	-0.005	0.000	0.000	0.010	0.015	0.396	2.710	1.904	1.899	1.899	1.924	1.919	1.919
0.005	-0.005	0.005	0.000	0.000	0.010	0.405	2.715	1.909	1.904	1.899	1.919	1.914	1.914
0.005	0.005	0.000	0.000	0.000	-0.010	0.396	2.690	1.904	1.904	1.899	1.919	1.909	1.909
0.000	0.010	0.000	0.005	0.005	0.000	0.400	2.661	1.899	1.904	1.899	1.919	1.914	1.919
-0.005	0.005	0.005	0.000	0.000	0.010	0.400	2.666	1.899	1.895	1.895	1.914	1.914	1.919
0.010	0.000	-0.005	0.005	0.000	0.000	0.405	2.651	1.899	1.899	1.899	1.919	1.914	1.909
0.000	-0.005	0.000	0.005	0.000	0.010	0.400	2.661	1.895	1.895	1.899	1.919	1.914	1.914
0.010	-0.005	0.000	0.005	0.000	-0.005	0.405	2.627	1.895	1.895	1.895	1.914	1.914	1.914
-0.005	0.005	0.000	0.005	0.000	-0.005	0.400	2.651	1.899	1.899	1.899	1.919	1.914	1.914
0.005	0.000	0.000	0.000	0.000	-0.010	0.400	2.749	1.909	1.904	1.899	1.914	1.914	1.909
-0.005	0.015	0.000	0.005	0.010	0.000	0.405	2.744	1.919	1.909	1.904	1.919	1.919	1.919
0.005	0.005	0.005	0.010	0.005	0.005	0.400	2.754	1.924	1.909	1.904	1.924	1.919	1.919
0.000	-0.005	0.010	0.005	0.000	-0.024	0.400	2.671	1.919	1.914	1.904	1.924	1.914	1.909
0.000	0.000	0.000	0.000	0.000	-0.029	0.400	2.651	1.914	1.914	1.904	1.919	1.914	1.909
0.000	0.000	0.000	0.000	0.000	0.010	0.400	2.695	1.909	1.909	1.909	1.924	1.919	1.924
0.010	0.000	-0.005	0.005	0.000	-0.020	0.396	2.720	1.914	1.914	1.904	1.924	1.919	1.914
0.005	-0.010	0.005	0.005	0.005	0.020	0.405	2.695	1.909	1.909	1.904	1.924	1.919	1.924
0.015	-0.005	0.005	0.000	0.005	0.020	0.400	2.725	1.914	1.909	1.904	1.919	1.914	1.924
0.015	-0.005	0.000	0.000	0.005	0.015	0.400	2.788	1.924	1.904	1.904	1.919	1.909	1.914
0.015	0.000	0.000	0.000	0.000	0.015	0.396	2.637	1.919	1.909	1.904	1.919	1.914	1.919
0.015	0.005	-0.005	0.000	0.005	0.015	0.400	2.690	1.919	1.914	1.904	1.919	1.914	1.919
0.000	0.010	0.000	0.000	0.005	-0.015	0.400	2.690	1.909	1.914	1.909	1.924	1.914	1.904
0.005	0.020	0.000	0.005	0.005	-0.015	0.410	2.700	1.909	1.919	1.909	1.929	1.919	1.914
0.005	0.020	0.000	0.000	-0.005	-0.005	0.400	2.705	1.909	1.914	1.909	1.929	1.919	1.914
0.000	0.015	0.000	0.000	-0.005	0.005	0.400	2.710	1.914	1.914	1.909	1.929	1.919	1.919
-0.010	0.010	0.000	0.005	0.000	0.000	0.400	2.710	1.914	1.909	1.914	1.929	1.924	1.919
0.000	0.000	0.000	0.005	0.000	0.000	0.410	2.690	1.914	1.909	1.909	1.929	1.924	1.924
0.000	0.000	-0.005	0.000	0.005	-0.010	0.405	2.705	1.909	1.909	1.909	1.929	1.924	1.919
0.005	-0.010	0.000	0.000	0.000	-0.020	0.400	2.700	1.909	1.909	1.909	1.929	1.929	1.924
0.000	-0.015	0.000	0.000	0.005	0.015	0.400	2.690	1.914	1.904	1.909	1.929	1.929	1.929
-0.005	-0.010	0.005	0.000	0.005	0.010	0.405	2.690	1.909	1.904	1.909	1.929	1.924	1.929
-0.005	-0.005	0.005	0.000	0.005	0.005	0.400	2.695	1.909	1.909	1.909	1.929	1.924	1.924
-0.005	0.000	0.005	0.000	0.005	0.010	0.405	2.686	1.904	1.909	1.909	1.924	1.924	1.929
-0.015	0.010	0.005	0.000	0.005	0.000	0.396	2.690	1.909	1.909	1.904	1.924	1.919	1.924
-0.005	0.005	0.000	0.005	0.005	0.005	0.400	2.686	1.904	1.909	1.904	1.924	1.919	1.924
0.005	0.005	0.000	0.010	0.010	0.000	0.400	2.686	1.909	1.904	1.904	1.924	1.919	1.919
0.015	0.010	0.000	0.005	-0.005	-0.005	0.400	2.690	1.909	1.909	1.904	1.919	1.914	1.919
-0.005	0.000	0.005	0.000	-0.005	0.005	0.400	2.705	1.904	1.904	1.899	1.919	1.914	1.914
-0.020	0.000	0.000	0.000	0.000	0.005	0.396	2.686	1.899	1.904	1.899	1.919	1.919	1.919
-0.015	0.000	0.005	0.000	0.000	0.015	0.405	2.710	1.909	1.904	1.899	1.919	1.919	1.919
-0.015	0.000	0.005	0.005	0.005	0.005	0.400	2.715	1.909	1.904	1.899	1.919	1.919	1.919
-0.005	0.000	0.000	0.000	0.005	0.010	0.396	2.700	1.914	1.909	1.904	1.919	1.919	1.919
0.000	0.005	0.000	0.000	-0.005	0.000	0.396	2.695	1.919	1.909	1.904	1.924	1.914	1.919
-0.005	0.005	-0.005	0.005	-0.005	0.000	0.400	2.632	1.909	1.914	1.904	1.924	1.919	1.919
0.005	0.010	0.000	0.005	0.000	-0.010	0.400	2.651	1.909	1.914	1.909	1.924	1.919	1.914
0.005	0.000	0.005	0.005	0.005	0.000	0.400	2.646	1.904	1.909	1.909	1.924	1.924	1.919
0.000	0.000	0.000	0.005	0.005	-0.005	0.396	2.788	1.904	1.909	1.904	1.924	1.924	1.924
0.015	0.015	0.005	0.000	0.005	0.010	0.405	2.637	1.904	1.909	1.909	1.924	1.924	1.924
0.010	0.024	0.005	0.005	0.005	-0.005	0.396	2.729	1.904	1.909	1.904	1.924	1.919	1.914
0.010	0.005	0.005	0.005	0.005	0.005	0.405	2.778	1.914	1.909	1.904	1.924	1.924	1.919
0.015	0.010	0.000	0.000	0.005	0.005	0.396	2.656	1.904	1.904	1.904	1.924	1.919	1.919
0.020	0.000	0.005	0.005	0.000	-0.005	0.400	2.646	1.895	1.904	1.899	1.919	1.914	1.909
0.000	0.000	0.000	0.000	0.000	-0.015	0.396	2.676	1.895	1.895	1.899	1.919	1.914	1.914
0.015	0.000	0.000	-0.005	0.005	0.005	0.400	2.632	1.890	1.895	1.899	1.919	1.914	1.919
0.015	0.005	0.005	0.005	0.005	0.000	0.400	2.681	1.890	1.895	1.895	1.919	1.914	1.914
0.010	-0.005	0.000	-0.005	0.005	0.005	0.410	2.749	1.904	1.895	1.895	1.919	1.914	1.919
0.000	0.000	0.000	0.005	0.000	0.005	0.396	2.686	1.909	1.899	1.899	1.914	1.909	1.919
0.005	-0.005	0.000	0.000	0.005	-0.015	0.405	2.637	1.899	1.899	1.899	1.919	1.914	1.914
0.010	-0.005	0.000	0.000	0.000	-0.005	0.405	2.788	1.919	1.904	1.899	1.919	1.914	1.914
-0.005	0.005	0.005	-0.005	-0.005	-0.010	0.400	2.627	1.919	1.909	1.904	1.919	1.909	1.909
-0.010	0.000	0.005	0.000	0.000	0.015	0.400	2.705	1.914	1.909	1.904	1.924	1.914	1.919
-0.005	0.000	0.000	0.000	0.000	0.010	0.405	2.690	1.914	1.914	1.909	1.924	1.919	1.924
0.000	-0.005	0.000	0.005	0.000	0.005	0.400	2.690	1.914	1.914	1.909	1.924	1.919	1.919
-0.005	-0.005	0.005	0.010	0.000	-0.005	0.400	2.690	1.904	1.909	1.909	1.924	1.919	1.914
-0.015	0.000	0.005	0.005	0.005	0.015	0.400	2.690	1.909	1.909	1.909	1.924	1.919	1.924
-0.010	0.000	0.000	0.005	0.000	0.024	0.405	2.715	1.909	1.909	1.909	1.924	1.919	1.924
-0.005	-0.010	0.005	0.000	0.005	0.005	0.400	2.690	1.909	1.904	1.904	1.924	1.919	1.914
0.005	0.000	0.000	0.005	0.010	-0.015	0.400	2.705	1.914	1.909	1.904	1.924	1.919	1.909
0.005	0.000	-0.005	0.000	0.010	0.015	0.405	2.681	1.904	1.904	1.899	1.919	1.914	1.919
0.005	0.000	0.000	0.005	0.010	0.015	0.400	2.695	1.904	1.904	1.904	1.924	1.919	1.919
-0.005	-0.010	0.000	0.005	0.005	0.010	0.400	2.686	1.899	1.899	1.899	1.919	1.914	1.914
-0.020	0.000	0.005	0.000	-0.005	0.000	0.400	2.695	1.899	1.899	1.899	1.919	1.914	1.909
-0.049	-0.005	0.005	0.015	0.000	0.000	0.405	2.695	1.890	1.899	1.899	1.919	1.914	1.914
-0.059	-0.010	0.010	-0.005	0.005	0.000	0.396	2.710	1.899	1.895	1.899	1.919	1.914	1.914
-0.044	0.010	0.000	0.000	0.005	-0.005	0.400	2.705	1.909	1.904	1.899	1.919	1.914	1.914
-0.029	0.015	0.000	0.005	0.000	-0.005	0.405	2.690	1.919	1.909	1.899	1.924	1.919	1.914
-0.015	0.010	0.000	0.000	0.000	-0.005	0.405	2.705	1.914	1.914	1.904	1.919	1.919	1.924
0.005	0.005	-0.005	0.010	0.000	-0.005	0.400	2.695	1.924	1.914	1.909	1.924	1.919	1.919
0.020	0.000	0.000	0.000	0.000	0.000	0.400	2.690	1.929	1.919	1.909	1.924	1.919	1.919
0.049	0.010	-0.005	0.005	0.000	0.000	0.400	2.690	1.929	1.924	1.914	1.929	1.924	1.919
0.083	0.000	0.005	0.000	0.000	0.000	0.410	2.720	1.934	1.924	1.914	1.929	1.924	1.919
0.078	0.000	0.005	0.010	0.005	-0.015	0.405	2.690	1.929	1.924	1.919	1.934	1.924	1.914
0.122	-0.005	0.000	0.005	0.000	-0.005	0.405	2.695	1.929	1.924	1.919	1.929	1.924	1.914
0.137	-0.005	0.000	0.000	0.005	-0.024	0.396	2.632	1.919	1.924	1.919	1.929	1.924	1.914
0.117	0.000	0.000	0.000	0.005	0.010	0.400	2.656	1.904	1.919	1.914	1.929	1.924	1.924
0.073	-0.005	-0.005	-0.005	0.005	0.010	0.396	2.651	1.885	1.904	1.909	1.929	1.924	1.924
0.044	0.000	0.000	0.005	0.005	0.010	0.405	2.793	1.895	1.899	1.909	1.929	1.924	1.924
0.010	-0.020	0.000	0.005	0.000	0.005	0.396	2.627	1.880	1.885	1.899	1.929	1.924	1.924
-0.020	-0.010	0.000	0.005	0.000	0.010	0.400	2.632	1.875	1.885	1.895	1.919	1.919	1.924
-0.029	-0.005	0.005	0.000	0.005	0.010	0.396	2.656	1.885	1.885	1.895	1.919	1.919	1.919
-0.034	-0.010	0.005	0.005	-0.005	-0.005	0.396	2.739	1.899	1.890	1.890	1.914	1.919	1.919
-0.039	0.000	-0.005	0.000	0.005	0.005	0.396	2.632	1.904	1.895	1.895	1.919	1.919	1.924
-0.034	0.005	0.000	0.000	0.000	-0.010	0.400	2.656	1.904	1.899	1.895	1.914	1.914	1.919
-0.039	-0.005	0.000	0.000	0.000	0.005	0.400	2.666	1.904	1.899	1.895	1.914	1.919	1.924
-0.039	0.000	0.005	0.000	-0.005	0.010	0.405	2.681	1.909	1.904	1.899	1.919	1.914	1.924
-0.029	0.005	0.005	0.000	-0.005	-0.005	0.405	2.710	1.914	1.909	1.899	1.919	1.914	1.919
-0.024	0.005	-0.005	0.000	0.000	0.005	0.396	2.681	1.914	1.909	1.899	1.919	1.914	1.919
-0.034	0.010	0.000	0.000	0.010	0.000	0.396	2.642	1.904	1.904	1.899	1.914	1.914	1.914
-0.039	0.005	0.010	0.005	0.000	0.000	0.400	2.642	1.890	1.899	1.904	1.919	1.914	1.914
-0.044	0.015	0.000	0.000	0.005	0.010	0.396	2.627	1.890	1.899	1.899	1.919	1.914	1.919
-0.034	0.000	0.010	-0.005	0.005	0.005	0.405	2.690	1.899	1.895	1.899	1.914	1.914	1.914
-0.039	0.010	0.010	0.000	0.005	0.005	0.405	2.686	1.895	1.895	1.895	1.914	1.914	1.909
-0.054	0.005	0.000	0.005	0.005	0.000	0.400	2.695	1.890	1.890	1.890	1.914	1.909	1.909
-0.049	-0.005	0.005	0.000	0.005	-0.005	0.410	2.705	1.899	1.890	1.890	1.909	1.909	1.909
-0.029	0.000	0.000	0.005	-0.005	0.005	0.405	2.690	1.904	1.895	1.890	1.909	1.909	1.914
-0.029	0.015	0.005	0.005	-0.005	0.000	0.405	2.695	1.909	1.904	1.895	1.914	1.909	1.909
0.000	0.015	0.000	0.005	0.005	0.005	0.405	2.681	1.914	1.904	1.895	1.914	1.909	1.909
0.005	0.015	0.000	0.000	-0.005	0.000	0.405	2.705	1.914	1.909	1.899	1.914	1.909	1.909
0.015	0.015	0.005	0.005	0.005	-0.015	0.400	2.710	1.924	1.914	1.904	1.919	1.914	1.904
0.029	0.010	0.005	0.005	-0.005	0.005	0.410	2.710	1.924	1.919	1.909	1.919	1.914	1.914
0.034	0.005	0.005	0.005	0.000	0.000	0.400	2.686	1.924	1.919	1.914	1.924	1.919	1.914
0.049	0.005	0.000	0.000	0.000	0.010	0.405	2.705	1.924	1.919	1.914	1.924	1.919	1.919
0.063	-0.005	0.005	0.000	0.000	-0.020	0.405	2.705	1.924	1.914	1.914	1.924	1.919	1.909
0.063	-0.005	0.005	0.005	0.000	0.020	0.405	2.700	1.919	1.919	1.914	1.929	1.924	1.924
0.068	0.000	0.000	0.000	0.005	0.000	0.400	2.705	1.919	1.914	1.914	1.929	1.924	1.919
0.068	-0.010	-0.005	0.000	0.000	0.005	0.405	2.681	1.909	1.909	1.909	1.929	1.919	1.914
0.054	-0.005	0.000	0.000	0.005	0.005	0.396	2.700	1.899	1.909	1.909	1.924	1.919	1.914
0.049	-0.005	0.000	0.000	0.005	0.010	0.400	2.681	1.899	1.904	1.909	1.929	1.919	1.924
0.029	0.000	0.000	0.005	0.005	-0.010	0.400	2.681	1.890	1.899	1.904	1.924	1.919	1.919
-0.005	-0.010	0.000	-0.005	0.005	0.005	0.400	2.690	1.890	1.890	1.895	1.919	1.919	1.914
-0.010	-0.015	0.000	-0.005	0.005	0.000	0.396	2.690	1.885	1.890	1.895	1.919	1.919	1.914
-0.024	-0.010	0.000	-0.005	0.000	0.000	0.396	2.690	1.890	1.890	1.899	1.914	1.914	1.919
-0.029	-0.005	0.005	0.005	0.000	0.000	0.396	2.695	1.899	1.890	1.890	1.919	1.914	1.919
-0.039	-0.005	0.000	0.005	0.000	0.000	0.396	2.666	1.895	1.895	1.895	1.919	1.914	1.919
-0.029	0.005	0.000	0.005	0.005	-0.005	0.400	2.666	1.899	1.895	1.895	1.919	1.914	1.914
-0.024	0.005	0.000	0.010	0.000	-0.015	0.400	2.646	1.899	1.899	1.895	1.914	1.914	1.914
-0.010	0.000	0.000	0.010	0.005	-0.005	0.405	2.808	1.904	1.899	1.899	1.919	1.914	1.914
0.000	0.005	0.000	0.010	0.000	-0.005	0.400	2.632	1.899	1.904	1.899	1.919	1.914	1.919
-0.005	0.010	0.005	0.005	0.005	0.010	0.405	2.637	1.895	1.904	1.899	1.919	1.914	1.919
-0.010	0.005	-0.005	0.005	0.005	0.005	0.400	2.744	1.904	1.904	1.899	1.919	1.914	1.919
-0.020	0.000	0.000	0.005	0.005	-0.005	0.396	2.646	1.895	1.899	1.899	1.914	1.914	1.914
-0.015	0.000	-0.005	0.000	0.005	0.005	0.400	2.656	1.904	1.899	1.899	1.919	1.914	1.919
-0.015	0.010	0.000	0.000	0.005	0.000	0.405	2.656	1.899	1.899	1.895	1.914	1.909	1.909
-0.005	0.005	0.000	-0.005	0.000	-0.005	0.400	2.734	1.899	1.899	1.895	1.914	1.909	1.909
-0.015	0.005	0.005	0.000	0.005	0.000	0.410	2.686	1.899	1.895	1.895	1.914	1.909	1.909
0.000	0.005	0.000	0.000	0.005	-0.005	0.400	2.622	1.890	1.895	1.890	1.909	1.909	1.904
-0.010	0.010	0.005	0.000	0.005	0.015	0.405	2.686	1.895	1.895	1.895	1.914	1.909	1.914
0.005	0.005	0.005	0.000	0.000	0.010	0.405	2.642	1.895	1.890	1.890	1.909	1.904	1.909
-0.005	0.005	0.000	0.000	0.005	0.005	0.410	2.808	1.904	1.895	1.890	1.909	1.904	1.904
-0.005	-0.005	0.000	0.000	-0.005	0.010	0.396	2.646	1.909	1.899	1.890	1.909	1.904	1.904
0.000	0.005	-0.005	0.000	0.000	0.010	0.410	2.690	1.914	1.904	1.895	1.914	1.909	1.909
0.000	0.000	0.000	0.000	-0.005	0.020	0.405	2.690	1.909	1.904	1.895	1.914	1.909	1.909
0.010	-0.015	0.000	0.000	-0.005	0.015	0.410	2.700	1.914	1.904	1.899	1.919	1.909	1.909
0.000	-0.005	0.005	0.005	0.000	0.015	0.405	2.705	1.909	1.909	1.904	1.919	1.914	1.914
0.005	0.010	0.005	0.000	0.005	0.000	0.405	2.690	1.914	1.914	1.909	1.919	1.914	1.909
0.000	-0.005	0.000	0.005	0.005	0.015	0.410	2.715	1.914	1.914	1.904	1.924	1.914	1.914
0.005	0.000	-0.005	0.005	0.005	0.000	0.410	2.676	1.909	1.909	1.904	1.924	1.914	1.914
0.005	0.005	0.005	0.000	0.005	-0.010	0.400	2.695	1.904	1.909	1.909	1.919	1.914	1.909
0.015	0.020	0.000	0.000	0.005	-0.005	0.405	2.690	1.904	1.909	1.904	1.924	1.914	1.914
0.005	0.020	0.010	0.000	0.010	0.000	0.405	2.690	1.909	1.909	1.909	1.924	1.914	1.909
0.005	0.005	0.000	0.000	0.005	0.000	0.405	2.681	1.895	1.904	1.904	1.919	1.914	1.914
0.005	0.005	-0.005	0.000	0.005	-0.024	0.405	2.681	1.895	1.895	1.899	1.919	1.909	1.904
0.005	0.000	0.000	-0.005	0.010	0.000	0.405	2.700	1.899	1.895	1.895	1.919	1.914	1.914
0.005	-0.005	0.000	-0.005	0.000	0.000	0.410	2.686	1.895	1.895	1.895	1.914	1.914	1.914
-0.005	0.000	0.010	0.005	0.000	0.000	0.405	2.705	1.899	1.895	1.895	1.914	1.909	1.914
-0.015	0.000	0.000	0.000	0.000	0.005	0.415	2.690	1.899	1.895	1.895	1.914	1.909	1.914
-0.020	0.000	0.000	0.000	-0.005	0.020	0.410	2.710	1.899	1.895	1.895	1.914	1.909	1.914
-0.005	0.010	0.000	0.000	-0.005	0.020	0.405	2.695	1.909	1.904	1.899	1.914	1.909	1.914
-0.010	-0.010	0.000	0.005	-0.005	0.010	0.396	2.690	1.909	1.904	1.899	1.914	1.914	1.914
0.005	0.000	0.000	0.000	0.000	-0.010	0.400	2.690	1.914	1.909	1.899	1.919	1.914	1.904
0.000	-0.005	0.005	0.005	0.000	0.010	0.405	2.715	1.919	1.909	1.904	1.924	1.919	1.919
0.015	-0.005	0.000	0.000	0.000	0.005	0.410	2.705	1.924	1.914	1.904	1.924	1.914	1.914
0.015	0.000	0.005	0.005	0.005	0.010	0.405	2.690	1.914	1.914	1.909	1.924	1.919	1.919
0.029	0.005	0.005	0.000	0.005	-0.005	0.405	2.671	1.914	1.919	1.909	1.929	1.924	1.914
0.034	0.000	-0.005	0.005	0.015	-0.005	0.405	2.656	1.909	1.914	1.909	1.929	1.919	1.919
0.044	0.000	0.000	0.000	0.010	-0.020	0.405	2.646	1.899	1.909	1.909	1.924	1.919	1.909
0.029	-0.005	0.000	0.000	0.000	-0.010	0.400	2.788	1.895	1.899	1.904	1.924	1.914	1.909
0.024	0.000	0.000	0.005	0.000	-0.015	0.405	2.642	1.895	1.899	1.899	1.919	1.914	1.914
0.015	-0.005	0.005	0.005	0.005	-0.005	0.410	2.637	1.890	1.890	1.899	1.919	1.914	1.914
0.015	0.000	-0.005	0.005	0.005	-0.005	0.405	2.764	1.899	1.895	1.895	1.914	1.914	1.914
0.010	-0.005	0.000	0.005	0.000	-0.005	0.405	2.632	1.890	1.890	1.895	1.914	1.914	1.914
-0.015	0.000	0.000	0.000	0.000	0.010	0.410	2.744	1.899	1.895	1.890	1.914	1.909	1.919
-0.015	0.015	0.005	0.000	0.005	0.015	0.410	2.671	1.895	1.895	1.895	1.909	1.909	1.919
-0.024	0.010	0.005	0.000	-0.005	0.034	0.410	2.637	1.890	1.895	1.895	1.914	1.909	1.924
-0.024	0.010	0.005	0.000	0.000	0.034	0.410	2.690	1.899	1.895	1.899	1.914	1.914	1.919
-0.029	0.000	0.000	-0.005	0.000	0.020	0.400	2.637	1.899	1.895	1.895	1.914	1.909	1.909
-0.024	0.005	0.000	0.000	-0.005	0.010	0.405	2.686	1.899	1.899	1.895	1.914	1.909	1.914
-0.015	0.000	0.005	0.005	-0.005	-0.005	0.400	2.651	1.899	1.899	1.899	1.914	1.914	1.909
-0.005	0.000	0.005	0.005	-0.005	-0.015	0.405	2.661	1.899	1.899	1.899	1.914	1.909	1.909
-0.005	0.005	0.005	-0.005	0.000	0.005	0.400	2.749	1.909	1.899	1.895	1.914	1.914	1.914
0.005	-0.005	0.000	0.005	-0.005	0.010	0.396	2.690	1.899	1.904	1.899	1.914	1.914	1.914
0.005	0.005	0.000	0.005	0.000	0.000	0.396	2.686	1.904	1.904	1.895	1.914	1.909	1.914
0.020	-0.005	0.005	0.005	0.005	-0.010	0.400	2.695	1.904	1.895	1.895	1.914	1.909	1.909
0.020	-0.005	0.000	0.005	0.005	-0.010	0.400	2.690	1.899	1.899	1.890	1.909	1.909	1.904
0.015	0.000	0.000	0.005	0.005	-0.010	0.415	2.700	1.899	1.904	1.895	1.909	1.909	1.904
0.015	-0.005	0.005	0.000	0.005	-0.034	0.405	2.676	1.904	1.895	1.895	1.909	1.904	1.899
0.029	0.000	0.000	0.005	0.000	-0.010	0.405	2.690	1.904	1.899	1.895	1.909	1.909	1.909
0.024	0.005	-0.005	0.005	0.000	-0.005	0.396	2.705	1.904	1.904	1.895	1.914	1.904	1.909
0.020	0.000	0.000	-0.005	0.000	0.000	0.405	2.705	1.909	1.899	1.899	1.909	1.904	1.909
0.015	-0.005	0.000	0.000	0.005	-0.005	0.400	2.700	1.904	1.904	1.899	1.914	1.909	1.909
-0.005	0.005	0.000	0.000	0.005	0.000	0.400	2.705	1.895	1.899	1.899	1.914	1.909	1.909
0.000	0.000	0.000	0.000	0.000	-0.020	0.396	2.705	1.904	1.904	1.899	1.919	1.909	1.904
-0.010	0.010	0.005	0.000	-0.005	0.015	0.400	2.695	1.899	1.899	1.899	1.919	1.909	1.914
-0.015	-0.005	-0.005	0.000	0.005	0.024	0.400	2.705	1.904	1.899	1.899	1.919	1.914	1.919
-0.010	-0.005	0.000	-0.005	-0.005	0.020	0.400	2.700	1.904	1.899	1.899	1.919	1.914	1.919
-0.010	0.005	0.000	-0.005	0.005	0.024	0.400	2.681	1.909	1.904	1.899	1.919	1.919	1.924
-0.005	-0.005	0.005	0.005	0.005	0.029	0.400	2.695	1.909	1.904	1.904	1.919	1.914	1.919
-0.010	0.010	0.005	0.005	0.005	0.024	0.396	2.705	1.909	1.904	1.904	1.919	1.919	1.919
-0.005	0.005	0.010	0.010	0.005	-0.015	0.410	2.700	1.909	1.904	1.904	1.924	1.914	1.904
-0.005	0.005	0.005	0.005	0.005	0.010	0.400	2.686	1.904	1.899	1.899	1.919	1.914	1.914
-0.005	-0.005	0.000	0.005	0.005	-0.015	0.400	2.700	1.904	1.899	1.899	1.914	1.909	1.904
-0.005	0.005	0.000	0.005	0.000	-0.015	0.405	2.700	1.904	1.899	1.899	1.914	1.909	1.909
0.015	0.010	0.000	0.010	0.005	-0.010	0.410	2.705	1.909	1.899	1.895	1.919	1.914	1.909
0.005	0.005	0.005	0.005	0.005	-0.010	0.400	2.661	1.899	1.904	1.899	1.914	1.914	1.909
0.005	0.005	0.005	0.005	0.000	-0.024	0.405	2.666	1.895	1.895	1.895	1.914	1.909	1.904
0.005	0.010	0.005	0.000	0.000	0.005	0.405	2.666	1.895	1.899	1.895	1.914	1.909	1.914
0.005	0.005	0.000	0.005	0.000	-0.005	0.410	2.808	1.909	1.895	1.895	1.914	1.909	1.909
0.000	0.005	-0.005	0.000	-0.005	0.005	0.405	2.632	1.904	1.899	1.895	1.914	1.909	1.914
0.000	-0.005	0.000	0.000	-0.005	0.029	0.405	2.656	1.899	1.899	1.899	1.914	1.909	1.919
-0.005	-0.005	0.000	0.000	0.000	0.015	0.410	2.764	1.904	1.899	1.899	1.919	1.914	1.914
0.005	0.000	0.005	0.000	-0.005	0.020	0.405	2.754	1.919	1.909	1.904	1.919	1.909	1.914
0.000	-0.015	0.005	0.000	0.010	0.020	0.405	2.651	1.909	1.909	1.904	1.924	1.919	1.919
-0.005	0.000	0.005	0.000	0.000	0.000	0.400	2.666	1.904	1.909	1.904	1.924	1.914	1.914
-0.005	-0.005	0.005	0.000	0.000	0.000	0.405	2.632	1.895	1.904	1.904	1.924	1.914	1.909
-0.015	-0.005	0.010	0.005	0.005	-0.015	0.410	2.676	1.899	1.899	1.904	1.924	1.919	1.914
0.005	-0.005	0.005	0.000	0.005	-0.005	0.410	2.632	1.895	1.895	1.899	1.914	1.919	1.914
0.015	0.000	0.005	0.000	0.000	0.000	0.396	2.686	1.895	1.899	1.899	1.919	1.914	1.914
0.010	0.015	0.000	0.000	0.000	0.000	0.405	2.637	1.890	1.899	1.899	1.914	1.909	1.909
0.015	0.024	0.000	0.010	0.000	0.005	0.405	2.646	1.904	1.899	1.895	1.914	1.909	1.909
0.000	0.024	0.000	-0.005	0.005	0.015	0.410	2.642	1.895	1.895	1.895	1.914	1.909	1.914
-0.005	0.010	0.005	0.000	0.000	0.020	0.405	2.690	1.899	1.895	1.895	1.914	1.909	1.914
0.000	0.015	0.005	0.000	-0.010	0.010	0.410	2.695	1.899	1.895	1.895	1.914	1.904	1.909
0.010	0.005	0.000	0.000	-0.005	-0.024	0.405	2.710	1.904	1.895	1.895	1.914	1.909	1.899
0.005	0.000	0.000	0.000	0.010	0.000	0.410	2.710	1.909	1.899	1.895	1.914	1.914	1.909
0.015	0.000	0.005	0.000	0.005	0.005	0.400	2.695	1.909	1.899	1.895	1.914	1.914	1.914
0.005	0.000	0.000	-0.005	0.010	0.000	0.405	2.710	1.909	1.899	1.899	1.914	1.914	1.909
-0.020	-0.005	0.000	0.000	0.010	0.000	0.405	2.686	1.904	1.904	1.899	1.914	1.914	1.914
-0.015	0.000	0.000	0.000	0.010	0.010	0.410	2.715	1.909	1.909	1.904	1.919	1.914	1.914
-0.029	0.000	0.005	0.000	0.010	0.010	0.405	2.710	1.909	1.909	1.904	1.919	1.919	1.919
-0.005	0.015	0.005	0.005	0.000	0.005	0.405	2.695	1.909	1.914	1.904	1.919	1.914	1.909
0.000	0.010	0.000	0.000	0.000	0.015	0.400	2.700	1.914	1.909	1.904	1.919	1.914	1.919
-0.005	0.010	0.000	0.000	0.010	0.010	0.405	2.686	1.904	1.909	1.904	1.924	1.914	1.914
0.000	0.005	-0.005	0.000	0.010	0.010	0.400	2.715	1.909	1.904	1.904	1.919	1.914	1.914
-0.010	0.000	0.000	0.000	0.005	0.005	0.405	2.690	1.904	1.899	1.904	1.919	1.914	1.914
-0.005	-0.005	0.005	0.005	0.000	-0.020	0.410	2.690	1.904	1.904	1.899	1.919	1.909	1.904
0.010	0.000	0.000	0.005	0.015	0.005	0.410	2.686	1.904	1.904	1.899	1.919	1.914	1.914
0.024	0.000	0.000	0.005	0.010	0.005	0.400	2.710	1.909	1.904	1.899	1.919	1.914	1.909
0.015	-0.010	-0.005	0.005	-0.005	0.000	0.410	2.700	1.904	1.899	1.895	1.914	1.909	1.909
-0.005	-0.005	-0.010	0.000	-0.005	0.005	0.405	2.686	1.899	1.899	1.895	1.914	1.909	1.909
0.000	-0.005	-0.005	0.000	-0.015	-0.020	0.400	2.710	1.904	1.904	1.899	1.919	1.909	1.904
0.000	0.005	-0.005	0.005	-0.034	0.010	0.400	2.715	1.909	1.904	1.899	1.919	1.904	1.909
0.000	-0.005	0.010	0.000	-0.039	0.034	0.405	2.705	1.909	1.909	1.904	1.919	1.909	1.919
0.010	0.000	0.010	-0.005	-0.034	0.010	0.410	2.695	1.909	1.909	1.909	1.919	1.909	1.909
0.020	0.005	0.015	0.000	-0.020	-0.020	0.405	2.632	1.904	1.909	1.909	1.924	1.919	1.909
0.024	0.010	0.020	-0.005	0.000	-0.024	0.405	2.666	1.904	1.909	1.909	1.929	1.924	1.909
0.029	0.010	0.015	-0.005	0.005	0.010	0.400	2.651	1.904	1.909	1.909	1.929	1.929	1.924
0.024	0.005	0.015	0.000	0.005	0.010	0.405	2.798	1.914	1.909	1.909	1.929	1.924	1.924
0.039	0.000	0.000	0.000	0.010	0.010	0.400	2.642	1.909	1.904	1.904	1.924	1.924	1.924
0.034	-0.010	-0.005	0.000	0.020	0.010	0.405	2.646	1.895	1.899	1.899	1.924	1.924	1.924
0.029	-0.024	-0.005	0.000	0.024	0.005	0.396	2.739	1.899	1.890	1.895	1.919	1.924	1.924
0.020	-0.020	-0.005	0.000	0.015	0.000	0.405	2.734	1.895	1.895	1.895	1.919	1.914	1.919
0.000	-0.020	-0.005	0.005	0.015	-0.020	0.400	2.739	1.895	1.890	1.890	1.914	1.914	1.909
-0.010	-0.005	0.000	0.000	0.010	-0.024	0.410	2.666	1.890	1.895	1.890	1.909	1.909	1.909
-0.010	0.000	-0.010	-0.005	0.005	-0.005	0.396	2.656	1.890	1.890	1.890	1.909	1.904	1.914
-0.024	0.024	-0.005	0.005	0.000	-0.015	0.410	2.695	1.890	1.899	1.895	1.914	1.909	1.914
-0.034	0.029	0.000	0.000	0.000	0.000	0.405	2.734	1.899	1.899	1.895	1.914	1.909	1.914
-0.024	0.020	0.005	0.005	0.000	0.000	0.405	2.710	1.904	1.895	1.899	1.914	1.909	1.909
-0.024	0.015	0.000	0.010	0.005	0.000	0.400	2.651	1.899	1.899	1.899	1.914	1.914	1.914
-0.024	0.015	0.005	0.005	0.010	-0.005	0.405	2.778	1.914	1.899	1.899	1.919	1.914	1.909
-0.024	-0.005	0.000	0.000	0.005	-0.010	0.400	2.637	1.909	1.899	1.899	1.919	1.909	1.909
-0.024	-0.005	0.000	0.000	0.010	0.005	0.415	2.686	1.909	1.904	1.899	1.919	1.914	1.919
-0.010	0.005	0.000	0.000	0.005	-0.005	0.410	2.695	1.914	1.909	1.899	1.919	1.914	1.914
-0.005	0.005	0.000	0.000	0.005	0.015	0.405	2.710	1.919	1.909	1.904	1.919	1.914	1.924
0.010	0.000	0.005	0.005	0.015	0.020	0.410	2.705	1.919	1.909	1.909	1.919	1.919	1.919
-0.005	-0.005	0.000	0.000	0.010	0.005	0.405	2.695	1.914	1.909	1.904	1.919	1.914	1.914
0.010	-0.005	0.000	-0.005	0.005	0.005	0.405	2.700	1.909	1.909	1.904	1.919	1.914	1.909
0.010	0.000	0.000	0.000	0.010	0.015	0.400	2.681	1.904	1.904	1.904	1.919	1.914	1.914
0.020	-0.005	0.005	0.000	0.005	0.005	0.405	2.705	1.909	1.904	1.904	1.919	1.914	1.909
0.029	-0.005	0.010	0.010	0.005	-0.020	0.405	2.690	1.909	1.904	1.904	1.919	1.909	1.904
0.005	0.005	0.005	0.000	0.005	0.015	0.405	2.686	1.899	1.904	1.899	1.919	1.909	1.914
0.010	-0.005	0.010	0.005	0.000	0.015	0.400	2.695	1.899	1.899	1.904	1.919	1.914	1.919
0.015	0.005	0.005	0.005	0.005	0.024	0.410	2.695	1.904	1.904	1.899	1.919	1.914	1.919
0.015	0.005	0.000	0.005	0.000	0.015	0.410	2.695	1.909	1.909	1.899	1.919	1.914	1.919
0.010	0.000	0.000	0.015	0.000	0.044	0.405	2.690	1.909	1.904	1.899	1.924	1.919	1.919
0.010	0.010	-0.005	0.000	0.000	0.020	0.400	2.700	1.904	1.909	1.904	1.919	1.914	1.914
0.000	0.005	0.000	0.000	-0.005	-0.024	0.410	2.686	1.904	1.904	1.904	1.924	1.914	1.904
-0.005	0.010	0.000	0.000	-0.005	-0.010	0.405	2.710	1.909	1.909	1.904	1.924	1.919	1.914
-0.005	0.010	0.005	0.005	-0.005	-0.015	0.405	2.690	1.909	1.909	1.904	1.924	1.919	1.909
-0.005	0.005	0.000	0.000	-0.010	-0.029	0.396	2.700	1.904	1.909	1.904	1.919	1.914	1.914
-0.010	-0.005	0.005	0.000	-0.005	-0.005	0.415	2.681	1.904	1.904	1.904	1.924	1.919	1.914
0.005	0.010	0.005	0.005	0.000	-0.024	0.405	2.690	1.909	1.909	1.904	1.924	1.924	1.914
-0.005	0.010	0.005	0.005	0.010	0.000	0.410	2.681	1.904	1.904	1.904	1.924	1.919	1.924
-0.010	0.000	0.000	0.000	-0.005	-0.015	0.405	2.681	1.899	1.899	1.899	1.919	1.914	1.914
0.000	-0.024	0.005	0.000	-0.005	0.005	0.405	2.632	1.895	1.890	1.895	1.919	1.919	1.919
-0.005	-0.020	0.005	0.005	0.010	0.000	0.400	2.651	1.890	1.890	1.895	1.914	1.919	1.919
0.000	-0.010	0.000	0.000	0.000	0.000	0.405	2.651	1.890	1.890	1.890	1.914	1.909	1.919
0.005	0.005	0.005	0.005	0.000	0.015	0.405	2.788	1.909	1.899	1.895	1.914	1.914	1.914
0.005	0.005	0.000	0.005	0.010	0.015	0.405	2.651	1.904	1.895	1.890	1.914	1.909	1.914
0.015	0.005	0.000	0.005	0.005	0.029	0.405	2.651	1.899	1.899	1.895	1.914	1.909	1.919
0.005	0.005	0.000	0.005	0.010	0.015	0.410	2.764	1.909	1.899	1.895	1.914	1.909	1.909
0.010	0.010	0.000	0.000	0.005	-0.005	0.405	2.739	1.919	1.909	1.899	1.914	1.909	1.909
0.005	0.000	0.005	0.000	-0.005	0.015	0.405	2.642	1.909	1.909	1.899	1.919	1.909	1.914
0.010	0.005	0.000	-0.005	-0.005	0.024	0.405	2.690	1.909	1.909	1.904	1.919	1.909	1.914
0.005	0.010	0.000	0.005	0.000	0.020	0.405	2.729	1.909	1.914	1.904	1.924	1.914	1.914
0.010	0.005	0.005	0.005	0.000	0.005	0.400	2.690	1.909	1.914	1.909	1.924	1.919	1.914
0.005	-0.005	0.005	0.000	0.000	0.000	0.396	2.744	1.914	1.909	1.909	1.924	1.914	1.909
0.000	0.005	0.005	-0.005	-0.005	-0.015	0.405	2.700	1.909	1.914	1.909	1.924	1.914	1.909
-0.005	-0.005	0.000	0.005	-0.005	-0.005	0.400	2.715	1.909	1.904	1.904	1.924	1.919	1.914
-0.005	0.005	0.005	0.000	0.010	0.000	0.410	2.671	1.909	1.909	1.909	1.924	1.919	1.914
0.000	0.000	0.000	0.000	0.010	-0.010	0.405	2.622	1.899	1.904	1.904	1.924	1.919	1.909
0.005	0.005	0.000	0.000	0.000	0.005	0.410	2.695	1.899	1.904	1.899	1.919	1.914	1.919
0.000	-0.010	-0.005	0.005	0.005	0.005	0.405	2.676	1.895	1.895	1.899	1.919	1.914	1.914
-0.010	0.000	0.005	0.005	0.015	0.000	0.405	2.695	1.895	1.895	1.899	1.919	1.914	1.914
-0.015	0.005	0.000	0.000	0.005	0.000	0.405	2.686	1.899	1.895	1.895	1.919	1.914	1.914
-0.010	0.000	0.000	0.000	0.000	-0.020	0.405	2.695	1.904	1.899	1.895	1.919	1.914	1.904
-0.005	0.000	0.000	0.005	0.000	-0.005	0.396	2.705	1.899	1.899	1.899	1.914	1.914	1.914
0.000	0.000	0.005	0.005	0.005	-0.020	0.400	2.686	1.904	1.899	1.895	1.919	1.914	1.909
-0.005	0.005	0.000	0.000	0.005	-0.015	0.396	2.695	1.904	1.904	1.895	1.914	1.914	1.914
0.000	0.000	0.000	0.000	-0.005	0.000	0.405	2.695	1.909	1.909	1.899	1.919	1.914	1.919
0.000	0.010	0.005	0.005	-0.010	-0.024	0.400	2.695	1.914	1.909	1.904	1.919	1.909	1.909
0.015	0.010	0.000	0.005	0.000	0.005	0.405	2.695	1.914	1.914	1.909	1.919	1.919	1.924
0.015	0.000	0.000	0.005	0.000	0.015	0.410	2.700	1.914	1.914	1.909	1.924	1.919	1.924
0.015	0.005	0.000	0.005	0.005	0.015	0.410	2.700	1.914	1.909	1.909	1.924	1.919	1.924
0.005	0.005	0.000	0.000	-0.005	0.020	0.410	2.705	1.909	1.909	1.904	1.924	1.914	1.924
0.000	0.005	0.000	0.000	0.000	0.020	0.405	2.690	1.904	1.909	1.909	1.924	1.919	1.919
0.005	0.000	-0.005	0.000	-0.005	0.024	0.396	2.690	1.904	1.904	1.904	1.924	1.914	1.919
0.000	-0.005	0.000	-0.005	-0.005	0.020	0.400	2.715	1.909	1.899	1.904	1.924	1.914	1.914
0.005	0.005	0.000	0.000	0.000	0.015	0.410	2.700	1.909	1.904	1.904	1.919	1.919	1.914
-0.010	0.005	0.005	0.000	-0.005	-0.005	0.410	2.695	1.899	1.899	1.904	1.919	1.909	1.909
-0.015	0.000	0.000	0.005	-0.010	-0.029	0.410	2.710	1.899	1.895	1.899	1.919	1.909	1.904
0.005	0.000	0.000	0.005	-0.005	0.000	0.400	2.700	1.904	1.899	1.899	1.914	1.909	1.909
0.000	0.005	0.005	0.000	-0.024	0.010	0.400	2.686	1.909	1.899	1.899	1.914	1.909	1.914
0.024	-0.010	0.010	0.000	-0.005	0.024	0.405	2.690	1.914	1.899	1.899	1.919	1.914	1.919
0.034	0.000	0.010	0.005	-0.005	0.020	0.405	2.671	1.914	1.904	1.899	1.919	1.919	1.919
0.029	0.000	0.005	0.005	0.000	0.010	0.396	2.661	1.904	1.909	1.899	1.924	1.919	1.914
0.024	0.010	0.000	-0.005	0.005	0.005	0.400	2.666	1.909	1.914	1.904	1.924	1.919	1.914
0.010	0.000	0.000	0.000	0.010	-0.015	0.400	2.788	1.914	1.914	1.904	1.924	1.924	1.914
0.020	0.010	0.000	0.000	0.010	-0.010	0.405	2.642	1.904	1.909	1.909	1.924	1.919	1.919
0.000	-0.005	0.005	0.000	0.010	-0.015	0.405	2.642	1.895	1.899	1.909	1.924	1.919	1.919
-0.005	-0.005	0.000	0.000	0.015	-0.039	0.410	2.749	1.904	1.904	1.904	1.924	1.919	1.914
-0.010	-0.005	0.005	0.000	0.010	-0.005	0.405	2.734	1.899	1.899	1.899	1.924	1.919	1.919
-0.020	-0.005	-0.005	0.005	0.010	-0.005	0.410	2.729	1.899	1.899	1.899	1.924	1.919	1.924
-0.010	-0.005	0.000	0.005	0.005	-0.020	0.405	2.651	1.899	1.899	1.899	1.919	1.914	1.909
-0.020	-0.005	0.005	0.005	0.005	0.000	0.405	2.749	1.899	1.895	1.895	1.919	1.919	1.924
-0.024	0.000	0.000	0.000	0.000	-0.010	0.400	2.695	1.904	1.895	1.895	1.914	1.909	1.919
-0.024	0.005	0.000	0.000	0.010	-0.010	0.405	2.642	1.895	1.899	1.890	1.914	1.914	1.914
-0.010	0.010	0.000	0.005	0.010	0.015	0.400	2.705	1.904	1.899	1.895	1.914	1.914	1.919
-0.010	0.005	0.005	0.000	0.005	0.000	0.410	2.734	1.904	1.899	1.895	1.914	1.909	1.914
0.010	0.010	0.000	0.005	0.005	0.010	0.410	2.661	1.924	1.909	1.899	1.914	1.909	1.914
0.015	0.010	0.000	0.005	0.005	-0.024	0.410	2.637	1.914	1.914	1.904	1.919	1.909	1.904
0.015	0.015	-0.005	0.005	0.000	0.005	0.396	2.705	1.914	1.914	1.904	1.919	1.909	1.914
0.020	0.010	-0.005	-0.005	-0.005	-0.015	0.405	2.690	1.914	1.909	1.904	1.919	1.909	1.909
0.005	-0.005	0.005	0.000	0.000	0.005	0.405	2.710	1.914	1.909	1.909	1.924	1.914	1.914
0.020	-0.005	0.005	0.000	-0.005	0.020	0.410	2.700	1.919	1.914	1.909	1.924	1.919	1.924
0.010	-0.010	0.005	0.005	0.005	-0.010	0.400	2.681	1.914	1.909	1.909	1.929	1.919	1.914
0.015	-0.005	0.005	0.000	0.000	0.024	0.400	2.710	1.914	1.914	1.914	1.929	1.924	1.924
0.020	-0.005	-0.005	0.005	0.000	0.024	0.400	2.676	1.909	1.914	1.909	1.924	1.919	1.924
0.010	0.005	0.005	0.000	0.010	0.015	0.410	2.700	1.909	1.909	1.909	1.929	1.924	1.924
-0.005	0.000	0.000	0.000	0.000	0.010	0.410	2.695	1.899	1.909	1.909	1.929	1.919	1.924
-0.010	0.010	0.005	0.000	-0.005	0.005	0.410	2.705	1.904	1.909	1.909	1.924	1.919	1.914
-0.010	-0.005	0.005	0.005	-0.015	0.010	0.405	2.705	1.904	1.899	1.904	1.924	1.914	1.919
-0.010	-0.005	0.000	0.000	0.000	0.005	0.410	2.710	1.904	1.899	1.904	1.924	1.919	1.919
-0.005	0.000	0.000	0.000	0.000	0.010	0.405	2.695	1.904	1.904	1.899	1.919	1.919	1.914
-0.005	0.000	0.000	0.005	0.005	0.010	0.400	2.681	1.904	1.904	1.899	1.919	1.919	1.914
0.000	-0.005	0.005	0.005	0.010	-0.015	0.410	2.695	1.904	1.904	1.899	1.919	1.919	1.909
0.000	0.010	0.005	0.015	0.015	0.010	0.400	2.695	1.904	1.899	1.899	1.924	1.924	1.924
0.005	0.005	0.005	0.000	0.005	0.015	0.405	2.715	1.909	1.904	1.904	1.919	1.919	1.919
0.000	-0.005	0.005	0.005	0.005	0.010	0.400	2.695	1.914	1.904	1.899	1.919	1.919	1.919
-0.005	-0.005	0.005	0.010	0.010	0.005	0.400	2.700	1.904	1.909	1.904	1.924	1.919	1.919
0.005	0.005	0.000	0.000	0.000	0.000	0.405	2.695	1.909	1.909	1.904	1.919	1.914	1.919
-0.005	-0.005	0.000	0.000	0.005	-0.005	0.410	2.705	1.909	1.909	1.904	1.924	1.919	1.919
0.000	-0.005	-0.005	0.000	0.000	0.000	0.400	2.710	1.914	1.909	1.904	1.924	1.919	1.914
0.015	0.000	0.005	0.000	0.000	0.005	0.410	2.686	1.919	1.914	1.909	1.924	1.919	1.919
0.010	-0.010	0.000	0.005	0.010	0.000	0.405	2.676	1.909	1.909	1.909	1.929	1.919	1.919
0.000	-0.005	0.000	0.000	0.000	-0.005	0.405	2.661	1.904	1.904	1.904	1.924	1.919	1.914
-0.005	-0.010	-0.005	0.000	0.000	-0.005	0.400	2.646	1.895	1.899	1.904	1.919	1.914	1.914
-0.034	0.000	-0.005	0.000	-0.010	-0.005	0.410	2.778	1.899	1.904	1.899	1.919	1.914	1.914
-0.029	0.005	0.000	0.000	-0.024	-0.020	0.405	2.637	1.895	1.895	1.899	1.919	1.909	1.904
-0.024	-0.005	0.000	0.005	-0.010	0.000	0.405	2.734	1.895	1.895	1.899	1.919	1.914	1.914
-0.020	-0.005	-0.005	0.000	-0.005	-0.005	0.410	2.764	1.909	1.899	1.895	1.914	1.914	1.909
-0.005	0.000	-0.005	0.000	0.005	0.005	0.400	2.725	1.914	1.904	1.899	1.914	1.914	1.914
0.010	0.005	0.000	0.000	0.005	-0.015	0.405	2.744	1.919	1.909	1.899	1.919	1.914	1.909
0.029	0.020	0.000	0.000	0.005	0.005	0.405	2.661	1.919	1.914	1.904	1.919	1.914	1.914
0.029	0.005	0.005	0.005	0.005	0.010	0.410	2.651	1.909	1.914	1.909	1.924	1.919	1.919
0.034	-0.005	0.010	0.005	0.010	0.005	0.400	2.700	1.914	1.909	1.909	1.929	1.919	1.919
0.034	0.005	0.000	0.005	0.005	-0.015	0.400	2.695	1.909	1.914	1.909	1.929	1.919	1.919
0.044	0.010	0.005	0.000	0.000	-0.010	0.405	2.700	1.914	1.914	1.909	1.929	1.919	1.919
0.034	0.010	0.000	0.000	0.000	0.010	0.405	2.729	1.914	1.914	1.909	1.929	1.924	1.924
0.029	0.000	0.005	0.005	-0.010	-0.020	0.410	2.661	1.909	1.909	1.914	1.929	1.919	1.914
0.005	0.010	0.000	0.000	0.000	-0.020	0.410	2.632	1.899	1.904	1.909	1.929	1.924	1.919
0.010	0.010	0.005	0.000	0.000	-0.005	0.396	2.700	1.899	1.909	1.909	1.929	1.924	1.924
-0.010	0.000	0.000	0.000	0.010	-0.005	0.396	2.690	1.899	1.899	1.904	1.929	1.924	1.919
-0.020	0.000	0.000	0.000	0.005	0.000	0.400	2.700	1.895	1.895	1.899	1.924	1.924	1.924
-0.015	-0.005	0.000	0.005	0.010	-0.015	0.400	2.695	1.899	1.895	1.899	1.919	1.924	1.924
-0.005	0.024	0.005	0.005	0.005	0.010	0.400	2.690	1.899	1.899	1.899	1.919	1.919	1.924
-0.010	0.010	0.005	0.000	-0.005	0.005	0.400	2.705	1.899	1.895	1.895	1.914	1.909	1.919
-0.010	-0.005	0.005	0.000	-0.005	0.015	0.405	2.705	1.899	1.895	1.895	1.914	1.909	1.919
-0.015	0.000	0.000	0.000	-0.010	0.005	0.405	2.700	1.904	1.899	1.895	1.914	1.909	1.914
-0.024	0.005	-0.005	0.000	0.000	0.010	0.396	2.690	1.904	1.899	1.895	1.914	1.914	1.914
-0.029	0.005	0.000	0.000	0.005	0.015	0.400	2.715	1.909	1.899	1.895	1.914	1.914	1.914
-0.039	0.005	0.000	0.000	0.000	-0.010	0.400	2.705	1.904	1.899	1.899	1.914	1.909	1.904
-0.029	0.000	-0.005	-0.005	0.005	0.010	0.400	2.700	1.909	1.904	1.899	1.919	1.914	1.914
-0.015	-0.005	0.000	0.005	-0.005	0.005	0.405	2.681	1.914	1.904	1.904	1.919	1.909	1.914
-0.020	-0.005	0.005	0.000	-0.015	-0.005	0.410	2.710	1.919	1.909	1.909	1.919	1.909	1.909
-0.005	0.000	-0.005	0.000	-0.005	0.000	0.405	2.695	1.919	1.909	1.904	1.919	1.914	1.909
0.005	-0.005	-0.010	0.000	0.034	-0.010	0.410	2.695	1.919	1.914	1.904	1.924	1.929	1.914
0.005	0.000	-0.010	0.005	0.034	-0.039	0.400	2.710	1.919	1.919	1.909	1.924	1.924	1.914
0.024	0.010	-0.005	0.000	0.024	-0.005	0.405	2.705	1.919	1.919	1.914	1.924	1.919	1.924
0.054	-0.005	0.005	0.000	0.015	-0.020	0.400	2.695	1.924	1.914	1.914	1.924	1.919	1.914
0.054	-0.010	0.010	0.010	-0.005	0.010	0.405	2.681	1.914	1.909	1.914	1.929	1.914	1.919
0.054	-0.015	0.015	0.000	-0.005	-0.010	0.405	2.695	1.909	1.909	1.914	1.929	1.914	1.914
0.034	-0.005	0.010	0.000	0.015	0.010	0.410	2.700	1.909	1.904	1.909	1.924	1.924	1.924
0.020	-0.005	0.015	0.000	0.029	-0.015	0.405	2.690	1.899	1.904	1.909	1.924	1.924	1.914
0.015	-0.005	0.010	0.000	0.010	-0.010	0.410	2.671	1.895	1.899	1.904	1.924	1.919	1.919
0.000	-0.005	0.010	0.005	0.000	-0.005	0.400	2.671	1.890	1.895	1.899	1.924	1.914	1.914
-0.005	-0.005	0.005	0.005	0.000	0.010	0.405	2.656	1.895	1.895	1.899	1.924	1.919	1.924
-0.024	0.000	0.005	0.005	0.005	-0.005	0.400	2.803	1.909	1.899	1.899	1.924	1.919	1.919
-0.029	0.005	0.000	0.005	0.015	0.020	0.400	2.637	1.904	1.909	1.899	1.924	1.924	1.924
-0.015	0.000	-0.005	0.000	0.005	0.015	0.400	2.754	1.914	1.904	1.899	1.919	1.919	1.924
-0.020	0.000	-0.005	0.000	0.000	0.029	0.410	2.729	1.919	1.909	1.904	1.919	1.919	1.924
-0.039	0.000	0.000	0.000	0.015	-0.005	0.405	2.705	1.914	1.909	1.904	1.924	1.924	1.919
-0.015	-0.005	0.000	0.010	0.024	0.029	0.410	2.744	1.924	1.909	1.909	1.924	1.924	1.929
-0.015	0.000	-0.005	0.005	0.029	0.010	0.400	2.666	1.914	1.914	1.909	1.924	1.924	1.924
-0.010	0.000	-0.005	0.005	0.015	-0.005	0.405	2.646	1.914	1.914	1.909	1.924	1.919	1.919
0.005	-0.005	0.000	0.005	0.010	0.020	0.410	2.690	1.914	1.909	1.909	1.924	1.914	1.924
-0.005	0.005	0.005	0.005	0.015	0.015	0.405	2.739	1.914	1.914	1.909	1.924	1.919	1.919
-0.005	0.005	0.000	0.010	0.015	0.015	0.400	2.681	1.909	1.909	1.909	1.924	1.919	1.919
0.000	0.010	0.005	0.005	0.010	0.005	0.396	2.739	1.909	1.909	1.909	1.929	1.914	1.914
0.000	0.024	0.005	0.005	0.010	0.005	0.405	2.651	1.904	1.909	1.909	1.924	1.914	1.914
-0.010	0.015	0.000	0.000	0.010	0.005	0.405	2.749	1.909	1.904	1.904	1.924	1.914	1.914
0.010	0.010	0.000	0.005	0.010	0.005	0.410	2.681	1.909	1.904	1.904	1.924	1.919	1.919
0.015	0.005	0.000	0.000	0.000	0.020	0.405	2.681	1.909	1.904	1.904	1.924	1.914	1.919
0.010	0.000	0.000	0.005	-0.005	0.010	0.410	2.681	1.909	1.904	1.904	1.924	1.914	1.919
0.015	0.000	0.005	0.005	-0.015	0.024	0.405	2.686	1.909	1.909	1.904	1.924	1.914	1.919
0.000	0.005	0.000	0.000	-0.005	0.020	0.410	2.695	1.909	1.904	1.904	1.924	1.919	1.919
0.015	0.000	0.000	0.000	-0.005	0.024	0.405	2.695	1.909	1.909	1.904	1.924	1.919	1.919
0.005	-0.005	0.010	0.005	0.000	0.020	0.410	2.710	1.914	1.904	1.909	1.929	1.924	1.924
0.010	0.000	0.010	0.000	-0.020	-0.005	0.396	2.705	1.914	1.914	1.914	1.929	1.919	1.914
-0.005	-0.005	0.010	0.000	-0.010	-0.005	0.400	2.686	1.909	1.909	1.909	1.929	1.919	1.919
0.005	-0.005	0.010	0.000	-0.010	0.005	0.405	2.705	1.914	1.914	1.909	1.929	1.919	1.919
0.010	0.000	0.005	0.005	0.000	0.000	0.410	2.695	1.909	1.909	1.909	1.929	1.924	1.919
0.000	0.005	-0.005	0.005	-0.010	-0.010	0.405	2.690	1.909	1.909	1.904	1.929	1.919	1.914
0.000	0.000	-0.005	0.000	-0.010	-0.039	0.400	2.705	1.909	1.909	1.904	1.924	1.919	1.909
-0.005	0.000	-0.005	0.000	-0.010	-0.015	0.400	2.695	1.909	1.904	1.904	1.924	1.919	1.914
0.000	0.005	-0.005	0.005	-0.010	-0.010	0.405	2.695	1.904	1.904	1.904	1.919	1.919	1.919
0.000	-0.015	0.000	0.005	-0.015	-0.010	0.405	2.695	1.904	1.899	1.899	1.919	1.914	1.919
0.000	-0.005	0.000	0.000	-0.010	-0.010	0.400	2.695	1.904	1.899	1.899	1.919	1.914	1.919
0.000	0.000	0.000	0.000	-0.005	-0.029	0.400	2.681	1.904	1.904	1.899	1.919	1.914	1.914
0.000	0.000	0.000	0.000	-0.005	-0.010	0.400	2.705	1.904	1.904	1.899	1.919	1.919	1.919
0.005	0.000	0.005	0.000	-0.010	-0.005	0.410	2.705	1.909	1.904	1.904	1.919	1.914	1.914
0.000	0.000	0.010	0.000	-0.005	0.015	0.405	2.710	1.914	1.904	1.904	1.924	1.919	1.924
0.005	0.005	0.010	0.000	0.000	-0.010	0.400	2.705	1.914	1.909	1.904	1.924	1.914	1.919
-0.005	0.000	0.005	0.000	0.005	-0.010	0.400	2.700	1.909	1.909	1.909	1.924	1.919	1.919
0.005	0.010	0.000	0.000	0.000	0.000	0.405	2.642	1.909	1.909	1.904	1.924	1.924	1.929
-0.005	0.000	0.000	-0.005	0.000	-0.005	0.400	2.661	1.904	1.904	1.904	1.924	1.919	1.924
0.000	-0.010	-0.010	0.000	0.000	0.015	0.405	2.656	1.904	1.904	1.904	1.924	1.924	1.929
-0.005	0.005	0.000	0.005	0.015	0.015	0.400	2.778	1.919	1.914	1.909	1.924	1.924	1.929
0.000	0.015	-0.005	0.000	0.005	-0.020	0.405	2.637	1.909	1.909	1.909	1.924	1.919	1.914
0.010	0.000	0.000	0.000	0.000	0.000	0.405	2.754	1.914	1.904	1.904	1.924	1.919	1.924
-0.005	0.000	0.005	0.000	0.000	-0.024	0.405	2.739	1.914	1.904	1.899	1.924	1.914	1.909
0.000	0.005	0.000	0.000	0.000	-0.020	0.405	2.749	1.919	1.909	1.904	1.919	1.914	1.914
-0.005	0.005	0.000	0.000	0.000	-0.015	0.410	2.739	1.914	1.909	1.904	1.924	1.914	1.919
0.005	0.010	0.000	0.005	0.005	-0.010	0.400	2.676	1.909	1.909	1.904	1.919	1.914	1.914
0.000	0.000	0.005	0.005	0.010	0.015	0.410	2.734	1.909	1.904	1.904	1.924	1.919	1.919
0.000	-0.005	0.000	0.000	0.015	0.015	0.400	2.681	1.909	1.904	1.904	1.919	1.919	1.924
-0.005	0.010	0.005	0.000	0.005	-0.010	0.405	2.729	1.909	1.909	1.904	1.919	1.914	1.914
0.010	0.005	0.005	0.000	0.000	0.005	0.396	2.705	1.919	1.909	1.909	1.924	1.919	1.919
0.000	0.010	0.005	0.005	0.005	0.010	0.405	2.729	1.919	1.914	1.909	1.924	1.919	1.924
0.005	0.000	0.005	0.000	0.010	-0.005	0.396	2.651	1.909	1.914	1.909	1.924	1.919	1.919
0.010	0.005	0.005	0.000	0.000	-0.020	0.405	2.632	1.909	1.919	1.914	1.929	1.919	1.914
0.010	0.000	0.005	0.000	-0.005	0.015	0.410	2.710	1.909	1.914	1.914	1.929	1.919	1.924
0.015	-0.005	-0.005	-0.005	0.000	0.000	0.405	2.690	1.914	1.909	1.909	1.929	1.924	1.924
0.010	-0.005	0.005	-0.005	-0.005	0.024	0.400	2.686	1.914	1.909	1.909	1.924	1.919	1.929
0.000	0.000	0.000	-0.005	-0.005	0.015	0.400	2.690	1.904	1.909	1.909	1.929	1.924	1.924
-0.005	-0.005	0.000	0.000	0.000	0.015	0.410	2.686	1.914	1.904	1.909	1.929	1.919	1.924
0.000	-0.005	0.000	0.000	-0.010	-0.020	0.405	2.700	1.909	1.904	1.909	1.924	1.919	1.914
0.000	0.000	0.000	0.005	0.000	0.020	0.400	2.705	1.904	1.904	1.904	1.924	1.924	1.924
-0.005	-0.005	-0.005	0.005	-0.015	0.010	0.396	2.700	1.909	1.904	1.899	1.924	1.919	1.919
-0.015	-0.005	0.000	0.005	-0.010	0.005	0.405	2.705	1.909	1.899	1.899	1.924	1.919	1.919
0.000	0.000	0.005	0.005	0.015	-0.029	0.405	2.715	1.909	1.904	1.904	1.924	1.924	1.914
-0.010	0.010	0.005	0.005	0.020	-0.024	0.400	2.690	1.904	1.904	1.899	1.924	1.924	1.914
-0.024	0.005	0.000	0.000	0.020	-0.005	0.396	2.700	1.899	1.904	1.899	1.919	1.919	1.924
-0.020	0.005	0.000	0.005	0.015	-0.010	0.410	2.686	1.909	1.904	1.904	1.919	1.919	1.924
-0.005	0.010	0.000	0.005	-0.005	-0.010	0.405	2.681	1.914	1.904	1.904	1.919	1.909	1.914
-0.010	0.005	0.000	0.005	0.000	0.010	0.400	2.700	1.909	1.909	1.909	1.924	1.919	1.924
0.000	0.000	0.000	0.005	-0.005	0.010	0.400	2.686	1.914	1.909	1.904	1.924	1.914	1.924
0.005	0.000	-0.005	0.000	-0.005	-0.010	0.405	2.700	1.919	1.914	1.904	1.924	1.919	1.919
0.015	0.005	0.005	0.005	0.010	-0.010	0.400	2.686	1.924	1.914	1.909	1.924	1.924	1.919
0.029	0.000	0.010	0.000	0.005	0.015	0.400	2.700	1.919	1.914	1.914	1.924	1.924	1.929
0.029	0.000	0.005	0.000	0.020	0.000	0.400	2.705	1.919	1.914	1.914	1.929	1.924	1.924
0.044	0.000	0.005	0.005	0.024	0.015	0.410	2.705	1.924	1.919	1.914	1.929	1.929	1.929
0.044	0.000	0.000	0.000	0.024	0.015	0.400	2.686	1.914	1.919	1.914	1.929	1.929	1.929
0.015	0.000	0.005	0.000	-0.010	0.005	0.400	2.700	1.904	1.909	1.909	1.929	1.914	1.919
0.005	-0.005	0.000	0.000	-0.063	0.005	0.400	2.642	1.895	1.904	1.909	1.924	1.899	1.914
-0.010	0.000	0.000	0.005	-0.093	0.000	0.405	2.661	1.885	1.895	1.904	1.924	1.899	1.904
-0.005	-0.010	0.000	0.005	-0.049	-0.005	0.405	2.666	1.885	1.890	1.899	1.924	1.919	1.909
-0.020	-0.005	-0.005	0.005	0.029	-0.024	0.410	2.778	1.895	1.890	1.895	1.919	1.934	1.914
-0.024	0.000	0.000	0.005	0.029	-0.005	0.405	2.632	1.890	1.890	1.895	1.919	1.929	1.919
-0.020	-0.005	0.000	0.000	0.015	0.005	0.410	2.720	1.904	1.895	1.895	1.919	1.919	1.924
0.005	0.000	0.000	0.010	0.039	0.020	0.410	2.642	1.909	1.904	1.899	1.919	1.929	1.934
0.024	0.000	0.005	0.005	0.039	0.005	0.410	2.666	1.919	1.909	1.899	1.924	1.924	1.924
0.024	0.010	0.005	0.010	0.044	0.015	0.400	2.759	1.924	1.919	1.904	1.924	1.924	1.924
0.029	0.010	0.000	0.005	0.024	0.034	0.396	2.666	1.919	1.914	1.904	1.924	1.919	1.934
0.024	0.005	0.005	0.005	0.010	0.024	0.405	2.744	1.909	1.914	1.909	1.924	1.914	1.919
0.010	0.000	0.005	0.005	0.000	0.000	0.410	2.686	1.909	1.909	1.909	1.924	1.914	1.914
-0.005	-0.010	-0.005	0.000	-0.010	0.000	0.405	2.656	1.899	1.904	1.909	1.919	1.909	1.914
-0.005	-0.005	0.000	0.000	-0.005	0.000	0.396	2.681	1.904	1.904	1.904	1.924	1.914	1.914
-0.010	0.000	0.005	0.000	0.005	0.005	0.410	2.637	1.895	1.904	1.909	1.924	1.919	1.919
-0.010	0.005	0.010	-0.005	-0.010	0.005	0.405	2.651	1.895	1.899	1.904	1.919	1.914	1.914
-0.010	-0.005	0.005	-0.005	-0.010	-0.020	0.410	2.627	1.890	1.895	1.899	1.919	1.909	1.904
-0.005	0.000	0.005	-0.005	-0.015	-0.010	0.400	2.695	1.895	1.895	1.895	1.914	1.909	1.909
-0.005	-0.005	-0.005	0.000	-0.020	0.005	0.405	2.686	1.895	1.895	1.895	1.909	1.909	1.914
0.000	0.005	0.000	0.000	0.010	0.000	0.405	2.681	1.899	1.895	1.895	1.914	1.919	1.909
0.000	0.010	0.000	0.000	0.024	0.005	0.405	2.690	1.904	1.895	1.890	1.914	1.919	1.914
-0.020	0.000	0.000	0.000	0.015	0.000	0.396	2.700	1.899	1.895	1.890	1.914	1.914	1.914
-0.005	0.000	-0.015	0.000	0.020	0.005	0.405	2.710	1.909	1.899	1.890	1.914	1.914	1.914
-0.015	-0.005	-0.020	0.005	0.010	-0.015	0.405	2.700	1.904	1.899	1.895	1.909	1.909	1.909
-0.005	0.000	-0.005	0.010	0.010	0.005	0.410	2.695	1.909	1.904	1.899	1.914	1.909	1.914
-0.015	0.015	0.005	0.005	0.000	-0.005	0.405	2.715	1.909	1.909	1.904	1.919	1.909	1.909
-0.015	0.010	0.015	0.000	0.010	-0.020	0.410	2.700	1.904	1.909	1.909	1.924	1.914	1.909
-0.020	0.020	0.015	0.005	0.015	-0.005	0.400	2.686	1.909	1.909	1.909	1.924	1.919	1.914
-0.010	0.010	0.015	0.005	0.010	-0.005	0.400	2.700	1.909	1.909	1.909	1.924	1.919	1.919
0.000	0.010	0.015	0.005	0.005	0.010	0.396	2.690	1.914	1.909	1.909	1.929	1.919	1.924
-0.005	-0.005	0.015	0.005	0.005	0.015	0.405	2.690	1.919	1.909	1.904	1.924	1.919	1.919
0.005	0.000	0.010	0.005	0.015	0.020	0.405	2.705	1.914	1.909	1.904	1.924	1.919	1.919
0.020	-0.005	0.005	0.000	0.005	-0.005	0.396	2.676	1.909	1.904	1.904	1.919	1.914	1.919
0.015	0.005	0.000	0.000	-0.020	0.000	0.396	2.705	1.914	1.909	1.904	1.919	1.909	1.909
0.015	0.005	0.005	0.000	-0.005	0.015	0.400	2.705	1.914	1.909	1.904	1.919	1.914	1.919
0.015	-0.015	0.000	0.005	0.005	0.020	0.400	2.676	1.904	1.904	1.899	1.919	1.914	1.914
0.015	0.000	0.000	0.010	-0.005	-0.005	0.405	2.700	1.904	1.904	1.899	1.919	1.909	1.909
0.020	0.000	-0.005	0.000	-0.010	0.029	0.410	2.700	1.909	1.904	1.899	1.914	1.914	1.919
0.015	0.000	-0.005	0.005	-0.005	-0.010	0.396	2.686	1.899	1.904	1.904	1.919	1.914	1.909
0.010	0.010	-0.005	0.000	0.000	0.010	0.405	2.695	1.899	1.904	1.904	1.919	1.914	1.914
0.010	0.005	0.000	0.000	0.010	0.010	0.405	2.661	1.904	1.904	1.904	1.919	1.919	1.919
0.010	0.000	0.000	0.000	0.010	0.020	0.410	2.671	1.904	1.904	1.899	1.919	1.919	1.919
0.020	0.000	-0.005	0.005	0.015	0.020	0.405	2.666	1.909	1.904	1.904	1.924	1.919	1.919
0.005	0.000	-0.005	0.005	0.015	-0.010	0.405	2.783	1.919	1.909	1.904	1.924	1.919	1.914
-0.005	-0.015	-0.005	-0.005	-0.005	0.020	0.405	2.627	1.899	1.899	1.899	1.919	1.914	1.919
-0.024	0.010	0.000	0.000	-0.024	0.010	0.410	2.646	1.895	1.904	1.904	1.924	1.909	1.914
-0.029	0.000	0.005	0.005	-0.024	0.039	0.405	2.739	1.899	1.904	1.904	1.924	1.914	1.924
-0.020	-0.005	-0.005	0.000	-0.029	0.029	0.405	2.729	1.909	1.899	1.899	1.919	1.914	1.919
-0.010	0.000	0.000	0.000	-0.015	0.010	0.396	2.646	1.904	1.904	1.899	1.919	1.914	1.914
-0.010	0.000	0.005	0.005	0.000	-0.015	0.405	2.681	1.904	1.904	1.899	1.919	1.919	1.909
-0.005	0.010	0.000	0.000	0.024	-0.015	0.400	2.637	1.895	1.899	1.904	1.919	1.924	1.909
0.000	0.000	0.005	0.005	0.024	-0.029	0.405	2.681	1.899	1.899	1.899	1.919	1.919	1.909
-0.005	0.000	-0.005	-0.005	0.015	-0.015	0.400	2.744	1.904	1.895	1.895	1.914	1.914	1.914
0.020	-0.005	0.005	0.000	0.005	-0.005	0.405	2.710	1.914	1.899	1.895	1.914	1.914	1.914
0.015	0.005	0.005	0.000	-0.005	-0.010	0.405	2.646	1.904	1.899	1.899	1.914	1.904	1.909
0.029	0.005	0.000	0.005	0.005	-0.024	0.410	2.646	1.899	1.904	1.899	1.919	1.909	1.904
0.015	0.010	0.010	0.000	0.005	-0.005	0.405	2.637	1.895	1.899	1.904	1.919	1.914	1.914
0.015	0.015	0.010	0.000	-0.005	-0.015	0.410	2.695	1.895	1.904	1.904	1.919	1.909	1.914
0.029	0.010	0.010	0.000	-0.010	-0.024	0.400	2.686	1.904	1.899	1.899	1.919	1.909	1.909
0.024	0.005	0.005	0.000	-0.005	0.015	0.410	2.695	1.909	1.904	1.899	1.924	1.914	1.919
0.024	0.000	0.005	0.000	0.000	0.000	0.405	2.681	1.909	1.904	1.904	1.924	1.919	1.914
0.015	0.010	0.005	0.000	0.005	0.010	0.405	2.681	1.904	1.904	1.904	1.919	1.919	1.924
0.005	0.005	0.000	0.005	0.024	0.005	0.400	2.700	1.904	1.904	1.904	1.924	1.924	1.924
-0.005	0.005	0.010	0.005	0.044	0.015	0.405	2.715	1.904	1.904	1.899	1.924	1.929	1.924
-0.015	-0.005	0.010	0.005	0.024	0.000	0.400	2.690	1.899	1.899	1.899	1.919	1.919	1.919
-0.015	0.000	0.000	0.005	0.005	0.015	0.405	2.700	1.899	1.899	1.895	1.914	1.909	1.919
-0.029	0.005	0.000	0.000	-0.010	0.010	0.396	2.705	1.899	1.899	1.899	1.919	1.904	1.914
-0.039	0.010	-0.010	0.005	-0.029	0.005	0.400	2.710	1.899	1.899	1.890	1.914	1.904	1.904
-0.049	0.010	-0.020	0.000	-0.029	0.000	0.405	2.705	1.895	1.895	1.885	1.909	1.904	1.904
-0.034	0.005	-0.020	0.005	-0.024	-0.029	0.405	2.676	1.895	1.895	1.890	1.909	1.899	1.899
-0.020	0.000	-0.010	0.005	-0.024	0.000	0.405	2.700	1.904	1.895	1.895	1.909	1.904	1.909
-0.010	0.000	0.005	0.000	-0.015	0.000	0.400	2.700	1.909	1.895	1.899	1.909	1.909	1.904
-0.005	-0.010	0.015	0.005	0.005	-0.015	0.405	2.686	1.909	1.899	1.899	1.914	1.914	1.909
-0.005	-0.015	0.015	0.005	0.010	0.000	0.405	2.710	1.909	1.899	1.899	1.914	1.914	1.909
0.010	-0.015	0.015	0.000	0.015	-0.005	0.410	2.686	1.914	1.909	1.904	1.919	1.914	1.914
0.024	-0.010	0.015	0.000	0.010	0.020	0.396	2.695	1.914	1.909	1.904	1.919	1.914	1.924
0.029	-0.015	0.005	0.000	0.010	0.015	0.405	2.715	1.919	1.914	1.904	1.919	1.919	1.919
0.034	0.005	0.005	0.005	0.010	0.000	0.400	2.710	1.924	1.919	1.909	1.924	1.919	1.914
0.034	0.005	0.000	0.005	0.020	0.000	0.400	2.705	1.919	1.919	1.909	1.924	1.924	1.919
0.029	0.000	0.000	0.005	0.020	0.020	0.400	2.690	1.914	1.914	1.909	1.929	1.919	1.924
0.024	0.029	0.000	0.005	0.029	0.000	0.405	2.671	1.909	1.919	1.914	1.929	1.929	1.924
0.015	0.034	0.000	0.005	0.034	0.015	0.405	2.656	1.899	1.914	1.914	1.929	1.929	1.924
0.000	0.005	0.000	0.005	0.020	0.010	0.405	2.656	1.890	1.899	1.909	1.924	1.924	1.919
-0.005	0.000	-0.005	0.000	0.010	0.010	0.400	2.788	1.904	1.895	1.899	1.924	1.919	1.919
0.000	-0.034	-0.010	0.000	0.010	0.000	0.410	2.632	1.895	1.885	1.895	1.919	1.914	1.914
-0.005	-0.015	-0.005	0.010	0.010	0.000	0.405	2.676	1.899	1.890	1.890	1.914	1.909	1.909
0.000	-0.024	0.000	0.000	0.005	-0.005	0.410	2.754	1.909	1.895	1.895	1.909	1.909	1.914
0.000	-0.005	0.005	-0.005	-0.005	0.010	0.400	2.739	1.914	1.899	1.895	1.909	1.904	1.909
-0.015	0.005	0.000	-0.005	-0.010	0.000	0.405	2.661	1.904	1.904	1.895	1.909	1.904	1.909
-0.010	-0.005	0.000	0.000	-0.010	0.000	0.400	2.671	1.899	1.899	1.899	1.914	1.909	1.909
-0.015	-0.005	0.000	0.000	-0.015	-0.005	0.405	2.671	1.899	1.899	1.899	1.919	1.909	1.909
-0.005	-0.005	0.000	0.000	-0.010	-0.005	0.405	2.695	1.904	1.899	1.904	1.919	1.914	1.909
-0.024	0.005	0.010	-0.005	-0.010	0.000	0.400	2.749	1.909	1.904	1.904	1.924	1.914	1.914
-0.015	0.000	0.015	0.005	-0.010	0.000	0.400	2.690	1.909	1.909	1.909	1.924	1.919	1.914
-0.010	0.020	0.010	0.010	-0.005	0.005	0.405	2.646	1.904	1.909	1.904	1.924	1.919	1.919
0.000	0.010	0.005	0.005	-0.024	-0.015	0.405	2.671	1.904	1.909	1.904	1.924	1.914	1.909
-0.005	0.015	0.000	0.000	-0.029	0.015	0.410	2.632	1.904	1.909	1.904	1.924	1.914	1.919
0.024	0.029	0.000	0.010	-0.015	0.005	0.405	2.700	1.909	1.909	1.904	1.924	1.919	1.914
0.020	0.024	-0.005	0.010	-0.015	0.015	0.405	2.676	1.904	1.904	1.904	1.924	1.919	1.924
0.015	0.020	-0.005	0.005	0.000	-0.010	0.405	2.681	1.899	1.899	1.904	1.924	1.919	1.914
0.020	0.005	0.000	0.005	0.020	0.020	0.405	2.676	1.904	1.899	1.899	1.919	1.924	1.924
0.015	-0.005	-0.005	0.005	0.020	0.029	0.410	2.695	1.904	1.895	1.895	1.919	1.919	1.929
0.005	0.000	0.000	0.000	0.024	0.020	0.405	2.695	1.899	1.895	1.899	1.914	1.919	1.924
0.005	0.005	0.000	-0.005	0.005	0.005	0.410	2.705	1.904	1.895	1.895	1.914	1.909	1.914
0.000	-0.005	0.000	-0.005	-0.005	0.010	0.400	2.710	1.904	1.895	1.895	1.914	1.909	1.909
-0.005	-0.015	0.005	-0.005	0.054	-0.024	0.400	2.686	1.909	1.895	1.890	1.914	1.924	1.904
-0.005	-0.005	0.010	0.000	0.039	-0.015	0.396	2.695	1.909	1.899	1.895	1.914	1.914	1.914
-0.005	-0.005	0.000	0.000	0.010	0.005	0.396	2.695	1.904	1.899	1.895	1.914	1.909	1.919
-0.015	0.024	0.000	0.005	0.005	0.020	0.405	2.686	1.904	1.909	1.899	1.914	1.909	1.919
-0.015	0.010	0.000	0.005	0.015	0.010	0.405	2.695	1.909	1.909	1.904	1.919	1.914	1.914
-0.010	0.000	0.000	0.010	-0.015	0.010	0.400	2.695	1.909	1.904	1.904	1.919	1.909	1.914
0.000	0.000	0.005	0.000	-0.024	-0.005	0.405	2.700	1.914	1.909	1.904	1.919	1.909	1.909
-0.005	0.000	0.000	0.000	-0.054	-0.005	0.396	2.705	1.909	1.904	1.904	1.924	1.899	1.904
0.005	0.000	0.005	0.000	-0.073	-0.034	0.405	2.700	1.919	1.909	1.909	1.924	1.904	1.895
0.005	0.005	0.000	0.005	-0.059	0.015	0.396	2.705	1.909	1.909	1.904	1.919	1.909	1.914
0.015	0.000	0.005	0.010	-0.020	0.000	0.400	2.666	1.904	1.909	1.904	1.924	1.924	1.914
0.010	0.000	0.000	0.010	0.049	0.015	0.400	2.686	1.904	1.904	1.904	1.924	1.943	1.924
0.005	0.000	0.010	0.000	0.083	0.010	0.400	2.710	1.899	1.904	1.904	1.924	1.943	1.929
0.005	-0.005	0.010	0.000	0.073	0.010	0.400	2.690	1.904	1.904	1.899	1.919	1.934	1.924
0.010	0.005	0.010	-0.005	0.063	-0.024	0.400	2.690	1.899	1.904	1.899	1.919	1.919	1.914
0.005	-0.020	0.005	-0.005	0.029	-0.010	0.400	2.656	1.899	1.890	1.895	1.914	1.909	1.919
0.005	-0.015	-0.005	-0.005	-0.015	-0.010	0.400	2.656	1.895	1.890	1.890	1.909	1.895	1.914
0.000	-0.005	-0.005	0.000	-0.015	-0.015	0.405	2.769	1.899	1.895	1.895	1.914	1.899	1.904
0.005	0.000	0.000	0.000	-0.020	0.000	0.405	2.769	1.914	1.899	1.895	1.914	1.904	1.909
0.005	-0.005	0.000	0.000	-0.020	0.010	0.405	2.642	1.904	1.904	1.899	1.914	1.904	1.909
0.000	-0.005	0.000	-0.005	-0.010	-0.005	0.405	2.642	1.899	1.904	1.899	1.914	1.909	1.904
0.000	0.015	-0.005	-0.005	0.015	0.024	0.405	2.749	1.914	1.909	1.899	1.919	1.924	1.924
0.000	0.000	0.000	0.000	0.024	0.015	0.400	2.725	1.919	1.909	1.904	1.919	1.924	1.919
0.005	0.000	0.000	0.000	0.010	0.024	0.405	2.651	1.914	1.909	1.904	1.924	1.914	1.924
-0.010	0.015	0.000	0.000	0.000	0.020	0.400	2.676	1.904	1.909	1.904	1.924	1.914	1.914
-0.029	-0.005	0.000	0.005	-0.015	0.020	0.405	2.651	1.895	1.899	1.904	1.924	1.914	1.919
-0.029	0.005	0.000	0.005	-0.015	0.005	0.396	2.676	1.899	1.899	1.904	1.924	1.914	1.909
-0.029	0.000	0.005	0.005	0.005	-0.005	0.410	2.739	1.899	1.895	1.904	1.919	1.919	1.909
0.005	0.000	0.005	0.015	0.010	-0.010	0.400	2.695	1.909	1.899	1.899	1.919	1.919	1.914
0.010	-0.005	0.000	0.005	-0.005	-0.015	0.410	2.627	1.904	1.899	1.899	1.914	1.909	1.909
0.010	0.010	0.000	0.005	-0.015	-0.024	0.405	2.656	1.899	1.899	1.895	1.914	1.904	1.899
0.010	0.005	0.000	0.000	-0.020	-0.010	0.405	2.637	1.890	1.899	1.899	1.914	1.904	1.909
0.005	0.005	0.000	0.005	-0.015	-0.005	0.400	2.681	1.890	1.895	1.895	1.914	1.909	1.914
0.015	0.015	0.005	0.000	-0.005	0.015	0.410	2.686	1.899	1.899	1.895	1.914	1.914	1.919
0.015	0.005	0.000	0.000	0.010	0.039	0.405	2.686	1.899	1.895	1.899	1.919	1.919	1.929
0.015	0.000	-0.010	-0.005	0.034	0.029	0.405	2.686	1.904	1.899	1.890	1.914	1.924	1.924
0.020	0.010	-0.005	0.000	0.039	0.010	0.396	2.700	1.914	1.904	1.895	1.919	1.919	1.919
0.029	0.000	0.000	0.000	0.054	-0.005	0.405	2.695	1.914	1.904	1.899	1.919	1.924	1.919
0.024	-0.010	0.010	0.005	0.029	-0.010	0.410	2.710	1.919	1.904	1.904	1.924	1.914	1.914
0.010	0.000	0.010	0.005	0.005	-0.044	0.400	2.705	1.914	1.909	1.909	1.924	1.909	1.904
0.000	0.000	0.015	0.010	-0.010	-0.010	0.396	2.690	1.904	1.904	1.909	1.924	1.909	1.914
-0.015	0.015	0.015	0.000	-0.024	-0.015	0.396	2.681	1.899	1.909	1.909	1.924	1.904	1.909
-0.010	0.005	0.010	0.010	-0.015	0.005	0.405	2.695	1.899	1.904	1.904	1.919	1.914	1.914
-0.010	0.015	0.005	0.010	0.000	0.015	0.405	2.695	1.904	1.904	1.904	1.924	1.919	1.919
-0.005	0.024	0.010	0.005	0.015	0.010	0.405	2.710	1.909	1.909	1.904	1.919	1.919	1.919
-0.010	0.015	0.005	0.010	0.000	0.015	0.405	2.686	1.904	1.904	1.899	1.924	1.914	1.924
0.000	0.005	0.000	0.005	-0.005	0.000	0.410	2.705	1.909	1.899	1.895	1.919	1.914	1.914
0.005	-0.005	-0.005	0.005	0.000	0.005	0.405	2.700	1.904	1.895	1.895	1.914	1.909	1.914
-0.010	-0.005	-0.005	0.000	0.010	-0.020	0.405	2.705	1.899	1.895	1.895	1.914	1.909	1.909
0.000	0.000	-0.010	-0.005	0.005	0.010	0.396	2.676	1.904	1.899	1.890	1.909	1.909	1.919
-0.005	-0.010	-0.005	0.000	-0.005	0.010	0.405	2.676	1.899	1.899	1.895	1.914	1.909	1.909
0.010	-0.010	0.000	0.000	-0.010	0.015	0.405	2.705	1.904	1.904	1.899	1.914	1.909	1.914
0.000	-0.005	-0.005	0.000	-0.015	-0.005	0.410	2.700	1.909	1.904	1.899	1.914	1.909	1.904
0.000	-0.015	0.000	0.000	0.000	0.000	0.400	2.705	1.914	1.904	1.904	1.914	1.909	1.909
0.005	-0.010	0.000	0.000	-0.024	-0.005	0.405	2.705	1.909	1.904	1.904	1.919	1.904	1.909
0.005	-0.005	0.000	0.005	-0.024	-0.020	0.400	2.646	1.899	1.904	1.909	1.924	1.909	1.904
0.005	0.000	0.000	0.000	-0.024	-0.024	0.405	2.666	1.899	1.904	1.904	1.919	1.914	1.909
-0.005	-0.005	0.000	-0.005	-0.010	-0.010	0.400	2.661	1.899	1.904	1.904	1.924	1.914	1.914
0.000	0.010	0.000	0.000	-0.020	-0.020	0.405	2.808	1.914	1.904	1.904	1.924	1.914	1.909
0.000	-0.005	0.000	0.000	-0.024	-0.005	0.405	2.632	1.899	1.904	1.904	1.924	1.914	1.914
0.005	-0.005	0.000	0.000	-0.010	0.010	0.405	2.744	1.909	1.904	1.904	1.919	1.919	1.919
-0.010	0.005	0.005	0.005	0.000	0.024	0.405	2.642	1.899	1.904	1.904	1.924	1.924	1.924
-0.015	0.010	0.005	0.005	0.015	0.020	0.410	2.739	1.904	1.904	1.899	1.919	1.919	1.924
-0.005	0.000	0.005	0.000	-0.005	0.010	0.396	2.725	1.909	1.904	1.895	1.914	1.914	1.914
-0.039	0.000	0.010	-0.005	0.005	0.000	0.405	2.661	1.890	1.899	1.899	1.919	1.914	1.914
-0.039	-0.010	0.005	0.005	0.000	0.005	0.400	2.666	1.890	1.895	1.895	1.919	1.914	1.914
-0.029	-0.005	0.005	0.005	-0.005	0.005	0.405	2.666	1.890	1.890	1.895	1.914	1.909	1.909
-0.010	0.000	0.000	0.000	0.000	-0.020	0.405	2.725	1.890	1.895	1.895	1.909	1.909	1.909
0.000	0.010	0.000	0.000	0.015	0.005	0.400	2.705	1.899	1.899	1.895	1.914	1.914	1.914
0.020	0.005	0.000	0.005	0.020	0.010	0.400	2.734	1.914	1.904	1.899	1.914	1.914	1.919
0.034	0.015	0.000	0.005	0.024	0.000	0.400	2.666	1.914	1.909	1.904	1.914	1.919	1.919
0.029	0.005	0.000	0.000	0.034	0.005	0.405	2.729	1.924	1.909	1.904	1.919	1.919	1.914
0.049	-0.005	0.005	0.005	0.020	0.015	0.400	2.705	1.919	1.909	1.909	1.924	1.919	1.919
0.049	-0.005	0.010	0.000	0.034	0.015	0.400	2.695	1.919	1.914	1.909	1.924	1.919	1.919
0.039	-0.005	0.005	0.000	0.034	0.015	0.396	2.686	1.909	1.914	1.909	1.924	1.919	1.924
0.034	0.000	0.005	0.000	0.000	0.015	0.405	2.681	1.909	1.909	1.909	1.924	1.909	1.919
0.034	0.000	0.005	0.005	-0.024	0.020	0.405	2.681	1.909	1.914	1.909	1.924	1.904	1.914
0.020	0.015	0.000	0.000	0.000	0.010	0.400	2.690	1.904	1.909	1.904	1.924	1.919	1.909
0.020	0.000	0.005	0.000	0.039	0.015	0.396	2.705	1.904	1.904	1.904	1.924	1.924	1.919
0.000	0.010	0.005	0.000	0.044	0.015	0.405	2.705	1.904	1.899	1.899	1.924	1.919	1.914
-0.015	0.000	0.000	0.000	0.000	0.000	0.405	2.700	1.899	1.899	1.899	1.919	1.909	1.909
-0.010	-0.005	0.005	-0.005	0.000	-0.029	0.410	2.705	1.899	1.895	1.899	1.914	1.904	1.899
-0.005	0.000	0.000	-0.005	-0.010	-0.024	0.400	2.686	1.899	1.895	1.895	1.914	1.904	1.904
-0.020	0.000	0.000	-0.005	-0.039	-0.005	0.400	2.676	1.895	1.895	1.895	1.914	1.899	1.904
-0.029	0.000	0.000	0.000	-0.024	-0.010	0.405	2.695	1.895	1.895	1.895	1.914	1.909	1.904
-0.034	0.005	-0.005	0.000	-0.034	-0.039	0.405	2.705	1.899	1.899	1.890	1.919	1.904	1.899
-0.024	0.015	-0.005	0.005	-0.049	0.000	0.400	2.705	1.904	1.904	1.895	1.919	1.904	1.909
-0.029	0.010	0.005	0.000	-0.049	0.000	0.405	2.715	1.909	1.904	1.899	1.919	1.909	1.909
-0.015	-0.005	0.005	0.010	-0.034	0.000	0.410	2.705	1.914	1.904	1.899	1.924	1.914	1.909
-0.010	0.010	0.005	0.010	-0.010	0.005	0.410	2.690	1.919	1.909	1.904	1.924	1.919	1.919
0.000	0.000	-0.005	0.005	0.000	0.005	0.400	2.695	1.914	1.909	1.904	1.924	1.924	1.924
0.010	0.005	0.000	0.005	-0.005	0.005	0.405	2.686	1.914	1.914	1.909	1.924	1.919	1.919
0.005	0.010	0.000	0.010	0.000	0.010	0.405	2.700	1.914	1.914	1.909	1.924	1.924	1.924
0.015	0.010	0.000	0.010	0.020	-0.005	0.396	2.676	1.909	1.914	1.909	1.924	1.929	1.919
0.020	0.000	0.010	0.010	0.034	0.010	0.405	2.681	1.909	1.904	1.909	1.924	1.929	1.929
0.015	-0.005	0.000	0.000	0.054	0.010	0.405	2.642	1.895	1.899	1.899	1.924	1.934	1.929
0.020	-0.005	0.005	0.000	0.039	0.010	0.405	2.661	1.895	1.895	1.899	1.919	1.919	1.924
