-0.015	0.015	0.000	-0.020	-0.005	0.000	0.420	2.695	2.412	2.109	2.021	1.953	1.953	1.958
0.010	0.020	0.005	0.000	-0.005	0.005	0.425	2.690	2.295	2.163	2.056	1.992	1.963	1.958
0.020	0.015	0.000	0.010	0.020	-0.015	0.425	2.695	2.197	2.173	2.090	2.026	1.982	1.963
0.015	0.000	0.000	0.005	0.010	-0.024	0.420	2.661	2.129	2.158	2.104	2.046	1.992	1.968
0.034	-0.005	0.000	0.010	0.000	0.005	0.415	2.676	2.080	2.139	2.114	2.070	2.012	1.987
0.034	0.000	0.005	0.005	0.000	0.010	0.425	2.676	2.046	2.114	2.114	2.085	2.031	1.997
0.044	-0.010	0.005	0.000	0.010	0.015	0.415	2.705	2.026	2.085	2.109	2.100	2.046	2.012
0.029	-0.015	0.005	0.015	0.005	-0.005	0.415	2.651	2.002	2.061	2.095	2.104	2.065	2.021
0.015	-0.015	0.010	0.020	0.000	0.015	0.420	2.690	1.987	2.041	2.080	2.104	2.070	2.041
-0.010	-0.010	0.000	0.015	0.000	0.005	0.415	2.686	1.973	2.021	2.061	2.095	2.080	2.046
-0.010	0.000	0.010	0.015	0.000	-0.015	0.425	2.695	1.978	2.012	2.051	2.090	2.080	2.051
-0.010	0.005	0.005	0.029	0.000	0.020	0.420	2.686	1.978	2.007	2.041	2.085	2.085	2.070
-0.024	0.005	0.000	0.024	0.000	-0.005	0.420	2.686	1.978	2.002	2.026	2.075	2.080	2.065
-0.010	0.010	0.005	-0.010	0.000	-0.010	0.425	2.695	1.992	2.002	2.021	2.056	2.070	2.065
-0.015	0.034	0.000	-0.020	-0.005	-0.005	0.420	2.715	1.997	2.007	2.017	2.046	2.061	2.070
-0.005	0.049	0.000	-0.024	0.000	-0.029	0.415	2.681	1.992	2.007	2.012	2.041	2.056	2.061
0.010	0.015	0.000	-0.015	0.010	-0.005	0.415	2.681	1.987	1.992	2.007	2.036	2.056	2.065
0.005	-0.005	0.000	-0.020	0.005	0.000	0.420	2.695	1.987	1.987	2.002	2.031	2.046	2.065
-0.005	0.000	0.000	-0.015	-0.005	-0.024	0.425	2.690	1.987	1.992	1.997	2.031	2.036	2.051
-0.015	0.005	0.005	0.005	0.000	-0.005	0.420	2.700	1.987	1.987	1.992	2.031	2.036	2.046
-0.020	0.010	0.000	0.015	0.005	0.024	0.425	2.695	1.987	1.987	1.987	2.026	2.036	2.056
-0.005	0.000	0.000	0.024	0.000	0.020	0.420	2.695	1.992	1.982	1.987	2.026	2.026	2.046
0.000	-0.010	-0.005	0.015	-0.005	0.024	0.420	2.676	1.987	1.982	1.982	2.012	2.021	2.036
0.000	-0.010	0.000	0.020	0.010	0.020	0.415	2.686	1.982	1.982	1.982	2.012	2.021	2.036
0.000	-0.010	-0.005	0.034	-0.005	0.020	0.425	2.690	1.982	1.982	1.982	2.012	2.012	2.026
0.005	-0.015	0.005	0.029	0.000	-0.015	0.415	2.700	1.982	1.978	1.982	2.007	2.007	2.012
-0.005	-0.010	-0.005	0.005	0.000	0.010	0.425	2.700	1.982	1.982	1.978	1.997	2.007	2.017
0.000	-0.020	-0.005	0.000	0.010	-0.020	0.420	2.686	1.982	1.982	1.982	1.992	2.002	2.012
-0.005	-0.005	0.000	-0.010	0.000	0.000	0.425	2.690	1.982	1.987	1.978	1.997	1.997	2.012
0.005	0.010	0.000	0.000	0.000	-0.005	0.415	2.700	1.987	1.992	1.982	2.002	1.997	2.007
0.010	0.000	0.000	0.005	0.000	-0.015	0.425	2.700	1.992	1.992	1.987	2.007	2.002	2.007
0.015	-0.005	-0.005	0.005	0.005	-0.005	0.415	2.651	1.982	1.987	1.982	2.002	2.002	2.007
0.010	0.015	-0.005	-0.015	0.000	-0.034	0.420	2.690	1.978	1.987	1.987	1.997	1.997	1.997
0.015	0.010	0.005	-0.020	0.000	0.000	0.420	2.690	1.978	1.987	1.987	1.997	1.997	2.007
0.005	0.000	-0.005	-0.015	-0.005	-0.010	0.420	2.695	1.973	1.978	1.982	2.002	1.997	1.997
0.005	-0.020	0.000	-0.015	0.005	-0.024	0.420	2.690	1.968	1.968	1.978	2.002	1.997	1.997
-0.010	-0.015	0.000	-0.010	0.005	-0.024	0.425	2.676	1.958	1.968	1.973	1.997	1.997	1.997
-0.015	0.010	0.000	0.010	0.005	0.010	0.420	2.690	1.963	1.973	1.973	2.002	1.997	2.002
-0.015	0.015	0.000	0.015	0.005	-0.010	0.420	2.681	1.963	1.968	1.968	2.002	1.997	1.997
-0.015	0.015	-0.005	0.015	0.000	0.020	0.420	2.695	1.968	1.968	1.968	1.992	1.992	2.002
-0.010	0.020	-0.005	0.015	0.000	0.029	0.420	2.681	1.963	1.968	1.968	1.992	1.992	1.997
-0.005	0.015	0.005	0.000	-0.005	0.020	0.425	2.686	1.963	1.968	1.968	1.982	1.987	1.992
0.005	0.024	0.010	-0.005	0.000	-0.020	0.415	2.695	1.968	1.968	1.968	1.982	1.982	1.982
0.020	0.015	0.015	-0.005	0.000	0.010	0.430	2.676	1.973	1.968	1.968	1.982	1.987	1.987
0.015	0.005	0.005	-0.005	0.000	0.005	0.415	2.686	1.968	1.968	1.968	1.987	1.982	1.987
0.020	-0.005	0.005	0.005	0.010	0.005	0.420	2.690	1.968	1.968	1.963	1.987	1.987	1.987
0.020	0.000	0.015	0.010	0.010	-0.005	0.425	2.705	1.968	1.968	1.968	1.992	1.987	1.987
0.010	0.005	0.005	0.010	0.000	-0.024	0.420	2.676	1.963	1.968	1.968	1.992	1.982	1.987
0.024	0.000	0.000	0.015	-0.005	0.010	0.415	2.690	1.968	1.968	1.963	1.992	1.982	1.992
0.034	-0.010	-0.005	0.005	-0.005	0.000	0.425	2.695	1.968	1.968	1.963	1.982	1.982	1.987
0.020	-0.005	-0.005	-0.029	-0.005	-0.029	0.415	2.671	1.958	1.963	1.963	1.973	1.982	1.978
0.005	-0.005	-0.005	-0.029	0.000	0.000	0.420	2.690	1.953	1.958	1.958	1.973	1.978	1.987
0.005	0.000	-0.005	-0.010	0.000	-0.029	0.420	2.690	1.953	1.958	1.963	1.982	1.978	1.978
-0.005	0.005	-0.005	-0.005	0.005	0.005	0.425	2.686	1.948	1.958	1.958	1.982	1.978	1.982
0.000	-0.005	0.005	0.005	0.005	-0.005	0.415	2.705	1.958	1.953	1.958	1.982	1.978	1.982
0.000	-0.005	0.005	-0.005	0.010	0.020	0.425	2.700	1.953	1.948	1.953	1.978	1.978	1.982
-0.010	-0.010	-0.005	-0.024	0.000	0.015	0.415	2.686	1.948	1.948	1.948	1.963	1.968	1.982
-0.029	0.000	-0.005	-0.015	0.000	0.010	0.420	2.690	1.943	1.948	1.943	1.968	1.963	1.973
-0.020	-0.015	0.000	0.000	-0.010	0.015	0.420	2.681	1.948	1.943	1.948	1.973	1.968	1.973
-0.015	0.000	0.000	0.010	0.000	0.005	0.420	2.681	1.943	1.948	1.948	1.973	1.968	1.968
-0.020	0.005	0.005	0.015	0.005	-0.020	0.415	2.686	1.943	1.948	1.948	1.973	1.968	1.963
-0.015	0.024	0.010	0.020	-0.005	-0.020	0.420	2.700	1.948	1.958	1.953	1.978	1.968	1.963
-0.039	0.024	0.005	0.020	-0.010	-0.005	0.415	2.690	1.948	1.958	1.953	1.973	1.968	1.973
-0.039	0.034	-0.005	0.029	0.000	0.015	0.415	2.695	1.948	1.953	1.953	1.978	1.973	1.978
-0.020	0.034	0.000	0.029	-0.010	-0.005	0.425	2.681	1.958	1.953	1.953	1.978	1.973	1.968
-0.005	0.024	0.000	0.015	0.000	0.010	0.425	2.695	1.958	1.953	1.953	1.973	1.973	1.973
0.010	-0.005	0.005	-0.005	-0.005	-0.005	0.420	2.686	1.958	1.943	1.948	1.968	1.968	1.968
0.010	-0.020	0.005	-0.005	0.000	-0.024	0.420	2.695	1.958	1.948	1.948	1.968	1.968	1.963
0.044	-0.005	0.005	-0.005	-0.005	0.005	0.420	2.681	1.963	1.953	1.948	1.963	1.968	1.973
0.044	-0.029	0.000	-0.010	0.005	0.010	0.415	2.690	1.958	1.948	1.948	1.963	1.968	1.973
0.049	-0.029	0.005	-0.020	0.005	-0.005	0.420	2.661	1.953	1.948	1.943	1.958	1.963	1.963
0.034	-0.010	0.000	-0.020	0.000	0.010	0.415	2.681	1.948	1.953	1.948	1.958	1.958	1.968
0.049	-0.015	0.010	-0.005	0.015	-0.020	0.425	2.695	1.943	1.948	1.948	1.963	1.958	1.958
0.034	0.005	0.005	0.000	0.010	0.005	0.425	2.695	1.943	1.948	1.948	1.968	1.958	1.963
0.005	0.000	0.005	0.005	-0.005	0.005	0.425	2.671	1.929	1.943	1.943	1.968	1.953	1.958
-0.010	0.015	0.000	0.010	-0.005	0.010	0.420	2.695	1.929	1.943	1.943	1.963	1.958	1.958
-0.029	0.005	0.000	0.024	-0.005	0.000	0.420	2.686	1.929	1.934	1.943	1.968	1.963	1.958
-0.024	0.015	0.000	0.024	-0.005	0.000	0.425	2.695	1.934	1.934	1.938	1.963	1.958	1.958
-0.039	0.000	0.000	0.005	-0.005	-0.005	0.425	2.700	1.934	1.929	1.938	1.958	1.958	1.958
-0.024	-0.015	0.000	-0.005	-0.005	0.000	0.415	2.700	1.943	1.929	1.934	1.953	1.958	1.958
-0.020	-0.015	0.000	-0.020	-0.005	-0.005	0.420	2.695	1.943	1.934	1.934	1.953	1.958	1.958
-0.015	-0.010	0.000	-0.010	0.010	-0.029	0.420	2.690	1.948	1.938	1.934	1.953	1.958	1.958
-0.005	-0.005	0.000	0.005	0.005	0.000	0.425	2.773	1.958	1.943	1.938	1.963	1.958	1.963
0.000	-0.010	0.000	0.010	0.010	0.000	0.420	2.681	1.953	1.948	1.943	1.963	1.958	1.958
0.000	0.000	0.005	0.010	0.020	0.005	0.420	2.700	1.953	1.948	1.943	1.963	1.963	1.963
0.005	0.015	0.000	0.010	0.024	0.005	0.420	2.700	1.948	1.958	1.948	1.963	1.958	1.963
0.010	0.005	-0.005	0.020	0.020	0.010	0.415	2.676	1.938	1.943	1.943	1.963	1.958	1.963
0.015	0.020	0.000	0.010	0.029	0.015	0.420	2.690	1.943	1.948	1.943	1.958	1.958	1.963
0.010	0.020	0.005	0.000	0.029	0.020	0.420	2.686	1.934	1.938	1.943	1.958	1.958	1.963
0.015	0.000	0.000	0.000	0.024	0.024	0.415	2.686	1.934	1.934	1.938	1.958	1.953	1.958
0.010	0.010	0.000	0.005	0.029	0.020	0.420	2.695	1.934	1.934	1.934	1.958	1.953	1.958
-0.005	0.005	0.000	-0.005	0.020	0.029	0.420	2.690	1.929	1.929	1.934	1.948	1.948	1.953
-0.005	0.000	0.005	-0.010	0.015	0.029	0.415	2.690	1.929	1.929	1.934	1.948	1.948	1.953
-0.015	-0.020	0.000	-0.020	0.005	0.024	0.420	2.720	1.934	1.924	1.929	1.948	1.943	1.948
-0.005	-0.020	-0.005	-0.010	-0.005	0.020	0.415	2.695	1.934	1.929	1.929	1.948	1.943	1.943
0.005	0.005	-0.005	-0.024	0.005	-0.010	0.425	2.695	1.938	1.938	1.929	1.943	1.943	1.938
0.005	0.010	-0.005	-0.020	0.010	-0.005	0.415	2.681	1.938	1.938	1.934	1.953	1.948	1.943
0.000	-0.005	0.000	-0.005	0.010	0.015	0.420	2.690	1.938	1.938	1.938	1.958	1.948	1.948
0.000	0.000	0.000	0.024	0.000	0.010	0.420	2.690	1.934	1.938	1.938	1.963	1.948	1.953
0.000	0.005	0.005	0.039	0.000	0.024	0.425	2.676	1.934	1.938	1.938	1.968	1.958	1.953
-0.005	0.010	0.000	0.039	0.005	0.010	0.420	2.690	1.929	1.934	1.938	1.963	1.953	1.948
-0.005	0.005	0.000	0.029	0.000	0.010	0.425	2.690	1.934	1.934	1.938	1.958	1.953	1.953
0.000	0.010	0.010	0.029	0.010	-0.005	0.415	2.686	1.934	1.934	1.934	1.958	1.953	1.948
0.005	0.020	0.005	0.015	0.005	0.000	0.425	2.686	1.929	1.934	1.934	1.948	1.953	1.953
0.010	0.005	0.005	-0.005	-0.005	-0.024	0.415	2.686	1.924	1.929	1.929	1.943	1.943	1.943
0.010	-0.010	0.005	-0.039	-0.005	-0.005	0.425	2.690	1.924	1.919	1.919	1.929	1.938	1.943
0.000	-0.015	0.000	-0.039	-0.010	-0.015	0.415	2.695	1.924	1.919	1.919	1.934	1.934	1.934
0.010	-0.020	-0.005	-0.005	-0.010	-0.034	0.425	2.676	1.924	1.919	1.919	1.943	1.934	1.934
0.015	-0.020	-0.005	0.015	-0.020	0.005	0.415	2.681	1.924	1.919	1.919	1.948	1.934	1.943
0.005	-0.005	0.005	0.015	-0.005	0.005	0.420	2.710	1.924	1.924	1.924	1.948	1.938	1.943
0.000	-0.010	0.000	0.029	-0.005	0.000	0.425	2.671	1.919	1.924	1.924	1.948	1.943	1.943
-0.024	0.000	0.005	0.034	-0.010	-0.005	0.425	2.700	1.919	1.924	1.924	1.948	1.943	1.938
-0.029	0.020	0.000	0.054	-0.015	-0.015	0.415	2.676	1.919	1.929	1.924	1.953	1.943	1.938
-0.024	0.039	0.005	0.054	-0.015	0.005	0.420	2.700	1.924	1.934	1.929	1.953	1.948	1.948
-0.020	0.059	0.000	0.015	-0.015	-0.010	0.415	2.686	1.924	1.938	1.929	1.938	1.943	1.943
-0.005	0.049	-0.005	-0.029	-0.015	-0.010	0.415	2.695	1.934	1.934	1.929	1.929	1.938	1.943
0.020	0.010	0.000	-0.034	-0.010	0.000	0.425	2.695	1.934	1.924	1.929	1.934	1.938	1.943
0.015	-0.020	0.000	-0.034	-0.005	-0.005	0.420	2.690	1.934	1.919	1.924	1.934	1.938	1.943
0.005	-0.024	0.000	-0.054	-0.005	-0.005	0.425	2.695	1.924	1.919	1.919	1.929	1.934	1.938
0.000	-0.020	0.000	-0.059	-0.005	0.000	0.415	2.690	1.924	1.919	1.919	1.929	1.934	1.934
-0.005	-0.024	0.000	-0.029	-0.010	-0.024	0.420	2.690	1.919	1.919	1.919	1.938	1.929	1.924
-0.010	-0.020	0.000	-0.034	-0.010	-0.015	0.415	2.686	1.919	1.914	1.914	1.934	1.929	1.934
-0.005	-0.020	0.005	-0.005	-0.010	0.000	0.420	2.646	1.914	1.914	1.919	1.943	1.934	1.934
-0.020	-0.024	0.000	0.000	-0.005	-0.005	0.415	2.686	1.909	1.914	1.914	1.943	1.934	1.934
-0.024	-0.005	0.000	-0.005	0.005	0.000	0.425	2.686	1.909	1.914	1.914	1.938	1.938	1.934
-0.015	0.010	0.005	0.000	0.005	0.015	0.420	2.690	1.919	1.914	1.914	1.938	1.934	1.938
-0.010	-0.005	-0.005	0.000	0.000	0.015	0.425	2.700	1.919	1.914	1.914	1.938	1.934	1.938
-0.015	-0.024	0.000	0.010	-0.005	0.015	0.415	2.690	1.919	1.914	1.914	1.938	1.934	1.938
-0.005	-0.005	0.000	0.020	0.005	-0.005	0.425	2.700	1.929	1.924	1.919	1.943	1.938	1.934
0.010	0.005	0.005	0.029	0.015	0.010	0.420	2.690	1.929	1.929	1.924	1.943	1.943	1.943
0.029	0.020	-0.005	0.039	0.015	0.010	0.420	2.686	1.938	1.938	1.924	1.948	1.943	1.938
0.063	0.044	0.000	0.034	0.015	-0.020	0.410	2.681	1.943	1.943	1.934	1.943	1.938	1.934
0.093	0.034	0.005	0.039	0.005	0.005	0.420	2.695	1.948	1.948	1.938	1.948	1.943	1.943
0.088	0.020	0.005	0.020	0.000	-0.005	0.420	2.695	1.938	1.938	1.938	1.948	1.938	1.938
0.068	0.024	0.000	0.015	0.005	0.005	0.425	2.676	1.929	1.934	1.934	1.948	1.943	1.943
0.049	0.010	0.005	0.020	0.000	-0.010	0.420	2.695	1.914	1.924	1.934	1.948	1.938	1.938
0.015	0.000	0.005	0.005	0.010	0.000	0.420	2.690	1.904	1.914	1.929	1.943	1.943	1.943
-0.010	-0.010	0.000	-0.010	0.010	-0.005	0.415	2.690	1.904	1.904	1.919	1.938	1.938	1.934
-0.029	-0.029	0.005	-0.024	0.000	0.010	0.420	2.695	1.899	1.899	1.909	1.929	1.934	1.938
-0.024	-0.020	0.005	-0.015	0.000	0.005	0.415	2.676	1.899	1.899	1.909	1.929	1.929	1.938
-0.034	-0.015	0.005	-0.015	0.005	0.005	0.410	2.690	1.899	1.899	1.904	1.929	1.929	1.929
-0.034	0.005	0.010	-0.015	-0.005	0.000	0.420	2.686	1.909	1.904	1.904	1.924	1.924	1.924
-0.034	0.005	0.000	-0.010	0.000	0.010	0.425	2.705	1.914	1.909	1.904	1.929	1.924	1.934
-0.029	0.005	-0.005	-0.020	0.000	0.000	0.425	2.690	1.914	1.909	1.904	1.924	1.919	1.929
-0.005	-0.005	-0.005	-0.015	-0.005	0.000	0.415	2.686	1.924	1.909	1.909	1.924	1.919	1.929
-0.005	0.020	0.000	-0.005	-0.005	0.000	0.425	2.681	1.929	1.924	1.914	1.934	1.924	1.929
-0.005	0.000	0.000	-0.005	0.000	0.000	0.420	2.671	1.924	1.919	1.914	1.929	1.924	1.924
-0.010	-0.010	-0.005	-0.005	0.005	0.005	0.420	2.695	1.919	1.914	1.914	1.934	1.929	1.929
-0.005	-0.010	0.010	-0.010	0.005	0.000	0.415	2.690	1.919	1.919	1.919	1.934	1.929	1.929
-0.015	0.005	0.015	0.000	0.000	0.005	0.425	2.695	1.924	1.924	1.919	1.938	1.929	1.929
-0.010	0.000	0.000	0.015	0.000	0.000	0.415	2.666	1.919	1.919	1.919	1.943	1.934	1.929
-0.005	0.015	0.005	0.029	-0.005	0.005	0.425	2.676	1.919	1.924	1.919	1.943	1.934	1.934
0.000	0.000	0.000	0.024	0.000	0.000	0.415	2.681	1.919	1.919	1.914	1.943	1.934	1.929
0.005	0.010	0.000	0.020	0.010	0.005	0.425	2.686	1.914	1.919	1.914	1.938	1.934	1.929
0.010	0.010	0.000	0.029	0.005	0.000	0.415	2.681	1.914	1.914	1.914	1.938	1.934	1.934
0.000	-0.005	0.015	0.024	0.005	0.005	0.420	2.690	1.909	1.909	1.914	1.934	1.934	1.934
-0.005	0.010	0.010	0.024	0.000	0.005	0.420	2.681	1.909	1.914	1.914	1.929	1.929	1.934
-0.005	-0.005	0.000	0.015	0.005	-0.024	0.420	2.686	1.909	1.899	1.904	1.929	1.929	1.919
0.000	-0.010	0.005	0.010	0.005	0.010	0.420	2.681	1.909	1.904	1.904	1.924	1.924	1.934
-0.010	0.015	0.000	0.005	0.000	-0.005	0.425	2.690	1.914	1.914	1.904	1.924	1.924	1.924
0.010	-0.015	-0.005	0.000	0.005	0.000	0.420	2.686	1.914	1.904	1.904	1.924	1.919	1.929
0.000	-0.010	0.000	-0.010	0.005	-0.005	0.425	2.700	1.919	1.914	1.909	1.924	1.919	1.919
-0.005	-0.005	-0.005	-0.020	0.010	0.010	0.415	2.690	1.919	1.909	1.909	1.924	1.919	1.929
0.005	-0.010	0.000	-0.015	0.005	0.010	0.420	2.686	1.919	1.914	1.909	1.924	1.924	1.929
0.024	-0.010	0.005	-0.015	0.000	-0.010	0.420	2.690	1.924	1.919	1.914	1.929	1.919	1.919
0.015	-0.020	0.000	-0.020	0.000	0.010	0.415	2.705	1.924	1.919	1.914	1.929	1.924	1.924
0.024	-0.029	-0.005	-0.034	0.000	0.015	0.420	2.671	1.924	1.919	1.919	1.924	1.919	1.929
0.024	-0.015	0.000	-0.029	0.005	0.015	0.420	2.690	1.914	1.919	1.914	1.929	1.924	1.924
0.010	0.015	-0.005	-0.015	0.005	0.010	0.425	2.700	1.919	1.929	1.919	1.934	1.929	1.924
0.005	0.015	0.000	0.010	-0.005	-0.020	0.420	2.695	1.914	1.924	1.919	1.943	1.924	1.914
-0.005	0.020	-0.005	0.020	0.010	0.010	0.420	2.695	1.909	1.914	1.919	1.943	1.929	1.929
-0.010	0.039	0.000	0.039	0.010	0.000	0.415	2.690	1.909	1.914	1.919	1.943	1.934	1.924
-0.020	0.039	0.000	0.049	0.000	0.015	0.420	2.695	1.909	1.914	1.914	1.943	1.934	1.929
-0.010	0.034	0.005	0.044	0.000	0.015	0.415	2.705	1.914	1.914	1.914	1.938	1.934	1.934
-0.005	0.020	0.005	0.024	0.000	-0.005	0.425	2.676	1.914	1.909	1.909	1.929	1.934	1.924
0.000	-0.005	-0.005	0.000	-0.005	0.020	0.415	2.671	1.909	1.899	1.904	1.919	1.924	1.934
0.000	-0.010	0.000	-0.005	-0.005	-0.005	0.425	2.690	1.909	1.904	1.904	1.919	1.919	1.924
0.000	-0.010	0.000	-0.024	-0.005	-0.005	0.420	2.700	1.914	1.904	1.899	1.919	1.919	1.924
0.000	0.005	0.000	-0.024	-0.010	-0.005	0.420	2.695	1.919	1.914	1.904	1.919	1.919	1.919
0.005	0.005	0.005	-0.029	-0.005	-0.034	0.420	2.690	1.919	1.914	1.909	1.919	1.914	1.914
0.000	-0.010	0.000	-0.010	-0.005	0.000	0.425	2.690	1.914	1.914	1.909	1.929	1.924	1.924
0.010	-0.005	0.000	-0.005	0.000	0.000	0.420	2.690	1.914	1.914	1.914	1.929	1.924	1.929
0.005	-0.005	-0.005	-0.020	0.005	0.005	0.425	2.695	1.914	1.914	1.914	1.924	1.929	1.929
-0.010	0.005	0.000	-0.029	0.015	-0.005	0.415	2.686	1.909	1.914	1.914	1.924	1.924	1.924
-0.005	0.010	0.005	-0.024	0.010	-0.005	0.420	2.681	1.909	1.919	1.914	1.929	1.924	1.924
-0.005	0.010	0.000	0.000	0.020	0.000	0.415	2.690	1.909	1.914	1.914	1.934	1.929	1.924
-0.005	0.005	-0.005	0.005	0.015	-0.024	0.420	2.651	1.909	1.904	1.909	1.934	1.924	1.919
0.005	-0.020	0.010	0.015	0.005	0.010	0.420	2.671	1.914	1.904	1.909	1.934	1.929	1.929
0.000	-0.015	0.005	0.024	0.010	-0.010	0.425	2.686	1.909	1.899	1.904	1.934	1.929	1.929
0.005	-0.020	0.005	0.034	0.005	-0.005	0.420	2.690	1.904	1.904	1.904	1.934	1.929	1.924
-0.005	-0.015	0.000	0.034	0.010	0.024	0.420	2.651	1.904	1.904	1.899	1.929	1.929	1.934
-0.020	-0.010	0.000	0.020	-0.005	0.005	0.415	2.681	1.904	1.904	1.899	1.919	1.919	1.924
-0.024	-0.005	0.005	0.000	0.000	0.010	0.425	2.676	1.899	1.904	1.899	1.914	1.919	1.924
-0.015	-0.015	0.010	0.000	-0.005	0.010	0.420	2.695	1.909	1.904	1.904	1.914	1.914	1.919
-0.010	0.000	0.000	-0.005	-0.010	-0.024	0.420	2.671	1.909	1.909	1.904	1.919	1.914	1.909
-0.015	-0.005	0.000	0.005	0.000	0.000	0.420	2.695	1.914	1.909	1.904	1.924	1.914	1.924
-0.005	0.020	-0.005	0.005	0.005	-0.010	0.415	2.695	1.919	1.919	1.909	1.924	1.919	1.919
0.015	0.010	-0.005	0.010	0.005	0.005	0.425	2.690	1.924	1.919	1.909	1.924	1.919	1.924
0.024	0.024	0.000	0.000	0.000	-0.010	0.415	2.690	1.929	1.924	1.914	1.929	1.919	1.914
0.039	0.024	0.000	0.005	0.000	-0.010	0.425	2.700	1.934	1.924	1.919	1.934	1.919	1.919
0.049	0.020	0.000	0.005	-0.005	0.000	0.415	2.681	1.924	1.924	1.919	1.934	1.924	1.924
0.044	0.024	0.005	0.000	0.005	-0.005	0.420	2.686	1.914	1.919	1.919	1.934	1.924	1.924
0.034	0.015	0.000	-0.010	0.000	0.005	0.420	2.808	1.924	1.914	1.914	1.934	1.924	1.924
0.024	-0.005	0.000	-0.015	-0.005	0.015	0.420	2.686	1.909	1.909	1.914	1.929	1.924	1.929
0.010	-0.010	0.000	0.000	0.000	0.010	0.420	2.676	1.909	1.904	1.909	1.934	1.924	1.924
-0.010	0.005	0.000	-0.005	0.000	0.000	0.425	2.700	1.899	1.904	1.909	1.929	1.924	1.919
-0.044	0.000	0.000	-0.005	0.005	-0.005	0.420	2.671	1.890	1.899	1.909	1.924	1.924	1.919
-0.034	0.000	0.000	-0.005	0.005	-0.020	0.420	2.700	1.899	1.895	1.899	1.924	1.924	1.914
-0.034	-0.005	0.005	-0.010	0.015	-0.005	0.415	2.681	1.895	1.890	1.895	1.919	1.924	1.924
-0.044	-0.005	0.000	-0.005	0.005	0.005	0.420	2.695	1.904	1.895	1.895	1.919	1.919	1.919
-0.039	0.005	0.000	0.010	0.005	0.000	0.420	2.695	1.904	1.904	1.899	1.924	1.919	1.919
-0.029	-0.005	0.000	0.005	0.000	0.000	0.420	2.700	1.914	1.904	1.899	1.919	1.914	1.924
-0.005	-0.015	0.000	0.005	0.005	-0.010	0.415	2.686	1.919	1.909	1.899	1.919	1.919	1.924
0.010	-0.010	0.000	0.005	0.000	-0.005	0.425	2.705	1.924	1.914	1.904	1.924	1.919	1.924
0.029	-0.020	0.000	-0.005	-0.005	0.015	0.420	2.681	1.924	1.914	1.904	1.919	1.919	1.924
0.049	-0.005	0.000	-0.005	-0.010	-0.005	0.425	2.676	1.929	1.924	1.914	1.924	1.919	1.919
0.049	-0.010	0.005	0.000	0.000	0.015	0.420	2.700	1.929	1.919	1.914	1.929	1.919	1.924
0.044	-0.020	-0.005	0.010	0.005	0.005	0.420	2.686	1.919	1.919	1.914	1.929	1.924	1.924
0.044	-0.015	0.005	0.010	0.000	-0.005	0.415	2.681	1.914	1.919	1.914	1.934	1.924	1.919
0.029	0.010	0.005	0.015	0.005	0.005	0.420	2.695	1.909	1.924	1.919	1.934	1.929	1.924
0.024	0.020	0.010	0.015	0.010	0.000	0.420	2.695	1.904	1.919	1.919	1.934	1.924	1.924
0.005	0.015	0.005	0.005	0.005	-0.005	0.420	2.690	1.904	1.909	1.909	1.929	1.924	1.919
-0.015	0.000	0.005	-0.015	0.000	-0.005	0.420	2.690	1.895	1.899	1.909	1.919	1.924	1.924
-0.015	0.015	0.005	-0.020	0.015	-0.005	0.420	2.690	1.899	1.899	1.904	1.919	1.919	1.919
0.000	0.010	0.005	-0.005	0.010	-0.005	0.420	2.710	1.904	1.899	1.904	1.924	1.919	1.919
-0.010	0.005	0.000	0.010	0.010	0.000	0.420	2.681	1.904	1.899	1.904	1.929	1.919	1.919
-0.020	0.010	0.000	0.015	0.005	0.000	0.420	2.700	1.904	1.899	1.899	1.924	1.919	1.919
-0.005	0.020	0.010	0.020	0.005	-0.015	0.415	2.686	1.909	1.904	1.904	1.929	1.919	1.919
-0.015	0.020	0.005	0.015	-0.005	0.000	0.420	2.695	1.909	1.909	1.904	1.929	1.919	1.919
-0.005	0.015	0.005	0.000	0.000	0.000	0.415	2.700	1.909	1.909	1.904	1.924	1.919	1.924
-0.005	0.000	-0.005	0.010	0.005	-0.010	0.425	2.671	1.914	1.904	1.904	1.924	1.924	1.919
-0.005	-0.005	0.000	0.010	-0.005	-0.005	0.415	2.681	1.914	1.909	1.904	1.929	1.919	1.924
-0.005	-0.010	-0.005	0.010	0.000	0.005	0.420	2.695	1.914	1.904	1.904	1.924	1.924	1.929
-0.015	0.000	0.000	0.005	0.005	-0.020	0.420	2.686	1.909	1.909	1.909	1.924	1.924	1.919
0.005	-0.005	0.000	0.005	0.005	0.005	0.420	2.681	1.914	1.909	1.909	1.924	1.924	1.929
0.000	-0.005	0.000	-0.005	-0.005	0.024	0.415	2.695	1.914	1.904	1.904	1.919	1.919	1.929
-0.015	0.000	0.000	-0.015	-0.005	0.029	0.420	2.690	1.904	1.909	1.904	1.914	1.914	1.924
-0.015	0.000	-0.005	-0.024	-0.005	0.015	0.415	2.686	1.909	1.909	1.904	1.914	1.914	1.919
-0.005	0.010	-0.005	-0.020	0.000	0.010	0.420	2.671	1.904	1.904	1.904	1.919	1.914	1.914
-0.005	0.015	-0.005	-0.015	0.005	-0.005	0.420	2.686	1.904	1.904	1.899	1.919	1.914	1.909
-0.010	0.015	0.005	0.005	0.000	-0.015	0.425	2.686	1.904	1.904	1.904	1.924	1.909	1.904
-0.015	0.010	-0.005	0.005	0.000	0.005	0.425	2.695	1.899	1.899	1.899	1.924	1.914	1.914
-0.015	0.000	0.005	0.005	0.005	0.000	0.425	2.676	1.904	1.899	1.904	1.924	1.914	1.914
-0.010	0.005	0.005	-0.015	0.005	0.005	0.425	2.695	1.909	1.904	1.899	1.914	1.914	1.914
-0.010	0.000	0.000	-0.029	-0.005	-0.010	0.420	2.690	1.909	1.899	1.899	1.914	1.914	1.914
0.000	0.005	-0.005	-0.020	-0.010	-0.005	0.420	2.700	1.914	1.904	1.904	1.919	1.909	1.914
0.015	-0.005	0.005	0.000	0.005	0.000	0.415	2.695	1.914	1.909	1.904	1.924	1.919	1.919
0.020	-0.005	0.005	0.010	0.010	0.000	0.420	2.690	1.914	1.914	1.909	1.929	1.924	1.919
0.034	-0.005	0.015	0.015	0.005	-0.005	0.420	2.695	1.919	1.914	1.914	1.934	1.924	1.919
0.034	-0.010	0.005	0.010	0.005	-0.005	0.420	2.705	1.924	1.914	1.909	1.934	1.924	1.919
0.029	0.020	0.005	0.015	0.005	0.005	0.420	2.695	1.919	1.924	1.914	1.934	1.924	1.924
0.049	0.015	0.005	0.015	0.005	0.005	0.420	2.686	1.919	1.919	1.914	1.934	1.929	1.924
0.029	0.005	-0.005	0.005	0.005	0.010	0.420	2.720	1.914	1.909	1.909	1.929	1.924	1.924
0.020	0.000	-0.005	-0.020	0.000	-0.005	0.420	2.656	1.904	1.904	1.909	1.919	1.919	1.919
0.000	-0.005	-0.005	-0.020	0.000	0.010	0.415	2.661	1.895	1.899	1.904	1.919	1.919	1.924
0.000	-0.005	0.000	-0.010	0.000	-0.005	0.420	2.759	1.904	1.899	1.904	1.919	1.914	1.914
-0.010	0.000	0.000	0.005	0.005	0.005	0.415	2.656	1.895	1.895	1.899	1.924	1.919	1.919
-0.010	-0.005	0.000	0.010	0.010	-0.029	0.425	2.666	1.895	1.895	1.899	1.924	1.919	1.909
-0.015	0.005	0.005	0.015	0.000	-0.015	0.420	2.729	1.904	1.899	1.899	1.924	1.919	1.919
-0.020	0.000	0.000	0.010	-0.005	0.010	0.420	2.642	1.899	1.895	1.899	1.919	1.914	1.924
-0.005	-0.010	0.005	0.010	-0.005	0.020	0.420	2.744	1.909	1.895	1.899	1.919	1.914	1.924
-0.005	0.015	-0.005	0.020	0.000	0.020	0.425	2.725	1.904	1.909	1.899	1.919	1.919	1.924
-0.020	0.010	-0.005	0.015	-0.005	0.000	0.415	2.739	1.914	1.909	1.899	1.919	1.919	1.919
-0.010	0.029	0.000	0.015	0.000	0.000	0.425	2.734	1.919	1.919	1.909	1.919	1.919	1.914
-0.015	0.020	0.000	0.010	-0.005	0.020	0.415	2.651	1.909	1.914	1.909	1.924	1.919	1.924
-0.015	0.010	0.005	0.015	0.000	-0.005	0.425	2.739	1.919	1.909	1.909	1.929	1.919	1.919
-0.010	0.005	0.000	0.020	0.005	0.015	0.420	2.646	1.909	1.909	1.909	1.929	1.924	1.924
-0.020	-0.005	0.000	0.015	0.000	-0.020	0.425	2.720	1.904	1.904	1.909	1.929	1.919	1.914
-0.015	-0.010	0.005	0.015	0.000	0.010	0.420	2.666	1.899	1.899	1.904	1.924	1.924	1.924
0.005	-0.010	0.005	0.000	0.010	0.000	0.420	2.656	1.899	1.899	1.904	1.919	1.919	1.919
0.000	-0.015	0.005	-0.005	0.005	-0.005	0.420	2.793	1.909	1.899	1.899	1.914	1.914	1.914
0.000	0.000	0.000	-0.005	0.005	0.000	0.420	2.646	1.904	1.904	1.899	1.914	1.914	1.919
0.015	0.010	0.005	0.005	0.005	-0.015	0.425	2.656	1.904	1.909	1.904	1.919	1.914	1.914
0.005	-0.005	0.000	0.000	0.005	-0.005	0.415	2.729	1.890	1.899	1.899	1.919	1.914	1.919
0.005	-0.005	0.000	0.000	0.000	0.015	0.420	2.798	1.909	1.895	1.895	1.919	1.909	1.919
0.010	0.005	0.000	0.005	0.000	0.000	0.415	2.734	1.914	1.904	1.899	1.919	1.909	1.914
0.010	0.005	0.005	0.000	0.005	0.020	0.420	2.637	1.909	1.904	1.899	1.914	1.914	1.914
0.005	0.000	0.005	0.000	0.005	0.005	0.420	2.729	1.914	1.904	1.904	1.919	1.909	1.919
0.020	0.000	0.000	-0.005	0.005	0.005	0.425	2.642	1.909	1.909	1.904	1.914	1.914	1.914
0.015	0.000	0.000	-0.020	0.000	0.000	0.415	2.676	1.909	1.909	1.904	1.914	1.914	1.909
0.010	-0.005	0.005	-0.020	0.000	0.000	0.420	2.739	1.914	1.909	1.909	1.919	1.914	1.914
0.005	-0.005	0.005	-0.005	0.000	0.005	0.420	2.686	1.904	1.904	1.904	1.924	1.919	1.919
0.000	-0.015	0.000	0.000	0.005	0.005	0.420	2.661	1.904	1.904	1.904	1.929	1.919	1.919
0.000	0.000	0.000	0.010	0.000	0.005	0.420	2.681	1.909	1.909	1.904	1.929	1.919	1.919
0.005	0.005	0.005	0.010	0.000	0.010	0.425	2.715	1.914	1.914	1.909	1.929	1.924	1.924
0.000	0.015	0.000	0.010	0.000	0.010	0.420	2.705	1.909	1.909	1.909	1.924	1.919	1.919
0.020	0.010	0.005	0.000	-0.005	-0.015	0.425	2.681	1.914	1.909	1.904	1.924	1.919	1.914
0.029	0.000	0.000	0.005	0.000	0.005	0.420	2.700	1.909	1.904	1.904	1.924	1.919	1.919
0.024	-0.010	0.000	0.000	0.010	0.005	0.430	2.700	1.909	1.904	1.904	1.919	1.919	1.919
0.005	-0.005	0.000	-0.005	0.010	0.000	0.420	2.690	1.909	1.899	1.899	1.919	1.914	1.914
0.000	0.005	0.000	-0.005	0.010	0.000	0.420	2.686	1.899	1.904	1.899	1.914	1.914	1.909
0.000	0.010	0.000	-0.020	0.005	-0.010	0.415	2.700	1.899	1.899	1.899	1.909	1.914	1.909
0.000	-0.005	0.000	-0.015	0.005	-0.005	0.420	2.695	1.899	1.899	1.899	1.914	1.914	1.914
-0.005	-0.005	0.000	0.005	0.005	-0.020	0.415	2.695	1.909	1.899	1.899	1.924	1.914	1.909
-0.020	0.000	-0.005	0.010	-0.005	-0.005	0.420	2.690	1.904	1.904	1.899	1.924	1.914	1.914
-0.015	0.024	0.000	0.024	0.000	0.015	0.415	2.705	1.909	1.909	1.904	1.929	1.919	1.924
0.005	0.029	0.005	0.029	0.000	0.024	0.420	2.686	1.914	1.914	1.909	1.934	1.924	1.924
0.005	0.024	0.000	0.039	-0.005	0.015	0.415	2.686	1.914	1.914	1.909	1.934	1.924	1.924
-0.005	0.029	0.000	0.029	-0.005	0.020	0.425	2.700	1.914	1.914	1.909	1.929	1.929	1.924
0.000	0.000	0.000	0.005	0.000	0.005	0.415	2.705	1.914	1.904	1.909	1.924	1.924	1.919
-0.005	-0.010	0.005	-0.005	0.000	-0.015	0.420	2.700	1.909	1.904	1.904	1.919	1.919	1.914
0.010	0.000	0.000	-0.015	0.005	-0.005	0.420	2.695	1.914	1.909	1.904	1.919	1.919	1.914
0.010	-0.005	0.000	-0.015	0.005	-0.029	0.415	2.676	1.909	1.904	1.904	1.919	1.914	1.909
0.020	-0.005	0.005	-0.020	0.005	0.010	0.420	2.695	1.909	1.904	1.904	1.919	1.919	1.924
0.010	-0.010	0.000	-0.010	0.005	0.005	0.425	2.686	1.909	1.904	1.899	1.919	1.914	1.919
0.005	-0.015	0.000	-0.005	0.005	0.010	0.425	2.681	1.904	1.899	1.899	1.919	1.914	1.919
-0.010	-0.020	0.005	-0.005	0.010	-0.005	0.420	2.681	1.899	1.899	1.899	1.919	1.914	1.914
-0.005	-0.005	0.005	0.005	0.000	0.000	0.420	2.695	1.904	1.899	1.899	1.924	1.909	1.919
-0.005	-0.005	0.000	0.005	0.000	-0.010	0.415	2.661	1.895	1.899	1.895	1.919	1.914	1.909
-0.034	-0.005	0.010	0.010	0.005	0.029	0.420	2.661	1.885	1.895	1.899	1.919	1.914	1.924
-0.039	-0.010	0.000	0.015	0.005	0.020	0.420	2.764	1.904	1.895	1.895	1.919	1.914	1.919
-0.020	0.010	0.005	0.010	-0.005	0.015	0.420	2.651	1.909	1.909	1.899	1.919	1.914	1.919
-0.005	-0.005	0.000	0.005	-0.005	-0.015	0.420	2.651	1.909	1.904	1.899	1.914	1.909	1.904
0.000	0.005	0.000	-0.005	0.000	0.005	0.420	2.637	1.904	1.909	1.899	1.914	1.914	1.914
0.005	0.000	0.000	-0.010	0.010	-0.020	0.420	2.812	1.924	1.909	1.904	1.914	1.919	1.909
0.015	0.015	0.005	-0.010	0.005	0.005	0.420	2.749	1.929	1.919	1.909	1.919	1.919	1.919
0.024	0.010	0.005	0.000	0.010	-0.005	0.415	2.739	1.929	1.919	1.914	1.929	1.919	1.919
0.039	0.010	0.000	0.015	0.000	-0.005	0.420	2.720	1.934	1.924	1.914	1.934	1.919	1.919
0.049	0.000	0.000	0.010	0.000	-0.005	0.425	2.646	1.924	1.919	1.914	1.934	1.919	1.919
0.039	0.010	0.005	0.000	0.005	-0.015	0.420	2.686	1.919	1.919	1.914	1.929	1.919	1.919
0.024	0.024	0.000	0.005	0.010	0.000	0.415	2.627	1.904	1.919	1.914	1.929	1.924	1.924
0.020	0.010	-0.005	-0.005	0.005	0.015	0.425	2.656	1.895	1.904	1.909	1.919	1.919	1.929
0.000	0.000	0.000	-0.010	0.010	0.005	0.425	2.754	1.899	1.899	1.904	1.924	1.924	1.919
-0.010	-0.005	0.005	-0.005	0.005	0.000	0.425	2.686	1.899	1.895	1.899	1.924	1.919	1.914
-0.010	-0.010	0.000	-0.010	0.000	0.020	0.420	2.637	1.890	1.890	1.895	1.919	1.919	1.924
-0.024	-0.020	0.000	-0.005	0.000	0.005	0.415	2.705	1.895	1.890	1.895	1.919	1.914	1.919
-0.020	-0.010	0.005	-0.005	-0.005	0.010	0.415	2.700	1.904	1.899	1.895	1.914	1.914	1.914
-0.029	-0.015	0.000	-0.010	-0.005	-0.029	0.420	2.700	1.899	1.895	1.895	1.914	1.909	1.909
-0.024	-0.005	0.005	0.000	-0.005	0.010	0.420	2.700	1.909	1.904	1.904	1.919	1.914	1.919
-0.015	0.000	0.000	0.010	-0.005	-0.005	0.420	2.705	1.914	1.904	1.899	1.919	1.914	1.914
0.000	0.000	0.000	0.015	-0.005	-0.024	0.415	2.720	1.924	1.909	1.909	1.929	1.919	1.909
0.010	0.015	0.005	0.020	-0.005	-0.005	0.415	2.695	1.919	1.919	1.909	1.929	1.924	1.919
0.010	0.010	-0.005	0.024	-0.010	-0.010	0.420	2.695	1.919	1.914	1.909	1.929	1.924	1.919
0.000	0.010	-0.005	0.020	-0.005	0.020	0.415	2.695	1.914	1.914	1.909	1.929	1.924	1.934
0.005	0.005	0.000	0.010	0.005	0.015	0.415	2.710	1.924	1.914	1.909	1.929	1.924	1.924
0.010	0.015	0.005	0.000	0.010	0.000	0.420	2.705	1.919	1.919	1.909	1.924	1.924	1.919
0.005	0.034	0.000	-0.005	0.005	0.015	0.425	2.700	1.914	1.919	1.914	1.924	1.919	1.929
0.005	0.024	0.005	-0.005	0.010	0.005	0.420	2.690	1.909	1.914	1.914	1.924	1.919	1.924
0.005	0.010	-0.005	0.000	0.010	0.020	0.425	2.705	1.909	1.904	1.904	1.924	1.919	1.924
0.005	0.000	0.000	0.000	0.005	-0.005	0.420	2.686	1.904	1.904	1.904	1.924	1.919	1.914
0.005	0.000	0.000	-0.005	0.005	0.010	0.430	2.690	1.904	1.904	1.904	1.924	1.919	1.919
0.005	-0.010	0.010	-0.005	0.000	-0.005	0.420	2.695	1.904	1.899	1.904	1.919	1.914	1.914
0.000	-0.010	0.000	-0.005	0.000	-0.020	0.415	2.686	1.899	1.899	1.899	1.919	1.914	1.914
-0.010	-0.010	0.005	-0.005	-0.005	0.005	0.410	2.695	1.904	1.899	1.899	1.919	1.914	1.919
0.000	0.000	0.005	0.000	0.005	0.015	0.420	2.710	1.914	1.904	1.904	1.924	1.919	1.919
0.010	-0.005	0.010	0.000	0.015	0.000	0.415	2.686	1.909	1.909	1.904	1.924	1.924	1.919
0.000	0.000	0.005	0.005	0.010	0.000	0.420	2.676	1.909	1.909	1.904	1.924	1.919	1.919
0.000	0.005	0.000	0.000	-0.005	-0.005	0.415	2.695	1.914	1.909	1.904	1.924	1.919	1.919
0.015	-0.005	0.000	-0.005	0.000	-0.020	0.420	2.656	1.909	1.909	1.909	1.924	1.924	1.914
-0.005	-0.005	-0.010	0.000	0.010	0.005	0.415	2.656	1.899	1.904	1.904	1.924	1.924	1.924
-0.010	0.005	-0.005	0.000	0.000	0.005	0.415	2.793	1.914	1.909	1.904	1.924	1.919	1.924
-0.010	0.000	0.005	0.000	0.000	0.005	0.420	2.642	1.909	1.914	1.909	1.924	1.919	1.919
-0.010	0.000	0.000	-0.005	0.005	-0.029	0.420	2.656	1.904	1.904	1.909	1.924	1.919	1.909
-0.020	0.010	0.005	0.005	0.000	0.010	0.420	2.651	1.890	1.904	1.904	1.929	1.924	1.924
-0.005	-0.005	0.005	0.010	0.000	-0.010	0.425	2.803	1.909	1.899	1.904	1.924	1.919	1.919
-0.015	0.005	0.005	0.010	0.005	-0.005	0.425	2.642	1.904	1.904	1.904	1.924	1.919	1.919
0.000	0.000	0.005	0.005	0.000	0.010	0.425	2.637	1.899	1.899	1.904	1.919	1.919	1.924
0.005	0.000	-0.005	-0.010	0.000	0.015	0.425	2.744	1.904	1.899	1.895	1.914	1.914	1.919
0.005	0.005	0.000	-0.020	0.005	-0.015	0.420	2.744	1.904	1.904	1.904	1.909	1.914	1.909
0.010	-0.005	0.000	-0.015	-0.005	0.005	0.420	2.686	1.914	1.904	1.899	1.914	1.909	1.914
0.010	-0.005	0.010	-0.005	0.005	0.000	0.420	2.642	1.914	1.904	1.904	1.924	1.914	1.919
0.024	0.000	0.005	0.010	0.005	-0.005	0.425	2.671	1.919	1.909	1.904	1.924	1.914	1.914
0.029	0.010	0.005	0.015	-0.005	-0.015	0.415	2.734	1.919	1.914	1.909	1.929	1.919	1.919
0.024	0.010	-0.005	0.034	0.000	0.000	0.425	2.681	1.919	1.914	1.909	1.934	1.919	1.924
0.024	0.005	0.005	0.039	0.000	0.000	0.425	2.739	1.929	1.914	1.914	1.938	1.924	1.919
0.015	0.005	0.000	0.029	-0.005	0.005	0.415	2.700	1.919	1.914	1.914	1.934	1.929	1.924
0.015	0.005	0.000	0.024	0.005	0.005	0.415	2.700	1.914	1.914	1.914	1.934	1.929	1.924
0.010	0.010	0.005	0.020	0.005	0.010	0.425	2.700	1.914	1.919	1.914	1.929	1.929	1.929
0.010	-0.005	0.000	0.000	0.000	-0.005	0.420	2.690	1.904	1.909	1.914	1.924	1.924	1.924
-0.005	-0.010	0.000	-0.005	0.000	-0.010	0.425	2.700	1.904	1.904	1.909	1.924	1.919	1.919
-0.010	0.005	0.000	-0.010	0.000	0.015	0.420	2.690	1.909	1.909	1.909	1.924	1.919	1.924
-0.005	0.000	0.000	0.000	0.005	0.015	0.425	2.676	1.904	1.904	1.904	1.924	1.919	1.924
-0.010	-0.005	0.005	0.000	0.010	0.005	0.415	2.676	1.895	1.899	1.904	1.924	1.919	1.919
-0.010	-0.005	0.005	-0.010	0.010	-0.005	0.420	2.695	1.899	1.895	1.899	1.914	1.914	1.914
-0.005	0.000	0.005	-0.024	0.010	-0.005	0.415	2.695	1.904	1.899	1.899	1.914	1.914	1.914
0.000	-0.005	0.000	-0.024	0.005	-0.015	0.415	2.690	1.904	1.899	1.899	1.914	1.914	1.909
0.015	-0.020	0.005	-0.024	0.000	-0.005	0.420	2.695	1.914	1.904	1.899	1.914	1.914	1.914
0.005	-0.015	0.000	-0.015	0.005	-0.020	0.425	2.686	1.909	1.904	1.899	1.919	1.909	1.909
-0.020	-0.010	0.000	-0.010	0.000	0.015	0.425	2.700	1.899	1.904	1.899	1.919	1.914	1.924
-0.020	-0.015	-0.005	-0.005	0.000	-0.005	0.415	2.695	1.904	1.904	1.904	1.924	1.914	1.919
-0.029	0.000	-0.005	0.005	0.000	0.010	0.415	2.705	1.909	1.909	1.904	1.929	1.919	1.919
-0.029	0.000	0.000	0.020	0.000	0.005	0.415	2.700	1.914	1.914	1.909	1.934	1.924	1.919
-0.020	0.020	0.005	0.034	-0.005	0.010	0.420	2.700	1.914	1.919	1.914	1.934	1.929	1.924
0.005	0.049	0.000	0.034	0.005	0.010	0.410	2.700	1.924	1.929	1.919	1.934	1.929	1.929
0.015	0.049	0.000	0.039	0.005	0.005	0.420	2.695	1.924	1.924	1.919	1.934	1.929	1.929
0.020	0.034	0.005	0.020	0.005	-0.010	0.425	2.705	1.924	1.919	1.914	1.934	1.929	1.919
0.020	0.015	0.005	0.005	0.005	0.000	0.425	2.681	1.914	1.914	1.914	1.929	1.924	1.924
0.015	0.015	0.000	0.015	0.005	0.005	0.415	2.690	1.909	1.909	1.909	1.929	1.924	1.929
0.024	0.000	0.000	0.020	0.005	0.015	0.415	2.656	1.904	1.904	1.909	1.929	1.924	1.924
0.024	0.000	0.000	-0.005	0.005	0.015	0.420	2.666	1.899	1.899	1.904	1.919	1.919	1.924
0.024	-0.010	0.000	-0.029	0.000	-0.020	0.420	2.778	1.914	1.899	1.899	1.909	1.914	1.909
0.010	-0.024	0.000	-0.034	0.000	0.015	0.415	2.637	1.899	1.895	1.899	1.909	1.914	1.919
0.005	-0.015	0.000	-0.044	0.005	0.020	0.420	2.666	1.899	1.895	1.895	1.909	1.909	1.919
0.005	-0.010	0.000	-0.029	0.005	-0.005	0.415	2.632	1.895	1.899	1.899	1.914	1.909	1.914
0.005	-0.005	0.005	-0.020	0.005	0.005	0.425	2.798	1.909	1.904	1.899	1.924	1.914	1.914
0.000	0.005	0.000	0.000	-0.005	0.005	0.415	2.651	1.909	1.909	1.899	1.929	1.914	1.919
-0.005	0.010	0.005	0.024	0.000	0.010	0.420	2.749	1.914	1.909	1.909	1.934	1.919	1.919
-0.005	0.015	0.000	0.029	0.000	-0.020	0.425	2.725	1.919	1.914	1.909	1.934	1.924	1.919
-0.010	0.000	0.000	0.029	0.000	-0.015	0.425	2.744	1.919	1.904	1.909	1.934	1.924	1.914
-0.010	0.005	0.000	0.029	0.000	0.005	0.420	2.681	1.919	1.914	1.909	1.934	1.924	1.929
-0.005	0.000	0.005	0.024	0.000	-0.024	0.420	2.642	1.909	1.909	1.909	1.929	1.924	1.919
-0.005	0.005	-0.005	0.005	0.000	-0.015	0.415	2.676	1.909	1.909	1.904	1.924	1.919	1.919
-0.005	0.000	0.000	0.000	0.000	0.015	0.425	2.725	1.914	1.909	1.904	1.924	1.924	1.929
-0.015	0.015	0.005	0.005	0.005	0.005	0.425	2.686	1.904	1.909	1.909	1.924	1.919	1.924
-0.020	-0.005	0.000	0.005	0.005	0.010	0.415	2.715	1.909	1.899	1.904	1.924	1.919	1.924
-0.005	0.000	0.005	0.005	0.000	0.010	0.420	2.705	1.914	1.909	1.904	1.919	1.919	1.919
-0.005	-0.024	0.000	0.000	-0.005	0.010	0.425	2.705	1.909	1.895	1.899	1.919	1.914	1.919
0.005	-0.020	0.000	-0.010	0.005	0.005	0.425	2.705	1.909	1.899	1.899	1.914	1.914	1.914
0.010	-0.005	0.000	-0.005	0.000	0.005	0.420	2.700	1.909	1.904	1.899	1.914	1.909	1.914
-0.005	-0.010	0.005	-0.005	0.005	0.010	0.425	2.700	1.914	1.909	1.904	1.919	1.914	1.914
0.005	-0.005	0.010	-0.005	0.000	0.015	0.420	2.690	1.914	1.909	1.904	1.919	1.914	1.914
0.005	-0.005	0.005	0.000	0.000	0.010	0.425	2.686	1.909	1.909	1.909	1.924	1.914	1.914
0.010	0.005	0.005	-0.005	0.000	0.010	0.420	2.690	1.914	1.914	1.909	1.929	1.919	1.919
0.005	0.015	0.000	-0.005	-0.005	0.005	0.420	2.690	1.914	1.919	1.914	1.929	1.919	1.919
0.000	0.005	0.000	0.000	-0.005	-0.010	0.415	2.700	1.914	1.909	1.914	1.929	1.919	1.914
0.000	0.010	0.000	0.000	0.005	0.005	0.425	2.700	1.914	1.914	1.914	1.934	1.924	1.924
0.005	0.005	-0.005	-0.005	0.010	-0.005	0.415	2.700	1.914	1.914	1.914	1.929	1.924	1.919
-0.010	0.020	0.000	-0.005	-0.005	-0.015	0.425	2.695	1.914	1.919	1.909	1.929	1.924	1.919
-0.010	0.015	0.000	-0.005	0.000	0.010	0.415	2.695	1.909	1.914	1.914	1.929	1.924	1.924
0.000	0.024	0.000	0.000	0.005	0.000	0.425	2.686	1.904	1.909	1.909	1.929	1.924	1.924
-0.005	0.000	0.005	-0.005	0.005	0.000	0.415	2.705	1.909	1.904	1.909	1.929	1.924	1.924
0.000	0.000	0.010	-0.005	0.000	-0.020	0.420	2.686	1.909	1.899	1.904	1.924	1.924	1.914
0.000	-0.005	0.005	0.000	-0.005	0.010	0.415	2.686	1.904	1.899	1.899	1.924	1.924	1.929
-0.010	-0.005	0.005	0.005	0.000	0.010	0.425	2.700	1.909	1.904	1.904	1.924	1.919	1.924
0.000	0.000	0.005	0.000	0.000	0.010	0.420	2.695	1.909	1.899	1.904	1.919	1.914	1.924
-0.005	0.000	0.010	0.005	0.000	0.005	0.420	2.705	1.904	1.899	1.899	1.924	1.919	1.919
-0.005	0.010	0.005	0.000	0.005	0.000	0.425	2.686	1.909	1.909	1.904	1.919	1.919	1.919
-0.010	0.005	0.000	0.000	0.010	-0.029	0.425	2.695	1.909	1.909	1.899	1.919	1.919	1.914
0.005	0.010	0.000	0.000	0.010	-0.020	0.415	2.651	1.909	1.909	1.904	1.924	1.919	1.919
0.020	0.005	0.005	0.000	0.005	0.010	0.420	2.651	1.909	1.909	1.904	1.919	1.919	1.924
0.010	-0.020	0.000	0.000	0.000	-0.005	0.420	2.661	1.909	1.904	1.899	1.924	1.919	1.919
0.020	-0.010	-0.005	0.000	-0.005	-0.010	0.420	2.798	1.929	1.909	1.904	1.924	1.919	1.919
0.015	-0.005	0.000	0.000	-0.005	0.015	0.420	2.666	1.919	1.914	1.909	1.929	1.919	1.924
0.039	0.005	0.000	0.005	-0.005	0.005	0.425	2.744	1.929	1.924	1.914	1.929	1.919	1.924
0.024	-0.005	0.000	0.000	0.000	0.020	0.425	2.720	1.934	1.919	1.914	1.929	1.924	1.929
0.020	-0.005	0.000	0.000	0.005	-0.010	0.420	2.729	1.924	1.919	1.909	1.929	1.924	1.914
0.000	-0.005	-0.005	-0.005	0.015	0.010	0.420	2.744	1.924	1.919	1.914	1.929	1.924	1.924
0.005	0.000	-0.005	0.000	0.010	0.015	0.415	2.627	1.909	1.919	1.914	1.929	1.924	1.924
-0.005	-0.015	0.005	-0.005	0.010	0.010	0.420	2.642	1.899	1.904	1.914	1.924	1.919	1.924
-0.005	-0.015	0.000	0.000	-0.005	-0.005	0.420	2.715	1.904	1.904	1.909	1.924	1.919	1.919
-0.005	-0.010	0.000	0.005	0.000	0.000	0.425	2.744	1.909	1.904	1.904	1.929	1.919	1.914
-0.005	-0.005	0.000	0.005	0.000	0.005	0.420	2.676	1.904	1.904	1.904	1.929	1.919	1.919
0.000	0.010	0.000	0.015	0.000	0.000	0.420	2.729	1.909	1.909	1.909	1.929	1.919	1.919
-0.010	0.020	0.005	0.015	0.000	0.005	0.415	2.695	1.909	1.914	1.909	1.929	1.924	1.924
-0.005	0.054	0.000	0.010	0.000	-0.020	0.415	2.734	1.914	1.924	1.914	1.929	1.924	1.914
-0.005	0.034	-0.005	0.010	-0.005	0.010	0.410	2.676	1.914	1.914	1.914	1.929	1.924	1.929
-0.010	0.015	0.005	0.000	0.000	0.015	0.430	2.690	1.909	1.914	1.914	1.929	1.929	1.929
-0.024	0.005	0.000	-0.015	0.000	0.010	0.420	2.705	1.909	1.909	1.909	1.924	1.924	1.929
-0.024	-0.005	-0.005	-0.015	0.000	-0.005	0.425	2.690	1.914	1.909	1.909	1.924	1.924	1.924
-0.020	-0.005	0.000	-0.005	0.005	-0.020	0.420	2.705	1.914	1.909	1.909	1.929	1.924	1.919
-0.005	-0.010	0.000	-0.010	0.010	0.015	0.425	2.686	1.914	1.909	1.909	1.929	1.924	1.934
0.010	-0.010	0.000	-0.015	0.000	0.010	0.420	2.700	1.919	1.914	1.909	1.929	1.924	1.924
0.000	-0.005	0.000	-0.005	0.005	0.010	0.425	2.695	1.919	1.914	1.909	1.929	1.924	1.924
0.020	-0.010	0.000	0.005	-0.005	0.010	0.410	2.690	1.914	1.914	1.909	1.929	1.924	1.924
0.039	-0.020	0.000	0.020	0.000	0.000	0.425	2.700	1.924	1.914	1.909	1.929	1.924	1.919
0.044	-0.015	-0.005	0.015	0.005	-0.010	0.425	2.676	1.914	1.914	1.909	1.929	1.924	1.919
0.039	-0.024	0.000	0.010	0.000	-0.015	0.425	2.705	1.909	1.904	1.904	1.929	1.919	1.914
0.024	-0.020	-0.005	0.020	0.000	-0.010	0.415	2.700	1.904	1.904	1.904	1.929	1.924	1.924
0.005	-0.005	-0.005	0.034	0.005	0.000	0.415	2.681	1.899	1.909	1.904	1.929	1.924	1.924
0.005	0.020	0.000	0.029	0.010	0.020	0.420	2.700	1.904	1.914	1.909	1.929	1.924	1.934
-0.015	0.020	0.005	0.015	0.005	0.010	0.415	2.686	1.899	1.909	1.909	1.924	1.924	1.924
-0.024	0.039	0.005	0.010	0.005	-0.010	0.415	2.710	1.904	1.909	1.909	1.924	1.919	1.924
-0.020	0.024	0.010	0.000	0.005	0.015	0.420	2.705	1.909	1.909	1.909	1.924	1.924	1.929
-0.020	0.015	0.005	0.005	0.000	0.015	0.420	2.695	1.914	1.909	1.909	1.924	1.924	1.929
0.000	0.010	0.005	0.015	0.000	0.015	0.425	2.700	1.919	1.914	1.909	1.929	1.924	1.929
-0.005	0.000	0.000	0.010	-0.010	0.010	0.420	2.686	1.919	1.909	1.909	1.929	1.924	1.924
-0.005	0.000	-0.005	0.005	-0.005	-0.020	0.415	2.710	1.919	1.909	1.904	1.929	1.924	1.914
0.000	-0.015	-0.005	0.005	0.005	0.015	0.415	2.695	1.919	1.909	1.909	1.929	1.924	1.929
0.005	-0.015	0.000	-0.005	0.000	0.010	0.415	2.661	1.914	1.909	1.909	1.919	1.924	1.924
0.005	0.000	0.005	-0.020	0.000	0.010	0.425	2.661	1.909	1.909	1.909	1.919	1.919	1.924
-0.005	0.015	0.000	-0.024	-0.005	0.005	0.415	2.715	1.919	1.914	1.909	1.919	1.914	1.919
0.015	0.044	0.005	-0.010	0.000	-0.015	0.425	2.642	1.914	1.924	1.914	1.924	1.914	1.914
0.005	0.024	0.010	-0.005	0.005	0.010	0.420	2.651	1.899	1.909	1.909	1.924	1.919	1.919
-0.005	0.005	0.010	-0.005	0.005	-0.010	0.425	2.646	1.909	1.904	1.909	1.929	1.919	1.914
-0.005	0.020	0.000	-0.005	0.010	0.005	0.415	2.808	1.919	1.909	1.904	1.924	1.919	1.919
0.005	0.000	0.005	0.005	0.005	0.010	0.430	2.754	1.929	1.909	1.909	1.929	1.919	1.919
0.000	-0.005	0.000	0.005	0.005	-0.015	0.425	2.642	1.914	1.914	1.904	1.924	1.919	1.914
0.000	0.000	0.000	-0.005	0.000	0.010	0.425	2.754	1.919	1.914	1.904	1.924	1.919	1.919
0.015	0.005	-0.005	-0.005	0.000	0.000	0.420	2.759	1.929	1.919	1.909	1.924	1.924	1.919
0.000	-0.005	0.005	-0.015	0.000	-0.005	0.425	2.690	1.919	1.914	1.914	1.924	1.924	1.919
-0.005	-0.015	0.005	-0.024	0.005	-0.005	0.420	2.642	1.909	1.914	1.909	1.919	1.924	1.929
-0.005	-0.015	0.005	-0.020	0.005	-0.020	0.420	2.666	1.909	1.914	1.909	1.929	1.924	1.919
0.000	-0.010	-0.005	-0.005	0.005	0.010	0.420	2.729	1.914	1.914	1.909	1.934	1.924	1.924
0.015	-0.015	-0.005	0.005	0.010	0.010	0.425	2.676	1.914	1.914	1.914	1.934	1.929	1.929
0.000	-0.015	-0.005	0.010	0.000	0.005	0.425	2.637	1.904	1.909	1.909	1.934	1.929	1.929
-0.005	-0.010	-0.005	0.010	0.000	0.000	0.420	2.695	1.904	1.904	1.909	1.929	1.929	1.929
-0.005	-0.010	-0.005	0.005	0.005	0.000	0.425	2.681	1.904	1.904	1.909	1.929	1.924	1.924
-0.005	-0.010	-0.005	0.015	0.005	-0.015	0.420	2.710	1.904	1.904	1.904	1.929	1.924	1.924
0.015	-0.005	-0.010	0.005	0.000	-0.020	0.420	2.690	1.909	1.904	1.899	1.924	1.924	1.919
0.005	0.000	-0.010	0.000	0.005	-0.010	0.415	2.695	1.909	1.909	1.899	1.919	1.919	1.919
0.005	0.005	-0.010	0.010	0.000	0.000	0.420	2.690	1.904	1.904	1.904	1.924	1.919	1.924
0.005	0.000	-0.015	0.005	0.000	-0.010	0.415	2.695	1.909	1.904	1.899	1.919	1.914	1.919
0.000	0.000	-0.010	0.010	-0.005	-0.010	0.425	2.681	1.904	1.904	1.904	1.919	1.914	1.919
-0.005	-0.005	0.010	0.010	-0.005	0.005	0.420	2.695	1.904	1.904	1.909	1.919	1.919	1.924
-0.010	0.000	0.020	0.005	-0.005	0.015	0.420	2.700	1.909	1.909	1.909	1.924	1.919	1.924
-0.005	0.000	0.024	-0.005	0.000	0.010	0.410	2.695	1.914	1.909	1.909	1.924	1.924	1.924
0.005	-0.005	0.034	0.000	0.000	-0.005	0.420	2.715	1.919	1.914	1.914	1.929	1.924	1.919
0.010	0.010	0.024	0.000	0.010	0.005	0.410	2.700	1.924	1.919	1.914	1.929	1.924	1.929
0.005	-0.005	0.015	-0.005	0.000	0.000	0.420	2.700	1.919	1.914	1.909	1.929	1.924	1.924
0.015	0.020	0.005	0.005	0.000	0.015	0.420	2.690	1.919	1.924	1.909	1.929	1.924	1.929
0.010	0.015	0.005	0.000	0.000	0.000	0.430	2.686	1.914	1.919	1.909	1.929	1.924	1.919
0.005	0.015	-0.005	0.000	0.005	0.010	0.420	2.690	1.914	1.914	1.909	1.929	1.924	1.924
0.010	0.015	-0.015	0.005	0.005	0.010	0.415	2.705	1.914	1.914	1.909	1.929	1.924	1.924
-0.005	0.005	-0.005	0.000	0.005	0.005	0.415	2.700	1.909	1.909	1.909	1.924	1.924	1.924
-0.005	-0.005	-0.005	0.005	0.000	0.000	0.425	2.700	1.904	1.904	1.904	1.924	1.919	1.919
0.000	0.010	-0.005	0.000	0.000	-0.005	0.415	2.690	1.909	1.909	1.904	1.919	1.919	1.919
0.010	0.005	0.000	0.000	0.000	-0.005	0.420	2.676	1.909	1.904	1.904	1.919	1.919	1.919
-0.005	0.000	0.010	0.000	0.000	0.005	0.420	2.690	1.904	1.904	1.904	1.924	1.919	1.919
-0.005	0.000	0.005	0.000	0.005	-0.010	0.420	2.656	1.899	1.899	1.899	1.924	1.919	1.919
-0.010	-0.010	0.005	0.000	0.000	-0.005	0.420	2.666	1.895	1.899	1.899	1.924	1.914	1.919
-0.005	-0.005	0.000	0.000	-0.005	0.000	0.420	2.788	1.914	1.899	1.899	1.919	1.914	1.919
-0.005	-0.005	0.000	0.000	0.000	-0.020	0.420	2.651	1.909	1.904	1.899	1.919	1.914	1.914
0.000	-0.015	-0.005	0.005	-0.005	0.005	0.420	2.651	1.909	1.909	1.899	1.924	1.919	1.919
0.000	0.005	0.000	0.000	-0.005	-0.024	0.420	2.642	1.899	1.909	1.904	1.924	1.914	1.914
-0.010	0.010	0.000	0.000	0.005	-0.010	0.420	2.798	1.919	1.914	1.909	1.924	1.919	1.919
-0.005	0.005	-0.005	0.000	0.000	0.005	0.415	2.637	1.909	1.914	1.904	1.924	1.919	1.924
-0.010	0.010	0.000	0.005	0.005	0.000	0.420	2.656	1.909	1.909	1.909	1.924	1.924	1.924
0.000	0.020	-0.005	0.000	0.005	0.005	0.425	2.759	1.924	1.914	1.909	1.924	1.924	1.924
-0.010	0.010	0.000	0.005	0.000	0.005	0.415	2.661	1.909	1.909	1.909	1.929	1.924	1.924
-0.034	0.010	0.000	0.000	0.005	-0.029	0.425	2.686	1.904	1.904	1.909	1.924	1.919	1.914
-0.020	0.010	0.005	0.005	0.005	0.015	0.425	2.646	1.909	1.904	1.904	1.924	1.919	1.924
-0.020	0.005	0.005	0.000	0.005	-0.010	0.420	2.666	1.904	1.899	1.899	1.919	1.914	1.914
-0.005	0.000	0.005	0.000	0.010	0.000	0.415	2.729	1.914	1.904	1.904	1.919	1.914	1.914
-0.005	0.005	-0.005	-0.005	0.005	0.010	0.430	2.681	1.909	1.904	1.899	1.919	1.914	1.919
0.015	0.010	-0.005	-0.010	0.005	0.005	0.415	2.632	1.909	1.909	1.899	1.914	1.909	1.914
0.024	0.015	-0.020	-0.005	-0.005	0.015	0.425	2.695	1.914	1.909	1.899	1.914	1.914	1.919
0.034	0.010	-0.029	-0.010	0.000	-0.005	0.420	2.695	1.914	1.909	1.899	1.914	1.909	1.909
0.044	0.010	-0.020	-0.005	0.000	0.010	0.420	2.705	1.914	1.909	1.904	1.924	1.914	1.914
0.039	-0.005	0.005	0.024	0.000	0.015	0.415	2.705	1.924	1.909	1.914	1.934	1.919	1.919
0.044	-0.020	0.010	0.029	-0.005	0.010	0.425	2.700	1.924	1.919	1.914	1.934	1.924	1.919
0.044	-0.005	0.020	0.024	-0.005	0.000	0.420	2.690	1.919	1.924	1.919	1.934	1.924	1.919
0.039	0.005	0.024	0.024	0.000	0.020	0.425	2.705	1.914	1.919	1.919	1.938	1.929	1.924
0.015	0.005	0.020	0.024	-0.010	0.005	0.425	2.710	1.909	1.919	1.919	1.938	1.929	1.919
0.015	0.015	0.024	0.029	0.000	-0.005	0.430	2.700	1.914	1.919	1.919	1.938	1.934	1.924
0.000	0.000	0.029	0.010	0.000	0.024	0.425	2.710	1.909	1.909	1.919	1.929	1.929	1.934
0.000	-0.015	0.024	0.010	0.005	0.024	0.430	2.690	1.909	1.899	1.909	1.929	1.929	1.934
-0.020	-0.024	0.020	-0.010	0.005	0.015	0.420	2.695	1.909	1.899	1.904	1.924	1.924	1.929
-0.020	-0.024	0.010	-0.010	0.010	0.005	0.410	2.705	1.909	1.904	1.899	1.919	1.924	1.919
-0.020	-0.020	0.005	-0.005	0.005	-0.024	0.415	2.700	1.904	1.904	1.895	1.914	1.914	1.909
-0.005	-0.005	-0.015	0.005	0.005	0.000	0.420	2.695	1.904	1.904	1.895	1.919	1.914	1.919
-0.010	0.010	-0.020	-0.005	0.005	-0.020	0.420	2.671	1.904	1.909	1.895	1.914	1.914	1.909
-0.010	0.000	-0.020	-0.024	0.005	0.010	0.420	2.705	1.904	1.899	1.895	1.909	1.909	1.919
-0.020	0.000	-0.005	-0.029	0.000	0.010	0.430	2.700	1.909	1.904	1.899	1.909	1.909	1.914
-0.024	-0.010	0.000	-0.020	0.000	0.005	0.420	2.700	1.909	1.904	1.899	1.914	1.909	1.914
-0.024	0.010	-0.015	-0.010	0.000	-0.005	0.420	2.686	1.909	1.909	1.899	1.919	1.909	1.914
0.000	0.015	-0.005	0.010	-0.005	-0.010	0.425	2.700	1.914	1.914	1.909	1.929	1.914	1.909
-0.010	0.020	0.000	0.015	0.000	-0.029	0.425	2.686	1.919	1.919	1.909	1.934	1.919	1.909
0.000	0.039	0.000	0.015	-0.005	0.010	0.415	2.695	1.914	1.919	1.909	1.934	1.924	1.929
0.005	0.024	0.005	0.015	-0.005	0.010	0.420	2.661	1.914	1.919	1.919	1.934	1.924	1.924
0.015	0.029	0.010	0.010	0.000	0.010	0.420	2.656	1.909	1.919	1.919	1.934	1.929	1.929
0.029	0.020	0.015	0.005	0.000	0.010	0.425	2.671	1.929	1.919	1.919	1.934	1.929	1.924
0.015	-0.005	0.005	0.010	0.000	0.010	0.420	2.642	1.909	1.909	1.914	1.934	1.929	1.924
0.000	-0.015	0.005	0.000	0.005	0.005	0.425	2.656	1.904	1.899	1.909	1.929	1.929	1.924
-0.005	-0.020	0.000	-0.005	0.010	0.000	0.415	2.637	1.904	1.895	1.904	1.924	1.924	1.924
-0.005	-0.010	-0.010	-0.005	0.005	0.005	0.420	2.812	1.919	1.904	1.895	1.919	1.924	1.919
-0.010	0.005	-0.010	-0.015	0.005	-0.005	0.415	2.725	1.904	1.904	1.899	1.919	1.914	1.914
-0.020	0.005	0.005	-0.010	0.005	0.005	0.420	2.739	1.909	1.909	1.904	1.919	1.914	1.919
-0.034	0.020	0.010	-0.005	0.000	0.000	0.415	2.739	1.909	1.909	1.909	1.924	1.914	1.914
-0.029	0.010	0.015	-0.005	0.000	-0.005	0.420	2.754	1.914	1.904	1.909	1.924	1.914	1.914
-0.020	0.005	0.024	0.005	0.005	-0.010	0.420	2.705	1.919	1.909	1.909	1.929	1.919	1.914
-0.010	-0.010	0.020	0.010	0.000	-0.010	0.430	2.734	1.924	1.909	1.909	1.929	1.919	1.919
-0.010	0.000	0.015	0.005	0.000	-0.010	0.420	2.681	1.924	1.914	1.909	1.929	1.919	1.919
0.015	-0.010	0.015	0.010	-0.005	0.000	0.420	2.744	1.929	1.919	1.914	1.929	1.924	1.924
0.015	-0.005	0.010	0.005	-0.005	-0.005	0.415	2.676	1.919	1.919	1.914	1.929	1.924	1.919
0.034	-0.005	0.005	0.005	0.010	0.015	0.420	2.632	1.919	1.919	1.919	1.934	1.929	1.934
0.029	-0.005	-0.010	0.000	-0.005	-0.010	0.420	2.705	1.919	1.919	1.914	1.929	1.929	1.924
0.034	-0.005	-0.020	0.000	0.005	0.020	0.425	2.690	1.919	1.919	1.909	1.929	1.924	1.934
0.034	0.000	-0.024	0.000	0.005	0.015	0.420	2.710	1.919	1.919	1.909	1.934	1.929	1.929
0.024	-0.010	-0.029	0.000	0.005	0.005	0.425	2.686	1.909	1.919	1.909	1.924	1.929	1.924
0.024	0.000	-0.020	0.000	0.000	-0.005	0.425	2.695	1.909	1.914	1.914	1.929	1.924	1.919
-0.005	-0.010	-0.005	-0.005	0.000	-0.005	0.425	2.700	1.904	1.904	1.914	1.929	1.919	1.919
-0.005	-0.005	0.000	-0.005	0.000	-0.005	0.425	2.695	1.904	1.904	1.909	1.929	1.919	1.919
0.000	-0.010	0.010	0.000	-0.005	0.000	0.415	2.700	1.904	1.904	1.909	1.924	1.924	1.919
0.000	0.000	0.010	0.000	0.000	0.000	0.420	2.700	1.904	1.904	1.909	1.924	1.919	1.919
-0.005	0.005	0.005	0.000	0.000	-0.010	0.415	2.690	1.904	1.904	1.904	1.929	1.919	1.919
0.000	0.005	0.005	0.005	0.000	-0.005	0.415	2.710	1.904	1.904	1.904	1.924	1.924	1.919
0.000	-0.005	0.010	0.010	0.000	0.000	0.415	2.695	1.909	1.904	1.904	1.929	1.924	1.919
-0.010	-0.005	0.010	0.010	0.000	-0.005	0.420	2.681	1.909	1.904	1.904	1.924	1.924	1.919
-0.005	0.005	0.005	0.010	0.000	-0.010	0.415	2.700	1.909	1.909	1.909	1.924	1.919	1.924
-0.005	0.005	0.000	0.010	0.000	-0.005	0.430	2.690	1.914	1.914	1.909	1.929	1.924	1.924
0.000	0.005	-0.005	0.005	0.000	0.005	0.425	2.695	1.914	1.909	1.904	1.929	1.924	1.929
0.005	0.000	-0.010	0.005	0.000	0.015	0.430	2.690	1.919	1.914	1.904	1.924	1.924	1.929
0.000	0.000	-0.005	0.000	-0.005	0.020	0.415	2.686	1.914	1.914	1.909	1.924	1.924	1.924
0.000	0.000	-0.005	0.000	0.000	0.015	0.420	2.681	1.909	1.909	1.909	1.924	1.924	1.924
0.000	-0.005	0.005	0.000	0.000	0.015	0.415	2.681	1.914	1.909	1.909	1.924	1.924	1.924
-0.005	-0.005	0.005	0.005	0.005	0.010	0.420	2.710	1.914	1.909	1.909	1.929	1.924	1.924
0.000	0.000	0.015	0.000	0.000	0.015	0.420	2.690	1.914	1.914	1.909	1.924	1.919	1.924
0.015	0.000	0.010	0.005	0.005	-0.005	0.420	2.681	1.909	1.909	1.909	1.924	1.919	1.919
0.005	0.010	0.000	0.005	0.010	0.015	0.420	2.651	1.899	1.909	1.904	1.924	1.919	1.924
-0.015	0.010	0.005	0.000	0.000	0.015	0.420	2.656	1.890	1.899	1.899	1.919	1.919	1.919
-0.020	-0.005	0.000	0.000	0.005	0.010	0.415	2.642	1.904	1.895	1.899	1.919	1.914	1.914
-0.020	0.000	0.000	-0.005	0.000	-0.010	0.420	2.646	1.899	1.895	1.895	1.919	1.914	1.914
-0.015	-0.010	0.000	0.000	0.005	-0.020	0.420	2.661	1.904	1.895	1.899	1.919	1.914	1.909
-0.020	-0.010	0.000	0.005	0.010	0.010	0.425	2.651	1.899	1.899	1.895	1.919	1.919	1.919
-0.005	0.000	-0.005	0.015	0.005	-0.024	0.420	2.793	1.919	1.904	1.899	1.919	1.914	1.914
0.000	0.000	0.005	0.010	0.005	-0.020	0.425	2.739	1.924	1.914	1.904	1.919	1.919	1.914
0.015	0.000	0.000	0.010	0.000	0.000	0.420	2.681	1.929	1.914	1.909	1.919	1.919	1.924
0.024	0.010	0.000	0.005	0.000	0.005	0.415	2.749	1.938	1.924	1.909	1.924	1.919	1.924
0.024	0.010	-0.005	-0.005	0.000	0.000	0.415	2.764	1.934	1.929	1.914	1.924	1.919	1.924
0.015	-0.010	0.000	0.000	0.000	-0.010	0.425	2.690	1.924	1.919	1.919	1.929	1.924	1.919
0.010	-0.015	0.010	0.000	-0.005	0.005	0.420	2.651	1.909	1.919	1.919	1.929	1.924	1.924
-0.005	-0.005	0.015	-0.005	0.000	0.000	0.420	2.666	1.909	1.919	1.914	1.934	1.924	1.924
-0.015	-0.005	0.005	-0.005	0.000	0.000	0.420	2.725	1.904	1.914	1.914	1.929	1.924	1.919
-0.010	0.015	0.005	-0.005	0.010	0.000	0.420	2.671	1.904	1.914	1.914	1.929	1.924	1.924
-0.015	0.005	0.005	-0.005	0.005	0.015	0.420	2.637	1.895	1.904	1.909	1.929	1.924	1.929
-0.005	0.000	0.005	-0.005	0.000	0.015	0.420	2.695	1.909	1.899	1.904	1.929	1.919	1.919
0.000	0.005	0.000	-0.005	0.005	0.010	0.425	2.695	1.904	1.904	1.904	1.924	1.924	1.919
-0.005	0.020	0.005	0.005	0.005	0.029	0.420	2.700	1.909	1.909	1.904	1.924	1.924	1.929
0.000	0.020	0.000	0.000	0.000	0.020	0.425	2.695	1.909	1.909	1.904	1.924	1.919	1.924
0.020	0.049	-0.005	0.010	0.010	0.015	0.410	2.700	1.919	1.919	1.904	1.929	1.919	1.919
0.015	0.034	-0.020	0.015	0.010	0.000	0.420	2.690	1.919	1.909	1.904	1.929	1.924	1.914
0.015	0.005	-0.020	0.010	0.010	0.000	0.415	2.676	1.909	1.904	1.904	1.924	1.924	1.924
0.010	-0.005	-0.010	0.005	0.000	-0.005	0.420	2.681	1.909	1.904	1.904	1.924	1.919	1.919
0.024	0.000	-0.024	0.010	0.000	-0.005	0.410	2.695	1.914	1.909	1.904	1.929	1.919	1.919
0.015	-0.005	-0.020	0.015	0.005	-0.020	0.425	2.710	1.914	1.909	1.904	1.924	1.924	1.914
0.010	-0.010	-0.005	0.000	0.000	0.010	0.415	2.700	1.909	1.909	1.909	1.924	1.924	1.929
0.005	-0.005	0.010	0.000	-0.005	-0.005	0.425	2.681	1.909	1.909	1.914	1.924	1.924	1.919
0.020	-0.005	0.010	-0.005	0.010	0.005	0.425	2.695	1.914	1.909	1.919	1.924	1.924	1.929
0.000	-0.005	0.005	-0.005	0.005	0.005	0.425	2.705	1.909	1.909	1.909	1.929	1.919	1.924
0.010	-0.010	-0.005	0.000	0.005	-0.020	0.425	2.710	1.909	1.904	1.904	1.924	1.919	1.914
0.005	-0.020	0.010	0.005	0.005	0.005	0.430	2.695	1.904	1.904	1.909	1.924	1.924	1.924
0.000	-0.015	0.020	0.000	0.000	0.010	0.415	2.690	1.899	1.904	1.909	1.924	1.919	1.924
-0.015	-0.010	0.034	-0.005	0.000	0.000	0.410	2.695	1.899	1.904	1.909	1.924	1.919	1.924
-0.020	0.010	0.049	0.000	0.005	0.000	0.415	2.705	1.904	1.904	1.909	1.924	1.919	1.919
-0.020	0.020	0.049	0.000	0.010	0.010	0.420	2.705	1.904	1.909	1.909	1.924	1.919	1.914
-0.010	0.000	0.044	0.000	0.000	0.005	0.425	2.700	1.904	1.899	1.904	1.924	1.919	1.914
-0.010	0.010	0.034	0.000	0.005	0.020	0.425	2.690	1.909	1.904	1.904	1.924	1.919	1.929
-0.010	0.024	0.029	0.005	0.000	0.020	0.425	2.700	1.914	1.909	1.904	1.924	1.919	1.924
-0.020	0.029	0.010	0.005	0.000	0.010	0.420	2.646	1.904	1.909	1.899	1.924	1.919	1.919
-0.024	0.010	0.005	0.005	-0.005	-0.020	0.420	2.661	1.904	1.899	1.899	1.924	1.914	1.914
-0.034	-0.005	0.000	0.005	-0.005	0.015	0.420	2.705	1.909	1.899	1.899	1.919	1.924	1.924
-0.039	-0.010	-0.015	0.010	-0.005	-0.010	0.420	2.642	1.904	1.904	1.895	1.919	1.919	1.909
-0.010	-0.010	-0.010	0.010	0.005	-0.020	0.420	2.656	1.914	1.909	1.899	1.919	1.919	1.914
0.024	-0.005	-0.020	0.000	0.005	0.000	0.425	2.651	1.924	1.914	1.899	1.919	1.919	1.924
0.039	-0.010	-0.029	0.000	0.005	0.015	0.415	2.808	1.934	1.914	1.899	1.914	1.914	1.919
0.044	-0.010	-0.024	0.000	0.005	0.015	0.425	2.739	1.934	1.919	1.904	1.919	1.919	1.924
0.034	0.000	-0.020	0.000	0.000	0.015	0.420	2.642	1.919	1.919	1.909	1.919	1.909	1.919
0.024	-0.010	-0.010	-0.005	0.005	0.010	0.420	2.744	1.919	1.914	1.914	1.924	1.914	1.914
0.024	-0.005	0.005	-0.005	0.005	-0.020	0.415	2.700	1.919	1.914	1.914	1.924	1.914	1.909
0.024	0.015	0.005	0.000	0.010	0.000	0.425	2.686	1.914	1.919	1.919	1.929	1.919	1.914
0.015	0.015	0.005	0.000	0.000	-0.005	0.420	2.627	1.895	1.914	1.914	1.929	1.914	1.909
0.005	0.010	0.005	0.000	0.005	-0.005	0.425	2.676	1.899	1.909	1.909	1.929	1.919	1.914
0.000	0.000	-0.020	0.000	0.000	-0.015	0.420	2.734	1.904	1.899	1.899	1.929	1.919	1.914
0.010	-0.005	-0.024	0.000	-0.010	0.010	0.425	2.676	1.904	1.899	1.899	1.924	1.919	1.924
-0.005	-0.005	-0.024	0.000	-0.005	0.005	0.425	2.632	1.895	1.899	1.899	1.924	1.919	1.919
-0.005	-0.005	0.000	0.005	0.000	-0.010	0.425	2.700	1.904	1.904	1.909	1.924	1.919	1.919
-0.015	-0.020	0.010	0.005	0.005	0.005	0.425	2.690	1.904	1.899	1.909	1.929	1.924	1.924
-0.039	0.000	0.024	0.005	0.005	0.000	0.420	2.705	1.899	1.904	1.909	1.929	1.924	1.919
-0.039	0.010	0.024	0.005	0.010	0.010	0.420	2.705	1.904	1.909	1.914	1.929	1.924	1.929
-0.049	0.010	0.024	0.000	0.000	0.005	0.420	2.700	1.909	1.909	1.909	1.924	1.924	1.924
-0.039	0.015	0.020	0.000	-0.005	0.005	0.415	2.690	1.914	1.909	1.909	1.924	1.924	1.924
-0.024	0.000	0.010	0.000	0.000	-0.024	0.420	2.676	1.914	1.909	1.904	1.924	1.924	1.914
-0.015	0.010	-0.010	0.005	-0.005	0.000	0.420	2.700	1.914	1.909	1.899	1.924	1.919	1.919
0.010	0.005	-0.010	0.000	0.010	-0.015	0.425	2.700	1.919	1.909	1.899	1.919	1.919	1.919
0.020	0.000	-0.010	0.000	0.010	0.005	0.430	2.681	1.919	1.904	1.904	1.919	1.919	1.924
0.034	0.010	-0.005	0.005	0.000	0.015	0.420	2.700	1.914	1.914	1.904	1.919	1.919	1.924
0.020	0.010	-0.005	0.005	0.000	0.020	0.420	2.695	1.914	1.914	1.904	1.919	1.914	1.924
0.034	0.010	0.005	0.005	0.005	0.005	0.415	2.690	1.914	1.914	1.909	1.924	1.914	1.914
0.024	0.005	0.000	-0.005	-0.005	-0.020	0.420	2.705	1.914	1.909	1.909	1.919	1.909	1.904
0.034	0.005	0.010	0.000	-0.005	0.010	0.425	2.681	1.909	1.909	1.909	1.924	1.914	1.919
0.024	0.005	0.000	0.000	0.005	-0.015	0.420	2.690	1.904	1.909	1.909	1.924	1.919	1.914
0.024	-0.005	-0.005	0.005	0.005	-0.015	0.415	2.695	1.909	1.909	1.904	1.929	1.924	1.914
0.020	0.000	-0.005	0.005	0.000	-0.010	0.420	2.690	1.909	1.909	1.909	1.929	1.924	1.919
0.010	0.000	0.005	0.005	0.005	-0.005	0.420	2.686	1.909	1.909	1.909	1.929	1.924	1.924
0.015	0.000	0.000	0.005	-0.005	-0.034	0.425	2.690	1.914	1.909	1.909	1.929	1.919	1.914
0.020	-0.015	0.000	0.005	0.000	0.000	0.415	2.710	1.914	1.909	1.909	1.929	1.924	1.929
0.005	-0.010	0.000	0.000	0.000	-0.005	0.430	2.686	1.909	1.904	1.904	1.924	1.924	1.924
-0.005	-0.005	-0.010	0.005	0.000	0.020	0.425	2.695	1.909	1.909	1.904	1.929	1.924	1.934
-0.010	-0.005	0.000	0.005	0.000	0.029	0.420	2.651	1.899	1.904	1.904	1.929	1.929	1.934
-0.010	0.005	-0.005	0.005	-0.005	0.044	0.420	2.661	1.899	1.909	1.904	1.924	1.924	1.934
-0.020	0.000	0.000	0.010	-0.005	0.034	0.430	2.661	1.899	1.899	1.904	1.924	1.919	1.929
-0.024	0.000	0.005	0.005	0.000	0.024	0.425	2.788	1.909	1.899	1.899	1.919	1.919	1.924
-0.034	-0.015	0.000	0.005	0.005	0.010	0.425	2.666	1.904	1.895	1.895	1.919	1.919	1.914
-0.020	-0.010	0.000	0.005	0.005	0.010	0.425	2.749	1.909	1.899	1.895	1.914	1.919	1.914
-0.015	-0.005	0.000	-0.005	-0.005	-0.005	0.425	2.798	1.919	1.904	1.895	1.914	1.909	1.909
-0.010	-0.005	0.005	0.000	-0.005	-0.005	0.420	2.651	1.914	1.909	1.899	1.914	1.909	1.909
0.000	0.005	0.000	0.000	0.010	-0.029	0.420	2.744	1.919	1.914	1.899	1.919	1.914	1.909
0.005	0.010	-0.005	0.000	0.005	-0.015	0.415	2.749	1.929	1.919	1.904	1.919	1.914	1.909
0.010	0.015	-0.005	0.000	0.005	0.005	0.420	2.637	1.914	1.919	1.909	1.924	1.914	1.919
0.005	0.015	-0.005	0.000	0.000	0.010	0.420	2.700	1.914	1.919	1.914	1.929	1.914	1.924
0.005	0.000	0.000	0.005	-0.010	0.010	0.420	2.734	1.919	1.914	1.914	1.929	1.919	1.924
0.015	0.000	0.000	0.000	-0.010	-0.005	0.420	2.686	1.919	1.919	1.914	1.929	1.919	1.919
0.010	0.005	0.005	0.000	0.010	-0.015	0.420	2.729	1.919	1.919	1.919	1.934	1.929	1.919
0.024	0.005	0.000	0.000	0.015	0.010	0.415	2.690	1.924	1.919	1.919	1.934	1.929	1.929
0.005	-0.005	0.005	0.000	0.005	0.000	0.415	2.729	1.919	1.919	1.919	1.934	1.929	1.924
0.010	0.005	0.000	-0.005	0.010	0.015	0.425	2.686	1.909	1.919	1.914	1.934	1.929	1.929
0.005	0.000	0.005	0.000	0.005	0.005	0.415	2.676	1.904	1.914	1.914	1.934	1.929	1.929
0.010	0.005	0.005	0.010	0.005	0.015	0.415	2.690	1.904	1.909	1.914	1.934	1.929	1.929
0.000	-0.010	0.000	0.010	0.000	0.024	0.420	2.695	1.904	1.904	1.909	1.934	1.929	1.929
-0.005	0.000	-0.010	0.005	0.000	0.005	0.425	2.700	1.904	1.904	1.899	1.929	1.924	1.919
-0.005	0.000	-0.010	0.005	0.010	0.020	0.425	2.710	1.909	1.899	1.899	1.924	1.919	1.919
0.005	-0.005	-0.015	0.005	-0.005	0.000	0.420	2.690	1.909	1.904	1.899	1.919	1.919	1.919
-0.005	0.000	0.005	0.005	-0.005	-0.020	0.420	2.700	1.909	1.904	1.909	1.924	1.919	1.909
0.005	0.000	0.000	0.005	-0.005	-0.024	0.430	2.700	1.909	1.909	1.904	1.919	1.919	1.909
0.005	0.005	-0.005	0.005	-0.015	0.010	0.415	2.681	1.904	1.904	1.904	1.924	1.919	1.924
-0.005	-0.005	0.010	0.000	-0.029	-0.024	0.420	2.681	1.904	1.909	1.909	1.924	1.914	1.909
0.000	0.000	0.024	0.000	-0.020	0.000	0.420	2.700	1.909	1.909	1.914	1.924	1.919	1.924
-0.005	0.010	0.029	0.005	-0.010	-0.020	0.430	2.695	1.909	1.914	1.914	1.934	1.924	1.919
-0.010	0.015	0.029	0.000	-0.005	-0.005	0.420	2.695	1.909	1.914	1.914	1.934	1.929	1.924
-0.010	0.010	0.020	-0.005	-0.005	0.005	0.420	2.705	1.914	1.909	1.914	1.934	1.929	1.934
0.000	0.005	0.020	-0.005	0.005	0.000	0.415	2.700	1.914	1.909	1.909	1.929	1.929	1.929
0.005	0.005	0.010	0.000	0.010	0.000	0.425	2.690	1.914	1.909	1.904	1.929	1.929	1.929
0.000	0.010	0.005	0.005	0.020	0.005	0.420	2.676	1.909	1.909	1.909	1.929	1.934	1.929
0.005	0.000	0.005	0.010	0.029	0.005	0.425	2.690	1.914	1.904	1.909	1.929	1.934	1.929
0.024	0.005	0.005	0.010	0.029	0.005	0.415	2.695	1.914	1.909	1.904	1.929	1.929	1.929
0.015	-0.005	0.010	0.005	0.015	0.010	0.415	2.686	1.909	1.904	1.904	1.919	1.919	1.924
0.000	-0.005	0.000	0.000	0.010	-0.020	0.420	2.705	1.909	1.904	1.899	1.919	1.919	1.914
-0.005	0.000	0.000	0.000	0.010	-0.005	0.420	2.700	1.904	1.904	1.899	1.919	1.914	1.924
-0.005	0.010	-0.005	0.000	0.000	0.010	0.420	2.651	1.899	1.904	1.899	1.919	1.914	1.924
-0.005	0.010	0.005	0.005	0.005	0.015	0.415	2.661	1.899	1.899	1.904	1.919	1.914	1.924
-0.010	-0.005	0.010	0.005	-0.005	0.010	0.420	2.661	1.914	1.899	1.899	1.919	1.914	1.919
-0.005	0.010	0.010	0.010	0.000	0.005	0.420	2.646	1.909	1.909	1.904	1.924	1.914	1.914
0.005	0.000	0.000	0.010	-0.005	-0.015	0.420	2.656	1.909	1.904	1.904	1.924	1.919	1.914
-0.005	-0.005	-0.005	0.010	-0.005	0.005	0.420	2.646	1.909	1.904	1.904	1.924	1.919	1.919
0.005	-0.005	-0.015	0.005	0.000	0.005	0.420	2.808	1.929	1.914	1.904	1.924	1.919	1.924
0.010	-0.010	-0.015	0.010	0.000	0.005	0.430	2.632	1.919	1.914	1.904	1.924	1.919	1.924
0.005	0.000	-0.010	0.005	0.000	-0.005	0.430	2.676	1.914	1.919	1.909	1.924	1.919	1.919
0.005	0.005	-0.010	0.005	0.005	-0.005	0.425	2.749	1.919	1.914	1.909	1.924	1.919	1.919
0.020	-0.005	-0.005	0.000	0.005	-0.005	0.420	2.734	1.909	1.909	1.909	1.924	1.919	1.919
0.005	-0.005	-0.010	0.000	0.000	0.005	0.415	2.681	1.904	1.904	1.909	1.924	1.914	1.919
0.005	0.010	-0.005	-0.005	0.000	-0.005	0.425	2.637	1.899	1.909	1.909	1.924	1.919	1.914
-0.020	0.005	-0.005	0.000	0.005	-0.015	0.425	2.681	1.895	1.899	1.904	1.919	1.914	1.914
-0.010	0.000	0.000	-0.005	0.000	0.000	0.425	2.734	1.899	1.899	1.899	1.919	1.914	1.914
-0.005	0.000	0.005	0.000	0.000	0.015	0.425	2.695	1.899	1.899	1.899	1.919	1.914	1.914
-0.005	0.000	0.000	-0.005	-0.005	0.010	0.425	2.671	1.909	1.899	1.899	1.919	1.914	1.919
-0.005	0.000	0.000	-0.005	-0.005	-0.005	0.415	2.700	1.909	1.899	1.899	1.919	1.909	1.914
0.005	0.005	0.005	-0.005	-0.005	0.000	0.425	2.686	1.914	1.909	1.904	1.919	1.914	1.914
0.005	0.010	0.000	0.000	0.000	0.005	0.415	2.700	1.909	1.904	1.904	1.919	1.919	1.919
0.005	-0.005	0.005	-0.005	0.000	0.000	0.420	2.700	1.914	1.904	1.904	1.924	1.914	1.914
0.020	0.010	-0.010	0.005	-0.005	0.010	0.420	2.705	1.924	1.919	1.904	1.929	1.919	1.919
0.010	0.005	-0.034	0.010	-0.005	-0.005	0.425	2.690	1.919	1.919	1.904	1.924	1.924	1.914
0.010	0.005	-0.020	0.005	0.000	0.000	0.425	2.690	1.919	1.919	1.909	1.929	1.919	1.919
0.015	0.000	-0.005	0.005	0.005	0.000	0.430	2.700	1.914	1.914	1.914	1.929	1.924	1.924
0.005	0.005	0.015	-0.005	0.005	0.000	0.425	2.700	1.919	1.919	1.919	1.934	1.929	1.924
0.005	0.005	0.034	0.005	0.010	-0.015	0.430	2.686	1.914	1.919	1.919	1.934	1.924	1.919
0.005	0.005	0.024	0.000	0.000	-0.015	0.420	2.690	1.909	1.909	1.919	1.929	1.924	1.919
0.010	0.005	0.029	0.000	0.000	-0.005	0.425	2.686	1.909	1.909	1.914	1.929	1.924	1.924
0.005	-0.005	0.029	-0.005	0.000	-0.005	0.420	2.690	1.904	1.899	1.909	1.929	1.924	1.924
-0.005	0.000	0.034	-0.005	0.005	0.000	0.420	2.695	1.904	1.904	1.909	1.929	1.929	1.924
-0.015	-0.029	0.020	0.000	0.005	0.005	0.415	2.700	1.899	1.895	1.895	1.924	1.924	1.924
0.000	-0.020	0.000	0.000	0.000	0.000	0.415	2.690	1.904	1.895	1.895	1.919	1.919	1.924
-0.005	-0.020	0.000	0.005	0.005	0.015	0.420	2.705	1.909	1.899	1.895	1.919	1.919	1.924
-0.010	-0.010	-0.005	0.000	0.005	0.015	0.420	2.695	1.909	1.904	1.895	1.919	1.919	1.919
-0.005	0.000	-0.010	0.010	0.010	0.020	0.420	2.705	1.914	1.909	1.895	1.914	1.919	1.924
0.000	-0.005	-0.015	0.005	0.015	0.010	0.425	2.676	1.914	1.909	1.899	1.919	1.919	1.919
0.015	0.005	-0.010	0.005	0.020	0.020	0.425	2.671	1.914	1.914	1.909	1.919	1.919	1.924
0.010	0.015	-0.010	0.010	0.029	0.029	0.415	2.686	1.914	1.914	1.909	1.924	1.924	1.929
0.005	0.010	-0.015	0.005	0.024	0.029	0.420	2.695	1.914	1.909	1.909	1.929	1.924	1.929
0.000	0.024	-0.010	0.005	0.020	0.010	0.415	2.656	1.914	1.919	1.914	1.929	1.924	1.919
-0.005	0.010	-0.020	0.000	0.024	0.024	0.425	2.656	1.904	1.909	1.909	1.924	1.924	1.924
0.000	0.015	-0.039	0.000	0.020	0.010	0.415	2.646	1.899	1.909	1.899	1.924	1.919	1.919
-0.005	0.024	-0.039	0.000	0.020	0.010	0.425	2.651	1.904	1.909	1.904	1.924	1.919	1.924
-0.005	0.010	-0.020	0.005	0.015	0.015	0.425	2.661	1.899	1.899	1.909	1.924	1.919	1.924
-0.005	0.015	0.005	0.005	0.010	0.020	0.420	2.637	1.899	1.899	1.914	1.929	1.914	1.924
0.005	0.015	0.029	0.005	0.000	0.024	0.415	2.808	1.914	1.904	1.914	1.929	1.914	1.919
-0.005	0.010	0.049	0.005	0.000	0.000	0.420	2.642	1.899	1.899	1.909	1.929	1.914	1.909
0.005	0.005	0.034	0.005	0.005	0.015	0.420	2.725	1.899	1.899	1.904	1.924	1.924	1.914
-0.015	0.000	0.039	0.000	0.005	0.005	0.420	2.744	1.904	1.899	1.899	1.924	1.919	1.919
-0.010	-0.005	0.039	0.000	0.000	0.010	0.415	2.646	1.904	1.895	1.895	1.919	1.919	1.914
-0.005	-0.005	0.039	0.005	-0.005	-0.005	0.425	2.686	1.904	1.899	1.899	1.919	1.914	1.909
-0.005	-0.015	0.029	0.005	-0.005	-0.024	0.420	2.642	1.899	1.899	1.895	1.919	1.914	1.909
-0.010	-0.010	0.015	0.000	-0.005	-0.010	0.425	2.666	1.904	1.899	1.890	1.914	1.914	1.909
-0.010	0.000	0.000	0.005	-0.005	0.000	0.420	2.744	1.914	1.909	1.895	1.914	1.919	1.919
0.010	-0.005	-0.005	0.005	-0.010	0.000	0.430	2.681	1.919	1.909	1.899	1.919	1.914	1.919
0.020	0.000	-0.015	-0.005	-0.010	-0.010	0.410	2.637	1.924	1.914	1.899	1.914	1.914	1.914
0.034	0.000	-0.010	0.005	-0.010	-0.020	0.430	2.690	1.929	1.919	1.904	1.919	1.914	1.914
0.024	0.015	-0.005	0.005	-0.005	-0.010	0.425	2.681	1.924	1.924	1.909	1.919	1.914	1.914
0.039	0.010	-0.015	0.010	-0.010	-0.010	0.425	2.695	1.919	1.924	1.914	1.924	1.914	1.914
0.039	-0.005	-0.010	0.010	-0.005	-0.020	0.420	2.690	1.914	1.914	1.914	1.929	1.914	1.914
0.020	0.000	-0.010	0.005	-0.010	-0.010	0.420	2.710	1.909	1.914	1.909	1.924	1.919	1.914
0.015	0.000	-0.010	0.000	-0.010	-0.005	0.415	2.690	1.904	1.909	1.909	1.924	1.919	1.919
0.000	-0.005	-0.010	0.000	-0.005	0.005	0.420	2.695	1.895	1.899	1.904	1.924	1.914	1.919
0.005	-0.010	-0.005	0.005	-0.010	0.044	0.415	2.686	1.899	1.895	1.904	1.924	1.914	1.929
-0.010	-0.005	0.005	0.000	-0.010	0.044	0.415	2.700	1.899	1.895	1.904	1.924	1.919	1.924
-0.015	-0.010	0.000	0.000	-0.015	0.044	0.420	2.690	1.899	1.899	1.899	1.919	1.914	1.924
-0.015	0.000	0.000	0.005	-0.005	0.029	0.415	2.700	1.904	1.904	1.899	1.919	1.914	1.919
-0.015	0.010	-0.005	0.000	-0.005	0.024	0.420	2.671	1.904	1.909	1.899	1.919	1.919	1.914
-0.015	0.005	-0.010	-0.005	0.005	0.015	0.415	2.686	1.904	1.899	1.899	1.919	1.919	1.914
-0.005	0.000	0.000	0.005	0.005	0.010	0.425	2.690	1.909	1.904	1.904	1.924	1.919	1.914
-0.015	0.005	0.005	0.000	0.000	-0.005	0.420	2.700	1.904	1.904	1.904	1.924	1.914	1.914
-0.005	0.015	0.005	0.000	-0.005	0.000	0.425	2.695	1.914	1.909	1.909	1.924	1.914	1.919
0.000	0.015	0.005	0.005	0.005	-0.034	0.425	2.700	1.914	1.914	1.909	1.929	1.919	1.909
-0.005	0.005	0.000	0.005	0.005	-0.005	0.430	2.695	1.909	1.909	1.909	1.924	1.924	1.919
0.000	0.010	-0.005	0.005	0.000	-0.005	0.420	2.700	1.914	1.909	1.904	1.924	1.924	1.924
0.000	0.010	-0.024	0.000	0.015	-0.010	0.430	2.705	1.914	1.909	1.899	1.924	1.924	1.924
0.005	-0.005	-0.015	-0.005	0.015	0.005	0.415	2.705	1.914	1.909	1.904	1.924	1.919	1.924
0.005	-0.005	0.000	-0.005	0.010	0.010	0.420	2.695	1.909	1.909	1.904	1.924	1.919	1.924
0.015	0.005	0.010	0.000	0.005	0.005	0.420	2.700	1.914	1.909	1.909	1.929	1.919	1.919
0.005	0.005	0.020	0.000	0.005	-0.005	0.430	2.661	1.904	1.909	1.909	1.924	1.914	1.909
0.005	0.024	0.015	0.000	0.005	0.010	0.420	2.666	1.899	1.909	1.909	1.924	1.914	1.919
0.010	0.020	0.020	0.000	-0.005	0.015	0.425	2.651	1.899	1.904	1.904	1.924	1.914	1.919
0.000	0.015	0.010	0.000	-0.010	0.005	0.420	2.646	1.890	1.899	1.899	1.919	1.909	1.914
0.000	0.015	0.010	-0.005	-0.005	-0.015	0.430	2.666	1.895	1.899	1.899	1.919	1.914	1.909
0.000	0.000	0.015	0.005	0.000	-0.010	0.420	2.642	1.890	1.895	1.899	1.919	1.914	1.919
-0.005	0.005	0.000	-0.005	0.000	-0.010	0.425	2.808	1.909	1.895	1.895	1.914	1.914	1.909
0.005	-0.005	-0.005	-0.005	0.000	0.010	0.425	2.686	1.909	1.904	1.895	1.914	1.919	1.924
0.005	0.000	-0.005	-0.005	-0.005	0.000	0.425	2.744	1.919	1.909	1.899	1.919	1.914	1.919
-0.005	-0.005	-0.005	0.000	-0.010	-0.005	0.420	2.734	1.924	1.909	1.899	1.919	1.914	1.914
0.005	-0.015	0.000	0.005	-0.015	-0.010	0.420	2.744	1.929	1.914	1.904	1.924	1.919	1.914
0.010	-0.005	0.005	0.005	-0.005	-0.005	0.425	2.686	1.924	1.914	1.909	1.924	1.919	1.919
0.015	0.000	0.000	0.005	0.000	0.000	0.425	2.646	1.914	1.919	1.909	1.929	1.924	1.919
0.010	0.000	0.000	0.005	0.010	0.024	0.425	2.681	1.914	1.919	1.909	1.929	1.929	1.929
0.005	-0.005	0.005	-0.005	0.020	0.015	0.415	2.734	1.909	1.909	1.909	1.919	1.929	1.924
0.010	-0.010	0.005	-0.005	0.015	0.005	0.415	2.661	1.909	1.914	1.909	1.924	1.924	1.919
0.010	-0.005	-0.005	-0.010	0.020	0.000	0.420	2.632	1.895	1.904	1.904	1.919	1.919	1.919
0.005	0.005	-0.010	-0.010	0.015	-0.020	0.425	2.686	1.899	1.904	1.904	1.919	1.914	1.914
-0.010	0.000	-0.010	0.000	0.015	-0.024	0.430	2.681	1.899	1.899	1.899	1.924	1.919	1.909
0.000	0.000	-0.015	0.015	0.010	-0.063	0.430	2.705	1.899	1.895	1.899	1.924	1.909	1.899
0.000	-0.015	-0.005	0.024	0.000	-0.024	0.415	2.700	1.904	1.890	1.899	1.924	1.914	1.914
0.010	-0.010	0.015	0.034	0.005	-0.024	0.420	2.715	1.909	1.895	1.899	1.924	1.919	1.914
0.005	-0.005	0.020	0.029	0.000	-0.029	0.425	2.686	1.909	1.904	1.904	1.924	1.919	1.919
-0.005	0.005	0.024	0.010	0.005	-0.005	0.425	2.700	1.904	1.904	1.904	1.919	1.919	1.924
0.000	0.005	0.020	0.000	0.000	0.000	0.410	2.681	1.909	1.909	1.904	1.919	1.919	1.924
0.000	0.010	0.020	0.000	0.005	0.015	0.420	2.710	1.914	1.909	1.904	1.919	1.919	1.929
-0.005	0.005	0.015	-0.005	0.000	0.029	0.415	2.710	1.914	1.914	1.909	1.924	1.919	1.929
-0.005	0.005	0.005	0.000	0.000	0.044	0.425	2.681	1.914	1.914	1.904	1.924	1.919	1.934
0.000	0.000	-0.005	-0.005	0.005	0.049	0.420	2.681	1.914	1.909	1.909	1.924	1.919	1.934
0.000	0.005	-0.015	0.005	0.005	0.063	0.430	2.686	1.909	1.909	1.904	1.929	1.919	1.934
-0.005	0.000	-0.024	0.005	0.005	0.049	0.420	2.700	1.909	1.909	1.899	1.924	1.919	1.924
0.000	-0.010	-0.020	-0.005	0.005	0.083	0.425	2.686	1.909	1.904	1.899	1.914	1.919	1.929
-0.005	-0.010	-0.020	0.000	0.000	0.044	0.420	2.695	1.904	1.904	1.904	1.919	1.909	1.914
0.010	-0.005	-0.010	0.000	0.000	0.044	0.425	2.705	1.909	1.904	1.904	1.924	1.914	1.914
-0.005	0.000	0.010	0.000	0.005	0.015	0.420	2.686	1.904	1.909	1.909	1.919	1.914	1.904
-0.005	0.015	0.010	-0.005	-0.005	-0.015	0.420	2.695	1.904	1.909	1.909	1.919	1.909	1.899
-0.015	0.000	0.015	-0.005	0.005	-0.020	0.420	2.700	1.904	1.899	1.904	1.919	1.909	1.899
-0.010	0.005	0.020	-0.005	0.005	-0.044	0.420	2.690	1.899	1.899	1.904	1.919	1.914	1.899
-0.015	-0.005	0.015	-0.005	0.000	-0.024	0.430	2.695	1.899	1.899	1.904	1.919	1.914	1.909
0.005	-0.005	-0.005	-0.005	-0.005	-0.039	0.420	2.681	1.904	1.899	1.895	1.919	1.914	1.904
-0.005	0.000	-0.020	0.000	-0.005	-0.049	0.415	2.651	1.899	1.904	1.895	1.919	1.914	1.909
0.005	0.005	-0.005	0.000	0.005	-0.029	0.415	2.651	1.899	1.904	1.904	1.919	1.919	1.919
0.005	0.005	0.010	0.010	0.005	-0.029	0.420	2.651	1.899	1.904	1.904	1.924	1.919	1.919
0.020	0.010	0.020	0.015	0.000	-0.029	0.420	2.646	1.904	1.909	1.909	1.929	1.924	1.919
0.015	-0.005	0.024	0.005	0.000	-0.020	0.420	2.666	1.904	1.904	1.909	1.929	1.924	1.919
0.029	-0.005	0.020	0.005	0.000	-0.010	0.420	2.642	1.899	1.899	1.904	1.924	1.919	1.924
0.034	0.000	0.010	0.000	-0.005	-0.034	0.425	2.817	1.924	1.909	1.904	1.924	1.919	1.914
0.029	0.010	0.005	-0.005	0.005	0.010	0.425	2.725	1.919	1.914	1.904	1.924	1.924	1.934
0.000	0.000	0.005	-0.005	0.000	0.029	0.425	2.646	1.904	1.904	1.904	1.919	1.924	1.934
0.005	-0.005	0.005	0.005	0.000	0.039	0.415	2.739	1.909	1.904	1.899	1.919	1.919	1.929
0.005	0.000	-0.024	-0.005	0.010	0.029	0.420	2.656	1.909	1.904	1.890	1.909	1.919	1.924
-0.005	0.000	-0.029	0.000	0.000	0.029	0.425	2.695	1.904	1.904	1.895	1.909	1.909	1.914
-0.005	-0.005	-0.024	-0.005	0.005	0.015	0.425	2.651	1.899	1.899	1.895	1.909	1.909	1.914
-0.005	-0.020	0.000	0.000	0.005	0.029	0.415	2.666	1.899	1.895	1.899	1.914	1.909	1.919
-0.015	0.000	0.015	0.000	0.005	0.034	0.420	2.734	1.904	1.899	1.909	1.914	1.914	1.919
-0.010	0.000	0.015	0.000	0.000	0.015	0.420	2.671	1.904	1.904	1.909	1.919	1.909	1.909
-0.005	0.005	0.020	0.000	0.005	0.015	0.425	2.642	1.899	1.904	1.909	1.924	1.914	1.909
0.000	0.010	0.015	0.000	-0.010	0.005	0.420	2.695	1.909	1.909	1.909	1.924	1.914	1.909
0.010	0.000	0.020	0.005	-0.010	-0.034	0.425	2.695	1.914	1.909	1.909	1.924	1.914	1.899
0.000	-0.005	0.010	0.005	-0.010	-0.015	0.420	2.705	1.909	1.904	1.904	1.924	1.914	1.914
-0.005	0.000	-0.005	-0.005	-0.005	-0.010	0.415	2.705	1.909	1.909	1.899	1.924	1.919	1.914
-0.005	-0.005	-0.010	0.005	-0.005	-0.010	0.420	2.705	1.909	1.904	1.899	1.924	1.919	1.914
-0.010	-0.005	-0.010	0.000	0.005	-0.015	0.430	2.681	1.909	1.909	1.904	1.924	1.924	1.914
-0.005	-0.005	-0.034	0.005	-0.005	-0.020	0.425	2.695	1.909	1.909	1.899	1.919	1.919	1.919
0.005	-0.005	-0.039	0.005	-0.005	-0.010	0.425	2.676	1.909	1.904	1.895	1.919	1.914	1.919
-0.005	0.000	-0.024	0.000	0.000	-0.005	0.420	2.705	1.909	1.909	1.899	1.914	1.919	1.914
0.000	0.005	-0.005	0.000	0.000	-0.020	0.425	2.705	1.914	1.909	1.904	1.919	1.914	1.914
0.015	-0.010	0.000	0.005	0.005	0.005	0.420	2.705	1.914	1.904	1.904	1.919	1.919	1.919
0.024	0.000	0.010	0.000	0.020	-0.020	0.425	2.695	1.909	1.909	1.904	1.919	1.919	1.914
0.029	0.010	0.005	0.005	0.010	0.015	0.420	2.686	1.909	1.914	1.904	1.924	1.919	1.924
0.020	0.020	-0.005	0.010	0.015	0.000	0.425	2.686	1.904	1.909	1.904	1.924	1.914	1.919
0.010	0.020	0.005	0.005	-0.005	0.000	0.420	2.681	1.904	1.909	1.909	1.924	1.914	1.914
0.020	0.015	0.005	0.005	-0.005	-0.010	0.430	2.681	1.904	1.909	1.909	1.924	1.914	1.909
0.010	0.010	0.024	0.000	0.000	-0.010	0.420	2.705	1.904	1.909	1.909	1.929	1.919	1.914
-0.010	0.005	0.024	0.000	0.005	0.000	0.415	2.710	1.904	1.904	1.909	1.929	1.924	1.919
-0.005	-0.005	0.024	0.000	0.015	0.000	0.420	2.695	1.904	1.899	1.904	1.929	1.924	1.924
-0.010	0.000	0.020	0.000	0.005	0.005	0.420	2.705	1.909	1.909	1.909	1.929	1.924	1.924
-0.005	0.010	0.015	0.000	0.005	0.000	0.425	2.686	1.914	1.914	1.904	1.924	1.924	1.924
-0.010	0.010	0.020	-0.005	0.005	0.010	0.425	2.690	1.909	1.909	1.904	1.924	1.924	1.929
-0.015	0.000	0.015	0.005	0.010	0.020	0.420	2.695	1.909	1.904	1.904	1.929	1.924	1.929
-0.020	0.000	-0.005	-0.005	0.015	0.015	0.425	2.656	1.904	1.904	1.899	1.924	1.924	1.924
-0.005	0.000	-0.010	0.000	0.005	-0.005	0.420	2.656	1.904	1.899	1.895	1.919	1.919	1.919
0.000	0.000	-0.039	0.005	0.010	0.005	0.415	2.642	1.899	1.899	1.890	1.919	1.914	1.919
0.000	0.005	-0.039	0.000	0.000	0.010	0.415	2.642	1.895	1.899	1.890	1.914	1.914	1.914
0.000	0.010	-0.020	-0.005	0.005	0.005	0.415	2.656	1.895	1.899	1.895	1.909	1.909	1.914
0.000	0.005	-0.010	-0.005	0.005	0.029	0.415	2.646	1.895	1.895	1.899	1.909	1.909	1.919
0.005	0.000	0.005	0.000	0.005	0.034	0.415	2.808	1.914	1.899	1.899	1.914	1.909	1.919
0.010	0.000	0.020	0.010	0.000	0.063	0.425	2.749	1.914	1.904	1.899	1.919	1.909	1.919
0.005	0.000	0.024	0.000	0.010	0.044	0.420	2.646	1.909	1.904	1.904	1.919	1.914	1.914
0.000	0.010	0.024	0.005	-0.005	0.020	0.420	2.754	1.919	1.909	1.904	1.919	1.909	1.909
0.005	0.005	0.015	0.010	-0.010	0.015	0.420	2.661	1.909	1.914	1.909	1.924	1.909	1.909
0.015	0.005	0.010	0.010	-0.015	-0.010	0.430	2.715	1.914	1.914	1.909	1.924	1.914	1.904
0.005	0.020	0.005	0.015	0.000	-0.029	0.420	2.744	1.914	1.914	1.909	1.929	1.919	1.904
0.015	0.010	0.000	0.015	-0.005	-0.029	0.420	2.656	1.919	1.919	1.909	1.929	1.919	1.909
0.010	0.000	0.000	0.015	-0.005	-0.034	0.420	2.739	1.914	1.909	1.909	1.929	1.924	1.909
0.005	0.010	0.005	0.010	0.000	0.010	0.425	2.681	1.914	1.914	1.909	1.929	1.924	1.924
-0.005	-0.005	0.000	-0.005	-0.010	0.000	0.415	2.627	1.899	1.904	1.904	1.924	1.919	1.924
-0.010	-0.005	0.000	-0.020	-0.005	0.010	0.415	2.700	1.904	1.904	1.899	1.914	1.919	1.924
-0.010	-0.010	0.000	-0.015	-0.005	-0.010	0.415	2.690	1.904	1.899	1.899	1.919	1.914	1.914
-0.005	-0.005	0.000	-0.005	0.005	0.034	0.425	2.710	1.904	1.899	1.899	1.919	1.919	1.929
-0.010	0.005	0.000	-0.005	0.005	0.020	0.415	2.700	1.904	1.899	1.899	1.919	1.919	1.919
0.000	0.000	0.000	0.015	0.010	0.020	0.425	2.705	1.909	1.904	1.899	1.924	1.919	1.919
0.000	-0.005	0.000	0.010	0.010	0.005	0.425	2.700	1.909	1.904	1.899	1.924	1.914	1.909
0.005	-0.005	-0.005	0.020	0.000	-0.010	0.420	2.681	1.904	1.899	1.899	1.919	1.909	1.909
0.000	0.000	0.000	0.005	0.000	-0.005	0.415	2.690	1.909	1.904	1.904	1.919	1.914	1.909
0.005	0.005	0.000	0.005	0.000	-0.015	0.415	2.705	1.909	1.909	1.904	1.919	1.914	1.909
0.010	0.000	-0.010	0.010	0.000	-0.044	0.420	2.690	1.909	1.909	1.899	1.919	1.914	1.904
0.000	0.005	-0.005	0.005	0.005	0.000	0.430	2.700	1.914	1.914	1.904	1.919	1.919	1.919
0.005	-0.005	-0.005	-0.005	0.000	-0.005	0.425	2.710	1.914	1.909	1.904	1.924	1.914	1.919
0.010	-0.010	0.005	-0.005	0.005	-0.010	0.420	2.695	1.909	1.909	1.909	1.924	1.919	1.919
0.015	-0.015	0.005	-0.005	0.005	-0.010	0.420	2.690	1.909	1.909	1.909	1.924	1.919	1.919
0.005	-0.010	0.015	0.005	0.000	-0.010	0.420	2.700	1.914	1.909	1.914	1.929	1.924	1.919
0.005	-0.015	0.020	0.010	0.000	-0.020	0.425	2.681	1.904	1.909	1.914	1.929	1.924	1.919
0.005	0.000	0.020	0.005	0.000	-0.010	0.415	2.686	1.904	1.914	1.909	1.929	1.924	1.919
0.000	0.005	0.010	0.005	0.000	-0.020	0.425	2.681	1.899	1.909	1.909	1.929	1.919	1.919
-0.005	-0.005	0.005	0.005	0.010	0.005	0.415	2.681	1.904	1.904	1.904	1.924	1.919	1.924
-0.005	0.015	-0.010	0.000	0.005	0.005	0.415	2.700	1.904	1.904	1.899	1.919	1.919	1.924
0.000	0.010	-0.024	0.000	0.010	0.015	0.420	2.705	1.904	1.904	1.895	1.919	1.919	1.924
0.000	0.000	-0.024	0.005	0.000	0.020	0.425	2.676	1.904	1.899	1.895	1.919	1.914	1.924
0.005	-0.005	-0.010	0.000	-0.005	0.005	0.420	2.700	1.904	1.895	1.899	1.914	1.909	1.919
0.005	0.005	-0.020	-0.005	-0.005	0.015	0.425	2.656	1.904	1.904	1.895	1.914	1.909	1.914
0.000	0.005	-0.029	-0.010	-0.005	0.020	0.420	2.661	1.899	1.899	1.890	1.909	1.909	1.914
0.000	0.000	-0.020	-0.010	0.000	0.000	0.420	2.798	1.914	1.899	1.899	1.914	1.909	1.904
0.000	-0.005	-0.005	-0.005	0.010	0.000	0.420	2.651	1.919	1.909	1.909	1.919	1.914	1.914
0.005	0.005	0.020	-0.005	0.005	-0.005	0.425	2.651	1.914	1.914	1.914	1.924	1.914	1.914
-0.010	0.000	0.034	0.000	0.000	0.005	0.420	2.739	1.914	1.909	1.914	1.929	1.919	1.914
-0.010	0.000	0.034	0.005	0.000	0.005	0.420	2.666	1.909	1.909	1.919	1.934	1.919	1.919
-0.005	0.015	0.029	0.005	0.000	0.000	0.420	2.646	1.919	1.919	1.914	1.934	1.924	1.919
-0.005	0.005	0.034	0.010	0.000	-0.010	0.430	2.734	1.924	1.914	1.919	1.934	1.924	1.919
-0.005	0.000	0.034	0.015	0.000	0.005	0.420	2.734	1.919	1.919	1.914	1.934	1.929	1.924
-0.005	0.005	0.029	0.010	0.005	0.010	0.425	2.666	1.914	1.919	1.914	1.934	1.929	1.929
0.005	0.005	0.020	0.005	0.000	0.015	0.420	2.725	1.914	1.909	1.909	1.929	1.924	1.929
0.000	-0.005	0.010	0.000	0.005	0.010	0.425	2.725	1.914	1.909	1.909	1.924	1.924	1.924
0.000	-0.010	0.005	0.005	0.015	0.000	0.415	2.676	1.904	1.904	1.899	1.924	1.924	1.919
0.000	-0.015	0.000	0.000	0.005	0.010	0.420	2.656	1.899	1.899	1.899	1.919	1.919	1.924
0.000	-0.020	-0.005	0.000	0.005	0.005	0.415	2.676	1.899	1.899	1.895	1.914	1.914	1.919
0.015	-0.015	0.000	0.005	0.000	-0.015	0.420	2.637	1.899	1.904	1.899	1.919	1.914	1.914
0.010	0.000	-0.005	0.005	0.005	-0.020	0.415	2.686	1.899	1.904	1.899	1.919	1.914	1.914
0.010	0.010	-0.005	0.000	0.005	0.020	0.420	2.710	1.904	1.904	1.899	1.919	1.919	1.924
0.005	0.005	0.000	0.005	0.005	0.015	0.425	2.695	1.909	1.904	1.904	1.919	1.919	1.924
0.010	0.005	-0.005	0.005	0.005	0.010	0.425	2.695	1.909	1.909	1.899	1.919	1.914	1.914
0.015	0.000	-0.015	0.005	0.000	0.000	0.420	2.700	1.914	1.909	1.904	1.919	1.914	1.919
0.005	0.005	-0.015	0.000	0.000	0.005	0.425	2.700	1.914	1.914	1.904	1.919	1.914	1.919
0.010	0.005	-0.015	0.000	-0.005	0.005	0.425	2.715	1.919	1.919	1.909	1.924	1.919	1.919
0.010	-0.005	-0.010	-0.005	0.000	-0.024	0.420	2.686	1.919	1.909	1.909	1.924	1.919	1.909
0.005	-0.005	-0.005	-0.005	0.000	0.005	0.425	2.695	1.914	1.914	1.914	1.924	1.919	1.919
0.015	0.005	-0.005	0.000	0.005	0.000	0.415	2.700	1.919	1.919	1.914	1.929	1.919	1.919
0.005	0.000	0.000	-0.005	0.005	-0.015	0.415	2.686	1.909	1.909	1.914	1.924	1.924	1.919
0.015	0.005	-0.005	0.000	0.000	-0.005	0.415	2.705	1.909	1.909	1.909	1.924	1.919	1.919
0.005	-0.005	0.000	0.000	0.000	0.000	0.420	2.676	1.904	1.909	1.909	1.924	1.919	1.919
0.005	0.010	0.000	-0.005	0.005	-0.005	0.410	2.700	1.904	1.904	1.904	1.924	1.914	1.919
0.000	0.015	0.005	-0.010	-0.005	-0.005	0.420	2.705	1.909	1.904	1.909	1.924	1.914	1.914
-0.005	0.000	-0.005	-0.010	-0.010	-0.010	0.415	2.700	1.904	1.899	1.899	1.924	1.914	1.914
0.000	0.005	-0.005	0.000	0.000	-0.024	0.430	2.710	1.909	1.904	1.899	1.919	1.919	1.909
-0.015	0.000	0.000	0.000	0.005	0.015	0.420	2.700	1.899	1.899	1.899	1.924	1.919	1.924
-0.029	0.000	0.000	0.000	0.000	0.010	0.430	2.705	1.899	1.899	1.899	1.924	1.919	1.924
-0.015	0.005	0.010	0.000	0.000	0.000	0.425	2.705	1.909	1.904	1.904	1.924	1.914	1.919
-0.005	-0.005	0.005	-0.010	0.000	0.010	0.425	2.700	1.919	1.904	1.904	1.919	1.919	1.929
0.010	0.000	0.000	-0.005	0.005	0.029	0.415	2.690	1.919	1.914	1.904	1.924	1.924	1.929
0.005	0.015	0.005	-0.005	0.000	0.010	0.420	2.695	1.919	1.919	1.909	1.924	1.919	1.919
0.010	0.000	0.005	0.005	-0.005	-0.005	0.420	2.661	1.914	1.914	1.914	1.929	1.919	1.914
0.020	0.000	0.005	0.010	0.010	-0.010	0.430	2.651	1.914	1.914	1.914	1.934	1.924	1.919
0.034	0.005	0.005	0.015	0.000	-0.034	0.420	2.651	1.909	1.914	1.909	1.934	1.924	1.914
0.034	0.000	0.000	0.029	0.000	-0.029	0.420	2.646	1.909	1.909	1.909	1.934	1.924	1.919
0.039	0.000	-0.005	0.034	0.010	0.010	0.415	2.661	1.904	1.909	1.909	1.934	1.929	1.934
0.039	0.005	0.000	0.034	0.010	0.020	0.430	2.651	1.899	1.904	1.909	1.934	1.929	1.934
0.020	0.000	0.010	0.029	0.010	0.024	0.415	2.803	1.909	1.904	1.909	1.924	1.929	1.934
0.020	0.010	0.000	0.020	0.010	0.020	0.415	2.739	1.909	1.909	1.904	1.919	1.924	1.924
0.005	0.020	0.000	0.005	0.010	0.015	0.415	2.642	1.899	1.904	1.899	1.914	1.919	1.919
-0.010	0.015	0.005	-0.005	0.005	0.020	0.420	2.725	1.904	1.904	1.899	1.914	1.914	1.919
-0.015	0.005	0.000	-0.015	-0.005	0.015	0.420	2.749	1.909	1.904	1.895	1.909	1.909	1.914
-0.020	0.010	0.005	-0.015	-0.005	0.020	0.425	2.720	1.909	1.904	1.899	1.914	1.909	1.914
-0.010	-0.005	-0.005	-0.010	-0.005	0.005	0.420	2.739	1.914	1.899	1.895	1.914	1.909	1.909
-0.029	-0.010	-0.010	-0.010	-0.005	-0.020	0.415	2.666	1.909	1.904	1.895	1.914	1.909	1.904
-0.020	-0.005	-0.010	-0.005	-0.005	-0.010	0.425	2.734	1.919	1.909	1.904	1.919	1.914	1.909
-0.015	0.000	0.005	0.000	-0.010	-0.044	0.420	2.686	1.914	1.914	1.909	1.924	1.914	1.899
-0.015	0.005	0.010	0.000	-0.005	-0.015	0.415	2.632	1.904	1.914	1.909	1.924	1.919	1.914
-0.015	0.000	0.020	0.000	0.005	-0.010	0.415	2.690	1.909	1.909	1.914	1.934	1.924	1.919
-0.010	-0.005	0.020	0.000	0.005	0.000	0.420	2.700	1.909	1.909	1.909	1.934	1.929	1.924
0.000	-0.005	0.020	0.000	0.010	0.005	0.415	2.715	1.914	1.909	1.909	1.934	1.924	1.924
-0.005	0.005	0.015	0.010	0.015	-0.034	0.430	2.695	1.914	1.914	1.909	1.934	1.929	1.914
-0.005	0.005	0.010	0.010	0.005	0.000	0.425	2.705	1.909	1.909	1.909	1.929	1.924	1.924
-0.015	0.005	0.000	0.010	0.020	0.020	0.425	2.690	1.904	1.904	1.904	1.924	1.924	1.929
-0.005	0.005	0.000	0.005	0.010	0.029	0.410	2.686	1.909	1.909	1.904	1.919	1.919	1.924
0.010	0.005	-0.005	0.000	-0.010	0.039	0.430	2.690	1.909	1.904	1.904	1.919	1.914	1.929
0.010	0.000	-0.010	-0.005	-0.020	0.015	0.425	2.695	1.909	1.904	1.899	1.914	1.909	1.919
0.015	0.005	-0.039	-0.010	-0.005	0.000	0.425	2.690	1.909	1.904	1.895	1.909	1.909	1.909
0.005	-0.015	-0.024	-0.005	-0.010	0.024	0.420	2.705	1.909	1.899	1.895	1.914	1.914	1.919
0.005	-0.005	-0.010	-0.005	-0.020	0.049	0.425	2.690	1.909	1.909	1.904	1.919	1.914	1.919
0.005	0.000	0.005	0.005	-0.020	0.029	0.425	2.695	1.909	1.909	1.909	1.924	1.909	1.914
0.000	-0.005	0.024	0.015	-0.015	-0.015	0.430	2.705	1.914	1.909	1.914	1.929	1.914	1.904
-0.010	0.000	0.029	0.010	0.000	-0.005	0.425	2.686	1.909	1.909	1.914	1.934	1.924	1.909
-0.005	-0.005	0.029	0.005	0.010	-0.020	0.430	2.715	1.914	1.914	1.914	1.934	1.929	1.914
0.005	0.000	0.024	0.005	0.020	-0.039	0.420	2.690	1.909	1.914	1.914	1.929	1.929	1.914
0.005	-0.005	0.020	0.000	0.010	-0.020	0.420	2.690	1.909	1.909	1.909	1.929	1.929	1.924
-0.005	0.005	0.010	0.005	0.015	-0.010	0.410	2.705	1.914	1.914	1.909	1.929	1.929	1.929
0.005	0.005	0.000	0.000	0.010	-0.020	0.425	2.705	1.919	1.914	1.909	1.929	1.924	1.924
0.015	0.000	0.000	0.000	0.000	-0.029	0.420	2.686	1.914	1.914	1.904	1.924	1.924	1.924
0.024	0.005	-0.005	0.005	0.015	-0.044	0.425	2.676	1.914	1.914	1.904	1.924	1.919	1.914
0.020	0.010	-0.015	0.000	0.010	-0.020	0.425	2.695	1.909	1.909	1.904	1.924	1.919	1.924
0.005	0.010	-0.010	-0.005	0.010	0.000	0.415	2.661	1.895	1.904	1.904	1.919	1.919	1.929
0.010	0.005	-0.010	-0.005	0.005	0.029	0.415	2.651	1.895	1.899	1.899	1.919	1.914	1.929
0.010	0.024	-0.005	-0.005	0.005	0.039	0.420	2.651	1.895	1.904	1.899	1.919	1.919	1.929
0.005	0.024	-0.005	0.005	0.010	0.029	0.425	2.651	1.895	1.904	1.904	1.919	1.919	1.924
0.005	-0.005	0.000	0.000	0.015	0.029	0.420	2.671	1.895	1.890	1.899	1.924	1.919	1.924
-0.005	0.005	0.005	-0.005	0.005	0.029	0.420	2.661	1.895	1.895	1.899	1.919	1.914	1.919
0.000	0.010	0.010	0.000	-0.005	0.015	0.425	2.808	1.914	1.904	1.899	1.919	1.909	1.914
0.005	-0.010	0.005	0.000	0.000	-0.005	0.425	2.739	1.919	1.899	1.904	1.919	1.914	1.909
0.000	-0.005	0.005	0.000	0.000	-0.029	0.420	2.734	1.919	1.909	1.904	1.924	1.914	1.904
-0.005	0.015	0.005	0.000	0.000	-0.005	0.415	2.739	1.919	1.914	1.904	1.924	1.914	1.914
0.000	-0.005	0.005	0.000	0.005	-0.010	0.420	2.749	1.929	1.914	1.909	1.924	1.919	1.919
0.005	0.005	0.005	0.000	0.005	-0.015	0.420	2.690	1.924	1.919	1.914	1.929	1.919	1.914
-0.005	0.010	0.005	0.005	0.005	-0.015	0.425	2.656	1.909	1.919	1.914	1.929	1.924	1.919
0.005	0.005	0.005	0.005	0.000	-0.010	0.425	2.676	1.914	1.914	1.914	1.929	1.919	1.919
0.000	-0.005	0.000	0.010	0.000	-0.015	0.420	2.734	1.909	1.909	1.909	1.929	1.919	1.919
0.005	-0.005	0.000	0.015	0.005	0.000	0.430	2.676	1.904	1.904	1.909	1.929	1.924	1.924
-0.005	-0.010	0.000	0.015	0.005	0.010	0.425	2.632	1.895	1.899	1.904	1.924	1.919	1.924
0.005	-0.010	0.005	0.020	-0.005	0.010	0.420	2.681	1.899	1.899	1.904	1.924	1.919	1.924
0.000	-0.005	0.000	0.015	0.000	0.020	0.410	2.686	1.904	1.899	1.899	1.924	1.919	1.924
-0.005	-0.005	0.000	0.005	0.000	0.020	0.420	2.710	1.904	1.899	1.899	1.919	1.919	1.919
0.005	0.000	0.000	0.005	0.000	-0.010	0.420	2.700	1.899	1.904	1.899	1.919	1.914	1.909
0.000	0.000	0.005	0.000	0.000	-0.020	0.430	2.700	1.904	1.899	1.899	1.914	1.914	1.904
0.005	0.005	0.010	0.005	0.010	0.005	0.420	2.695	1.904	1.904	1.904	1.919	1.914	1.919
0.005	0.029	0.005	-0.005	0.005	-0.020	0.430	2.705	1.909	1.914	1.904	1.919	1.914	1.914
0.010	0.024	0.005	-0.005	0.010	0.005	0.420	2.695	1.919	1.914	1.909	1.924	1.919	1.919
0.015	0.020	0.005	-0.005	0.000	-0.010	0.420	2.710	1.919	1.914	1.909	1.929	1.919	1.914
0.000	0.005	0.000	-0.005	0.005	-0.005	0.420	2.695	1.909	1.914	1.909	1.924	1.924	1.924
0.005	0.005	0.005	0.000	0.010	0.020	0.420	2.690	1.914	1.909	1.909	1.924	1.919	1.929
0.000	-0.015	-0.005	0.000	0.000	0.015	0.420	2.671	1.909	1.904	1.909	1.929	1.924	1.924
0.000	0.000	0.000	0.005	0.000	0.010	0.420	2.710	1.909	1.909	1.909	1.929	1.919	1.924
0.000	-0.005	0.005	0.000	-0.005	0.015	0.425	2.695	1.909	1.909	1.904	1.929	1.919	1.919
-0.005	-0.020	0.000	0.005	-0.010	0.000	0.425	2.695	1.904	1.904	1.904	1.924	1.914	1.914
-0.005	-0.010	0.005	0.005	-0.005	0.000	0.415	2.700	1.904	1.904	1.904	1.919	1.919	1.919
0.005	-0.015	0.000	0.000	-0.005	0.000	0.420	2.700	1.904	1.904	1.904	1.919	1.919	1.919
0.000	0.005	0.000	0.005	0.000	-0.005	0.420	2.686	1.904	1.904	1.899	1.919	1.914	1.914
0.000	0.000	-0.005	-0.005	0.005	0.005	0.425	2.695	1.909	1.904	1.899	1.919	1.914	1.919
0.000	0.000	0.000	0.000	0.005	0.000	0.425	2.690	1.904	1.904	1.899	1.919	1.914	1.914
0.000	0.010	0.000	0.000	0.015	-0.020	0.420	2.700	1.909	1.904	1.904	1.919	1.919	1.914
0.005	0.005	0.000	0.000	0.000	-0.005	0.425	2.700	1.909	1.904	1.904	1.919	1.914	1.914
0.005	0.000	0.005	0.000	0.005	0.000	0.425	2.690	1.909	1.904	1.904	1.924	1.919	1.919
0.000	-0.005	0.000	0.005	0.005	-0.024	0.425	2.661	1.904	1.904	1.904	1.919	1.914	1.909
0.000	-0.005	0.005	0.000	0.000	0.010	0.420	2.661	1.904	1.904	1.904	1.924	1.919	1.924
0.015	0.000	0.005	0.000	-0.005	-0.005	0.425	2.651	1.904	1.904	1.904	1.919	1.914	1.919
0.000	0.005	0.005	-0.005	-0.010	-0.010	0.420	2.656	1.899	1.904	1.909	1.924	1.914	1.914
0.000	0.015	0.005	0.000	0.000	-0.005	0.420	2.661	1.904	1.909	1.909	1.924	1.919	1.919
0.000	0.020	0.005	-0.010	-0.005	0.015	0.415	2.642	1.899	1.904	1.904	1.919	1.919	1.924
0.005	-0.010	0.005	0.000	-0.005	0.010	0.415	2.798	1.914	1.899	1.899	1.924	1.919	1.924
0.000	0.010	0.000	0.005	0.000	0.000	0.420	2.749	1.909	1.909	1.904	1.924	1.919	1.919
-0.005	0.000	0.005	0.010	0.005	0.005	0.425	2.646	1.904	1.904	1.904	1.924	1.919	1.919
-0.005	0.000	0.010	0.024	0.005	0.000	0.425	2.725	1.909	1.899	1.904	1.924	1.919	1.919
0.010	0.000	0.000	0.029	0.010	-0.020	0.420	2.749	1.919	1.904	1.899	1.924	1.919	1.914
0.005	0.000	0.000	0.024	0.005	0.005	0.420	2.690	1.909	1.904	1.899	1.919	1.914	1.919
-0.005	0.000	0.000	0.020	0.005	0.005	0.420	2.651	1.899	1.899	1.899	1.919	1.919	1.919
0.010	0.000	0.000	0.010	0.000	0.015	0.415	2.666	1.904	1.904	1.899	1.914	1.914	1.919
0.010	0.000	0.005	0.005	-0.005	0.000	0.425	2.666	1.904	1.904	1.899	1.914	1.909	1.909
-0.005	-0.015	0.000	0.005	0.000	-0.020	0.420	2.686	1.899	1.895	1.895	1.914	1.909	1.909
0.005	-0.015	0.000	0.000	0.000	0.020	0.425	2.632	1.899	1.899	1.899	1.914	1.914	1.919
0.005	0.015	0.000	-0.005	0.005	0.020	0.420	2.686	1.904	1.909	1.899	1.914	1.914	1.924
0.005	0.024	0.005	-0.005	0.005	0.015	0.425	2.681	1.909	1.909	1.904	1.919	1.914	1.914
0.005	0.000	0.005	0.000	0.000	0.000	0.425	2.715	1.914	1.909	1.904	1.924	1.914	1.914
0.005	0.005	0.005	-0.005	0.000	0.000	0.425	2.705	1.914	1.909	1.904	1.924	1.914	1.914
0.000	0.000	0.000	0.000	0.010	-0.005	0.420	2.695	1.909	1.904	1.904	1.919	1.919	1.914
0.005	0.000	0.000	0.000	0.005	0.005	0.425	2.690	1.914	1.909	1.904	1.924	1.914	1.919
0.005	0.000	0.005	0.000	0.005	0.010	0.420	2.700	1.909	1.904	1.909	1.924	1.919	1.924
0.000	0.005	0.000	0.000	0.010	0.000	0.425	2.681	1.909	1.909	1.909	1.924	1.919	1.914
0.000	0.000	0.000	-0.005	0.000	0.005	0.425	2.695	1.904	1.904	1.904	1.919	1.914	1.919
-0.010	0.005	0.000	-0.005	-0.005	0.015	0.420	2.695	1.904	1.904	1.904	1.919	1.914	1.919
-0.005	0.000	0.005	-0.015	0.010	0.024	0.420	2.690	1.899	1.899	1.899	1.914	1.914	1.919
0.005	0.005	0.005	-0.010	0.005	-0.005	0.415	2.681	1.904	1.899	1.899	1.914	1.909	1.904
0.000	-0.029	0.005	-0.010	-0.005	-0.015	0.425	2.715	1.904	1.895	1.895	1.919	1.909	1.904
0.000	-0.010	0.005	-0.005	-0.005	-0.020	0.420	2.690	1.904	1.899	1.895	1.914	1.909	1.904
0.005	0.020	0.000	0.005	0.000	0.020	0.415	2.705	1.909	1.909	1.899	1.919	1.914	1.919
0.000	0.020	0.005	0.015	-0.005	0.015	0.420	2.705	1.904	1.909	1.904	1.924	1.914	1.914
0.015	0.020	0.000	0.015	-0.005	0.015	0.430	2.700	1.914	1.909	1.904	1.924	1.914	1.914
0.010	0.010	0.005	0.015	-0.005	0.000	0.425	2.705	1.909	1.904	1.904	1.924	1.919	1.914
0.000	0.005	-0.005	0.015	0.005	0.000	0.425	2.705	1.914	1.909	1.904	1.924	1.924	1.919
0.000	-0.015	0.000	0.010	0.000	-0.010	0.420	2.700	1.914	1.904	1.904	1.924	1.919	1.914
0.000	0.000	0.000	-0.005	0.000	-0.015	0.420	2.700	1.914	1.909	1.909	1.919	1.919	1.919
0.000	0.005	0.000	-0.005	0.000	0.000	0.415	2.686	1.909	1.909	1.909	1.919	1.919	1.924
0.005	-0.005	0.005	-0.005	0.005	-0.005	0.420	2.690	1.909	1.909	1.909	1.919	1.919	1.919
0.000	0.000	0.005	0.000	0.005	0.000	0.415	2.661	1.904	1.904	1.904	1.924	1.919	1.919
-0.005	0.000	0.005	0.005	0.010	0.005	0.425	2.671	1.899	1.904	1.904	1.924	1.919	1.924
-0.005	0.000	0.000	0.005	0.015	0.000	0.415	2.661	1.899	1.899	1.904	1.924	1.919	1.919
0.000	0.000	0.005	0.015	0.005	-0.005	0.420	2.637	1.895	1.899	1.899	1.924	1.919	1.919
0.010	0.005	0.000	0.010	0.005	-0.024	0.420	2.666	1.895	1.899	1.899	1.919	1.914	1.909
0.000	-0.005	0.005	0.005	0.000	0.010	0.420	2.651	1.890	1.895	1.895	1.914	1.914	1.919
0.005	0.005	0.005	-0.005	0.015	0.005	0.415	2.808	1.909	1.899	1.895	1.914	1.914	1.919
0.005	0.029	0.000	-0.010	0.010	-0.005	0.425	2.739	1.914	1.909	1.899	1.909	1.914	1.909
0.000	0.015	0.010	-0.010	0.005	0.015	0.425	2.646	1.904	1.904	1.899	1.914	1.909	1.919
0.000	0.000	0.005	-0.005	0.005	0.005	0.420	2.759	1.914	1.899	1.899	1.919	1.909	1.914
0.005	-0.024	0.000	0.000	0.000	0.000	0.420	2.754	1.924	1.904	1.899	1.919	1.909	1.914
0.010	-0.010	0.000	-0.005	0.000	-0.010	0.420	2.710	1.919	1.914	1.904	1.924	1.909	1.909
0.005	-0.020	-0.005	0.005	-0.010	0.010	0.420	2.734	1.919	1.909	1.904	1.919	1.914	1.919
0.000	-0.010	0.000	0.000	-0.005	0.000	0.420	2.676	1.919	1.919	1.909	1.924	1.914	1.919
-0.005	0.010	0.000	0.005	0.000	0.000	0.420	2.661	1.914	1.919	1.909	1.929	1.919	1.914
0.010	0.005	0.000	0.000	0.005	0.000	0.430	2.686	1.914	1.919	1.919	1.929	1.924	1.919
0.000	0.015	0.000	0.000	0.000	0.000	0.420	2.666	1.899	1.914	1.914	1.929	1.919	1.919
-0.005	-0.010	0.005	-0.005	0.005	-0.015	0.425	2.695	1.899	1.899	1.909	1.929	1.919	1.909
-0.005	0.005	0.000	0.005	0.005	-0.015	0.425	2.700	1.899	1.904	1.904	1.929	1.919	1.914
0.010	0.005	0.000	0.000	0.000	-0.005	0.420	2.705	1.904	1.904	1.904	1.924	1.919	1.919
0.000	0.010	0.005	0.005	-0.005	0.015	0.420	2.695	1.904	1.899	1.904	1.924	1.919	1.924
0.000	0.010	0.000	0.010	0.000	0.005	0.415	2.700	1.904	1.899	1.899	1.924	1.924	1.919
0.000	0.000	0.005	0.005	0.010	0.000	0.420	2.690	1.904	1.899	1.899	1.919	1.919	1.914
-0.010	0.015	0.000	0.000	0.005	0.005	0.425	2.705	1.899	1.899	1.899	1.919	1.914	1.919
0.000	-0.005	0.005	0.000	-0.005	-0.005	0.425	2.686	1.904	1.895	1.899	1.919	1.914	1.919
0.005	-0.029	0.005	0.005	0.005	0.024	0.420	2.695	1.904	1.895	1.899	1.919	1.919	1.924
0.010	-0.005	0.000	0.005	0.000	0.024	0.420	2.700	1.909	1.909	1.899	1.919	1.914	1.919
0.000	0.000	0.005	0.000	0.005	0.034	0.415	2.705	1.919	1.909	1.899	1.919	1.919	1.924
0.005	-0.024	0.005	0.000	-0.005	0.039	0.420	2.695	1.914	1.904	1.899	1.919	1.919	1.924
0.015	0.020	0.000	0.005	0.005	0.010	0.415	2.700	1.919	1.924	1.909	1.924	1.919	1.919
0.010	0.024	0.000	-0.005	0.000	0.034	0.435	2.690	1.914	1.924	1.909	1.924	1.919	1.924
0.000	-0.005	0.000	0.000	0.005	0.020	0.420	2.676	1.904	1.909	1.909	1.929	1.919	1.919
-0.005	-0.015	-0.005	0.005	0.005	-0.015	0.420	2.676	1.904	1.904	1.909	1.924	1.919	1.909
-0.005	-0.020	0.000	0.000	0.005	0.005	0.420	2.700	1.904	1.904	1.909	1.924	1.919	1.919
-0.010	-0.005	0.005	0.000	0.015	-0.010	0.425	2.690	1.904	1.904	1.904	1.924	1.924	1.914
-0.010	0.015	0.000	0.005	0.015	-0.005	0.420	2.690	1.909	1.909	1.904	1.924	1.919	1.919
0.000	0.005	0.000	-0.005	0.010	-0.015	0.425	2.700	1.909	1.904	1.904	1.919	1.914	1.909
0.010	0.010	0.000	-0.005	0.015	-0.015	0.415	2.705	1.909	1.909	1.904	1.919	1.919	1.919
0.000	0.010	0.000	-0.005	0.010	-0.005	0.420	2.676	1.899	1.904	1.904	1.919	1.914	1.914
0.010	0.015	0.005	0.005	-0.005	-0.015	0.420	2.705	1.904	1.904	1.904	1.919	1.909	1.914
-0.005	0.015	-0.005	-0.005	-0.010	-0.015	0.425	2.656	1.895	1.899	1.899	1.919	1.909	1.914
0.005	0.005	0.000	0.005	-0.020	-0.015	0.420	2.666	1.895	1.899	1.899	1.919	1.909	1.909
0.000	0.000	0.000	0.010	-0.020	-0.005	0.415	2.646	1.895	1.895	1.899	1.919	1.914	1.914
0.000	0.005	-0.005	0.010	-0.020	-0.010	0.415	2.651	1.895	1.899	1.899	1.919	1.914	1.914
0.015	0.005	0.005	0.010	-0.015	0.005	0.420	2.666	1.899	1.895	1.899	1.924	1.914	1.919
-0.005	-0.005	0.000	0.010	-0.015	0.010	0.420	2.700	1.895	1.895	1.899	1.924	1.919	1.924
0.000	0.005	0.005	0.005	-0.005	0.005	0.425	2.817	1.919	1.899	1.899	1.919	1.919	1.919
0.000	0.000	-0.005	0.005	0.005	0.005	0.420	2.744	1.924	1.909	1.904	1.919	1.924	1.924
0.000	0.010	0.000	0.005	0.015	0.010	0.415	2.632	1.909	1.909	1.904	1.919	1.924	1.924
0.010	0.000	0.000	0.005	0.020	0.010	0.415	2.729	1.919	1.909	1.904	1.919	1.924	1.924
-0.005	-0.010	0.000	0.010	0.020	0.015	0.415	2.725	1.919	1.904	1.904	1.919	1.924	1.924
0.000	-0.010	0.000	0.005	0.020	0.024	0.420	2.700	1.914	1.909	1.904	1.919	1.919	1.924
0.005	0.015	0.005	0.010	0.010	0.029	0.425	2.725	1.904	1.914	1.909	1.919	1.914	1.924
0.005	0.034	0.005	0.000	0.005	0.015	0.420	2.671	1.904	1.914	1.904	1.919	1.914	1.914
0.005	0.010	0.000	0.000	0.000	0.010	0.425	2.734	1.904	1.904	1.904	1.919	1.909	1.914
0.005	0.039	0.005	0.000	0.000	-0.010	0.420	2.676	1.899	1.914	1.904	1.919	1.909	1.904
0.005	0.005	0.000	-0.005	-0.005	0.005	0.420	2.651	1.890	1.895	1.899	1.919	1.909	1.909
0.000	-0.024	0.005	-0.005	-0.010	-0.005	0.415	2.671	1.895	1.890	1.895	1.914	1.909	1.909
0.005	-0.005	0.000	-0.005	-0.010	-0.015	0.415	2.681	1.899	1.899	1.895	1.914	1.909	1.909
0.000	0.010	0.005	-0.005	-0.005	0.000	0.425	2.710	1.904	1.904	1.895	1.919	1.914	1.914
0.000	0.010	-0.005	0.000	0.005	-0.034	0.415	2.695	1.909	1.904	1.899	1.919	1.914	1.909
0.005	-0.029	0.000	0.000	0.010	0.015	0.425	2.700	1.904	1.895	1.899	1.919	1.919	1.924
-0.005	0.020	0.000	0.000	0.000	-0.005	0.415	2.681	1.904	1.909	1.904	1.919	1.914	1.919
-0.010	0.015	0.000	0.000	0.005	0.010	0.430	2.700	1.914	1.909	1.904	1.919	1.919	1.919
0.000	-0.010	0.005	0.000	0.000	0.000	0.420	2.710	1.914	1.904	1.904	1.924	1.919	1.919
0.000	-0.010	0.005	0.000	0.005	-0.010	0.425	2.705	1.914	1.909	1.904	1.924	1.919	1.919
0.010	-0.015	0.005	0.000	0.015	-0.010	0.425	2.690	1.914	1.904	1.904	1.924	1.919	1.919
0.000	-0.044	0.000	0.000	0.015	-0.005	0.430	2.690	1.909	1.899	1.904	1.924	1.919	1.919
0.000	-0.024	0.005	0.000	0.010	0.000	0.420	2.715	1.909	1.904	1.899	1.919	1.914	1.919
0.015	-0.010	0.005	0.000	0.000	0.005	0.430	2.695	1.909	1.909	1.904	1.919	1.914	1.914
0.000	0.005	0.005	0.005	0.015	0.005	0.420	2.695	1.904	1.909	1.904	1.924	1.914	1.919
0.005	0.000	0.000	0.000	0.020	0.020	0.430	2.700	1.904	1.904	1.904	1.919	1.914	1.919
-0.005	0.000	0.000	0.000	-0.005	0.039	0.425	2.686	1.899	1.904	1.899	1.919	1.909	1.924
-0.005	0.010	0.000	0.005	0.000	0.015	0.430	2.690	1.904	1.904	1.899	1.919	1.914	1.909
0.000	0.034	0.000	0.005	-0.005	0.039	0.425	2.705	1.904	1.914	1.909	1.924	1.914	1.919
0.000	0.029	-0.005	0.005	-0.010	0.010	0.420	2.705	1.909	1.904	1.909	1.924	1.914	1.914
0.005	0.005	0.005	0.000	-0.010	0.005	0.415	2.686	1.914	1.904	1.909	1.924	1.914	1.909
0.005	0.000	0.000	0.000	0.000	-0.010	0.415	2.695	1.909	1.904	1.904	1.924	1.919	1.909
0.010	0.010	0.005	0.000	0.005	-0.034	0.420	2.695	1.914	1.909	1.904	1.924	1.919	1.909
0.015	0.010	0.000	0.000	-0.005	-0.010	0.415	2.690	1.914	1.914	1.909	1.924	1.919	1.919
0.005	0.005	0.005	0.000	-0.010	-0.005	0.425	2.651	1.909	1.909	1.904	1.924	1.919	1.919
0.010	0.005	0.005	0.005	0.000	0.000	0.420	2.661	1.904	1.914	1.909	1.929	1.924	1.924
0.005	0.010	0.010	0.000	-0.005	0.005	0.420	2.793	1.919	1.914	1.909	1.929	1.924	1.924
0.005	0.005	-0.005	0.005	0.005	0.000	0.415	2.646	1.909	1.909	1.909	1.924	1.924	1.919
0.010	0.015	0.000	0.000	0.010	-0.020	0.420	2.661	1.904	1.914	1.909	1.924	1.924	1.919
0.000	-0.015	0.005	0.000	0.020	-0.005	0.425	2.749	1.909	1.899	1.904	1.924	1.924	1.919
-0.010	-0.015	0.005	0.000	0.020	0.000	0.430	2.812	1.919	1.904	1.904	1.924	1.924	1.924
-0.010	-0.024	0.000	0.000	0.005	0.010	0.425	2.759	1.919	1.899	1.899	1.924	1.914	1.924
-0.005	-0.063	0.005	0.000	0.010	0.010	0.430	2.729	1.919	1.890	1.895	1.914	1.914	1.924
-0.005	-0.049	-0.005	0.005	-0.005	0.005	0.425	2.744	1.919	1.904	1.895	1.919	1.909	1.919
-0.015	0.029	0.000	0.005	-0.020	0.000	0.425	2.651	1.914	1.934	1.904	1.919	1.909	1.909
-0.005	0.049	0.000	0.005	0.000	0.005	0.415	2.700	1.914	1.929	1.909	1.924	1.919	1.914
0.010	-0.005	0.000	0.005	-0.005	-0.005	0.425	2.734	1.914	1.914	1.914	1.924	1.919	1.914
-0.005	-0.005	0.005	0.000	0.005	0.010	0.410	2.671	1.914	1.914	1.914	1.929	1.924	1.919
0.005	0.010	0.000	0.000	0.015	-0.024	0.425	2.666	1.914	1.919	1.914	1.929	1.929	1.914
0.005	0.005	0.000	0.005	0.010	0.015	0.415	2.686	1.914	1.919	1.914	1.929	1.924	1.929
0.005	0.024	0.000	0.000	0.020	-0.005	0.425	2.637	1.909	1.924	1.919	1.934	1.929	1.924
0.015	0.078	0.005	0.000	0.000	0.005	0.425	2.681	1.914	1.934	1.919	1.934	1.924	1.924
0.010	0.029	0.005	0.005	-0.005	0.010	0.425	2.710	1.909	1.909	1.919	1.934	1.924	1.929
-0.010	-0.015	0.005	0.000	-0.010	-0.005	0.415	2.681	1.904	1.899	1.909	1.934	1.924	1.924
-0.010	-0.010	0.000	0.000	-0.020	0.015	0.420	2.690	1.899	1.899	1.909	1.929	1.924	1.929
0.000	-0.005	0.000	-0.005	-0.005	0.005	0.425	2.700	1.909	1.899	1.904	1.929	1.924	1.924
0.000	0.010	0.000	0.010	0.005	0.024	0.430	2.686	1.909	1.909	1.904	1.929	1.929	1.929
0.010	0.010	0.005	0.010	0.005	0.010	0.420	2.695	1.909	1.904	1.904	1.924	1.924	1.929
0.010	-0.010	0.000	0.000	0.005	0.024	0.430	2.700	1.909	1.899	1.899	1.924	1.924	1.924
0.000	0.024	0.000	0.000	-0.005	0.000	0.420	2.705	1.909	1.909	1.899	1.919	1.919	1.914
-0.005	0.029	0.000	0.005	-0.005	-0.005	0.425	2.676	1.904	1.909	1.904	1.919	1.914	1.919
0.000	-0.005	0.010	0.000	0.005	0.015	0.420	2.690	1.904	1.899	1.904	1.919	1.919	1.919
0.000	-0.034	0.005	0.000	-0.005	-0.015	0.425	2.690	1.904	1.890	1.899	1.919	1.914	1.914
-0.020	-0.073	0.000	0.000	-0.010	-0.020	0.415	2.695	1.904	1.885	1.895	1.919	1.909	1.909
-0.005	-0.020	0.005	0.005	-0.005	0.005	0.430	2.681	1.909	1.904	1.899	1.919	1.919	1.919
-0.005	0.000	-0.005	0.000	0.000	0.000	0.425	2.695	1.914	1.914	1.904	1.919	1.919	1.919
0.005	0.024	0.005	0.005	-0.005	0.020	0.420	2.681	1.919	1.919	1.909	1.924	1.914	1.929
0.024	0.024	0.005	-0.005	-0.020	0.010	0.415	2.695	1.924	1.924	1.909	1.924	1.914	1.919
0.000	0.010	0.005	0.005	-0.010	-0.010	0.415	2.700	1.909	1.914	1.914	1.924	1.914	1.914
0.000	0.015	0.000	0.005	0.000	-0.024	0.425	2.681	1.909	1.914	1.914	1.924	1.919	1.914
-0.005	0.010	-0.005	0.000	0.015	-0.005	0.415	2.686	1.909	1.909	1.909	1.929	1.929	1.924
0.015	0.010	0.000	0.000	0.029	0.005	0.420	2.690	1.909	1.909	1.909	1.929	1.929	1.929
0.005	0.015	0.000	0.005	0.020	-0.010	0.420	2.700	1.909	1.909	1.909	1.929	1.924	1.914
0.005	0.029	0.005	0.010	0.029	0.005	0.425	2.695	1.904	1.909	1.904	1.924	1.924	1.929
0.005	0.005	0.000	0.000	0.015	0.024	0.425	2.651	1.899	1.899	1.904	1.924	1.919	1.929
0.005	0.000	0.005	-0.005	-0.005	-0.005	0.420	2.656	1.895	1.895	1.899	1.919	1.914	1.919
0.015	-0.005	0.000	0.000	0.015	0.005	0.420	2.651	1.895	1.895	1.895	1.919	1.914	1.914
0.000	0.000	0.000	0.000	0.020	0.005	0.430	2.666	1.890	1.890	1.890	1.919	1.914	1.914
0.015	-0.005	0.000	0.000	0.000	0.005	0.425	2.671	1.899	1.890	1.895	1.914	1.909	1.909
-0.005	0.000	0.000	0.005	-0.005	-0.005	0.420	2.734	1.895	1.895	1.895	1.914	1.909	1.909
0.000	0.000	0.000	0.005	0.010	0.005	0.425	2.798	1.914	1.899	1.895	1.919	1.914	1.914
0.005	0.015	0.005	0.010	0.010	-0.005	0.425	2.656	1.909	1.904	1.899	1.919	1.914	1.914
0.010	0.010	0.005	0.005	-0.005	-0.015	0.425	2.734	1.919	1.909	1.904	1.919	1.909	1.914
0.005	0.000	0.000	0.005	0.000	0.015	0.415	2.734	1.919	1.909	1.904	1.919	1.914	1.919
0.005	0.005	0.000	-0.005	0.005	0.000	0.420	2.661	1.914	1.909	1.904	1.919	1.914	1.919
0.010	0.010	0.000	0.000	0.000	0.015	0.420	2.705	1.914	1.909	1.904	1.924	1.914	1.919
0.005	0.010	0.005	0.000	-0.005	-0.010	0.420	2.739	1.919	1.914	1.909	1.924	1.914	1.914
-0.005	0.005	0.000	0.000	-0.005	-0.010	0.425	2.666	1.909	1.909	1.904	1.924	1.914	1.919
-0.005	0.010	0.000	0.000	-0.010	-0.005	0.420	2.637	1.904	1.909	1.904	1.924	1.914	1.914
0.000	0.005	0.005	0.000	-0.010	-0.010	0.415	2.671	1.895	1.904	1.904	1.924	1.914	1.914
-0.005	-0.005	0.005	0.000	-0.005	0.005	0.415	2.637	1.890	1.899	1.899	1.919	1.914	1.914
-0.010	0.020	0.000	0.005	0.000	-0.010	0.430	2.681	1.895	1.904	1.899	1.924	1.919	1.909
-0.010	0.015	0.000	0.000	0.015	-0.010	0.425	2.690	1.895	1.895	1.899	1.919	1.924	1.914
0.000	0.010	0.000	0.005	0.020	0.010	0.425	2.705	1.899	1.895	1.895	1.919	1.919	1.924
0.005	0.005	0.000	0.010	0.015	0.000	0.425	2.690	1.899	1.895	1.899	1.914	1.914	1.919
0.010	0.054	0.000	0.000	0.015	0.000	0.420	2.705	1.909	1.914	1.899	1.919	1.914	1.919
0.010	0.024	0.000	0.005	0.010	-0.024	0.420	2.686	1.909	1.899	1.899	1.919	1.914	1.909
0.005	0.000	-0.005	0.000	-0.005	0.010	0.420	2.700	1.909	1.899	1.899	1.919	1.909	1.919
-0.005	-0.015	0.000	0.000	-0.005	0.010	0.425	2.690	1.909	1.895	1.899	1.919	1.914	1.919
-0.005	-0.039	0.000	0.005	-0.005	0.015	0.425	2.695	1.904	1.895	1.899	1.919	1.914	1.919
0.000	-0.034	0.005	0.005	0.000	0.000	0.425	2.690	1.909	1.899	1.899	1.919	1.914	1.914
-0.005	-0.029	0.005	0.000	-0.005	0.000	0.425	2.705	1.914	1.904	1.904	1.919	1.914	1.914
0.000	-0.010	0.005	-0.005	-0.010	-0.010	0.425	2.686	1.914	1.914	1.904	1.919	1.914	1.909
0.000	0.000	0.000	0.000	-0.005	-0.015	0.425	2.715	1.914	1.914	1.909	1.919	1.914	1.909
0.000	0.000	0.000	0.000	0.000	0.000	0.420	2.666	1.904	1.909	1.909	1.919	1.919	1.914
-0.010	0.000	-0.005	0.000	0.000	-0.010	0.425	2.681	1.904	1.909	1.904	1.924	1.914	1.914
0.000	0.010	-0.005	0.000	-0.005	0.005	0.420	2.681	1.909	1.909	1.904	1.924	1.914	1.914
0.000	0.005	-0.005	0.000	0.000	-0.005	0.420	2.695	1.904	1.904	1.899	1.919	1.914	1.914
0.005	-0.005	0.000	0.005	-0.005	0.010	0.430	2.710	1.904	1.899	1.904	1.919	1.914	1.914
0.005	-0.010	0.000	0.000	0.000	0.000	0.420	2.681	1.904	1.899	1.899	1.914	1.914	1.914
0.000	0.000	0.005	0.000	0.005	-0.015	0.425	2.705	1.904	1.899	1.899	1.919	1.914	1.904
0.000	0.005	0.005	0.000	-0.010	0.010	0.420	2.690	1.904	1.904	1.899	1.919	1.909	1.914
0.010	0.010	0.000	0.005	-0.020	0.005	0.425	2.686	1.904	1.904	1.904	1.919	1.909	1.914
0.000	0.000	0.000	0.000	-0.005	0.000	0.415	2.695	1.904	1.899	1.899	1.919	1.914	1.914
0.000	0.039	0.000	0.000	0.000	0.000	0.430	2.656	1.904	1.914	1.904	1.924	1.919	1.914
0.000	0.039	0.005	0.000	0.024	0.000	0.420	2.671	1.904	1.909	1.909	1.924	1.924	1.919
-0.005	0.000	0.000	-0.005	0.024	-0.005	0.425	2.646	1.899	1.899	1.904	1.924	1.924	1.919
0.005	0.000	0.005	0.005	0.020	-0.015	0.420	2.651	1.899	1.904	1.904	1.924	1.919	1.919
0.005	0.034	0.005	0.010	0.010	-0.010	0.425	2.661	1.904	1.914	1.909	1.929	1.919	1.919
0.005	0.034	0.000	0.000	0.010	-0.005	0.420	2.642	1.899	1.904	1.909	1.924	1.919	1.919
0.005	0.000	0.000	-0.005	0.005	-0.034	0.425	2.822	1.919	1.899	1.904	1.924	1.914	1.909
0.000	-0.020	0.000	0.000	0.005	-0.005	0.425	2.656	1.904	1.899	1.899	1.924	1.919	1.924
0.005	-0.010	0.000	0.000	0.005	0.024	0.430	2.651	1.899	1.899	1.899	1.919	1.919	1.929
0.000	-0.005	-0.005	0.005	0.005	0.029	0.420	2.744	1.909	1.899	1.895	1.919	1.914	1.929
0.000	-0.010	0.005	0.005	0.000	0.049	0.425	2.651	1.904	1.895	1.895	1.914	1.914	1.924
-0.005	-0.029	0.000	0.000	0.000	0.034	0.425	2.705	1.904	1.890	1.890	1.914	1.909	1.919
0.000	-0.015	0.000	0.000	-0.005	0.024	0.420	2.710	1.899	1.895	1.895	1.909	1.909	1.909
0.005	0.015	0.000	0.000	0.000	0.015	0.420	2.666	1.904	1.904	1.895	1.914	1.904	1.909
0.000	0.020	0.005	0.000	-0.010	0.005	0.420	2.651	1.899	1.904	1.899	1.914	1.904	1.904
-0.005	-0.020	0.000	0.000	-0.024	0.020	0.420	2.686	1.899	1.890	1.895	1.914	1.904	1.909
0.005	-0.029	0.000	0.000	-0.024	0.020	0.425	2.651	1.899	1.895	1.899	1.914	1.904	1.909
0.000	0.005	0.005	0.000	-0.020	0.010	0.425	2.686	1.899	1.899	1.895	1.919	1.909	1.909
0.005	0.024	0.005	0.000	-0.005	0.000	0.420	2.695	1.909	1.909	1.899	1.919	1.914	1.904
0.000	0.020	0.005	0.000	0.000	-0.010	0.420	2.705	1.909	1.909	1.904	1.919	1.919	1.909
0.010	0.015	0.005	0.000	0.010	-0.029	0.420	2.690	1.914	1.909	1.904	1.924	1.919	1.909
0.010	0.000	0.005	0.005	0.015	0.000	0.420	2.700	1.904	1.904	1.904	1.924	1.924	1.919
0.005	-0.015	0.000	0.005	0.029	-0.020	0.425	2.700	1.909	1.899	1.899	1.919	1.924	1.914
-0.005	-0.059	0.000	0.000	0.024	-0.034	0.430	2.700	1.904	1.890	1.895	1.919	1.919	1.909
0.000	-0.029	0.000	0.005	0.015	0.005	0.420	2.695	1.904	1.899	1.895	1.919	1.914	1.924
0.000	-0.005	0.000	0.000	0.010	0.000	0.420	2.705	1.904	1.904	1.899	1.914	1.909	1.914
0.005	0.000	0.000	0.000	0.010	0.000	0.410	2.690	1.904	1.909	1.899	1.914	1.909	1.914
0.005	0.000	0.000	0.000	0.005	-0.020	0.420	2.686	1.904	1.904	1.899	1.914	1.909	1.909
0.000	-0.010	0.000	0.000	0.024	0.000	0.420	2.671	1.899	1.895	1.899	1.914	1.914	1.914
-0.005	-0.010	0.000	0.000	0.015	0.000	0.430	2.705	1.904	1.895	1.895	1.914	1.909	1.914
0.005	-0.020	0.005	0.005	0.010	0.005	0.420	2.705	1.904	1.895	1.895	1.914	1.909	1.914
0.000	-0.020	0.000	0.005	0.000	0.005	0.420	2.690	1.904	1.899	1.895	1.919	1.904	1.914
0.005	-0.010	0.005	0.000	-0.005	-0.010	0.415	2.686	1.909	1.904	1.899	1.914	1.904	1.904
0.015	0.015	0.000	0.005	0.000	-0.005	0.425	2.681	1.914	1.914	1.904	1.919	1.909	1.914
0.010	0.083	0.010	0.005	0.005	0.015	0.425	2.700	1.914	1.934	1.914	1.924	1.914	1.919
0.000	0.068	0.000	0.000	-0.005	0.010	0.425	2.681	1.909	1.924	1.914	1.924	1.914	1.919
0.000	0.044	0.005	0.000	0.000	0.010	0.425	2.705	1.914	1.914	1.914	1.929	1.919	1.919
0.005	0.059	0.000	0.000	0.005	0.010	0.420	2.690	1.909	1.914	1.914	1.929	1.924	1.924
-0.010	-0.029	-0.005	0.000	0.000	-0.015	0.415	2.686	1.899	1.885	1.904	1.929	1.919	1.909
-0.005	-0.039	0.000	0.005	0.000	0.010	0.425	2.690	1.904	1.890	1.899	1.924	1.919	1.924
-0.005	-0.020	0.000	0.005	0.000	0.005	0.420	2.651	1.899	1.899	1.899	1.924	1.919	1.919
-0.005	0.005	0.005	0.005	-0.005	0.005	0.425	2.651	1.895	1.899	1.899	1.919	1.914	1.919
-0.005	-0.015	0.005	0.000	-0.010	0.000	0.415	2.651	1.890	1.890	1.895	1.914	1.909	1.914
0.000	-0.010	0.000	0.000	0.010	0.005	0.420	2.666	1.890	1.895	1.890	1.914	1.919	1.919
0.015	0.015	0.000	0.000	0.020	0.005	0.420	2.666	1.895	1.895	1.895	1.914	1.919	1.919
0.010	0.000	0.005	0.005	0.005	0.010	0.420	2.734	1.885	1.890	1.890	1.909	1.909	1.914
0.015	0.000	0.000	0.005	0.000	0.000	0.420	2.808	1.904	1.895	1.890	1.909	1.904	1.909
0.005	0.005	0.000	0.000	0.000	-0.005	0.425	2.744	1.904	1.899	1.895	1.909	1.904	1.904
0.005	0.015	0.000	0.000	-0.005	0.005	0.425	2.646	1.899	1.899	1.895	1.909	1.904	1.909
0.010	0.010	0.000	0.000	-0.005	0.005	0.425	2.744	1.914	1.899	1.899	1.914	1.909	1.909
-0.005	0.005	0.000	0.005	-0.010	-0.005	0.425	2.729	1.904	1.899	1.899	1.914	1.904	1.909
-0.005	-0.010	0.005	0.000	-0.010	0.005	0.420	2.729	1.909	1.904	1.899	1.914	1.909	1.909
0.000	-0.005	0.005	0.000	-0.010	0.005	0.420	2.739	1.914	1.904	1.904	1.914	1.909	1.909
-0.005	-0.020	0.005	0.000	-0.010	0.010	0.415	2.656	1.909	1.904	1.904	1.919	1.914	1.914
0.000	-0.005	0.005	0.005	0.015	-0.024	0.430	2.739	1.919	1.914	1.909	1.919	1.919	1.904
0.005	0.005	-0.005	0.000	0.005	0.000	0.420	2.681	1.914	1.914	1.909	1.924	1.919	1.914
-0.010	0.005	0.000	0.005	0.015	0.005	0.425	2.734	1.899	1.909	1.904	1.924	1.919	1.919
-0.005	0.005	0.005	0.005	0.020	0.005	0.425	2.690	1.899	1.909	1.909	1.924	1.924	1.919
-0.005	0.000	0.005	0.000	0.015	0.010	0.425	2.681	1.904	1.904	1.904	1.924	1.919	1.919
-0.005	-0.005	0.005	0.000	0.005	0.010	0.425	2.710	1.904	1.899	1.904	1.924	1.914	1.919
0.000	-0.010	-0.005	0.000	0.005	0.010	0.420	2.681	1.899	1.895	1.895	1.919	1.909	1.914
0.010	-0.010	0.000	0.000	0.000	-0.015	0.410	2.700	1.904	1.899	1.899	1.914	1.909	1.909
0.010	-0.010	0.000	0.005	0.000	0.000	0.425	2.676	1.904	1.899	1.899	1.914	1.914	1.914
0.000	-0.010	0.000	0.010	0.000	-0.024	0.420	2.681	1.899	1.899	1.895	1.914	1.914	1.904
0.005	0.005	0.005	0.005	0.000	-0.024	0.430	2.710	1.904	1.904	1.899	1.914	1.909	1.904
0.000	0.029	0.000	0.005	0.000	0.015	0.425	2.710	1.904	1.914	1.899	1.914	1.914	1.914
-0.010	0.034	0.000	0.000	0.000	-0.010	0.420	2.710	1.904	1.914	1.904	1.919	1.914	1.909
0.000	0.059	0.005	0.005	0.000	0.015	0.415	2.705	1.909	1.919	1.909	1.924	1.914	1.919
0.005	0.020	0.000	0.000	0.000	-0.005	0.425	2.686	1.909	1.904	1.909	1.924	1.914	1.914
0.005	0.005	0.005	0.000	0.000	0.000	0.425	2.700	1.914	1.909	1.909	1.924	1.919	1.914
0.015	-0.005	0.000	0.005	0.000	0.015	0.430	2.700	1.914	1.904	1.904	1.929	1.919	1.924
0.010	0.000	0.000	0.005	-0.005	0.010	0.420	2.695	1.909	1.904	1.904	1.929	1.919	1.924
0.005	-0.024	0.000	0.000	0.005	-0.010	0.425	2.700	1.909	1.895	1.904	1.924	1.919	1.919
0.000	-0.049	0.005	0.000	0.005	0.005	0.420	2.695	1.904	1.895	1.899	1.924	1.919	1.924
0.000	-0.049	0.000	0.000	0.005	-0.005	0.425	2.686	1.899	1.890	1.895	1.919	1.919	1.919
-0.010	-0.020	0.000	0.005	0.000	0.000	0.425	2.695	1.904	1.904	1.895	1.914	1.914	1.919
-0.015	0.010	0.000	0.000	0.000	0.005	0.425	2.705	1.904	1.909	1.899	1.914	1.914	1.919
-0.005	0.015	0.000	0.000	-0.005	0.015	0.425	2.695	1.904	1.909	1.899	1.914	1.914	1.919
0.015	0.020	0.005	-0.005	0.005	0.015	0.415	2.690	1.909	1.909	1.899	1.919	1.914	1.914
0.000	0.015	0.000	-0.005	-0.005	0.010	0.420	2.695	1.904	1.904	1.899	1.914	1.909	1.914
0.000	0.010	0.010	0.000	-0.005	0.015	0.420	2.666	1.899	1.899	1.904	1.919	1.909	1.914
0.005	0.010	0.000	0.000	0.005	0.000	0.425	2.656	1.895	1.904	1.899	1.919	1.914	1.914
0.005	0.010	0.005	0.000	-0.005	-0.010	0.420	2.646	1.895	1.899	1.899	1.919	1.914	1.909
0.005	0.005	0.010	0.005	-0.005	0.020	0.425	2.676	1.895	1.899	1.899	1.919	1.914	1.919
-0.005	0.000	0.000	0.000	0.005	0.015	0.420	2.661	1.895	1.895	1.899	1.919	1.914	1.919
0.000	-0.005	0.000	0.000	0.010	0.010	0.425	2.744	1.895	1.895	1.899	1.919	1.919	1.919
0.000	0.010	-0.005	0.000	0.000	0.005	0.415	2.808	1.914	1.899	1.895	1.919	1.919	1.914
0.010	0.000	0.000	0.000	0.015	0.029	0.420	2.739	1.924	1.909	1.899	1.919	1.919	1.924
0.015	0.005	0.010	0.005	0.010	0.010	0.420	2.729	1.924	1.914	1.904	1.919	1.919	1.914
0.000	0.000	0.000	0.000	0.000	0.005	0.420	2.729	1.924	1.914	1.904	1.919	1.914	1.914
-0.005	0.010	-0.005	0.005	0.005	0.000	0.420	2.676	1.914	1.914	1.904	1.924	1.919	1.914
-0.005	0.000	0.010	0.000	0.005	0.000	0.425	2.695	1.904	1.909	1.909	1.924	1.919	1.914
0.000	0.005	0.005	0.000	-0.005	-0.005	0.420	2.744	1.909	1.909	1.904	1.919	1.909	1.909
0.005	0.015	-0.005	0.005	0.010	-0.005	0.420	2.666	1.904	1.909	1.904	1.919	1.914	1.914
-0.010	0.000	0.000	0.000	0.005	-0.010	0.415	2.651	1.895	1.899	1.899	1.919	1.914	1.909
-0.005	0.000	0.000	0.005	0.000	-0.010	0.430	2.681	1.899	1.895	1.904	1.919	1.914	1.909
0.000	0.000	0.000	0.000	0.010	-0.024	0.415	2.681	1.890	1.895	1.899	1.919	1.914	1.909
-0.010	0.000	0.000	0.005	-0.015	-0.010	0.425	2.686	1.890	1.890	1.895	1.919	1.904	1.909
-0.010	-0.020	0.000	0.000	-0.034	-0.010	0.425	2.695	1.899	1.890	1.895	1.919	1.909	1.909
0.005	-0.005	0.000	0.005	-0.024	0.010	0.430	2.700	1.909	1.899	1.895	1.914	1.909	1.914
0.010	0.000	0.005	0.010	-0.005	0.005	0.425	2.686	1.904	1.904	1.899	1.919	1.919	1.919
0.005	0.005	0.000	0.005	-0.005	-0.005	0.415	2.710	1.909	1.904	1.899	1.919	1.914	1.914
-0.005	0.000	0.005	0.005	-0.005	0.005	0.410	2.690	1.909	1.904	1.899	1.924	1.919	1.919
-0.005	-0.010	0.000	0.000	0.005	0.005	0.415	2.695	1.909	1.904	1.899	1.924	1.919	1.919
-0.005	0.000	0.005	0.000	0.005	-0.010	0.420	2.705	1.914	1.914	1.904	1.924	1.924	1.914
0.000	0.015	0.000	0.000	0.010	0.010	0.425	2.710	1.914	1.914	1.904	1.924	1.919	1.924
0.000	-0.005	0.000	0.000	0.015	0.020	0.420	2.695	1.909	1.909	1.909	1.924	1.924	1.924
-0.005	0.029	0.005	0.005	0.020	0.010	0.420	2.700	1.909	1.919	1.914	1.924	1.919	1.919
0.005	0.020	0.000	0.000	0.015	0.005	0.415	2.695	1.909	1.909	1.909	1.924	1.919	1.919
0.005	-0.029	0.000	0.005	0.010	-0.015	0.425	2.695	1.909	1.895	1.904	1.919	1.914	1.909
0.000	-0.020	0.000	0.005	0.010	-0.005	0.425	2.681	1.899	1.899	1.899	1.919	1.914	1.914
0.000	-0.015	-0.005	0.000	0.005	-0.005	0.425	2.690	1.899	1.895	1.899	1.919	1.914	1.909
-0.010	-0.024	0.000	0.000	0.005	0.015	0.425	2.700	1.895	1.895	1.895	1.914	1.914	1.919
-0.005	0.000	0.000	0.005	0.005	-0.024	0.425	2.690	1.899	1.904	1.899	1.914	1.909	1.909
0.010	0.000	0.000	0.000	0.000	0.020	0.425	2.690	1.904	1.899	1.899	1.914	1.909	1.919
0.000	0.039	0.000	0.000	0.000	0.015	0.420	2.695	1.909	1.919	1.904	1.919	1.914	1.914
0.010	0.049	0.015	0.000	-0.005	0.010	0.430	2.690	1.914	1.919	1.909	1.919	1.909	1.914
0.015	-0.029	0.000	0.005	0.000	0.000	0.420	2.700	1.909	1.895	1.899	1.919	1.914	1.914
0.000	-0.024	-0.005	0.005	0.000	0.010	0.425	2.681	1.904	1.899	1.899	1.924	1.919	1.919
-0.005	0.005	0.005	0.000	0.005	0.000	0.425	2.700	1.909	1.909	1.904	1.924	1.919	1.919
0.005	0.015	0.005	0.005	0.010	-0.005	0.425	2.651	1.909	1.909	1.904	1.924	1.919	1.914
0.000	0.015	0.000	0.000	0.015	-0.005	0.420	2.656	1.899	1.909	1.904	1.924	1.919	1.914
-0.005	0.010	0.000	0.000	0.005	0.000	0.425	2.656	1.899	1.904	1.909	1.924	1.919	1.919
0.005	0.024	0.000	0.000	0.010	-0.010	0.425	2.656	1.899	1.909	1.904	1.924	1.919	1.914
0.005	-0.010	0.000	0.000	0.010	0.010	0.425	2.651	1.895	1.890	1.899	1.919	1.919	1.924
-0.005	-0.015	0.000	0.000	-0.005	0.015	0.410	2.725	1.890	1.890	1.895	1.914	1.909	1.919
0.010	-0.020	0.005	0.000	0.000	-0.020	0.425	2.808	1.909	1.895	1.895	1.919	1.909	1.909
0.010	0.020	0.005	0.000	-0.010	0.020	0.415	2.744	1.914	1.909	1.895	1.914	1.909	1.919
0.005	0.010	0.000	0.000	-0.010	-0.010	0.415	2.720	1.909	1.904	1.895	1.914	1.909	1.909
-0.005	0.005	0.000	0.000	-0.005	0.020	0.415	2.739	1.914	1.904	1.895	1.914	1.909	1.919
0.000	0.010	0.000	0.000	-0.020	0.010	0.420	2.759	1.919	1.909	1.895	1.914	1.904	1.909
0.000	0.020	0.000	0.010	-0.029	0.029	0.420	2.695	1.914	1.914	1.899	1.919	1.904	1.914
0.005	0.000	-0.005	0.000	-0.024	0.015	0.415	2.715	1.909	1.904	1.899	1.914	1.909	1.909
0.005	-0.010	0.005	0.000	-0.024	-0.005	0.420	2.681	1.914	1.909	1.904	1.919	1.909	1.904
0.000	-0.010	0.000	0.010	0.000	-0.010	0.420	2.729	1.914	1.909	1.904	1.924	1.919	1.909
0.005	0.000	0.005	0.005	0.000	-0.020	0.415	2.676	1.914	1.914	1.909	1.924	1.924	1.909
0.010	0.000	0.000	0.005	0.015	-0.010	0.420	2.642	1.904	1.914	1.914	1.929	1.924	1.919
0.005	0.005	0.000	0.005	0.015	0.010	0.425	2.686	1.904	1.909	1.909	1.929	1.924	1.924
0.000	-0.005	0.005	0.005	0.010	0.005	0.425	2.676	1.909	1.909	1.909	1.929	1.924	1.924
-0.005	0.005	0.000	-0.005	0.010	-0.020	0.420	2.705	1.909	1.909	1.909	1.924	1.924	1.914
0.005	-0.005	0.000	0.000	0.005	0.005	0.415	2.681	1.904	1.904	1.904	1.924	1.919	1.924
-0.005	-0.005	0.005	0.000	-0.010	-0.010	0.420	2.700	1.904	1.904	1.904	1.919	1.914	1.914
0.005	-0.005	0.000	0.010	0.005	-0.005	0.415	2.681	1.904	1.904	1.904	1.924	1.919	1.919
-0.005	-0.010	0.005	0.000	0.020	-0.005	0.420	2.690	1.899	1.895	1.904	1.919	1.919	1.919
-0.010	0.000	0.000	0.000	0.020	-0.005	0.415	2.700	1.899	1.899	1.899	1.919	1.919	1.914
-0.005	0.005	0.005	0.000	0.015	-0.024	0.425	2.710	1.904	1.899	1.895	1.919	1.914	1.909
-0.005	0.010	-0.005	0.000	0.010	-0.015	0.425	2.686	1.904	1.899	1.899	1.914	1.909	1.914
0.000	0.010	0.005	-0.005	0.005	0.000	0.425	2.700	1.909	1.899	1.899	1.914	1.909	1.919
-0.005	0.005	0.000	-0.005	-0.005	-0.010	0.420	2.690	1.909	1.899	1.899	1.919	1.909	1.909
-0.005	0.020	0.000	0.000	-0.010	-0.005	0.425	2.710	1.909	1.909	1.904	1.919	1.909	1.914
0.015	0.029	0.010	0.005	-0.010	-0.005	0.415	2.710	1.919	1.914	1.909	1.924	1.914	1.914
0.005	0.000	0.005	0.005	-0.015	0.010	0.420	2.715	1.914	1.909	1.909	1.924	1.914	1.919
0.005	0.000	0.000	0.000	-0.020	0.010	0.420	2.700	1.919	1.909	1.909	1.924	1.914	1.919
