0.010	0.000	0.005	0.000	0.000	-0.020	0.391	2.749	2.451	2.104	2.026	1.953	1.958	1.953
0.005	0.000	0.005	0.000	0.005	0.020	0.391	2.808	2.310	2.168	2.061	1.987	1.963	1.963
0.000	-0.005	-0.005	0.005	0.005	0.015	0.381	2.744	2.212	2.183	2.090	2.021	1.978	1.968
0.005	-0.005	-0.005	0.005	-0.005	0.020	0.381	2.754	2.153	2.178	2.114	2.051	1.992	1.973
-0.005	0.005	0.005	0.000	0.005	0.020	0.381	2.661	2.095	2.158	2.129	2.075	2.017	1.987
0.000	0.005	0.000	0.005	0.010	-0.020	0.386	2.764	2.065	2.134	2.129	2.100	2.036	1.987
0.000	0.010	0.000	0.000	0.000	0.000	0.391	2.656	2.026	2.104	2.124	2.109	2.056	2.012
0.005	0.000	0.005	0.005	0.000	0.000	0.381	2.734	2.012	2.075	2.114	2.119	2.070	2.031
-0.005	0.005	0.005	0.005	0.000	0.010	0.391	2.681	1.997	2.056	2.100	2.119	2.085	2.046
0.005	0.010	0.000	0.005	-0.005	-0.020	0.386	2.632	1.987	2.041	2.085	2.114	2.090	2.056
0.000	0.000	-0.005	0.000	-0.005	-0.020	0.391	2.686	1.987	2.026	2.070	2.109	2.095	2.065
0.000	0.010	0.000	0.005	-0.005	0.005	0.386	2.734	1.997	2.021	2.056	2.100	2.095	2.075
0.000	-0.005	0.000	0.005	0.000	0.010	0.386	2.686	1.992	2.007	2.041	2.090	2.095	2.085
0.000	0.000	0.000	0.000	-0.005	-0.005	0.381	2.686	1.997	2.007	2.031	2.075	2.085	2.080
0.005	0.005	0.005	0.005	0.000	0.000	0.386	2.676	1.987	1.997	2.021	2.065	2.080	2.080
0.005	0.000	-0.005	0.005	-0.005	0.000	0.376	2.705	1.992	1.992	2.012	2.056	2.070	2.080
0.000	0.000	0.000	0.005	0.000	0.005	0.391	2.700	1.987	1.997	2.007	2.046	2.065	2.080
-0.005	-0.005	0.010	0.005	0.010	0.000	0.391	2.705	1.992	1.987	2.002	2.041	2.061	2.070
0.005	-0.015	-0.005	0.005	0.005	-0.010	0.396	2.690	1.992	1.987	1.997	2.026	2.046	2.065
0.000	-0.005	0.000	0.005	0.005	0.000	0.386	2.681	1.987	1.992	1.997	2.026	2.036	2.056
0.005	-0.005	0.005	0.005	0.005	-0.010	0.386	2.700	1.992	1.992	1.992	2.021	2.031	2.046
0.005	-0.005	0.000	0.000	0.010	-0.020	0.381	2.705	1.997	1.992	1.987	2.017	2.026	2.036
0.000	0.005	0.000	0.000	0.000	-0.024	0.391	2.700	1.992	1.997	1.992	2.017	2.021	2.036
0.005	0.005	0.005	0.000	0.005	0.005	0.391	2.690	1.992	1.997	1.992	2.017	2.021	2.036
0.000	0.005	-0.005	0.000	-0.005	-0.010	0.391	2.686	1.992	1.992	1.997	2.017	2.017	2.026
0.000	0.000	0.000	0.005	0.005	0.005	0.396	2.715	1.997	1.997	1.992	2.017	2.021	2.026
0.000	0.005	0.000	0.005	0.000	0.020	0.396	2.686	1.992	1.997	1.997	2.012	2.017	2.031
-0.005	0.024	0.005	0.000	0.005	0.005	0.391	2.705	1.987	2.002	1.997	2.017	2.017	2.021
-0.005	0.020	0.000	0.000	0.000	-0.005	0.386	2.710	1.992	1.997	1.997	2.017	2.017	2.021
0.005	0.020	0.010	0.005	0.005	0.039	0.386	2.710	1.997	1.997	1.997	2.017	2.017	2.026
0.000	-0.005	0.000	0.010	0.000	0.010	0.381	2.700	1.987	1.987	1.992	2.012	2.012	2.021
0.000	0.000	-0.005	0.000	0.000	0.005	0.381	2.690	1.982	1.987	1.987	2.012	2.012	2.012
-0.005	0.000	0.005	0.000	0.010	0.020	0.386	2.695	1.982	1.982	1.987	2.012	2.012	2.012
-0.005	0.000	0.005	0.010	0.000	0.015	0.391	2.686	1.978	1.978	1.982	2.007	2.007	2.007
0.000	0.005	0.000	0.005	0.005	-0.034	0.386	2.686	1.978	1.978	1.978	2.002	1.997	1.997
0.000	0.000	-0.005	0.000	0.005	0.000	0.386	2.646	1.968	1.978	1.978	1.997	1.997	2.007
0.000	0.000	0.005	-0.005	0.000	0.005	0.386	2.695	1.968	1.973	1.978	1.997	1.997	2.007
0.000	0.005	0.000	-0.005	-0.005	0.010	0.391	2.793	1.982	1.973	1.973	1.997	1.992	2.002
0.005	-0.005	0.000	0.000	0.000	-0.010	0.386	2.661	1.978	1.973	1.973	1.997	1.992	1.997
0.000	-0.005	0.000	0.005	-0.005	0.010	0.386	2.720	1.978	1.973	1.973	1.997	1.992	2.002
0.005	0.000	0.005	0.005	0.000	0.015	0.386	2.744	1.982	1.978	1.978	1.997	1.992	2.002
0.000	0.000	0.005	0.000	0.000	-0.010	0.386	2.793	1.997	1.982	1.978	1.997	1.992	1.987
0.005	0.005	-0.005	0.000	0.005	-0.005	0.391	2.651	1.982	1.982	1.982	1.997	1.997	1.997
0.005	0.005	0.005	0.005	0.000	-0.005	0.386	2.632	1.973	1.987	1.982	1.997	1.992	1.997
0.000	0.000	0.000	0.000	0.000	0.000	0.391	2.734	1.973	1.978	1.978	1.997	1.992	1.997
0.000	0.010	0.005	0.005	0.005	0.000	0.391	2.749	1.982	1.982	1.982	2.002	1.997	1.997
-0.005	0.000	0.010	0.000	0.005	0.000	0.391	2.729	1.978	1.978	1.982	1.997	1.997	1.997
0.000	0.010	0.000	0.000	0.005	0.005	0.391	2.734	1.982	1.982	1.978	1.997	1.997	1.997
0.000	0.005	0.000	0.005	0.020	0.005	0.391	2.666	1.973	1.973	1.978	1.997	1.997	1.992
0.005	0.005	0.005	0.000	0.010	-0.024	0.396	2.729	1.968	1.973	1.978	1.992	1.987	1.992
0.000	-0.005	0.000	0.000	0.000	0.015	0.381	2.700	1.968	1.963	1.968	1.992	1.987	1.997
0.005	0.005	-0.005	0.000	0.000	0.010	0.391	2.729	1.968	1.968	1.968	1.987	1.987	1.992
-0.005	-0.020	0.000	0.000	-0.005	-0.005	0.386	2.705	1.968	1.958	1.968	1.987	1.982	1.982
0.010	-0.010	0.000	0.000	-0.005	0.010	0.396	2.695	1.963	1.963	1.963	1.982	1.982	1.987
0.005	0.005	0.000	0.000	0.005	0.010	0.391	2.710	1.958	1.963	1.963	1.987	1.982	1.987
-0.005	0.000	0.000	0.000	0.000	0.005	0.396	2.710	1.958	1.958	1.963	1.982	1.982	1.987
0.005	0.010	0.005	-0.005	-0.005	0.000	0.386	2.705	1.968	1.968	1.963	1.987	1.982	1.982
-0.005	0.000	0.000	0.000	-0.005	-0.015	0.386	2.710	1.968	1.968	1.963	1.987	1.982	1.982
0.000	0.000	0.000	0.005	0.000	-0.020	0.381	2.686	1.963	1.968	1.968	1.987	1.982	1.982
-0.005	-0.005	0.000	0.005	0.000	-0.020	0.386	2.686	1.963	1.963	1.968	1.987	1.982	1.987
0.005	0.000	0.005	0.005	0.000	0.000	0.396	2.710	1.963	1.963	1.968	1.987	1.987	1.987
-0.005	0.000	0.005	0.005	0.005	0.000	0.386	2.715	1.963	1.963	1.963	1.987	1.987	1.987
0.010	0.005	0.005	0.010	0.005	0.000	0.386	2.686	1.958	1.963	1.968	1.987	1.982	1.987
0.000	0.010	-0.005	0.005	0.010	0.015	0.386	2.690	1.958	1.963	1.963	1.982	1.982	1.992
0.005	-0.005	0.005	0.005	0.010	0.005	0.391	2.700	1.953	1.953	1.958	1.982	1.982	1.987
-0.005	0.005	0.005	0.000	0.005	0.010	0.376	2.686	1.953	1.953	1.958	1.978	1.978	1.982
-0.005	0.000	0.005	0.000	0.005	0.020	0.391	2.690	1.953	1.953	1.953	1.978	1.978	1.982
0.000	0.010	0.000	0.000	0.015	0.015	0.391	2.676	1.948	1.948	1.948	1.973	1.973	1.978
0.000	0.010	0.000	0.005	0.005	0.005	0.400	2.705	1.948	1.948	1.948	1.973	1.968	1.973
0.000	0.000	0.000	0.005	0.005	0.010	0.386	2.690	1.953	1.943	1.948	1.973	1.968	1.973
0.005	0.005	0.000	0.005	0.000	0.005	0.391	2.686	1.948	1.948	1.943	1.968	1.968	1.968
-0.010	0.005	0.005	0.000	-0.005	-0.005	0.396	2.686	1.943	1.948	1.948	1.968	1.963	1.968
0.010	0.000	0.000	0.000	-0.010	-0.010	0.396	2.710	1.953	1.948	1.943	1.968	1.963	1.968
0.005	-0.005	0.000	-0.005	-0.015	0.000	0.386	2.690	1.953	1.948	1.943	1.968	1.963	1.968
-0.005	-0.005	0.000	-0.005	-0.010	-0.020	0.391	2.695	1.948	1.953	1.948	1.963	1.963	1.958
0.005	-0.005	0.000	0.000	-0.010	0.005	0.386	2.651	1.943	1.948	1.948	1.968	1.963	1.968
-0.005	0.000	0.005	-0.005	0.000	0.020	0.391	2.690	1.943	1.948	1.948	1.968	1.968	1.973
0.000	0.000	0.000	0.000	-0.010	0.015	0.381	2.773	1.958	1.953	1.948	1.968	1.963	1.973
0.000	0.000	0.005	0.000	-0.010	0.000	0.391	2.666	1.953	1.948	1.948	1.973	1.963	1.963
0.005	-0.005	0.005	0.005	0.000	-0.005	0.391	2.710	1.953	1.948	1.948	1.968	1.968	1.968
0.000	0.000	0.005	0.000	0.005	-0.020	0.386	2.749	1.958	1.948	1.948	1.968	1.963	1.963
0.000	-0.005	0.000	0.005	0.005	-0.005	0.386	2.822	1.963	1.953	1.943	1.968	1.968	1.963
0.000	-0.005	0.005	0.000	0.015	0.000	0.381	2.642	1.953	1.948	1.943	1.963	1.963	1.963
-0.005	0.000	0.005	0.005	0.020	-0.005	0.381	2.744	1.953	1.953	1.948	1.963	1.963	1.958
0.000	0.005	0.000	0.010	0.020	-0.024	0.381	2.661	1.943	1.948	1.948	1.968	1.963	1.958
0.005	0.010	0.000	0.005	0.010	0.000	0.386	2.646	1.953	1.948	1.948	1.963	1.958	1.968
0.000	0.005	0.005	0.005	0.010	0.015	0.386	2.729	1.948	1.948	1.948	1.963	1.958	1.968
0.000	0.010	0.005	0.005	0.000	0.000	0.381	2.651	1.943	1.948	1.948	1.963	1.958	1.958
0.005	0.010	0.005	0.000	-0.005	0.010	0.391	2.676	1.943	1.943	1.948	1.963	1.953	1.963
0.000	0.015	0.000	0.000	-0.005	0.000	0.381	2.632	1.934	1.943	1.943	1.963	1.958	1.958
0.005	-0.005	0.000	0.005	-0.005	0.020	0.391	2.686	1.934	1.943	1.943	1.963	1.958	1.968
0.005	0.000	-0.005	0.005	0.005	0.015	0.391	2.725	1.943	1.943	1.948	1.963	1.963	1.968
0.000	0.005	0.000	0.000	0.000	-0.005	0.391	2.695	1.943	1.943	1.943	1.963	1.958	1.953
0.000	-0.005	0.005	0.000	0.000	-0.010	0.391	2.686	1.943	1.943	1.943	1.963	1.963	1.963
-0.005	0.000	0.005	0.000	0.005	0.010	0.381	2.705	1.943	1.948	1.943	1.963	1.963	1.963
0.000	-0.005	0.010	0.000	0.015	-0.005	0.381	2.695	1.943	1.943	1.943	1.963	1.963	1.958
0.000	0.000	0.000	0.000	0.010	-0.024	0.376	2.705	1.943	1.943	1.938	1.963	1.958	1.953
0.000	-0.005	-0.005	0.000	0.005	0.010	0.386	2.690	1.938	1.938	1.938	1.958	1.958	1.963
0.005	0.005	0.000	0.000	-0.005	-0.010	0.381	2.690	1.938	1.938	1.938	1.958	1.958	1.958
0.005	-0.005	0.000	0.005	0.005	-0.005	0.391	2.695	1.934	1.934	1.938	1.958	1.953	1.958
-0.005	0.005	-0.005	0.000	0.000	0.015	0.386	2.686	1.934	1.934	1.934	1.958	1.948	1.958
0.000	0.010	0.000	0.000	0.000	0.020	0.386	2.700	1.934	1.934	1.934	1.953	1.948	1.958
0.000	0.005	0.005	0.005	0.000	0.020	0.386	2.681	1.929	1.934	1.934	1.953	1.948	1.953
0.005	0.005	0.005	0.005	-0.005	0.015	0.386	2.705	1.934	1.929	1.934	1.953	1.948	1.948
0.000	0.005	0.000	0.005	-0.005	0.015	0.386	2.686	1.929	1.929	1.929	1.948	1.948	1.953
0.000	0.000	0.000	0.005	-0.010	-0.010	0.386	2.700	1.934	1.929	1.929	1.948	1.943	1.938
0.010	0.000	0.005	0.005	-0.015	0.000	0.386	2.715	1.938	1.934	1.929	1.953	1.948	1.948
0.005	0.005	0.005	0.005	0.000	0.010	0.396	2.686	1.934	1.938	1.934	1.953	1.953	1.953
0.015	0.005	0.005	0.000	-0.005	-0.015	0.391	2.705	1.938	1.938	1.938	1.953	1.948	1.943
0.000	-0.005	0.000	0.000	-0.005	0.005	0.396	2.686	1.934	1.934	1.934	1.953	1.948	1.953
0.000	-0.010	0.005	0.000	-0.005	-0.020	0.391	2.690	1.938	1.938	1.934	1.953	1.953	1.948
0.005	-0.005	-0.005	0.000	0.000	0.010	0.386	2.700	1.934	1.934	1.934	1.953	1.953	1.958
0.015	0.005	-0.005	0.005	0.005	0.005	0.386	2.690	1.934	1.938	1.934	1.953	1.953	1.953
0.000	0.000	-0.005	0.000	0.015	-0.020	0.386	2.686	1.929	1.934	1.934	1.953	1.953	1.943
-0.010	0.000	0.000	0.005	0.020	0.005	0.381	2.695	1.924	1.929	1.929	1.953	1.948	1.953
0.000	-0.005	0.000	0.000	0.010	0.000	0.381	2.642	1.924	1.924	1.929	1.948	1.948	1.948
0.000	-0.005	0.000	0.000	0.010	-0.005	0.386	2.705	1.919	1.924	1.924	1.948	1.943	1.948
-0.005	0.000	0.005	0.000	0.010	0.005	0.386	2.783	1.934	1.924	1.924	1.943	1.943	1.948
-0.005	-0.005	0.005	0.000	0.005	-0.005	0.391	2.656	1.924	1.919	1.919	1.938	1.938	1.943
-0.010	0.015	0.000	0.000	0.005	-0.020	0.386	2.710	1.924	1.929	1.924	1.938	1.938	1.938
0.005	-0.010	0.000	0.005	0.005	-0.005	0.391	2.725	1.934	1.919	1.919	1.938	1.934	1.938
0.000	-0.010	0.000	0.005	0.005	0.005	0.391	2.754	1.948	1.929	1.919	1.943	1.938	1.943
0.000	-0.005	0.000	0.005	0.005	0.005	0.386	2.651	1.938	1.934	1.924	1.943	1.934	1.943
-0.005	0.005	0.000	0.000	0.000	0.005	0.386	2.651	1.929	1.938	1.929	1.943	1.938	1.943
0.005	0.015	0.000	0.005	-0.005	-0.010	0.391	2.734	1.934	1.934	1.934	1.943	1.934	1.934
0.005	0.010	0.005	0.000	0.000	-0.005	0.381	2.651	1.929	1.934	1.934	1.948	1.943	1.938
-0.005	-0.005	0.005	-0.005	0.005	-0.024	0.386	2.656	1.924	1.929	1.934	1.948	1.943	1.934
-0.005	-0.010	0.000	0.000	0.000	-0.034	0.386	2.739	1.934	1.929	1.929	1.948	1.943	1.938
0.000	0.005	0.005	0.010	0.000	-0.005	0.391	2.666	1.929	1.929	1.929	1.948	1.948	1.943
0.005	0.000	0.000	0.005	0.005	0.015	0.381	2.617	1.919	1.929	1.929	1.948	1.948	1.953
0.000	0.015	0.000	0.000	0.005	-0.010	0.396	2.686	1.919	1.929	1.929	1.948	1.943	1.943
0.000	0.020	0.005	0.005	0.000	0.015	0.386	2.734	1.929	1.924	1.929	1.943	1.938	1.948
0.000	0.015	0.005	0.005	0.000	0.039	0.386	2.705	1.929	1.924	1.924	1.943	1.943	1.953
0.005	0.015	0.000	0.000	-0.005	0.034	0.381	2.690	1.924	1.919	1.924	1.943	1.938	1.948
0.000	0.000	0.000	0.000	0.000	0.039	0.391	2.681	1.919	1.919	1.919	1.938	1.938	1.943
0.005	-0.010	0.000	0.005	-0.005	0.015	0.386	2.695	1.919	1.914	1.914	1.934	1.934	1.934
-0.005	-0.010	0.000	0.005	-0.015	-0.020	0.386	2.695	1.919	1.914	1.914	1.934	1.929	1.924
0.010	-0.010	0.000	0.000	-0.010	-0.010	0.381	2.705	1.924	1.919	1.914	1.934	1.929	1.929
0.000	0.000	0.005	-0.005	-0.005	-0.010	0.391	2.700	1.924	1.919	1.919	1.934	1.934	1.929
0.010	-0.010	0.000	0.000	-0.005	-0.010	0.391	2.686	1.929	1.919	1.919	1.938	1.934	1.934
0.005	0.000	0.000	-0.005	0.000	-0.005	0.391	2.710	1.929	1.924	1.919	1.938	1.934	1.934
0.000	0.005	0.000	0.005	0.005	0.010	0.386	2.705	1.929	1.929	1.924	1.938	1.934	1.943
0.000	0.000	0.000	0.005	0.005	-0.029	0.386	2.681	1.924	1.924	1.924	1.938	1.938	1.934
0.010	-0.010	0.005	0.005	0.005	0.010	0.386	2.690	1.924	1.924	1.924	1.943	1.938	1.948
0.000	0.010	0.005	0.000	0.010	0.015	0.386	2.705	1.929	1.929	1.924	1.943	1.938	1.943
0.005	0.005	0.000	0.005	0.010	0.020	0.391	2.695	1.929	1.929	1.924	1.943	1.938	1.943
0.005	-0.005	0.000	0.005	0.000	0.010	0.396	2.690	1.924	1.924	1.924	1.943	1.938	1.943
0.010	0.015	0.005	0.005	0.010	0.005	0.391	2.705	1.924	1.929	1.924	1.943	1.938	1.934
0.005	0.024	0.010	0.005	0.015	-0.005	0.386	2.700	1.919	1.924	1.924	1.943	1.938	1.934
-0.005	0.010	0.005	0.005	0.010	0.010	0.391	2.686	1.914	1.919	1.919	1.943	1.938	1.938
-0.005	0.015	0.005	0.000	0.000	0.000	0.386	2.671	1.909	1.914	1.914	1.934	1.934	1.934
0.010	0.020	0.000	0.005	0.005	-0.020	0.391	2.676	1.909	1.914	1.914	1.934	1.934	1.934
-0.005	0.005	0.000	0.000	0.000	0.010	0.386	2.705	1.914	1.904	1.909	1.929	1.929	1.934
0.000	0.000	-0.005	-0.005	0.000	0.005	0.386	2.690	1.919	1.909	1.909	1.929	1.929	1.934
0.005	0.005	-0.005	0.000	0.000	0.005	0.381	2.700	1.919	1.909	1.909	1.934	1.929	1.934
-0.005	0.005	0.005	0.000	-0.005	0.010	0.391	2.651	1.909	1.914	1.914	1.934	1.929	1.929
0.000	-0.005	0.005	0.000	-0.005	0.005	0.386	2.695	1.914	1.909	1.909	1.929	1.924	1.929
0.000	0.000	0.005	0.000	-0.005	0.005	0.386	2.783	1.929	1.919	1.914	1.929	1.929	1.929
0.005	0.000	0.005	0.005	-0.005	0.000	0.386	2.651	1.924	1.919	1.914	1.934	1.929	1.929
0.005	0.005	0.000	0.000	-0.005	0.005	0.391	2.710	1.924	1.924	1.914	1.934	1.929	1.929
-0.010	0.000	-0.010	0.000	0.005	0.000	0.386	2.720	1.929	1.919	1.914	1.934	1.934	1.929
-0.005	-0.010	0.000	0.005	0.010	0.005	0.396	2.676	1.943	1.924	1.919	1.938	1.934	1.934
0.000	-0.005	0.000	0.000	0.005	-0.024	0.381	2.656	1.934	1.924	1.919	1.938	1.929	1.924
0.000	-0.005	0.005	0.005	0.005	0.015	0.391	2.651	1.924	1.929	1.924	1.938	1.934	1.934
0.005	0.000	0.000	0.005	0.010	0.010	0.386	2.651	1.914	1.924	1.924	1.938	1.934	1.934
0.000	0.000	0.005	0.000	0.005	0.000	0.391	2.739	1.919	1.919	1.919	1.938	1.934	1.929
0.005	-0.005	0.000	0.000	0.000	-0.005	0.381	2.642	1.909	1.914	1.919	1.934	1.929	1.924
-0.005	-0.005	0.000	0.000	0.005	0.000	0.396	2.646	1.924	1.914	1.914	1.934	1.929	1.924
0.010	-0.015	0.000	0.000	0.000	0.000	0.386	2.671	1.919	1.914	1.914	1.934	1.929	1.929
0.005	-0.005	0.000	0.000	0.000	0.005	0.391	2.646	1.909	1.909	1.909	1.934	1.929	1.924
0.005	-0.005	0.005	0.005	0.005	0.005	0.381	2.700	1.914	1.914	1.914	1.934	1.924	1.929
0.005	-0.005	0.000	0.000	0.005	-0.015	0.391	2.720	1.914	1.914	1.909	1.929	1.929	1.919
-0.005	-0.005	0.000	0.000	0.000	0.000	0.381	2.705	1.909	1.914	1.914	1.934	1.929	1.929
0.000	0.000	0.005	0.005	0.000	-0.010	0.391	2.690	1.919	1.919	1.914	1.934	1.929	1.929
0.000	0.010	0.005	0.005	0.000	-0.015	0.396	2.710	1.919	1.919	1.914	1.938	1.929	1.929
0.000	0.024	0.005	0.005	0.005	0.020	0.381	2.710	1.924	1.924	1.919	1.938	1.934	1.938
0.000	0.015	0.000	0.000	0.000	0.005	0.381	2.705	1.929	1.924	1.919	1.938	1.929	1.934
0.005	0.005	0.000	0.005	0.000	0.015	0.386	2.705	1.924	1.924	1.924	1.938	1.934	1.938
0.015	0.000	0.000	0.000	-0.005	0.010	0.386	2.681	1.924	1.919	1.919	1.934	1.934	1.934
0.000	0.015	0.005	0.005	-0.005	0.010	0.391	2.681	1.914	1.919	1.919	1.934	1.934	1.929
-0.005	0.010	0.005	0.000	0.005	-0.015	0.386	2.710	1.919	1.919	1.919	1.938	1.934	1.924
0.000	0.005	0.000	-0.005	0.005	-0.010	0.381	2.690	1.914	1.914	1.914	1.934	1.934	1.929
-0.005	-0.005	0.000	0.005	0.005	0.024	0.391	2.710	1.909	1.909	1.914	1.934	1.929	1.934
0.005	0.000	0.005	0.005	0.000	0.010	0.386	2.686	1.909	1.909	1.909	1.934	1.929	1.934
-0.005	0.000	-0.005	0.005	-0.005	0.005	0.391	2.690	1.909	1.909	1.909	1.929	1.924	1.929
-0.005	-0.005	-0.005	0.005	0.005	0.005	0.391	2.681	1.909	1.909	1.904	1.929	1.924	1.924
0.010	0.015	0.005	0.005	0.000	-0.005	0.396	2.686	1.914	1.909	1.909	1.929	1.924	1.924
0.005	0.000	0.000	0.000	0.000	-0.005	0.381	2.710	1.909	1.909	1.909	1.924	1.919	1.924
0.000	0.005	0.000	0.000	0.000	0.015	0.391	2.705	1.909	1.909	1.909	1.924	1.924	1.929
0.005	0.010	-0.005	0.005	0.000	0.015	0.391	2.695	1.919	1.914	1.909	1.929	1.924	1.924
0.005	0.005	-0.005	0.000	0.000	0.000	0.386	2.700	1.914	1.919	1.909	1.929	1.924	1.924
0.000	-0.005	0.000	0.000	0.000	-0.005	0.381	2.686	1.914	1.914	1.914	1.929	1.924	1.924
-0.010	-0.015	-0.005	0.010	0.005	-0.010	0.396	2.695	1.914	1.914	1.914	1.934	1.924	1.924
-0.005	-0.010	0.000	0.000	0.000	-0.024	0.386	2.686	1.914	1.914	1.914	1.929	1.924	1.924
0.010	-0.015	0.010	0.005	0.005	-0.020	0.386	2.686	1.919	1.914	1.914	1.934	1.929	1.924
0.000	-0.010	0.000	0.000	0.000	0.000	0.386	2.646	1.904	1.914	1.914	1.929	1.929	1.929
0.010	0.010	0.005	0.000	0.000	-0.020	0.396	2.705	1.914	1.914	1.914	1.929	1.929	1.924
0.000	0.010	0.000	0.005	0.005	-0.005	0.386	2.651	1.919	1.914	1.914	1.934	1.929	1.929
-0.005	0.005	0.000	0.005	0.010	0.015	0.396	2.661	1.914	1.914	1.909	1.929	1.924	1.934
0.000	0.005	0.000	0.005	0.000	0.000	0.386	2.725	1.914	1.909	1.909	1.924	1.924	1.924
0.000	0.010	0.005	0.005	-0.005	-0.015	0.391	2.744	1.919	1.909	1.909	1.924	1.924	1.919
0.010	0.000	0.000	0.000	0.000	-0.005	0.376	2.812	1.929	1.914	1.909	1.924	1.924	1.924
0.005	0.000	0.000	0.000	0.005	-0.005	0.386	2.656	1.919	1.914	1.909	1.924	1.924	1.924
0.005	0.010	0.005	0.000	0.010	0.000	0.386	2.744	1.919	1.919	1.909	1.924	1.924	1.924
0.000	0.010	0.000	0.000	0.000	0.015	0.386	2.744	1.909	1.914	1.909	1.924	1.919	1.929
0.005	0.010	0.005	0.000	0.000	0.015	0.386	2.646	1.909	1.914	1.914	1.929	1.924	1.929
0.005	0.005	0.000	0.005	0.000	0.010	0.391	2.642	1.904	1.909	1.909	1.929	1.924	1.924
-0.005	-0.005	0.005	0.000	0.000	0.000	0.391	2.744	1.914	1.909	1.909	1.934	1.924	1.924
0.000	-0.005	0.000	0.005	0.000	-0.005	0.391	2.661	1.909	1.909	1.914	1.929	1.924	1.919
0.015	0.000	0.000	0.015	-0.005	0.010	0.386	2.651	1.909	1.909	1.909	1.934	1.929	1.929
-0.005	0.010	0.010	0.005	0.000	-0.005	0.381	2.700	1.914	1.914	1.909	1.929	1.929	1.924
0.000	0.010	0.000	0.000	0.005	-0.005	0.386	2.739	1.924	1.914	1.914	1.929	1.929	1.929
0.000	0.000	0.005	0.000	-0.005	0.015	0.386	2.690	1.919	1.914	1.909	1.929	1.929	1.934
0.005	0.005	0.000	0.005	0.005	0.020	0.396	2.681	1.914	1.914	1.909	1.929	1.929	1.934
0.000	0.010	0.000	0.000	0.010	0.015	0.386	2.695	1.914	1.914	1.914	1.929	1.924	1.929
-0.005	0.005	0.005	-0.005	0.010	0.020	0.386	2.710	1.914	1.909	1.909	1.924	1.924	1.929
0.005	-0.005	0.005	0.000	0.010	0.000	0.381	2.676	1.909	1.904	1.909	1.924	1.919	1.914
0.000	-0.020	0.000	-0.005	0.005	0.010	0.391	2.705	1.909	1.904	1.904	1.924	1.919	1.924
0.000	-0.010	0.000	0.005	0.010	0.015	0.381	2.676	1.904	1.904	1.904	1.924	1.919	1.924
0.010	-0.005	0.005	0.000	0.000	0.010	0.386	2.700	1.914	1.904	1.904	1.924	1.919	1.919
-0.010	-0.005	0.000	0.005	0.005	-0.005	0.386	2.710	1.909	1.909	1.904	1.924	1.919	1.914
0.010	-0.005	0.005	0.005	0.005	-0.020	0.391	2.700	1.909	1.904	1.904	1.919	1.919	1.914
0.010	0.010	0.000	0.005	-0.005	-0.015	0.386	2.681	1.909	1.909	1.909	1.924	1.919	1.919
0.005	0.000	-0.005	0.005	-0.005	0.000	0.396	2.681	1.909	1.904	1.909	1.924	1.919	1.919
0.000	0.005	0.000	0.000	-0.005	0.005	0.391	2.700	1.914	1.909	1.909	1.929	1.919	1.924
0.005	0.005	0.005	0.000	-0.015	0.000	0.386	2.700	1.914	1.914	1.909	1.924	1.919	1.919
0.005	0.005	0.000	0.000	-0.005	-0.010	0.386	2.710	1.914	1.914	1.909	1.929	1.924	1.914
0.005	0.005	0.000	0.005	-0.010	0.005	0.386	2.686	1.914	1.914	1.914	1.929	1.924	1.924
-0.005	0.015	0.000	0.005	0.000	0.010	0.381	2.705	1.914	1.914	1.909	1.934	1.929	1.924
-0.015	0.005	-0.005	0.000	0.010	0.000	0.381	2.686	1.909	1.909	1.909	1.929	1.929	1.924
-0.005	0.000	0.000	0.000	0.010	0.000	0.381	2.695	1.909	1.909	1.909	1.929	1.924	1.924
0.000	0.015	0.000	0.000	0.005	0.000	0.386	2.690	1.904	1.909	1.914	1.924	1.924	1.924
0.005	0.015	0.000	0.000	0.005	-0.005	0.386	2.700	1.904	1.904	1.909	1.929	1.919	1.924
-0.005	-0.005	0.000	0.000	0.005	0.000	0.391	2.690	1.904	1.899	1.904	1.924	1.919	1.919
-0.005	0.010	0.000	0.000	0.005	-0.024	0.391	2.700	1.904	1.899	1.899	1.919	1.919	1.909
0.005	0.000	0.005	0.000	0.000	0.000	0.386	2.642	1.899	1.899	1.899	1.919	1.914	1.919
-0.005	0.010	0.000	0.000	0.005	0.005	0.386	2.686	1.899	1.904	1.899	1.919	1.914	1.919
0.005	0.015	0.000	0.005	0.005	0.005	0.386	2.769	1.914	1.904	1.899	1.919	1.914	1.914
0.000	0.005	0.000	0.010	0.000	-0.020	0.391	2.651	1.909	1.904	1.904	1.919	1.914	1.914
-0.005	0.010	0.000	0.000	-0.005	0.005	0.381	2.715	1.904	1.904	1.904	1.919	1.914	1.924
0.000	0.005	0.000	0.000	-0.005	0.010	0.386	2.725	1.914	1.904	1.904	1.924	1.919	1.919
0.000	0.005	0.000	-0.005	-0.005	0.005	0.381	2.817	1.929	1.914	1.909	1.924	1.919	1.919
-0.005	0.000	0.005	0.000	0.000	0.005	0.391	2.651	1.919	1.914	1.909	1.929	1.919	1.919
0.010	0.010	0.000	0.000	-0.005	0.005	0.396	2.734	1.924	1.919	1.914	1.929	1.919	1.919
0.000	0.000	0.000	0.000	0.000	-0.005	0.396	2.646	1.909	1.914	1.914	1.929	1.919	1.914
-0.005	0.010	0.000	0.000	0.000	-0.005	0.386	2.646	1.909	1.914	1.914	1.929	1.924	1.919
0.000	0.010	0.005	0.005	0.000	0.010	0.386	2.651	1.909	1.914	1.909	1.934	1.929	1.924
0.000	0.000	0.000	0.005	0.000	0.015	0.386	2.725	1.909	1.909	1.909	1.929	1.924	1.929
0.000	-0.005	0.000	0.000	0.005	-0.024	0.391	2.681	1.904	1.904	1.904	1.924	1.924	1.909
0.005	0.000	0.000	0.000	0.000	-0.020	0.386	2.729	1.909	1.909	1.909	1.924	1.919	1.919
0.005	0.005	0.000	0.005	0.000	0.010	0.386	2.686	1.904	1.904	1.904	1.924	1.924	1.919
0.000	0.005	-0.005	0.000	0.005	0.010	0.381	2.729	1.909	1.904	1.904	1.919	1.919	1.924
0.000	0.005	0.000	0.000	0.005	0.015	0.386	2.681	1.904	1.904	1.904	1.919	1.914	1.924
0.005	0.010	0.000	0.000	0.005	0.005	0.381	2.676	1.904	1.904	1.904	1.924	1.919	1.919
0.005	0.005	0.005	0.000	0.000	0.005	0.391	2.690	1.904	1.904	1.904	1.924	1.919	1.919
0.005	-0.010	0.000	0.005	0.005	0.000	0.391	2.695	1.904	1.904	1.904	1.919	1.919	1.919
0.010	0.000	0.000	0.000	0.000	0.000	0.396	2.705	1.904	1.904	1.904	1.924	1.919	1.919
0.000	0.000	0.005	0.000	0.005	0.000	0.391	2.710	1.909	1.904	1.904	1.924	1.919	1.919
0.005	0.000	0.010	0.000	0.000	-0.005	0.391	2.695	1.914	1.914	1.909	1.924	1.919	1.914
0.005	0.005	0.005	0.005	0.000	-0.015	0.386	2.690	1.914	1.914	1.909	1.924	1.919	1.919
-0.005	0.010	0.000	0.000	0.000	-0.005	0.391	2.705	1.909	1.914	1.909	1.929	1.924	1.924
0.000	0.005	0.005	0.000	0.005	0.015	0.396	2.695	1.914	1.914	1.909	1.929	1.924	1.924
0.000	0.000	0.000	0.000	0.000	0.015	0.386	2.671	1.909	1.909	1.909	1.929	1.924	1.924
-0.005	-0.005	0.000	0.005	0.005	-0.005	0.386	2.700	1.909	1.909	1.909	1.929	1.924	1.924
0.000	0.010	-0.005	0.010	0.005	0.015	0.391	2.686	1.909	1.909	1.904	1.929	1.924	1.929
0.000	0.005	0.005	0.005	0.000	-0.010	0.386	2.686	1.904	1.909	1.904	1.924	1.919	1.914
-0.005	0.005	0.000	0.000	-0.005	0.005	0.386	2.705	1.904	1.904	1.904	1.924	1.919	1.919
0.005	-0.010	0.000	0.000	0.000	-0.015	0.386	2.700	1.904	1.899	1.904	1.919	1.914	1.914
0.000	0.000	0.000	0.000	0.000	0.005	0.381	2.695	1.904	1.904	1.899	1.919	1.919	1.919
0.000	-0.005	0.000	0.005	0.000	-0.005	0.381	2.681	1.904	1.899	1.899	1.919	1.914	1.909
0.005	-0.005	0.000	0.000	0.005	0.005	0.381	2.681	1.899	1.899	1.899	1.919	1.914	1.914
0.010	0.010	0.000	0.000	0.005	0.005	0.391	2.686	1.904	1.904	1.904	1.919	1.914	1.914
0.000	-0.005	0.000	0.000	0.005	-0.005	0.386	2.715	1.909	1.904	1.899	1.919	1.919	1.914
0.005	0.000	0.000	0.005	0.015	-0.020	0.391	2.676	1.909	1.904	1.899	1.919	1.919	1.914
0.005	0.005	0.005	0.005	0.015	0.020	0.386	2.695	1.909	1.904	1.904	1.924	1.919	1.929
0.000	0.000	0.000	0.005	0.015	-0.005	0.396	2.632	1.899	1.909	1.904	1.924	1.919	1.914
0.005	0.005	0.000	0.000	0.024	0.024	0.381	2.700	1.909	1.909	1.904	1.924	1.924	1.929
0.005	0.000	0.005	0.005	0.020	0.024	0.391	2.695	1.919	1.909	1.904	1.924	1.924	1.924
-0.005	0.010	0.010	0.005	0.015	0.015	0.381	2.661	1.914	1.909	1.909	1.924	1.924	1.924
0.010	-0.005	0.000	0.005	0.015	0.020	0.386	2.715	1.914	1.909	1.904	1.924	1.919	1.924
-0.005	0.000	0.000	0.000	0.020	0.005	0.386	2.744	1.909	1.909	1.904	1.924	1.919	1.919
0.005	0.000	0.000	0.000	0.015	-0.005	0.386	2.681	1.914	1.909	1.904	1.924	1.919	1.914
-0.005	-0.010	0.005	0.005	0.010	0.000	0.381	2.632	1.895	1.899	1.904	1.924	1.914	1.919
0.005	-0.010	0.005	0.005	0.010	0.015	0.386	2.642	1.899	1.899	1.899	1.924	1.914	1.919
0.005	0.005	0.010	0.000	0.010	0.010	0.381	2.661	1.904	1.899	1.899	1.919	1.909	1.909
-0.005	-0.005	0.000	0.000	0.010	0.005	0.386	2.744	1.909	1.899	1.899	1.919	1.914	1.914
0.005	0.000	-0.005	0.005	0.010	0.000	0.386	2.725	1.914	1.904	1.899	1.914	1.914	1.909
0.005	0.010	0.000	0.005	0.005	-0.020	0.391	2.622	1.899	1.904	1.899	1.919	1.909	1.904
0.005	0.000	0.005	0.005	-0.005	-0.015	0.391	2.671	1.904	1.899	1.904	1.919	1.909	1.909
0.000	0.005	0.005	0.000	-0.010	0.020	0.391	2.642	1.895	1.899	1.904	1.919	1.914	1.919
0.005	0.010	0.000	0.005	-0.010	0.010	0.381	2.690	1.904	1.904	1.904	1.919	1.914	1.914
-0.010	0.010	0.000	0.000	-0.005	0.000	0.391	2.739	1.904	1.909	1.904	1.919	1.914	1.909
0.005	0.005	0.000	0.000	-0.010	0.010	0.381	2.676	1.909	1.909	1.909	1.924	1.914	1.914
0.005	0.010	0.005	0.000	-0.005	0.005	0.391	2.695	1.909	1.909	1.904	1.924	1.924	1.919
-0.005	0.005	0.000	0.000	-0.005	0.005	0.396	2.705	1.909	1.909	1.904	1.924	1.924	1.919
-0.005	0.005	0.000	0.000	-0.010	0.000	0.396	2.705	1.909	1.909	1.904	1.919	1.914	1.919
0.005	-0.005	0.000	0.000	-0.005	0.005	0.391	2.705	1.909	1.904	1.904	1.924	1.919	1.919
-0.005	0.005	0.000	0.005	-0.005	0.010	0.381	2.705	1.904	1.904	1.904	1.924	1.919	1.919
0.010	0.000	-0.005	0.005	-0.015	-0.010	0.381	2.690	1.909	1.904	1.899	1.924	1.914	1.914
0.000	-0.005	0.000	0.005	-0.005	0.005	0.381	2.700	1.904	1.899	1.899	1.919	1.914	1.914
0.000	0.000	0.000	0.000	-0.010	-0.020	0.381	2.686	1.899	1.899	1.899	1.919	1.914	1.909
0.000	0.000	0.000	0.000	-0.010	0.005	0.381	2.705	1.899	1.899	1.895	1.914	1.914	1.914
0.000	-0.005	0.000	0.005	-0.010	0.005	0.381	2.686	1.895	1.895	1.899	1.914	1.909	1.914
0.005	0.010	0.000	0.000	-0.010	0.005	0.386	2.676	1.899	1.899	1.899	1.914	1.909	1.914
0.005	0.015	0.005	0.000	-0.005	0.000	0.391	2.686	1.904	1.899	1.899	1.919	1.914	1.914
0.005	0.005	0.000	0.000	-0.005	0.005	0.391	2.690	1.904	1.904	1.899	1.919	1.914	1.914
0.000	0.000	0.005	0.000	-0.010	-0.029	0.391	2.686	1.904	1.904	1.899	1.919	1.914	1.904
0.000	0.000	0.000	0.000	-0.005	0.005	0.391	2.676	1.904	1.904	1.904	1.919	1.914	1.919
0.000	0.010	0.000	0.005	-0.005	-0.024	0.391	2.700	1.909	1.909	1.904	1.919	1.914	1.909
0.000	0.000	0.005	0.000	0.000	0.005	0.381	2.700	1.909	1.904	1.909	1.924	1.919	1.924
-0.005	0.010	0.005	0.000	0.000	0.005	0.386	2.695	1.909	1.909	1.904	1.924	1.919	1.919
0.020	0.000	0.000	0.005	0.005	-0.005	0.381	2.676	1.909	1.904	1.904	1.924	1.924	1.919
0.000	0.010	0.005	0.005	0.010	-0.010	0.386	2.705	1.909	1.909	1.909	1.924	1.919	1.914
-0.005	-0.005	0.000	0.000	0.010	-0.005	0.386	2.686	1.904	1.904	1.904	1.919	1.919	1.919
0.005	-0.005	0.000	0.000	0.005	-0.010	0.386	2.695	1.904	1.899	1.899	1.919	1.919	1.914
0.005	0.000	0.000	0.000	0.015	0.000	0.391	2.651	1.895	1.904	1.899	1.919	1.919	1.919
0.000	0.005	0.000	0.000	0.005	-0.005	0.386	2.695	1.899	1.899	1.899	1.919	1.914	1.919
-0.010	0.000	0.000	0.000	0.000	0.010	0.386	2.651	1.914	1.899	1.899	1.919	1.914	1.919
-0.005	0.000	0.005	0.005	0.010	0.000	0.391	2.651	1.904	1.899	1.899	1.914	1.909	1.914
0.005	0.000	0.000	0.000	0.005	0.005	0.391	2.715	1.909	1.904	1.899	1.914	1.909	1.909
0.010	0.000	0.000	0.005	0.000	0.005	0.391	2.749	1.914	1.904	1.904	1.919	1.909	1.909
0.010	0.000	0.005	0.010	-0.005	0.015	0.386	2.827	1.929	1.909	1.904	1.924	1.914	1.919
0.005	-0.005	0.005	0.010	0.000	-0.005	0.386	2.646	1.929	1.914	1.904	1.919	1.914	1.909
-0.005	0.005	0.005	0.005	0.005	0.005	0.391	2.695	1.929	1.919	1.909	1.919	1.914	1.914
0.005	0.005	0.000	0.000	0.005	0.015	0.386	2.729	1.929	1.924	1.914	1.924	1.919	1.919
0.005	0.005	0.005	0.000	0.005	0.010	0.391	2.651	1.919	1.924	1.919	1.929	1.919	1.919
0.000	0.000	-0.005	0.000	0.000	0.015	0.386	2.729	1.919	1.919	1.919	1.929	1.924	1.924
0.000	0.000	0.005	0.000	0.000	0.005	0.391	2.729	1.924	1.919	1.919	1.929	1.924	1.919
0.000	-0.005	0.000	0.000	0.000	0.010	0.386	2.666	1.914	1.919	1.914	1.934	1.929	1.924
0.005	0.005	0.000	0.000	0.005	0.005	0.386	2.661	1.904	1.914	1.919	1.934	1.929	1.924
0.005	0.005	0.000	0.005	0.010	0.000	0.386	2.690	1.904	1.914	1.914	1.934	1.929	1.924
0.000	0.000	0.000	0.000	0.005	0.000	0.391	2.729	1.909	1.909	1.909	1.934	1.924	1.919
0.005	0.005	-0.005	0.005	0.010	0.005	0.381	2.690	1.899	1.904	1.909	1.929	1.924	1.929
0.000	0.005	0.000	0.000	0.005	0.005	0.391	2.676	1.899	1.904	1.904	1.929	1.924	1.924
0.000	-0.010	0.000	0.000	0.005	0.010	0.386	2.681	1.895	1.895	1.899	1.924	1.924	1.924
-0.005	-0.005	-0.005	0.000	0.005	0.000	0.391	2.695	1.899	1.899	1.895	1.924	1.919	1.924
0.000	0.000	0.005	0.000	0.000	0.000	0.381	2.705	1.899	1.899	1.899	1.919	1.919	1.919
0.000	0.005	0.000	0.000	0.005	-0.005	0.381	2.700	1.904	1.899	1.899	1.919	1.914	1.919
0.000	0.005	0.000	0.005	0.000	0.005	0.381	2.705	1.904	1.904	1.899	1.919	1.914	1.919
0.005	0.005	0.000	-0.005	-0.005	0.000	0.386	2.690	1.909	1.909	1.899	1.919	1.914	1.919
0.005	0.000	0.000	0.000	0.000	0.000	0.391	2.695	1.914	1.909	1.904	1.919	1.919	1.919
0.010	0.000	0.005	0.000	0.000	0.010	0.391	2.705	1.914	1.909	1.904	1.924	1.919	1.919
0.020	0.005	0.000	0.000	0.005	0.000	0.391	2.710	1.919	1.914	1.909	1.924	1.919	1.919
0.005	0.010	0.005	0.000	0.000	0.005	0.396	2.690	1.914	1.914	1.909	1.924	1.919	1.924
-0.005	0.005	0.000	0.000	0.000	0.010	0.386	2.690	1.909	1.909	1.909	1.929	1.924	1.924
0.005	-0.005	0.005	0.000	0.005	0.005	0.386	2.671	1.909	1.904	1.909	1.924	1.924	1.919
0.000	0.000	-0.005	0.000	0.000	0.005	0.386	2.695	1.904	1.909	1.904	1.924	1.919	1.924
-0.005	-0.005	0.000	0.000	0.005	0.000	0.391	2.681	1.899	1.904	1.904	1.924	1.919	1.919
-0.005	0.000	0.005	0.000	-0.005	0.005	0.381	2.695	1.904	1.904	1.904	1.924	1.914	1.919
0.000	0.000	0.000	0.000	0.005	0.010	0.381	2.700	1.909	1.904	1.899	1.919	1.919	1.919
-0.005	0.000	0.005	0.000	0.005	0.005	0.381	2.710	1.904	1.899	1.899	1.919	1.914	1.919
-0.010	0.005	0.000	0.000	0.000	0.005	0.391	2.686	1.904	1.899	1.899	1.914	1.914	1.919
-0.005	-0.010	0.000	0.000	0.005	-0.005	0.386	2.695	1.904	1.895	1.895	1.914	1.914	1.914
0.005	-0.005	0.000	0.000	0.000	0.000	0.391	2.686	1.909	1.899	1.895	1.914	1.914	1.909
0.010	0.010	0.000	0.000	0.005	-0.024	0.391	2.700	1.909	1.909	1.899	1.914	1.914	1.904
0.005	0.000	0.005	0.000	0.000	0.010	0.381	2.651	1.899	1.899	1.899	1.919	1.914	1.919
-0.005	0.000	-0.005	0.000	0.000	0.005	0.386	2.700	1.904	1.899	1.899	1.919	1.914	1.919
-0.005	0.000	0.000	0.005	0.005	0.010	0.386	2.661	1.914	1.904	1.904	1.919	1.914	1.919
0.000	0.000	0.005	0.000	0.005	0.000	0.386	2.661	1.909	1.909	1.909	1.919	1.919	1.914
0.010	-0.005	0.000	0.000	-0.005	0.010	0.381	2.729	1.914	1.909	1.909	1.924	1.914	1.919
0.005	0.005	-0.005	0.000	0.005	0.005	0.391	2.646	1.909	1.909	1.909	1.924	1.919	1.919
-0.005	0.000	0.000	0.000	0.000	0.005	0.391	2.686	1.909	1.909	1.909	1.929	1.924	1.919
0.000	0.005	-0.005	0.005	0.005	0.000	0.386	2.627	1.904	1.909	1.909	1.924	1.924	1.919
0.010	0.005	0.000	0.010	0.005	0.005	0.381	2.651	1.904	1.909	1.909	1.924	1.924	1.919
0.000	0.005	-0.005	0.005	0.005	-0.020	0.391	2.759	1.904	1.904	1.904	1.924	1.919	1.914
-0.005	0.005	-0.005	0.005	0.005	0.000	0.381	2.676	1.895	1.899	1.899	1.919	1.919	1.914
0.000	-0.005	0.010	0.010	0.015	0.000	0.391	2.642	1.899	1.899	1.904	1.919	1.919	1.919
0.000	0.000	0.005	0.000	0.010	0.000	0.376	2.637	1.895	1.895	1.895	1.919	1.914	1.919
0.010	-0.005	0.005	0.005	0.005	-0.020	0.391	2.661	1.899	1.890	1.890	1.914	1.914	1.909
0.000	0.000	0.000	0.005	0.000	0.005	0.391	2.661	1.890	1.895	1.895	1.914	1.914	1.914
-0.010	0.000	0.000	0.000	0.000	0.005	0.386	2.700	1.895	1.890	1.890	1.914	1.909	1.919
0.000	0.000	0.000	0.005	0.000	-0.015	0.386	2.744	1.909	1.895	1.890	1.909	1.909	1.909
0.005	0.000	0.000	0.000	0.000	0.015	0.391	2.695	1.904	1.899	1.895	1.914	1.909	1.919
0.000	-0.005	0.005	-0.005	-0.005	0.010	0.386	2.681	1.904	1.899	1.899	1.914	1.909	1.914
0.000	0.000	0.000	0.005	-0.005	0.015	0.391	2.710	1.904	1.904	1.895	1.914	1.914	1.919
0.005	0.000	0.005	0.005	-0.005	0.020	0.381	2.705	1.909	1.904	1.899	1.914	1.914	1.914
0.000	-0.005	0.005	0.005	0.000	0.015	0.386	2.690	1.909	1.904	1.899	1.919	1.914	1.914
0.005	-0.005	0.005	0.000	0.000	0.015	0.386	2.710	1.909	1.904	1.904	1.919	1.914	1.914
0.005	0.000	0.000	0.000	0.005	-0.010	0.391	2.690	1.909	1.909	1.904	1.919	1.914	1.909
0.005	-0.005	0.000	0.000	0.005	0.000	0.381	2.700	1.904	1.904	1.904	1.919	1.914	1.914
0.010	-0.010	0.005	0.000	0.005	0.010	0.386	2.686	1.904	1.904	1.904	1.919	1.914	1.914
0.020	-0.005	0.000	0.000	0.005	0.005	0.381	2.695	1.904	1.904	1.899	1.919	1.914	1.909
0.020	0.000	0.005	0.000	0.005	-0.010	0.386	2.700	1.909	1.904	1.899	1.914	1.909	1.909
0.005	0.005	0.005	0.010	0.010	0.024	0.391	2.681	1.899	1.904	1.899	1.919	1.914	1.919
0.015	0.000	0.005	0.000	0.005	0.005	0.381	2.710	1.899	1.899	1.899	1.919	1.909	1.909
0.000	0.010	0.000	0.005	0.010	0.015	0.386	2.700	1.895	1.899	1.899	1.919	1.909	1.914
0.005	0.015	0.000	0.005	0.010	0.015	0.381	2.690	1.895	1.899	1.899	1.914	1.909	1.909
0.000	0.024	-0.005	0.000	0.005	0.005	0.386	2.681	1.899	1.904	1.899	1.914	1.914	1.909
0.000	0.015	0.005	0.005	0.005	0.005	0.386	2.695	1.899	1.899	1.899	1.919	1.914	1.909
0.000	0.015	0.000	0.000	-0.005	-0.029	0.391	2.686	1.904	1.899	1.899	1.919	1.909	1.899
0.000	0.000	0.010	0.005	0.000	0.000	0.386	2.690	1.904	1.899	1.899	1.919	1.914	1.914
-0.010	0.000	0.005	0.005	-0.005	0.000	0.386	2.715	1.904	1.899	1.899	1.919	1.914	1.914
-0.005	0.005	0.000	0.000	0.000	-0.010	0.381	2.700	1.909	1.904	1.899	1.919	1.914	1.914
-0.005	0.005	0.000	0.010	0.005	-0.005	0.391	2.681	1.909	1.904	1.904	1.919	1.919	1.919
0.005	-0.005	0.000	0.005	-0.005	-0.005	0.391	2.690	1.909	1.899	1.899	1.919	1.914	1.914
0.000	0.000	0.000	0.015	0.005	-0.010	0.396	2.661	1.904	1.904	1.899	1.919	1.914	1.914
0.000	0.000	0.005	0.000	0.000	0.000	0.386	2.700	1.904	1.904	1.904	1.919	1.914	1.919
-0.005	0.005	0.000	0.005	0.005	0.010	0.391	2.642	1.909	1.904	1.904	1.919	1.919	1.919
0.000	0.005	0.000	0.005	0.000	0.005	0.386	2.661	1.899	1.904	1.899	1.919	1.914	1.919
0.015	0.000	0.000	-0.005	0.000	0.015	0.391	2.705	1.904	1.899	1.899	1.914	1.909	1.914
0.005	-0.005	0.000	0.000	0.005	0.015	0.381	2.651	1.895	1.899	1.899	1.914	1.909	1.914
0.005	-0.005	0.000	0.005	0.005	0.010	0.391	2.671	1.895	1.899	1.899	1.914	1.909	1.909
0.015	0.005	0.005	0.005	0.005	0.010	0.386	2.651	1.890	1.895	1.895	1.919	1.909	1.909
0.005	-0.005	0.000	0.005	0.005	0.000	0.381	2.646	1.885	1.895	1.895	1.914	1.909	1.904
0.000	-0.005	0.005	0.005	-0.005	0.005	0.386	2.651	1.885	1.890	1.895	1.914	1.909	1.909
0.000	-0.005	0.000	0.005	0.000	-0.015	0.386	2.646	1.895	1.895	1.895	1.914	1.909	1.909
-0.005	0.005	-0.005	0.000	0.000	-0.005	0.386	2.739	1.904	1.899	1.895	1.914	1.909	1.909
0.010	0.000	0.000	0.005	0.000	-0.015	0.381	2.749	1.919	1.904	1.899	1.914	1.909	1.909
-0.005	0.005	0.000	0.005	0.005	-0.005	0.386	2.676	1.909	1.904	1.899	1.914	1.914	1.914
-0.005	0.010	0.000	0.000	0.000	0.015	0.386	2.651	1.904	1.904	1.899	1.919	1.914	1.919
-0.005	0.000	0.005	-0.005	0.000	-0.005	0.391	2.690	1.909	1.904	1.899	1.919	1.914	1.914
-0.005	-0.005	0.000	0.000	0.000	0.020	0.391	2.734	1.909	1.904	1.899	1.914	1.914	1.919
-0.005	0.000	0.005	-0.010	0.000	0.024	0.386	2.681	1.909	1.909	1.904	1.919	1.914	1.919
0.000	-0.010	0.000	0.005	0.000	0.024	0.381	2.681	1.904	1.904	1.899	1.919	1.914	1.914
-0.005	0.005	-0.005	0.000	0.010	0.024	0.381	2.700	1.904	1.904	1.899	1.919	1.914	1.914
0.000	-0.005	0.000	-0.005	0.005	0.024	0.386	2.705	1.909	1.899	1.899	1.914	1.914	1.914
0.000	0.005	0.005	0.000	0.005	0.005	0.386	2.690	1.904	1.904	1.899	1.919	1.909	1.904
0.000	-0.015	0.005	0.000	0.000	0.015	0.391	2.705	1.899	1.899	1.895	1.914	1.909	1.914
0.005	0.000	0.000	0.000	0.000	0.015	0.386	2.681	1.895	1.899	1.899	1.914	1.909	1.909
-0.005	0.020	0.000	0.000	0.000	0.000	0.381	2.700	1.895	1.904	1.899	1.914	1.909	1.904
0.005	0.010	0.000	0.000	0.000	-0.034	0.381	2.705	1.899	1.899	1.899	1.914	1.909	1.895
0.005	0.005	0.005	0.000	-0.005	0.005	0.381	2.700	1.899	1.899	1.899	1.919	1.909	1.909
0.000	0.005	0.000	-0.005	-0.005	0.000	0.386	2.681	1.899	1.899	1.899	1.914	1.909	1.909
0.000	0.005	0.005	0.000	0.010	-0.010	0.381	2.686	1.899	1.895	1.899	1.919	1.909	1.909
0.005	-0.005	0.005	0.000	0.000	-0.010	0.391	2.705	1.909	1.899	1.899	1.924	1.909	1.904
0.010	0.000	0.000	0.010	0.000	0.000	0.391	2.705	1.909	1.904	1.899	1.919	1.919	1.914
0.010	0.010	0.000	0.005	0.000	-0.020	0.396	2.686	1.909	1.909	1.904	1.919	1.914	1.909
0.010	0.000	0.000	0.005	0.005	0.005	0.386	2.690	1.904	1.904	1.909	1.919	1.919	1.924
0.010	0.005	-0.005	0.000	0.000	0.020	0.391	2.695	1.909	1.904	1.904	1.924	1.919	1.924
0.005	-0.010	0.005	0.005	0.000	0.024	0.381	2.715	1.909	1.899	1.904	1.924	1.919	1.919
0.005	-0.010	0.000	0.005	0.000	0.015	0.391	2.695	1.904	1.904	1.899	1.919	1.919	1.919
0.000	0.005	0.005	0.005	0.005	-0.005	0.386	2.695	1.904	1.904	1.904	1.919	1.914	1.909
0.000	0.005	0.005	0.010	0.005	0.010	0.391	2.705	1.904	1.904	1.899	1.919	1.914	1.914
-0.010	-0.005	0.005	0.000	-0.005	0.005	0.391	2.686	1.899	1.895	1.895	1.919	1.914	1.914
-0.010	-0.005	0.005	0.000	0.005	0.015	0.391	2.700	1.899	1.895	1.895	1.914	1.909	1.909
-0.005	-0.010	0.000	0.000	0.005	0.005	0.386	2.661	1.895	1.895	1.890	1.909	1.909	1.909
-0.010	0.000	0.000	0.000	0.005	0.000	0.391	2.725	1.899	1.895	1.895	1.909	1.909	1.909
0.000	-0.010	0.005	-0.005	0.005	-0.015	0.386	2.646	1.895	1.895	1.895	1.909	1.909	1.904
0.000	0.000	0.005	0.000	0.000	0.000	0.391	2.671	1.899	1.895	1.895	1.914	1.909	1.909
-0.005	0.015	0.000	-0.005	0.000	-0.005	0.381	2.754	1.904	1.899	1.895	1.914	1.909	1.909
0.005	0.010	0.000	0.000	0.005	-0.024	0.391	2.720	1.914	1.904	1.899	1.914	1.909	1.904
-0.005	0.005	0.000	-0.005	0.000	-0.005	0.386	2.808	1.924	1.904	1.904	1.914	1.909	1.914
0.000	0.010	0.000	0.000	0.000	-0.005	0.381	2.627	1.909	1.909	1.904	1.919	1.909	1.914
0.010	0.015	0.005	-0.005	0.000	0.010	0.381	2.729	1.914	1.909	1.909	1.919	1.914	1.919
0.005	0.005	0.000	0.005	0.000	0.010	0.391	2.661	1.904	1.914	1.909	1.924	1.914	1.919
0.000	0.000	0.005	0.000	0.005	-0.010	0.391	2.739	1.914	1.909	1.909	1.924	1.914	1.914
0.010	0.024	0.005	0.000	0.005	0.005	0.386	2.725	1.914	1.914	1.909	1.924	1.919	1.914
0.005	0.015	0.000	0.000	-0.005	0.010	0.381	2.651	1.904	1.909	1.909	1.924	1.914	1.919
0.000	0.015	0.000	0.000	0.000	-0.010	0.381	2.661	1.895	1.904	1.904	1.924	1.919	1.909
0.000	0.010	0.000	0.000	0.005	0.010	0.386	2.734	1.904	1.899	1.904	1.924	1.919	1.919
-0.005	0.000	0.005	0.000	0.005	0.005	0.386	2.690	1.899	1.899	1.899	1.919	1.914	1.919
0.005	0.005	-0.005	0.000	0.005	-0.015	0.391	2.720	1.904	1.895	1.895	1.919	1.909	1.909
0.005	-0.005	0.000	0.005	0.005	-0.015	0.391	2.671	1.899	1.895	1.895	1.914	1.909	1.904
-0.010	0.000	0.005	0.010	0.005	0.010	0.396	2.686	1.895	1.895	1.895	1.919	1.914	1.914
0.005	-0.005	0.000	0.000	0.005	-0.015	0.381	2.705	1.909	1.899	1.895	1.914	1.909	1.909
0.005	-0.005	-0.005	0.005	0.005	0.000	0.396	2.690	1.904	1.899	1.895	1.914	1.914	1.914
0.005	-0.005	0.000	0.000	0.005	0.005	0.381	2.695	1.904	1.899	1.899	1.919	1.914	1.919
0.000	-0.005	0.000	0.000	0.005	0.010	0.386	2.690	1.904	1.899	1.899	1.914	1.909	1.919
0.000	-0.005	0.005	0.000	-0.005	-0.015	0.381	2.676	1.909	1.904	1.899	1.919	1.909	1.909
0.010	-0.005	0.000	0.005	-0.005	0.005	0.391	2.700	1.914	1.904	1.904	1.919	1.914	1.919
0.010	0.000	0.000	0.000	-0.005	0.005	0.381	2.705	1.909	1.909	1.904	1.919	1.914	1.914
0.005	0.000	0.005	0.010	0.005	0.010	0.386	2.710	1.909	1.909	1.904	1.924	1.919	1.919
0.000	0.000	0.005	0.000	-0.005	0.010	0.381	2.710	1.914	1.914	1.904	1.919	1.919	1.919
-0.015	0.000	0.005	0.000	0.005	-0.020	0.396	2.686	1.909	1.909	1.904	1.919	1.919	1.909
0.000	-0.010	0.005	0.000	0.010	-0.005	0.396	2.690	1.909	1.904	1.904	1.919	1.919	1.914
0.000	0.010	0.000	0.005	0.005	0.010	0.396	2.700	1.904	1.904	1.904	1.919	1.914	1.914
-0.005	-0.005	0.000	0.000	0.005	0.015	0.396	2.686	1.904	1.899	1.899	1.919	1.919	1.919
-0.005	0.000	0.000	0.005	0.005	0.015	0.391	2.681	1.904	1.899	1.899	1.914	1.914	1.914
0.000	0.000	0.000	0.005	0.000	0.005	0.391	2.695	1.899	1.899	1.899	1.919	1.909	1.909
0.010	-0.005	0.000	0.000	0.000	0.005	0.391	2.681	1.899	1.895	1.899	1.914	1.909	1.914
0.000	0.005	0.000	0.000	0.005	-0.010	0.386	2.690	1.899	1.899	1.895	1.914	1.909	1.904
0.005	-0.005	0.005	0.000	0.000	-0.015	0.386	2.686	1.904	1.899	1.899	1.914	1.909	1.904
0.005	0.000	0.000	0.000	-0.005	0.000	0.391	2.705	1.899	1.904	1.899	1.914	1.909	1.914
0.000	0.005	0.000	-0.005	0.000	-0.010	0.386	2.715	1.904	1.899	1.899	1.919	1.914	1.909
-0.005	0.005	0.000	0.000	0.000	0.020	0.391	2.700	1.904	1.904	1.899	1.919	1.914	1.924
-0.005	0.000	0.000	0.000	-0.005	0.020	0.386	2.656	1.904	1.904	1.904	1.919	1.914	1.919
0.000	0.000	0.000	0.000	-0.005	0.010	0.386	2.705	1.909	1.904	1.904	1.919	1.914	1.914
0.005	-0.005	-0.005	0.000	0.005	0.010	0.386	2.646	1.904	1.904	1.904	1.919	1.919	1.919
0.005	0.000	0.005	0.000	0.000	0.010	0.386	2.656	1.904	1.904	1.904	1.924	1.914	1.919
0.005	-0.010	-0.005	0.005	0.005	0.005	0.386	2.715	1.904	1.899	1.899	1.919	1.919	1.914
0.005	-0.010	0.005	0.005	0.005	0.010	0.386	2.744	1.914	1.904	1.899	1.919	1.919	1.919
-0.005	-0.005	0.005	0.010	0.005	-0.010	0.386	2.817	1.919	1.909	1.904	1.919	1.919	1.914
0.005	-0.010	0.005	0.005	0.010	-0.005	0.391	2.739	1.919	1.909	1.899	1.919	1.919	1.914
-0.005	0.000	0.000	0.000	0.010	0.005	0.386	2.622	1.904	1.909	1.904	1.914	1.914	1.914
-0.005	0.005	0.000	0.000	0.005	0.000	0.391	2.729	1.909	1.904	1.899	1.914	1.909	1.914
-0.005	0.015	0.000	0.000	0.005	0.005	0.386	2.632	1.895	1.904	1.904	1.919	1.909	1.909
0.005	0.005	0.005	0.010	0.000	-0.005	0.386	2.627	1.895	1.904	1.899	1.919	1.909	1.909
0.005	0.000	0.005	0.005	0.005	0.010	0.386	2.700	1.890	1.899	1.904	1.919	1.909	1.914
0.005	0.000	0.000	0.005	0.000	0.000	0.386	2.671	1.895	1.899	1.899	1.914	1.909	1.914
0.005	0.005	0.005	0.000	0.000	-0.010	0.386	2.754	1.904	1.895	1.899	1.919	1.909	1.914
0.015	0.005	0.010	0.005	0.000	0.005	0.391	2.695	1.909	1.904	1.899	1.919	1.914	1.914
0.010	0.010	0.000	0.005	0.000	-0.015	0.386	2.725	1.909	1.904	1.904	1.919	1.914	1.909
0.010	0.005	0.000	0.000	0.010	0.000	0.386	2.681	1.904	1.904	1.904	1.919	1.919	1.919
0.000	0.010	0.005	0.000	0.000	0.005	0.386	2.690	1.909	1.904	1.904	1.924	1.919	1.919
0.010	0.005	0.000	0.005	0.010	-0.015	0.391	2.705	1.909	1.909	1.904	1.924	1.919	1.914
0.005	0.024	-0.005	0.000	0.000	0.029	0.381	2.705	1.909	1.914	1.904	1.919	1.919	1.929
0.010	0.010	-0.005	0.000	0.000	0.010	0.386	2.710	1.909	1.914	1.904	1.924	1.914	1.919
0.005	0.010	0.000	0.000	0.005	0.005	0.381	2.700	1.909	1.904	1.904	1.924	1.914	1.914
0.000	0.005	0.000	-0.005	0.000	0.015	0.391	2.705	1.909	1.904	1.904	1.924	1.919	1.914
0.005	0.000	0.005	0.000	0.005	-0.005	0.386	2.690	1.899	1.904	1.904	1.919	1.914	1.909
-0.005	0.000	0.000	0.000	0.010	0.000	0.381	2.681	1.895	1.899	1.899	1.919	1.914	1.914
0.000	0.000	0.000	0.000	0.005	0.010	0.376	2.695	1.899	1.895	1.895	1.919	1.914	1.914
0.000	-0.005	0.000	0.000	0.000	-0.024	0.381	2.710	1.904	1.895	1.895	1.919	1.914	1.904
0.000	-0.010	0.000	0.005	0.005	-0.020	0.381	2.690	1.899	1.895	1.895	1.914	1.909	1.904
0.000	-0.005	0.005	0.000	0.005	-0.015	0.381	2.695	1.904	1.899	1.899	1.914	1.914	1.914
0.000	-0.010	0.000	0.000	0.000	0.010	0.381	2.715	1.904	1.895	1.895	1.914	1.914	1.919
0.000	-0.010	0.005	0.000	0.000	-0.005	0.386	2.705	1.909	1.904	1.899	1.914	1.914	1.914
0.005	0.000	0.000	0.010	0.005	0.000	0.386	2.690	1.919	1.909	1.899	1.919	1.914	1.919
0.005	-0.005	0.000	0.000	0.000	-0.015	0.386	2.695	1.909	1.909	1.904	1.919	1.914	1.914
0.005	0.000	0.005	0.000	0.000	0.000	0.396	2.710	1.914	1.909	1.909	1.924	1.914	1.914
0.005	-0.015	0.000	0.000	0.000	-0.024	0.391	2.720	1.914	1.909	1.904	1.924	1.914	1.909
0.005	0.005	0.000	0.000	0.010	-0.005	0.396	2.690	1.914	1.914	1.909	1.924	1.919	1.919
0.000	0.000	0.000	0.005	0.000	-0.005	0.391	2.690	1.909	1.909	1.904	1.924	1.919	1.919
0.005	-0.005	-0.005	0.000	0.000	0.005	0.391	2.695	1.904	1.909	1.904	1.924	1.919	1.919
0.000	0.000	0.005	0.005	0.010	0.000	0.391	2.686	1.904	1.904	1.909	1.924	1.919	1.919
0.000	0.010	0.000	0.000	0.005	0.010	0.391	2.622	1.895	1.904	1.904	1.919	1.919	1.914
-0.005	0.005	0.005	0.000	-0.005	0.039	0.386	2.700	1.895	1.899	1.904	1.919	1.914	1.929
-0.005	0.000	0.005	0.005	0.000	0.063	0.381	2.656	1.890	1.890	1.899	1.919	1.914	1.929
0.000	0.005	0.000	0.000	0.000	0.054	0.381	2.666	1.895	1.890	1.895	1.914	1.909	1.919
0.000	0.000	-0.005	0.005	0.005	0.000	0.386	2.720	1.899	1.895	1.890	1.914	1.909	1.904
0.000	0.015	0.000	0.000	-0.005	0.024	0.381	2.637	1.895	1.899	1.895	1.909	1.909	1.914
0.000	0.015	-0.005	0.000	0.000	0.005	0.391	2.676	1.895	1.899	1.895	1.914	1.909	1.909
0.000	0.000	0.005	0.000	0.000	0.020	0.386	2.656	1.895	1.895	1.895	1.914	1.909	1.909
0.005	0.010	0.000	0.000	0.005	0.000	0.391	2.642	1.895	1.899	1.895	1.914	1.914	1.904
0.010	0.024	0.000	0.005	0.000	-0.034	0.386	2.651	1.899	1.904	1.899	1.919	1.909	1.904
0.005	-0.005	0.000	0.000	0.000	-0.020	0.386	2.734	1.899	1.890	1.899	1.914	1.914	1.909
0.010	-0.005	0.000	0.005	0.000	-0.010	0.381	2.632	1.895	1.895	1.899	1.914	1.914	1.914
0.010	0.010	0.000	0.000	0.000	-0.015	0.391	2.646	1.895	1.904	1.899	1.919	1.909	1.909
-0.005	0.020	0.000	0.000	0.000	-0.024	0.386	2.661	1.890	1.899	1.899	1.919	1.914	1.909
0.000	0.015	0.005	0.000	0.005	-0.029	0.391	2.651	1.895	1.895	1.895	1.919	1.914	1.909
0.000	0.000	0.005	-0.005	0.005	-0.039	0.391	2.695	1.895	1.890	1.895	1.914	1.909	1.904
0.000	0.005	0.000	0.000	0.005	-0.024	0.386	2.729	1.899	1.890	1.895	1.914	1.909	1.919
0.000	-0.010	0.000	0.000	0.000	0.000	0.381	2.681	1.895	1.890	1.890	1.909	1.909	1.919
-0.005	-0.005	0.000	0.005	0.005	0.000	0.386	2.686	1.899	1.890	1.890	1.909	1.909	1.914
0.000	0.000	0.005	0.000	0.000	0.029	0.391	2.681	1.899	1.895	1.890	1.909	1.904	1.919
0.000	0.000	0.005	0.000	0.000	0.054	0.386	2.705	1.899	1.890	1.890	1.909	1.904	1.919
0.010	-0.015	-0.005	0.005	0.005	0.034	0.386	2.671	1.899	1.895	1.890	1.904	1.904	1.909
0.005	-0.005	0.000	0.005	0.005	0.024	0.386	2.705	1.899	1.890	1.890	1.909	1.899	1.904
0.005	-0.029	-0.005	0.000	0.000	0.010	0.386	2.690	1.904	1.890	1.890	1.904	1.899	1.904
0.000	-0.015	0.000	0.005	0.000	-0.005	0.386	2.695	1.904	1.899	1.895	1.904	1.904	1.895
-0.005	-0.010	0.000	0.000	0.000	-0.039	0.386	2.705	1.904	1.899	1.895	1.909	1.904	1.895
0.005	-0.005	0.000	0.005	0.005	-0.034	0.381	2.695	1.904	1.899	1.895	1.914	1.904	1.895
0.000	0.000	0.005	0.005	0.005	-0.010	0.391	2.695	1.909	1.909	1.904	1.919	1.909	1.904
0.015	0.015	0.005	0.005	0.005	-0.005	0.381	2.700	1.909	1.909	1.904	1.919	1.909	1.909
0.005	0.000	-0.005	0.010	0.000	-0.024	0.381	2.681	1.904	1.904	1.904	1.919	1.909	1.904
0.005	0.015	0.000	0.000	0.005	-0.005	0.386	2.710	1.904	1.909	1.904	1.919	1.914	1.914
0.005	0.010	0.005	0.000	0.005	-0.039	0.391	2.695	1.904	1.904	1.904	1.914	1.909	1.904
-0.005	0.005	0.005	0.005	0.010	0.000	0.386	2.705	1.899	1.904	1.899	1.919	1.914	1.914
0.000	0.015	0.005	0.000	0.000	-0.015	0.386	2.700	1.899	1.904	1.899	1.919	1.909	1.909
-0.005	0.015	0.000	0.000	-0.005	0.005	0.386	2.676	1.895	1.899	1.899	1.919	1.909	1.919
0.005	0.010	0.005	0.005	0.005	0.010	0.391	2.681	1.895	1.899	1.899	1.919	1.909	1.914
-0.010	0.000	0.000	0.000	-0.005	-0.005	0.381	2.705	1.899	1.895	1.895	1.914	1.909	1.904
-0.005	0.005	0.000	-0.005	-0.005	0.029	0.386	2.705	1.899	1.890	1.890	1.914	1.904	1.919
0.000	-0.005	0.005	-0.005	-0.005	0.044	0.386	2.710	1.899	1.890	1.890	1.914	1.909	1.919
0.000	0.000	0.005	0.005	-0.005	0.039	0.386	2.700	1.899	1.895	1.895	1.914	1.909	1.914
0.010	0.005	0.000	0.000	-0.010	0.034	0.386	2.656	1.904	1.899	1.890	1.914	1.909	1.909
0.010	-0.005	0.000	0.000	-0.005	0.034	0.386	2.700	1.904	1.904	1.895	1.914	1.909	1.914
0.000	0.005	0.005	0.000	0.005	0.020	0.386	2.646	1.895	1.899	1.899	1.914	1.914	1.909
0.000	0.005	0.005	0.000	0.005	0.005	0.391	2.671	1.895	1.899	1.899	1.919	1.914	1.909
0.005	0.000	0.000	0.000	0.005	-0.005	0.386	2.729	1.904	1.899	1.899	1.919	1.914	1.909
0.000	0.005	0.000	0.000	0.010	-0.024	0.386	2.749	1.909	1.904	1.899	1.919	1.919	1.904
0.005	-0.005	0.000	0.000	0.005	-0.024	0.396	2.676	1.909	1.899	1.899	1.919	1.914	1.904
0.005	0.000	0.000	0.000	0.005	-0.005	0.386	2.734	1.899	1.904	1.899	1.919	1.914	1.914
0.005	0.000	0.005	0.005	0.005	-0.005	0.391	2.627	1.885	1.899	1.899	1.919	1.914	1.914
-0.005	0.000	0.010	0.000	0.010	-0.005	0.386	2.720	1.895	1.895	1.899	1.919	1.914	1.914
-0.005	-0.015	0.005	0.005	0.005	-0.005	0.391	2.642	1.890	1.890	1.895	1.914	1.914	1.909
-0.005	-0.010	0.000	0.005	0.005	-0.005	0.386	2.725	1.890	1.885	1.890	1.909	1.909	1.909
0.000	-0.005	0.000	0.005	0.010	-0.015	0.386	2.632	1.885	1.890	1.890	1.909	1.909	1.909
0.000	-0.005	-0.005	0.000	0.010	-0.020	0.386	2.666	1.885	1.885	1.885	1.904	1.904	1.904
0.000	0.000	0.000	0.000	0.005	-0.010	0.386	2.749	1.899	1.895	1.890	1.904	1.904	1.904
-0.005	0.000	0.000	0.000	0.010	0.000	0.381	2.700	1.899	1.890	1.890	1.904	1.904	1.909
0.005	-0.005	0.000	0.000	0.005	0.000	0.386	2.739	1.909	1.895	1.890	1.909	1.904	1.909
0.000	0.005	0.000	0.000	-0.005	0.005	0.381	2.695	1.904	1.899	1.895	1.909	1.899	1.909
0.005	0.005	0.000	0.005	0.000	0.000	0.386	2.690	1.904	1.899	1.895	1.909	1.904	1.904
-0.005	0.024	0.000	-0.005	-0.005	0.010	0.386	2.695	1.909	1.909	1.895	1.914	1.904	1.909
0.000	0.010	0.000	0.000	-0.005	-0.015	0.391	2.700	1.909	1.909	1.899	1.914	1.904	1.899
0.010	0.010	0.000	0.005	0.005	0.010	0.391	2.710	1.914	1.909	1.904	1.919	1.914	1.914
0.005	0.000	-0.005	0.005	-0.005	0.010	0.386	2.700	1.909	1.909	1.904	1.919	1.909	1.909
0.010	0.005	0.000	0.005	-0.020	0.015	0.381	2.681	1.904	1.904	1.904	1.919	1.909	1.914
0.000	-0.005	0.005	0.005	-0.020	0.024	0.386	2.695	1.904	1.904	1.904	1.919	1.909	1.914
0.000	0.000	0.000	0.005	-0.020	-0.010	0.386	2.700	1.899	1.899	1.904	1.919	1.909	1.904
0.010	-0.015	0.000	0.005	-0.020	-0.010	0.386	2.671	1.899	1.895	1.899	1.914	1.909	1.904
0.005	0.005	0.000	0.005	-0.005	-0.005	0.386	2.690	1.899	1.899	1.899	1.919	1.914	1.909
0.005	0.005	0.005	0.005	0.000	0.024	0.386	2.676	1.899	1.899	1.895	1.914	1.914	1.914
0.000	0.005	0.010	0.000	0.005	0.020	0.391	2.700	1.895	1.895	1.895	1.914	1.914	1.919
0.005	-0.005	0.005	0.000	0.020	0.024	0.391	2.676	1.895	1.890	1.895	1.914	1.919	1.919
0.005	0.000	0.000	0.000	0.034	0.020	0.381	2.695	1.899	1.890	1.890	1.909	1.914	1.909
0.000	0.005	0.000	0.005	0.020	0.000	0.386	2.705	1.899	1.895	1.890	1.914	1.909	1.914
0.010	0.005	0.005	0.005	0.015	0.020	0.391	2.710	1.904	1.899	1.895	1.914	1.909	1.909
0.000	-0.005	0.005	0.000	0.005	-0.005	0.391	2.690	1.899	1.895	1.895	1.914	1.904	1.909
-0.005	-0.005	0.000	0.000	0.005	-0.015	0.391	2.686	1.904	1.899	1.895	1.914	1.904	1.904
-0.005	-0.005	-0.005	0.000	0.000	-0.020	0.381	2.695	1.904	1.899	1.899	1.914	1.909	1.909
0.005	0.005	0.000	0.000	-0.005	-0.020	0.386	2.705	1.904	1.909	1.904	1.914	1.909	1.904
0.000	0.010	0.005	0.005	-0.010	-0.015	0.386	2.686	1.899	1.909	1.904	1.919	1.909	1.904
0.005	-0.005	0.010	0.000	-0.010	-0.015	0.396	2.695	1.904	1.904	1.904	1.919	1.909	1.904
0.005	0.000	0.000	0.000	-0.010	-0.005	0.386	2.646	1.895	1.899	1.899	1.919	1.909	1.909
0.000	0.005	-0.005	0.000	0.005	0.000	0.391	2.690	1.899	1.904	1.899	1.914	1.914	1.914
0.005	-0.005	0.000	0.000	-0.005	-0.005	0.386	2.646	1.895	1.899	1.899	1.914	1.914	1.914
0.000	0.000	0.005	0.000	-0.015	0.000	0.386	2.666	1.890	1.895	1.895	1.914	1.909	1.914
-0.005	-0.005	0.005	0.000	0.005	0.015	0.381	2.729	1.890	1.890	1.890	1.914	1.914	1.914
0.000	0.000	0.000	0.000	0.029	0.020	0.381	2.651	1.890	1.890	1.890	1.914	1.919	1.914
-0.005	0.000	0.000	-0.005	0.029	0.010	0.391	2.676	1.890	1.885	1.885	1.909	1.914	1.914
0.005	0.000	0.000	0.000	0.034	0.010	0.386	2.720	1.899	1.890	1.885	1.909	1.909	1.909
0.000	0.000	0.000	0.005	0.015	0.020	0.386	2.637	1.895	1.895	1.885	1.909	1.904	1.909
-0.005	0.010	0.005	0.005	-0.005	0.020	0.391	2.646	1.890	1.890	1.890	1.909	1.899	1.909
-0.005	-0.005	0.000	0.000	-0.020	0.020	0.386	2.744	1.899	1.890	1.890	1.904	1.899	1.904
0.015	-0.010	0.005	0.005	-0.015	0.020	0.386	2.651	1.899	1.895	1.890	1.909	1.904	1.904
0.005	-0.005	0.000	0.005	-0.005	0.000	0.391	2.661	1.895	1.895	1.895	1.909	1.904	1.895
0.000	-0.005	0.010	0.000	0.000	-0.024	0.396	2.686	1.899	1.899	1.895	1.909	1.904	1.895
0.005	0.015	0.005	0.005	-0.020	0.000	0.391	2.651	1.899	1.904	1.895	1.914	1.904	1.904
0.005	0.000	0.000	0.010	-0.020	-0.020	0.391	2.695	1.899	1.899	1.895	1.914	1.909	1.899
0.005	0.005	0.000	0.000	-0.010	0.005	0.386	2.729	1.909	1.899	1.895	1.909	1.909	1.909
0.000	-0.005	0.000	0.000	-0.020	0.010	0.381	2.690	1.899	1.895	1.895	1.909	1.904	1.909
0.000	0.000	0.000	0.000	-0.005	-0.005	0.381	2.686	1.904	1.895	1.895	1.914	1.909	1.904
-0.005	0.010	0.005	0.000	0.015	0.015	0.381	2.695	1.899	1.899	1.895	1.919	1.919	1.914
0.000	0.000	0.005	0.005	0.020	0.015	0.381	2.695	1.899	1.895	1.895	1.914	1.914	1.914
0.000	0.020	0.000	0.000	0.024	0.005	0.386	2.686	1.899	1.899	1.895	1.914	1.914	1.909
0.000	0.020	0.000	0.000	0.020	-0.005	0.381	2.700	1.899	1.899	1.895	1.914	1.904	1.904
-0.005	0.010	0.000	0.000	0.015	-0.015	0.391	2.700	1.899	1.890	1.890	1.914	1.904	1.899
-0.005	0.010	-0.005	0.000	0.015	-0.015	0.396	2.690	1.899	1.895	1.890	1.909	1.904	1.904
0.005	0.000	0.005	0.005	0.005	-0.010	0.396	2.676	1.895	1.890	1.895	1.909	1.904	1.904
0.005	0.005	0.010	0.005	-0.005	-0.010	0.386	2.690	1.895	1.899	1.895	1.909	1.904	1.904
0.000	0.005	0.000	0.010	-0.005	-0.039	0.386	2.700	1.899	1.895	1.895	1.909	1.904	1.899
0.000	0.005	0.005	0.000	-0.005	0.005	0.381	2.705	1.904	1.895	1.895	1.914	1.909	1.909
0.005	-0.020	0.005	0.005	-0.005	-0.010	0.381	2.700	1.904	1.890	1.895	1.914	1.909	1.909
0.000	-0.015	0.000	0.005	0.000	0.015	0.391	2.695	1.899	1.895	1.895	1.914	1.914	1.914
0.005	0.000	0.000	0.000	0.015	0.015	0.386	2.705	1.904	1.904	1.899	1.914	1.919	1.919
-0.010	-0.005	0.005	0.005	0.005	0.020	0.381	2.705	1.904	1.899	1.899	1.919	1.909	1.919
0.000	0.005	0.005	0.000	-0.005	0.029	0.386	2.710	1.909	1.909	1.899	1.919	1.909	1.919
0.000	0.010	0.010	0.005	-0.010	0.034	0.396	2.695	1.914	1.909	1.904	1.914	1.909	1.914
-0.005	-0.005	0.005	0.010	-0.005	0.044	0.391	2.695	1.909	1.899	1.899	1.919	1.909	1.914
0.005	-0.005	0.000	0.010	0.010	0.020	0.391	2.690	1.904	1.899	1.899	1.919	1.914	1.909
-0.005	0.005	0.000	0.005	0.024	-0.005	0.381	2.700	1.899	1.904	1.899	1.914	1.919	1.904
0.000	0.000	0.010	0.005	0.029	-0.020	0.386	2.686	1.899	1.899	1.895	1.919	1.914	1.904
0.010	0.005	0.000	0.010	0.034	-0.010	0.386	2.690	1.899	1.899	1.895	1.914	1.914	1.909
0.010	0.005	0.000	0.010	0.029	-0.010	0.396	2.666	1.899	1.899	1.895	1.914	1.909	1.904
0.005	0.015	0.000	0.005	0.015	-0.005	0.386	2.690	1.899	1.899	1.895	1.909	1.904	1.909
0.005	0.005	0.000	0.005	0.000	-0.029	0.396	2.651	1.895	1.895	1.895	1.909	1.904	1.899
0.005	0.000	0.000	-0.005	-0.005	0.005	0.386	2.666	1.890	1.895	1.895	1.909	1.904	1.914
0.000	0.015	0.005	0.000	-0.010	0.034	0.391	2.725	1.895	1.899	1.895	1.914	1.904	1.914
0.020	0.020	0.005	-0.005	0.010	0.039	0.381	2.754	1.914	1.904	1.899	1.914	1.909	1.919
0.010	0.000	0.005	-0.005	0.000	0.010	0.391	2.671	1.909	1.904	1.899	1.914	1.909	1.904
0.000	0.005	0.000	-0.005	-0.015	0.000	0.381	2.734	1.899	1.899	1.899	1.914	1.904	1.904
0.015	0.005	0.005	0.000	-0.020	-0.015	0.391	2.646	1.899	1.904	1.899	1.919	1.909	1.899
-0.005	-0.005	0.005	0.000	-0.029	-0.029	0.391	2.651	1.895	1.899	1.899	1.919	1.904	1.899
0.000	-0.005	0.005	0.005	-0.024	-0.020	0.391	2.725	1.899	1.899	1.899	1.919	1.909	1.904
-0.005	0.005	0.000	0.005	-0.010	-0.015	0.391	2.739	1.904	1.899	1.899	1.919	1.914	1.909
0.000	-0.005	0.000	0.000	-0.005	0.000	0.386	2.656	1.895	1.890	1.895	1.919	1.914	1.914
0.000	0.000	0.005	0.005	0.020	0.024	0.396	2.661	1.895	1.895	1.895	1.914	1.919	1.919
0.005	0.000	0.000	0.000	0.024	0.034	0.386	2.627	1.909	1.895	1.890	1.909	1.914	1.924
-0.005	-0.005	-0.005	-0.005	0.024	0.034	0.386	2.695	1.904	1.895	1.890	1.909	1.914	1.919
0.005	-0.015	0.000	0.005	0.029	0.005	0.386	2.725	1.904	1.895	1.890	1.909	1.914	1.914
0.005	-0.005	0.000	0.005	0.039	0.024	0.391	2.681	1.899	1.895	1.890	1.909	1.914	1.914
0.015	0.000	-0.005	0.000	0.020	0.034	0.386	2.686	1.904	1.899	1.895	1.909	1.904	1.914
-0.005	0.000	0.005	0.005	-0.020	0.010	0.391	2.705	1.904	1.899	1.895	1.909	1.895	1.904
-0.005	-0.005	0.010	0.000	-0.059	0.010	0.386	2.705	1.904	1.899	1.895	1.909	1.885	1.899
0.005	0.005	0.000	0.010	-0.063	-0.020	0.391	2.690	1.904	1.904	1.895	1.909	1.890	1.890
-0.005	0.005	0.005	0.005	-0.059	-0.010	0.391	2.715	1.904	1.904	1.899	1.914	1.895	1.890
-0.005	0.010	0.005	0.000	-0.024	-0.049	0.391	2.710	1.904	1.909	1.904	1.919	1.909	1.885
0.000	0.000	0.000	0.005	-0.020	-0.039	0.386	2.705	1.904	1.904	1.904	1.919	1.914	1.899
0.005	0.000	0.000	0.000	0.015	-0.029	0.386	2.705	1.899	1.904	1.904	1.919	1.929	1.914
0.000	0.000	0.000	0.000	0.054	-0.020	0.386	2.686	1.899	1.904	1.904	1.924	1.934	1.924
-0.010	0.000	0.005	-0.005	0.059	0.005	0.386	2.705	1.899	1.899	1.899	1.924	1.929	1.929
-0.010	-0.005	0.000	-0.005	0.034	0.005	0.386	2.681	1.904	1.899	1.904	1.919	1.919	1.929
0.010	0.010	-0.005	-0.005	0.039	0.044	0.396	2.681	1.909	1.899	1.899	1.919	1.924	1.934
0.000	0.010	0.005	0.000	0.034	0.015	0.391	2.710	1.904	1.904	1.899	1.919	1.914	1.919
0.005	-0.005	0.000	0.000	0.024	0.049	0.391	2.695	1.904	1.895	1.895	1.914	1.914	1.924
-0.010	0.000	0.005	0.000	0.039	0.044	0.386	2.676	1.899	1.895	1.895	1.914	1.914	1.924
0.000	0.005	0.000	0.000	0.049	0.024	0.396	2.690	1.899	1.899	1.895	1.914	1.914	1.914
0.005	-0.005	0.005	0.000	0.020	0.044	0.391	2.690	1.899	1.890	1.895	1.914	1.904	1.914
-0.005	0.000	0.005	0.000	-0.044	0.015	0.386	2.681	1.895	1.895	1.895	1.909	1.890	1.899
0.000	-0.005	0.005	0.005	-0.078	0.005	0.391	2.686	1.899	1.899	1.895	1.909	1.885	1.890
-0.005	-0.005	0.000	0.000	-0.098	-0.005	0.391	2.700	1.899	1.895	1.895	1.909	1.885	1.885
-0.005	-0.010	0.005	-0.005	-0.083	-0.039	0.386	2.695	1.899	1.895	1.895	1.909	1.899	1.880
0.000	0.010	0.010	0.000	-0.010	-0.015	0.391	2.695	1.899	1.904	1.899	1.914	1.919	1.904
0.005	0.000	0.005	0.000	0.015	-0.010	0.391	2.651	1.899	1.904	1.899	1.914	1.929	1.909
-0.010	0.000	0.000	0.000	0.034	0.000	0.386	2.720	1.899	1.899	1.899	1.919	1.924	1.919
0.005	0.005	0.000	0.005	-0.024	0.005	0.391	2.651	1.899	1.904	1.895	1.914	1.904	1.914
0.000	-0.005	0.000	0.000	-0.039	-0.015	0.391	2.656	1.895	1.899	1.899	1.914	1.904	1.904
0.010	0.000	0.000	0.005	-0.049	-0.020	0.391	2.754	1.904	1.899	1.899	1.914	1.899	1.904
-0.005	0.005	0.005	0.005	-0.029	-0.024	0.396	2.651	1.899	1.899	1.899	1.914	1.909	1.904
-0.005	0.000	0.000	0.005	0.024	-0.010	0.386	2.793	1.904	1.899	1.899	1.914	1.929	1.914
-0.005	0.000	0.000	0.005	0.059	0.010	0.391	2.744	1.909	1.899	1.895	1.914	1.929	1.924
0.005	0.005	0.000	0.000	0.029	-0.024	0.386	2.700	1.909	1.899	1.895	1.914	1.914	1.909
0.005	0.005	-0.005	0.000	0.005	-0.015	0.386	2.749	1.904	1.899	1.895	1.909	1.904	1.909
-0.005	0.010	0.000	0.000	0.005	-0.020	0.386	2.695	1.904	1.904	1.895	1.909	1.904	1.904
0.000	0.010	0.000	0.000	-0.010	-0.044	0.381	2.637	1.904	1.899	1.895	1.909	1.899	1.899
0.005	0.000	0.005	0.005	-0.005	-0.020	0.381	2.759	1.909	1.899	1.899	1.914	1.904	1.904
0.005	-0.010	0.005	0.005	0.005	-0.005	0.386	2.661	1.899	1.899	1.899	1.914	1.909	1.909
0.005	-0.010	0.005	-0.005	0.015	-0.015	0.386	2.646	1.899	1.899	1.895	1.914	1.914	1.909
0.000	-0.010	-0.005	0.000	0.034	-0.024	0.386	2.700	1.904	1.899	1.899	1.919	1.919	1.909
0.005	0.000	-0.005	0.000	0.044	0.010	0.391	2.754	1.914	1.904	1.899	1.919	1.919	1.924
0.000	-0.005	0.005	0.000	0.039	0.000	0.381	2.700	1.909	1.909	1.904	1.919	1.919	1.919
0.005	-0.005	0.005	0.005	0.029	0.010	0.386	2.676	1.909	1.909	1.909	1.919	1.919	1.924
0.000	0.024	0.000	0.000	0.024	0.015	0.386	2.676	1.904	1.914	1.909	1.919	1.914	1.924
0.000	0.020	0.005	0.000	0.020	0.015	0.386	2.686	1.904	1.909	1.909	1.924	1.914	1.919
0.005	0.015	0.000	-0.005	0.015	0.010	0.381	2.710	1.909	1.909	1.904	1.924	1.914	1.914
0.005	0.000	0.000	0.000	0.015	-0.010	0.396	2.690	1.909	1.904	1.904	1.919	1.914	1.909
0.000	0.000	0.000	0.000	0.005	0.015	0.386	2.681	1.899	1.904	1.899	1.919	1.914	1.919
0.000	0.010	0.000	0.000	0.015	0.005	0.391	2.705	1.904	1.899	1.904	1.919	1.914	1.914
0.005	0.005	0.000	0.000	0.010	0.015	0.386	2.681	1.899	1.899	1.899	1.919	1.914	1.914
0.000	-0.005	0.000	0.000	0.000	0.000	0.381	2.710	1.899	1.890	1.895	1.919	1.909	1.909
0.000	0.000	0.005	0.005	0.000	0.005	0.386	2.700	1.899	1.895	1.895	1.914	1.909	1.909
0.000	0.005	0.005	0.005	0.010	0.010	0.386	2.686	1.899	1.899	1.895	1.919	1.914	1.914
0.010	0.000	0.010	0.000	0.005	-0.005	0.386	2.705	1.904	1.899	1.899	1.914	1.909	1.909
0.005	0.000	0.005	-0.005	-0.005	0.005	0.391	2.695	1.904	1.899	1.895	1.914	1.909	1.909
0.005	0.000	0.005	-0.010	0.000	0.015	0.391	2.710	1.909	1.904	1.899	1.914	1.909	1.914
0.005	-0.005	0.000	-0.005	-0.005	0.000	0.391	2.705	1.909	1.904	1.899	1.914	1.909	1.914
-0.005	0.000	-0.005	-0.005	-0.005	0.015	0.391	2.705	1.909	1.904	1.899	1.914	1.909	1.914
0.015	0.000	-0.005	0.010	-0.010	0.010	0.391	2.690	1.914	1.909	1.904	1.924	1.909	1.914
0.015	-0.005	-0.005	0.010	-0.005	0.005	0.386	2.690	1.914	1.909	1.904	1.924	1.919	1.914
-0.010	-0.005	0.000	0.020	-0.005	-0.020	0.391	2.705	1.904	1.904	1.904	1.929	1.914	1.909
-0.005	0.005	0.005	0.024	-0.005	0.005	0.396	2.700	1.909	1.909	1.909	1.929	1.919	1.914
0.000	-0.005	0.005	0.020	-0.005	0.005	0.386	2.700	1.909	1.904	1.904	1.924	1.919	1.919
-0.005	-0.005	0.005	0.010	0.000	-0.005	0.391	2.690	1.895	1.904	1.899	1.919	1.919	1.914
-0.005	0.005	0.005	0.000	0.005	0.005	0.381	2.642	1.895	1.899	1.899	1.914	1.919	1.919
-0.005	-0.005	0.005	-0.005	0.005	0.005	0.386	2.695	1.895	1.890	1.899	1.914	1.914	1.914
0.005	-0.005	0.000	-0.010	0.000	0.005	0.386	2.651	1.895	1.895	1.895	1.914	1.909	1.909
0.005	0.005	0.000	-0.010	0.005	0.005	0.391	2.661	1.895	1.895	1.895	1.909	1.909	1.914
-0.005	0.010	0.000	-0.005	0.000	-0.005	0.386	2.720	1.899	1.899	1.895	1.914	1.909	1.909
0.000	0.000	0.000	0.000	0.005	0.010	0.391	2.739	1.904	1.895	1.895	1.914	1.909	1.909
0.000	0.010	0.005	0.005	0.010	0.000	0.386	2.686	1.909	1.904	1.895	1.914	1.909	1.909
0.005	-0.005	0.005	0.010	0.000	0.005	0.386	2.739	1.909	1.899	1.895	1.914	1.909	1.914
0.000	-0.005	0.010	0.005	0.005	0.005	0.386	2.642	1.904	1.899	1.895	1.919	1.914	1.909
0.000	0.005	0.000	0.005	0.000	-0.010	0.386	2.744	1.909	1.904	1.899	1.919	1.909	1.909
0.000	-0.005	0.000	0.005	0.000	-0.024	0.386	2.637	1.904	1.904	1.899	1.919	1.909	1.909
0.000	-0.005	0.005	0.010	-0.005	0.015	0.391	2.646	1.899	1.904	1.904	1.919	1.914	1.919
0.005	0.010	0.005	0.010	-0.005	0.015	0.386	2.729	1.904	1.909	1.904	1.924	1.914	1.919
0.005	0.005	0.000	0.010	0.000	0.005	0.386	2.686	1.909	1.904	1.904	1.924	1.919	1.914
-0.005	-0.005	0.005	0.015	0.005	0.010	0.386	2.725	1.909	1.904	1.899	1.919	1.914	1.914
-0.005	0.000	0.000	0.000	0.000	0.010	0.391	2.695	1.904	1.904	1.904	1.919	1.909	1.914
-0.010	0.010	-0.005	0.000	0.005	0.020	0.386	2.725	1.904	1.899	1.899	1.914	1.914	1.914
0.000	-0.010	0.000	0.000	-0.005	0.015	0.386	2.681	1.899	1.895	1.899	1.914	1.909	1.914
0.015	-0.005	0.000	0.000	0.000	0.015	0.381	2.690	1.904	1.895	1.895	1.914	1.909	1.909
-0.005	-0.010	0.005	-0.005	0.005	-0.020	0.391	2.695	1.899	1.895	1.890	1.909	1.909	1.904
0.005	0.010	0.000	-0.005	-0.010	0.005	0.386	2.710	1.904	1.899	1.895	1.909	1.904	1.909
0.005	0.005	0.000	-0.005	-0.005	0.005	0.391	2.690	1.899	1.899	1.895	1.914	1.904	1.909
0.000	0.005	0.000	0.000	0.005	-0.010	0.386	2.710	1.899	1.899	1.895	1.914	1.909	1.909
0.005	0.000	0.000	0.000	0.005	0.010	0.391	2.705	1.904	1.899	1.899	1.914	1.909	1.914
-0.005	0.005	0.000	0.000	0.000	0.015	0.386	2.705	1.909	1.899	1.899	1.919	1.909	1.914
0.000	0.000	0.005	0.000	-0.010	0.010	0.386	2.690	1.904	1.904	1.899	1.919	1.909	1.914
0.005	0.000	0.000	0.000	-0.010	-0.020	0.391	2.686	1.909	1.904	1.899	1.919	1.909	1.904
-0.010	0.010	0.000	0.000	-0.010	0.005	0.391	2.700	1.909	1.909	1.904	1.924	1.914	1.914
0.005	-0.010	0.000	0.000	0.000	-0.005	0.391	2.705	1.909	1.904	1.904	1.919	1.919	1.914
0.005	0.000	0.000	0.000	0.000	-0.015	0.381	2.690	1.909	1.904	1.904	1.919	1.914	1.909
-0.005	0.000	0.000	-0.005	0.005	-0.005	0.386	2.695	1.899	1.904	1.904	1.919	1.919	1.914
0.000	0.000	0.000	0.000	0.005	0.000	0.381	2.686	1.904	1.904	1.904	1.919	1.914	1.914
0.000	0.005	0.005	0.000	-0.005	0.000	0.386	2.705	1.904	1.899	1.904	1.919	1.914	1.914
-0.005	0.000	0.005	0.005	0.005	0.010	0.391	2.705	1.904	1.899	1.904	1.924	1.919	1.914
0.000	0.005	0.000	0.005	0.010	0.010	0.391	2.705	1.899	1.899	1.899	1.919	1.914	1.914
0.000	0.005	0.005	0.005	0.010	0.010	0.381	2.700	1.899	1.899	1.899	1.919	1.914	1.914
0.000	-0.005	0.000	0.005	0.000	0.010	0.386	2.671	1.895	1.895	1.895	1.914	1.909	1.914
0.010	-0.005	0.000	0.005	0.005	0.034	0.391	2.705	1.899	1.895	1.890	1.914	1.909	1.919
0.000	0.005	0.000	0.000	0.005	0.024	0.386	2.700	1.899	1.904	1.895	1.914	1.914	1.914
0.005	0.005	0.000	-0.005	-0.005	0.010	0.391	2.690	1.904	1.899	1.895	1.914	1.909	1.909
0.010	0.005	0.000	0.000	0.005	0.000	0.391	2.637	1.895	1.899	1.899	1.914	1.914	1.909
0.000	0.005	-0.005	0.005	0.005	-0.029	0.386	2.700	1.899	1.899	1.899	1.919	1.909	1.899
0.015	0.005	0.000	0.005	0.000	-0.034	0.391	2.661	1.899	1.899	1.899	1.919	1.909	1.904
0.005	0.005	0.000	0.015	0.010	-0.024	0.386	2.656	1.890	1.899	1.899	1.919	1.914	1.914
0.010	0.000	0.000	0.010	0.010	-0.020	0.386	2.734	1.904	1.899	1.899	1.919	1.919	1.914
0.005	-0.005	0.000	0.010	0.000	-0.015	0.381	2.642	1.899	1.899	1.899	1.919	1.909	1.914
0.000	0.000	0.000	0.005	-0.010	-0.010	0.386	2.681	1.899	1.899	1.899	1.919	1.909	1.914
0.005	0.010	-0.005	0.005	-0.005	0.010	0.381	2.725	1.904	1.899	1.895	1.914	1.914	1.919
0.000	0.005	0.005	0.005	-0.010	0.015	0.391	2.651	1.899	1.899	1.899	1.914	1.909	1.914
-0.005	0.010	0.005	0.000	-0.020	0.010	0.386	2.661	1.895	1.895	1.895	1.914	1.904	1.909
-0.015	0.010	0.000	0.005	0.010	0.024	0.391	2.725	1.899	1.890	1.895	1.914	1.914	1.919
-0.010	0.005	0.000	0.000	0.015	0.024	0.386	2.651	1.890	1.890	1.890	1.909	1.914	1.914
-0.005	0.010	0.000	-0.005	0.010	0.024	0.396	2.749	1.895	1.890	1.890	1.909	1.909	1.909
-0.010	-0.005	0.000	-0.005	0.000	0.015	0.391	2.661	1.895	1.885	1.890	1.909	1.904	1.909
-0.005	0.000	0.000	-0.005	-0.020	-0.015	0.381	2.744	1.904	1.890	1.890	1.909	1.899	1.895
-0.005	-0.005	0.005	-0.005	0.000	-0.020	0.391	2.686	1.899	1.890	1.885	1.904	1.904	1.899
-0.005	0.005	0.005	-0.005	0.005	0.015	0.391	2.725	1.899	1.895	1.890	1.904	1.909	1.909
-0.010	0.000	0.000	0.000	0.024	0.000	0.381	2.710	1.899	1.895	1.890	1.909	1.909	1.904
0.000	0.005	0.005	-0.005	0.024	-0.010	0.386	2.695	1.909	1.904	1.899	1.909	1.909	1.909
0.010	0.000	0.000	0.000	0.015	-0.015	0.386	2.695	1.914	1.904	1.895	1.909	1.909	1.904
0.010	0.005	0.010	0.000	0.015	-0.005	0.386	2.686	1.909	1.909	1.899	1.914	1.909	1.914
0.010	0.005	0.000	0.000	0.020	0.020	0.391	2.681	1.904	1.909	1.904	1.919	1.914	1.919
0.005	-0.005	0.005	0.000	0.015	0.029	0.391	2.710	1.909	1.904	1.904	1.919	1.914	1.919
0.005	-0.010	-0.005	0.005	0.005	0.010	0.396	2.686	1.909	1.899	1.899	1.919	1.909	1.909
0.005	0.005	0.000	0.010	-0.010	0.029	0.386	2.700	1.909	1.909	1.904	1.919	1.909	1.914
0.010	-0.005	0.000	0.005	-0.020	0.000	0.391	2.695	1.904	1.904	1.904	1.919	1.904	1.904
0.024	0.005	0.000	0.015	-0.044	-0.024	0.386	2.686	1.904	1.909	1.899	1.919	1.899	1.895
0.015	0.000	0.000	0.005	-0.034	-0.059	0.391	2.705	1.899	1.899	1.899	1.919	1.904	1.885
0.020	0.010	0.000	0.000	-0.020	-0.039	0.386	2.705	1.904	1.904	1.899	1.914	1.909	1.899
0.020	0.005	0.000	0.000	-0.024	-0.020	0.391	2.686	1.895	1.899	1.899	1.914	1.909	1.904
0.015	0.015	0.000	0.000	0.000	-0.005	0.386	2.700	1.890	1.899	1.899	1.914	1.914	1.914
0.015	0.010	0.000	0.000	0.029	0.000	0.386	2.671	1.895	1.895	1.895	1.914	1.924	1.919
-0.005	0.000	0.005	-0.005	0.020	0.000	0.376	2.690	1.895	1.895	1.895	1.914	1.914	1.919
-0.010	0.000	0.000	-0.005	0.005	-0.024	0.391	2.715	1.895	1.895	1.895	1.914	1.909	1.904
-0.015	0.005	0.005	-0.005	-0.034	0.010	0.386	2.686	1.895	1.890	1.895	1.914	1.899	1.914
-0.010	0.005	0.005	-0.005	-0.010	0.024	0.396	2.705	1.899	1.895	1.895	1.914	1.909	1.924
-0.020	0.000	0.005	0.000	0.029	0.015	0.386	2.686	1.899	1.895	1.895	1.914	1.919	1.914
-0.010	0.000	-0.005	0.000	0.029	-0.005	0.386	2.695	1.904	1.899	1.899	1.914	1.919	1.914
-0.010	-0.005	-0.005	0.005	0.024	-0.015	0.381	2.690	1.909	1.899	1.895	1.919	1.919	1.914
-0.010	0.005	0.000	-0.005	0.049	0.005	0.381	2.695	1.904	1.899	1.899	1.914	1.924	1.919
-0.005	0.000	0.000	-0.005	0.044	0.010	0.386	2.651	1.904	1.899	1.899	1.914	1.914	1.919
0.005	0.000	-0.005	-0.005	-0.015	0.020	0.391	2.690	1.904	1.899	1.899	1.914	1.899	1.919
-0.010	0.000	0.000	0.000	-0.098	0.024	0.386	2.671	1.895	1.899	1.895	1.914	1.880	1.904
0.000	-0.005	0.005	0.005	-0.142	0.010	0.391	2.651	1.890	1.895	1.895	1.909	1.875	1.890
0.005	-0.005	0.000	-0.010	-0.068	0.010	0.386	2.725	1.899	1.895	1.895	1.909	1.904	1.895
0.000	-0.005	0.000	-0.010	0.000	0.010	0.391	2.734	1.899	1.895	1.895	1.914	1.919	1.904
-0.005	0.000	-0.005	0.000	0.054	-0.005	0.391	2.676	1.899	1.895	1.890	1.914	1.929	1.909
0.010	0.000	0.000	0.015	0.044	-0.015	0.386	2.734	1.904	1.899	1.895	1.914	1.924	1.909
0.005	-0.005	0.000	0.024	0.073	-0.015	0.386	2.651	1.895	1.895	1.895	1.919	1.929	1.914
0.000	-0.005	0.005	0.029	0.063	-0.005	0.381	2.651	1.895	1.895	1.895	1.919	1.924	1.919
0.000	0.010	0.000	0.024	0.044	0.005	0.391	2.744	1.909	1.899	1.895	1.914	1.914	1.924
0.005	0.010	0.005	0.015	0.039	0.005	0.386	2.734	1.914	1.904	1.899	1.914	1.914	1.919
0.010	0.015	0.000	0.005	0.015	0.005	0.396	2.651	1.919	1.909	1.899	1.914	1.909	1.914
0.005	0.010	0.005	0.000	0.015	-0.005	0.381	2.666	1.909	1.914	1.904	1.914	1.909	1.914
0.005	0.005	0.010	0.005	0.029	0.020	0.396	2.739	1.914	1.909	1.904	1.919	1.914	1.919
-0.005	0.000	0.005	-0.005	0.010	-0.005	0.386	2.695	1.909	1.909	1.904	1.919	1.909	1.909
0.000	0.000	-0.005	-0.005	-0.039	0.044	0.391	2.720	1.914	1.909	1.904	1.914	1.895	1.914
0.000	-0.005	0.000	-0.010	-0.049	0.049	0.386	2.690	1.909	1.909	1.904	1.919	1.899	1.914
0.000	-0.005	0.000	0.000	-0.024	0.015	0.386	2.686	1.904	1.904	1.904	1.919	1.909	1.899
0.000	0.005	0.000	-0.005	0.010	-0.005	0.381	2.695	1.899	1.904	1.904	1.919	1.919	1.899
0.000	0.010	0.010	-0.005	-0.005	-0.015	0.386	2.700	1.899	1.899	1.899	1.919	1.914	1.904
0.005	0.000	0.005	0.005	0.024	-0.015	0.376	2.715	1.904	1.899	1.899	1.924	1.924	1.909
0.000	0.000	0.000	0.005	0.103	-0.010	0.386	2.700	1.895	1.895	1.899	1.919	1.938	1.919
-0.005	0.000	-0.005	0.000	0.059	0.000	0.386	2.681	1.899	1.895	1.895	1.914	1.919	1.919
0.005	0.000	0.000	0.000	0.020	-0.010	0.391	2.710	1.904	1.895	1.895	1.914	1.904	1.909
0.000	0.000	0.005	0.005	0.000	0.005	0.391	2.705	1.904	1.899	1.895	1.914	1.904	1.914
0.005	-0.005	0.005	0.010	0.015	-0.005	0.391	2.676	1.899	1.899	1.895	1.914	1.909	1.909
-0.005	-0.005	0.010	0.015	0.024	-0.005	0.386	2.686	1.904	1.899	1.899	1.919	1.914	1.914
-0.010	-0.010	0.010	0.005	0.015	0.005	0.386	2.705	1.899	1.895	1.899	1.919	1.909	1.914
-0.010	-0.005	0.000	0.010	0.015	0.010	0.386	2.700	1.904	1.904	1.895	1.914	1.909	1.914
0.000	-0.005	0.005	0.005	-0.029	0.020	0.391	2.690	1.909	1.909	1.899	1.919	1.904	1.919
-0.005	0.000	0.000	0.000	-0.068	0.020	0.391	2.705	1.909	1.909	1.904	1.914	1.890	1.909
-0.005	0.005	0.010	-0.005	-0.049	0.034	0.381	2.686	1.914	1.909	1.904	1.919	1.909	1.914
0.000	0.000	0.000	-0.005	-0.020	0.000	0.386	2.700	1.914	1.909	1.904	1.919	1.914	1.904
0.020	0.010	-0.005	-0.005	0.000	0.010	0.381	2.676	1.914	1.909	1.904	1.919	1.919	1.909
0.015	0.010	-0.005	-0.005	-0.015	0.005	0.386	2.690	1.909	1.909	1.904	1.924	1.914	1.909
0.020	0.005	0.005	-0.005	-0.059	0.015	0.391	2.705	1.909	1.904	1.904	1.919	1.904	1.909
0.020	0.005	0.005	0.000	-0.039	0.000	0.391	2.710	1.904	1.904	1.899	1.919	1.909	1.904
0.034	0.000	0.000	0.000	-0.034	0.010	0.396	2.686	1.909	1.904	1.904	1.919	1.914	1.909
0.034	0.010	0.005	0.000	-0.005	-0.015	0.391	2.695	1.899	1.904	1.904	1.919	1.919	1.904
0.010	0.015	0.000	0.010	0.010	-0.029	0.381	2.637	1.890	1.899	1.899	1.919	1.919	1.909
0.015	0.005	0.000	0.010	0.010	-0.020	0.386	2.700	1.895	1.895	1.899	1.919	1.919	1.909
0.000	0.015	0.005	0.010	0.020	-0.010	0.381	2.671	1.885	1.895	1.895	1.919	1.919	1.914
-0.005	0.005	0.000	0.010	0.024	-0.020	0.391	2.651	1.885	1.890	1.895	1.914	1.919	1.919
-0.015	0.010	0.005	0.005	0.034	0.010	0.386	2.729	1.895	1.890	1.895	1.914	1.924	1.929
-0.024	0.000	0.005	0.000	0.024	0.024	0.391	2.676	1.890	1.890	1.895	1.914	1.919	1.929
-0.015	0.000	0.010	0.005	-0.005	0.024	0.386	2.817	1.919	1.895	1.895	1.914	1.909	1.924
-0.010	0.005	0.010	0.000	-0.010	0.029	0.391	2.646	1.914	1.904	1.899	1.914	1.909	1.924
0.000	0.005	0.005	0.000	0.024	0.010	0.386	2.637	1.904	1.904	1.899	1.914	1.919	1.914
0.000	0.000	0.000	0.000	0.029	0.015	0.391	2.720	1.914	1.904	1.899	1.919	1.919	1.919
0.000	-0.005	0.000	0.000	0.029	0.010	0.381	2.725	1.904	1.904	1.899	1.919	1.919	1.919
0.005	-0.010	-0.005	0.000	0.020	0.015	0.386	2.627	1.904	1.899	1.895	1.914	1.914	1.919
0.010	-0.005	0.000	0.000	0.010	-0.005	0.386	2.754	1.904	1.899	1.899	1.914	1.904	1.909
0.015	-0.005	0.005	0.000	0.010	-0.020	0.386	2.681	1.904	1.904	1.899	1.914	1.909	1.904
0.000	0.005	0.005	0.000	0.010	-0.044	0.391	2.642	1.895	1.904	1.895	1.914	1.904	1.899
-0.005	0.000	-0.005	-0.005	0.010	-0.005	0.396	2.695	1.890	1.895	1.895	1.909	1.909	1.909
0.000	0.005	0.000	-0.005	0.005	-0.010	0.386	2.651	1.895	1.895	1.890	1.909	1.904	1.909
-0.005	-0.005	0.000	-0.005	0.015	0.000	0.386	2.695	1.895	1.895	1.890	1.909	1.909	1.904
0.005	-0.005	0.000	0.000	-0.005	-0.015	0.386	2.676	1.899	1.895	1.895	1.909	1.904	1.899
0.000	0.005	0.000	-0.005	-0.005	-0.015	0.386	2.700	1.895	1.895	1.895	1.909	1.904	1.904
0.005	0.000	0.000	0.000	-0.005	-0.015	0.391	2.690	1.899	1.899	1.895	1.914	1.899	1.904
-0.005	-0.015	0.005	0.010	-0.015	-0.020	0.381	2.686	1.899	1.895	1.895	1.914	1.904	1.904
0.000	-0.010	0.000	-0.005	-0.010	0.005	0.381	2.705	1.904	1.895	1.895	1.914	1.909	1.909
-0.005	0.000	0.000	0.000	0.000	0.005	0.381	2.715	1.909	1.904	1.899	1.914	1.914	1.909
-0.005	0.000	0.000	-0.010	-0.015	0.005	0.381	2.705	1.909	1.904	1.899	1.914	1.909	1.909
-0.010	-0.005	0.000	0.000	-0.029	0.020	0.376	2.686	1.899	1.904	1.899	1.919	1.909	1.914
-0.005	-0.005	0.000	0.000	-0.010	0.029	0.386	2.681	1.899	1.904	1.899	1.919	1.914	1.914
-0.005	-0.005	0.000	-0.005	-0.020	0.015	0.396	2.695	1.909	1.904	1.899	1.919	1.914	1.909
-0.015	0.005	0.005	0.000	-0.005	0.049	0.396	2.695	1.904	1.904	1.899	1.919	1.919	1.924
0.000	0.005	0.005	0.010	0.010	0.049	0.391	2.695	1.904	1.904	1.904	1.919	1.919	1.924
0.005	0.010	0.005	0.005	-0.010	0.024	0.391	2.695	1.909	1.904	1.899	1.919	1.909	1.909
-0.005	0.000	0.000	0.010	0.000	-0.010	0.391	2.690	1.904	1.899	1.899	1.919	1.914	1.899
0.000	0.000	0.005	0.010	0.010	-0.005	0.386	2.676	1.895	1.895	1.895	1.914	1.919	1.909
0.000	-0.005	0.005	0.010	0.010	-0.015	0.386	2.690	1.899	1.899	1.895	1.914	1.914	1.909
0.000	0.010	-0.005	0.005	0.005	-0.010	0.396	2.700	1.899	1.895	1.895	1.914	1.909	1.909
-0.005	0.005	0.005	0.005	0.010	-0.005	0.386	2.695	1.899	1.899	1.895	1.914	1.914	1.909
0.005	-0.005	0.000	0.010	0.015	-0.005	0.391	2.681	1.899	1.899	1.895	1.914	1.914	1.914
0.010	0.020	0.005	0.005	0.029	-0.020	0.381	2.705	1.909	1.904	1.899	1.914	1.914	1.909
0.015	0.015	0.000	0.000	0.000	-0.005	0.391	2.690	1.909	1.904	1.899	1.914	1.909	1.909
0.010	0.005	0.005	0.000	-0.005	-0.015	0.391	2.700	1.904	1.899	1.899	1.914	1.909	1.909
0.000	0.005	0.005	0.000	0.005	-0.015	0.391	2.646	1.899	1.904	1.899	1.919	1.909	1.909
0.000	0.000	0.005	0.005	0.000	-0.020	0.386	2.686	1.904	1.904	1.899	1.919	1.909	1.909
0.000	0.015	0.000	0.005	0.039	0.000	0.391	2.651	1.899	1.904	1.904	1.924	1.924	1.919
0.000	-0.010	0.005	0.005	0.029	0.015	0.386	2.656	1.895	1.895	1.904	1.919	1.919	1.929
0.010	-0.005	0.000	0.000	-0.010	0.024	0.391	2.725	1.904	1.895	1.899	1.919	1.909	1.924
-0.005	-0.005	-0.005	0.000	-0.020	0.059	0.381	2.739	1.904	1.895	1.895	1.914	1.909	1.929
0.005	0.000	0.005	-0.005	-0.015	0.034	0.381	2.822	1.924	1.904	1.895	1.914	1.909	1.914
0.000	0.015	0.000	0.000	-0.015	0.005	0.391	2.651	1.909	1.909	1.899	1.914	1.904	1.899
0.005	-0.005	0.005	-0.005	-0.024	-0.005	0.396	2.646	1.899	1.899	1.895	1.914	1.899	1.895
-0.010	0.000	0.005	-0.005	-0.063	0.010	0.391	2.759	1.899	1.895	1.895	1.909	1.895	1.895
0.000	-0.005	0.000	0.000	-0.020	-0.015	0.386	2.661	1.895	1.895	1.895	1.914	1.909	1.899
-0.005	0.000	0.005	0.005	0.063	-0.005	0.391	2.632	1.885	1.895	1.895	1.919	1.934	1.909
0.000	0.024	0.010	0.005	0.039	-0.005	0.386	2.661	1.890	1.899	1.899	1.919	1.919	1.909
0.000	0.015	0.000	0.000	0.010	-0.024	0.396	2.676	1.895	1.895	1.895	1.914	1.909	1.904
0.005	0.005	0.005	0.000	0.005	0.000	0.386	2.739	1.890	1.890	1.895	1.914	1.909	1.914
0.000	-0.005	0.005	0.005	0.015	0.005	0.386	2.700	1.895	1.890	1.895	1.919	1.919	1.914
0.005	-0.015	0.000	0.005	0.015	0.005	0.381	2.720	1.904	1.890	1.890	1.914	1.914	1.914
0.015	-0.010	0.000	0.010	0.015	-0.005	0.396	2.686	1.904	1.899	1.895	1.914	1.914	1.909
0.005	-0.005	0.000	0.010	-0.010	0.000	0.386	2.690	1.904	1.904	1.895	1.914	1.909	1.914
0.005	0.000	0.000	0.005	0.020	0.015	0.386	2.695	1.904	1.904	1.895	1.914	1.919	1.919
0.005	0.000	0.005	0.000	0.005	0.044	0.386	2.710	1.909	1.904	1.899	1.914	1.909	1.919
0.000	0.010	0.005	0.010	-0.029	0.024	0.391	2.700	1.904	1.904	1.899	1.919	1.899	1.909
0.029	0.015	0.000	0.010	-0.024	0.005	0.391	2.686	1.904	1.904	1.899	1.914	1.904	1.904
0.020	0.005	0.000	0.005	0.005	0.005	0.396	2.705	1.904	1.899	1.899	1.914	1.914	1.904
0.005	0.000	0.005	0.000	0.029	0.000	0.391	2.700	1.899	1.899	1.899	1.914	1.919	1.909
-0.005	0.010	0.000	0.000	0.039	0.000	0.396	2.690	1.895	1.895	1.895	1.914	1.919	1.909
-0.015	0.005	0.000	-0.005	0.044	0.029	0.391	2.705	1.899	1.895	1.895	1.909	1.914	1.919
-0.024	0.005	0.005	0.000	0.024	0.020	0.396	2.681	1.895	1.890	1.890	1.914	1.904	1.909
-0.020	0.010	0.000	0.005	0.020	0.000	0.391	2.700	1.899	1.895	1.890	1.909	1.904	1.904
-0.015	0.005	0.000	0.000	-0.024	-0.039	0.391	2.681	1.899	1.895	1.895	1.909	1.890	1.890
-0.005	0.000	0.000	0.000	-0.073	-0.024	0.391	2.705	1.904	1.895	1.895	1.909	1.885	1.890
-0.005	0.000	-0.005	0.000	-0.093	-0.020	0.396	2.710	1.909	1.899	1.895	1.914	1.890	1.890
0.005	0.000	0.005	0.005	-0.039	-0.039	0.386	2.705	1.919	1.904	1.899	1.914	1.909	1.890
0.020	-0.005	0.005	-0.005	0.044	0.005	0.391	2.695	1.914	1.909	1.904	1.919	1.934	1.919
0.010	-0.005	0.005	-0.005	0.049	0.020	0.391	2.690	1.909	1.904	1.904	1.919	1.924	1.924
0.010	-0.005	0.010	-0.005	-0.005	0.024	0.391	2.710	1.914	1.904	1.904	1.919	1.909	1.919
0.005	0.005	0.005	-0.005	-0.005	0.029	0.386	2.695	1.909	1.909	1.904	1.919	1.914	1.919
0.005	-0.005	0.000	0.000	0.010	0.015	0.391	2.686	1.909	1.904	1.904	1.919	1.919	1.919
0.005	0.000	0.005	0.005	0.020	0.010	0.386	2.686	1.904	1.909	1.904	1.924	1.919	1.919
0.005	-0.005	-0.005	0.005	0.010	-0.005	0.391	2.695	1.904	1.899	1.899	1.924	1.914	1.909
0.000	0.000	0.000	0.005	-0.010	0.005	0.391	2.656	1.895	1.899	1.899	1.919	1.909	1.909
-0.005	-0.005	-0.005	0.010	-0.005	0.015	0.386	2.710	1.895	1.895	1.899	1.919	1.914	1.914
0.005	0.000	-0.005	0.005	0.005	-0.015	0.391	2.651	1.895	1.895	1.895	1.914	1.914	1.909
0.005	-0.010	-0.005	0.005	-0.044	-0.010	0.386	2.661	1.890	1.895	1.890	1.909	1.895	1.899
-0.020	-0.010	0.000	0.000	-0.034	-0.034	0.391	2.759	1.890	1.890	1.890	1.909	1.904	1.899
-0.015	0.005	0.000	0.000	0.029	-0.010	0.386	2.739	1.899	1.895	1.895	1.914	1.924	1.909
-0.005	0.005	0.000	0.005	0.049	-0.020	0.386	2.803	1.914	1.899	1.895	1.914	1.924	1.914
-0.015	-0.005	0.005	0.005	0.015	-0.020	0.381	2.739	1.914	1.904	1.895	1.914	1.909	1.914
0.000	-0.005	-0.005	0.005	0.034	0.010	0.386	2.637	1.929	1.909	1.899	1.914	1.919	1.924
0.005	-0.005	0.000	0.000	0.039	0.010	0.381	2.759	1.934	1.919	1.904	1.919	1.919	1.924
0.000	0.000	0.000	-0.005	0.044	0.000	0.391	2.656	1.924	1.919	1.909	1.919	1.919	1.919
0.005	0.010	0.010	0.000	0.039	0.000	0.386	2.739	1.929	1.924	1.914	1.924	1.919	1.919
0.024	0.015	0.000	0.000	0.010	-0.020	0.391	2.622	1.919	1.929	1.919	1.929	1.909	1.914
0.024	0.010	0.005	0.000	-0.024	-0.005	0.381	2.671	1.909	1.919	1.919	1.929	1.904	1.914
0.024	0.000	0.000	0.005	-0.029	0.000	0.386	2.642	1.919	1.914	1.914	1.934	1.909	1.914
0.020	-0.010	0.000	0.005	-0.049	0.034	0.381	2.686	1.909	1.909	1.914	1.929	1.909	1.924
0.010	-0.005	-0.005	0.005	-0.044	0.024	0.386	2.729	1.904	1.909	1.909	1.929	1.914	1.914
0.005	-0.010	0.000	0.000	-0.024	-0.015	0.386	2.700	1.904	1.904	1.909	1.924	1.914	1.904
-0.005	-0.005	0.005	-0.005	-0.010	-0.005	0.386	2.710	1.904	1.904	1.904	1.924	1.924	1.909
-0.005	0.005	0.005	-0.005	0.005	-0.010	0.381	2.690	1.899	1.904	1.904	1.924	1.929	1.914
-0.010	-0.005	0.000	-0.005	-0.015	-0.015	0.386	2.671	1.890	1.895	1.899	1.919	1.914	1.914
-0.005	0.005	0.005	-0.005	-0.005	-0.029	0.386	2.690	1.895	1.899	1.899	1.919	1.919	1.914
-0.010	-0.005	0.005	0.000	0.020	0.005	0.386	2.676	1.890	1.895	1.899	1.919	1.929	1.924
-0.010	0.000	0.005	-0.005	0.024	0.015	0.386	2.690	1.899	1.895	1.895	1.919	1.924	1.929
-0.010	0.000	0.005	0.000	0.010	0.029	0.386	2.710	1.899	1.899	1.895	1.919	1.919	1.929
-0.010	0.005	0.000	0.000	0.005	0.054	0.386	2.700	1.909	1.904	1.899	1.924	1.919	1.934
0.000	0.015	-0.005	0.005	0.005	0.034	0.391	2.700	1.909	1.909	1.904	1.924	1.919	1.929
-0.010	0.005	0.005	0.005	0.015	0.049	0.386	2.700	1.914	1.909	1.904	1.919	1.924	1.929
0.005	0.005	-0.005	0.005	0.039	0.039	0.391	2.700	1.919	1.909	1.904	1.924	1.929	1.924
0.010	0.005	0.005	-0.005	0.049	-0.005	0.386	2.700	1.919	1.909	1.909	1.919	1.924	1.914
0.000	0.000	0.000	0.005	0.049	0.010	0.386	2.690	1.914	1.909	1.909	1.924	1.929	1.919
0.010	0.005	0.005	0.015	0.029	0.000	0.386	2.681	1.914	1.909	1.909	1.929	1.919	1.914
-0.005	0.010	0.000	0.024	0.015	-0.005	0.386	2.686	1.904	1.909	1.904	1.929	1.919	1.914
-0.005	0.005	0.005	0.020	0.039	-0.020	0.391	2.710	1.904	1.904	1.904	1.924	1.924	1.909
-0.015	0.015	0.000	0.015	0.029	-0.010	0.386	2.686	1.899	1.904	1.904	1.924	1.919	1.914
-0.005	0.000	0.000	0.010	0.020	0.010	0.396	2.700	1.904	1.904	1.904	1.919	1.914	1.919
0.000	-0.005	0.000	0.000	0.000	0.005	0.381	2.676	1.909	1.899	1.899	1.919	1.904	1.914
0.000	0.005	-0.005	-0.005	0.010	0.024	0.381	2.690	1.899	1.899	1.899	1.914	1.909	1.919
0.005	0.000	0.005	-0.005	0.000	0.024	0.391	2.710	1.909	1.899	1.899	1.914	1.904	1.914
0.010	-0.005	0.000	-0.010	-0.015	0.005	0.391	2.690	1.909	1.899	1.899	1.914	1.904	1.904
0.005	0.005	0.005	-0.010	-0.005	0.005	0.386	2.651	1.904	1.909	1.899	1.914	1.909	1.909
0.000	0.010	-0.005	-0.015	-0.015	0.000	0.391	2.700	1.904	1.909	1.904	1.914	1.904	1.904
0.015	-0.005	0.005	-0.010	-0.029	0.000	0.381	2.661	1.904	1.904	1.904	1.919	1.904	1.909
0.020	0.000	0.000	-0.005	-0.063	0.005	0.386	2.656	1.899	1.904	1.904	1.919	1.899	1.909
0.015	-0.005	0.000	-0.005	-0.054	0.005	0.386	2.734	1.909	1.904	1.904	1.924	1.909	1.909
0.010	0.010	0.005	0.005	0.005	0.015	0.386	2.651	1.899	1.909	1.909	1.929	1.929	1.919
0.010	0.005	0.000	0.010	0.005	-0.010	0.381	2.676	1.899	1.904	1.904	1.929	1.929	1.914
0.005	0.000	-0.005	0.020	-0.010	0.000	0.391	2.734	1.909	1.904	1.904	1.929	1.924	1.919
0.010	0.005	0.000	0.015	-0.039	-0.005	0.386	2.651	1.899	1.904	1.899	1.924	1.914	1.914
0.000	0.010	0.000	0.020	-0.029	-0.029	0.391	2.646	1.895	1.899	1.904	1.924	1.919	1.909
-0.010	0.005	0.005	0.015	-0.005	-0.034	0.391	2.651	1.890	1.895	1.899	1.919	1.919	1.904
-0.010	0.010	0.000	0.005	0.005	-0.034	0.391	2.700	1.895	1.890	1.895	1.914	1.919	1.909
-0.010	0.000	0.005	0.000	0.034	-0.039	0.386	2.720	1.899	1.890	1.890	1.909	1.924	1.914
-0.015	0.005	0.000	-0.010	0.049	-0.039	0.381	2.661	1.895	1.890	1.890	1.909	1.924	1.919
-0.005	-0.015	0.000	-0.005	0.015	-0.005	0.386	2.651	1.899	1.885	1.890	1.904	1.909	1.924
-0.015	0.005	0.000	-0.005	0.015	0.010	0.386	2.700	1.899	1.895	1.890	1.909	1.909	1.924
0.005	-0.005	0.000	0.000	0.010	0.020	0.391	2.734	1.909	1.899	1.895	1.909	1.904	1.919
0.010	0.000	0.000	0.005	0.005	0.020	0.386	2.690	1.914	1.904	1.899	1.914	1.904	1.919
0.000	0.005	0.005	0.005	-0.010	0.029	0.391	2.686	1.914	1.909	1.904	1.914	1.904	1.919
0.005	0.005	0.000	0.010	-0.005	0.044	0.391	2.700	1.909	1.909	1.904	1.919	1.909	1.919
0.005	0.000	0.005	0.005	-0.005	0.034	0.391	2.695	1.909	1.909	1.904	1.919	1.914	1.919
0.010	0.005	0.005	0.000	0.029	0.029	0.386	2.710	1.914	1.909	1.904	1.919	1.919	1.914
0.010	-0.005	0.000	0.000	0.010	-0.005	0.386	2.705	1.914	1.909	1.904	1.924	1.914	1.904
0.005	-0.005	0.005	0.000	0.010	-0.015	0.381	2.686	1.909	1.909	1.909	1.924	1.914	1.904
0.015	0.000	0.000	-0.005	0.010	-0.024	0.391	2.690	1.904	1.909	1.904	1.919	1.914	1.904
0.015	0.005	0.000	-0.015	0.000	-0.024	0.386	2.681	1.904	1.909	1.904	1.919	1.909	1.904
0.005	0.005	0.000	-0.020	-0.005	-0.010	0.391	2.681	1.899	1.904	1.904	1.914	1.909	1.909
-0.005	0.005	0.005	-0.010	0.000	-0.020	0.381	2.676	1.895	1.899	1.904	1.919	1.914	1.914
-0.005	-0.005	0.005	-0.005	0.000	-0.005	0.386	2.700	1.895	1.895	1.899	1.919	1.914	1.909
-0.005	0.015	0.005	0.005	0.000	0.020	0.386	2.700	1.899	1.899	1.895	1.919	1.914	1.919
0.015	0.005	0.000	0.015	-0.005	0.010	0.391	2.686	1.899	1.899	1.899	1.919	1.909	1.909
0.005	-0.005	0.000	0.015	-0.010	0.000	0.386	2.695	1.899	1.895	1.895	1.919	1.909	1.909
0.005	0.020	0.005	0.020	-0.015	-0.005	0.391	2.686	1.904	1.904	1.899	1.919	1.914	1.909
-0.015	0.010	0.005	0.024	0.010	0.010	0.391	2.695	1.895	1.899	1.899	1.924	1.919	1.919
-0.005	0.000	-0.005	0.020	0.020	-0.005	0.386	2.686	1.899	1.899	1.895	1.919	1.924	1.914
-0.010	0.005	0.000	0.010	0.020	-0.020	0.381	2.700	1.904	1.904	1.895	1.914	1.919	1.909
-0.015	0.010	0.000	0.005	0.000	-0.010	0.386	2.695	1.904	1.904	1.899	1.919	1.909	1.914
-0.005	0.005	0.000	0.005	-0.020	-0.010	0.386	2.705	1.909	1.904	1.899	1.919	1.909	1.914
0.000	0.010	-0.005	0.000	-0.010	-0.005	0.396	2.690	1.914	1.909	1.899	1.914	1.914	1.919
0.000	0.005	-0.005	-0.010	-0.010	0.034	0.386	2.690	1.909	1.904	1.904	1.914	1.909	1.929
0.010	0.005	0.000	-0.005	-0.029	0.068	0.391	2.651	1.909	1.909	1.904	1.919	1.909	1.929
0.020	0.005	0.000	0.005	-0.049	0.078	0.386	2.700	1.909	1.909	1.904	1.919	1.904	1.924
0.029	0.000	0.000	0.015	-0.068	0.034	0.391	2.783	1.904	1.904	1.904	1.924	1.899	1.904
0.029	0.000	0.005	0.015	-0.034	0.020	0.386	2.646	1.895	1.899	1.899	1.914	1.914	1.904
0.024	-0.005	0.005	0.005	0.034	-0.005	0.386	2.725	1.899	1.895	1.904	1.919	1.929	1.904
0.010	0.000	0.010	0.010	0.054	-0.020	0.386	2.734	1.895	1.899	1.899	1.919	1.929	1.909
0.005	0.000	0.000	0.000	0.059	-0.005	0.391	2.817	1.909	1.899	1.899	1.919	1.924	1.919
0.000	0.000	0.000	-0.005	0.015	-0.029	0.391	2.725	1.904	1.899	1.895	1.914	1.904	1.904
-0.010	0.000	0.000	-0.010	0.000	-0.034	0.386	2.642	1.899	1.899	1.895	1.914	1.899	1.904
0.000	-0.010	-0.005	-0.005	-0.039	-0.029	0.391	2.656	1.909	1.899	1.895	1.914	1.895	1.899
-0.015	-0.015	0.000	-0.005	-0.059	-0.054	0.386	2.739	1.904	1.899	1.895	1.914	1.895	1.890
-0.015	-0.005	0.000	0.005	-0.039	-0.005	0.396	2.642	1.895	1.899	1.895	1.914	1.909	1.909
-0.010	-0.005	0.000	0.000	0.005	-0.029	0.386	2.729	1.904	1.899	1.899	1.919	1.924	1.914
-0.015	0.000	0.000	0.010	0.103	0.034	0.386	2.656	1.904	1.909	1.904	1.924	1.953	1.943
-0.020	0.000	0.000	0.000	0.146	0.054	0.381	2.734	1.909	1.909	1.904	1.924	1.953	1.948
-0.015	-0.005	0.005	0.005	0.068	0.034	0.386	2.690	1.914	1.909	1.904	1.924	1.924	1.934
0.000	0.000	0.005	0.000	0.034	0.024	0.381	2.637	1.909	1.909	1.904	1.919	1.909	1.924
0.005	0.000	0.000	0.000	-0.010	0.010	0.396	2.695	1.909	1.909	1.904	1.919	1.899	1.914
-0.005	0.005	0.000	-0.005	-0.015	0.000	0.381	2.690	1.904	1.909	1.904	1.919	1.899	1.904
0.005	0.000	0.000	-0.010	0.000	0.005	0.386	2.681	1.904	1.904	1.904	1.919	1.914	1.909
0.015	-0.010	0.005	-0.005	0.029	0.020	0.386	2.686	1.904	1.904	1.904	1.919	1.919	1.914
0.034	0.000	0.000	0.000	-0.005	-0.034	0.386	2.700	1.909	1.904	1.899	1.919	1.904	1.899
0.010	0.010	0.000	0.000	0.000	-0.024	0.376	2.700	1.899	1.904	1.899	1.919	1.909	1.904
0.000	0.005	0.005	0.000	0.039	-0.029	0.386	2.695	1.899	1.895	1.895	1.919	1.919	1.904
-0.010	0.000	0.000	0.010	0.044	-0.039	0.381	2.700	1.895	1.895	1.895	1.919	1.919	1.904
-0.020	-0.010	0.010	0.000	0.024	-0.020	0.381	2.705	1.895	1.895	1.895	1.914	1.914	1.914
-0.010	0.005	0.005	0.000	0.020	0.000	0.381	2.681	1.899	1.895	1.899	1.914	1.909	1.919
-0.024	0.005	0.000	0.000	0.005	-0.005	0.386	2.690	1.899	1.895	1.899	1.914	1.909	1.914
-0.010	-0.005	0.005	0.000	-0.015	0.010	0.381	2.686	1.899	1.895	1.895	1.914	1.904	1.919
-0.005	0.000	0.005	-0.005	-0.020	0.024	0.381	2.681	1.904	1.899	1.899	1.914	1.909	1.919
0.005	0.005	0.000	0.000	-0.039	0.039	0.386	2.700	1.914	1.904	1.904	1.919	1.904	1.919
0.005	0.005	0.000	0.000	-0.039	0.015	0.386	2.700	1.914	1.909	1.904	1.914	1.904	1.909
0.010	0.005	0.005	-0.005	-0.049	-0.010	0.391	2.710	1.914	1.909	1.904	1.919	1.904	1.899
0.000	0.000	0.010	0.000	-0.073	-0.005	0.391	2.695	1.909	1.914	1.904	1.924	1.904	1.904
0.005	0.005	0.005	0.005	-0.068	-0.005	0.386	2.686	1.899	1.904	1.904	1.924	1.909	1.899
0.000	0.005	0.005	0.005	-0.054	-0.015	0.386	2.705	1.904	1.904	1.904	1.924	1.914	1.904
-0.005	0.005	0.000	0.005	-0.010	0.000	0.391	2.705	1.904	1.904	1.899	1.919	1.924	1.914
0.000	-0.005	0.000	0.000	0.010	0.020	0.391	2.686	1.904	1.899	1.899	1.919	1.924	1.924
0.000	0.015	-0.005	0.000	-0.005	0.015	0.391	2.676	1.899	1.899	1.899	1.914	1.914	1.924
0.000	-0.005	0.000	0.005	0.000	0.020	0.386	2.690	1.899	1.890	1.895	1.919	1.919	1.919
-0.005	-0.010	0.000	0.010	-0.010	0.034	0.386	2.651	1.895	1.895	1.895	1.914	1.909	1.919
0.005	-0.005	0.000	0.010	0.034	0.029	0.386	2.705	1.904	1.895	1.895	1.914	1.924	1.919
0.000	0.020	0.000	0.005	0.049	0.000	0.391	2.681	1.895	1.904	1.895	1.914	1.924	1.909
0.000	0.005	0.000	0.005	0.015	-0.005	0.381	2.666	1.895	1.899	1.895	1.914	1.909	1.909
0.000	0.010	0.005	0.005	0.005	-0.024	0.391	2.739	1.904	1.904	1.899	1.914	1.904	1.904
-0.010	0.000	0.000	0.015	-0.005	-0.039	0.391	2.676	1.904	1.899	1.899	1.919	1.909	1.904
0.005	0.005	0.000	0.020	0.005	-0.015	0.386	2.651	1.904	1.904	1.899	1.919	1.914	1.914
0.010	0.010	0.000	0.020	0.015	-0.020	0.391	2.734	1.914	1.909	1.899	1.924	1.919	1.914
0.005	0.005	0.000	0.015	0.049	-0.015	0.396	2.632	1.904	1.904	1.904	1.919	1.924	1.919
0.005	0.000	0.000	0.005	0.024	-0.015	0.396	2.744	1.914	1.904	1.904	1.919	1.919	1.919
-0.005	0.005	0.005	0.010	-0.005	0.005	0.391	2.632	1.895	1.904	1.904	1.919	1.909	1.919
0.000	-0.005	0.005	-0.005	-0.024	0.039	0.386	2.656	1.904	1.899	1.899	1.914	1.904	1.924
0.000	-0.005	0.005	0.000	-0.020	0.020	0.386	2.637	1.899	1.899	1.899	1.914	1.909	1.914
0.005	-0.005	-0.005	-0.010	0.000	0.034	0.391	2.671	1.899	1.899	1.895	1.914	1.909	1.914
0.015	0.010	0.000	-0.010	0.020	-0.010	0.391	2.734	1.904	1.899	1.899	1.914	1.914	1.909
0.010	0.010	-0.005	-0.005	0.029	0.000	0.386	2.690	1.899	1.899	1.895	1.914	1.914	1.914
0.015	0.024	0.000	-0.005	0.020	0.015	0.391	2.710	1.904	1.904	1.895	1.914	1.909	1.914
0.005	-0.005	-0.005	0.000	0.005	0.000	0.381	2.700	1.899	1.890	1.899	1.914	1.909	1.904
0.005	0.020	0.010	0.005	0.005	0.005	0.386	2.686	1.904	1.899	1.899	1.914	1.909	1.909
0.005	0.000	0.010	0.005	0.005	-0.005	0.381	2.705	1.904	1.899	1.899	1.919	1.909	1.909
-0.005	0.000	0.000	0.015	0.024	-0.015	0.391	2.681	1.895	1.899	1.899	1.919	1.914	1.909
0.015	0.010	0.000	0.010	0.034	-0.015	0.386	2.695	1.904	1.899	1.895	1.919	1.914	1.909
0.000	-0.010	0.000	0.005	0.024	0.000	0.381	2.705	1.909	1.899	1.899	1.919	1.914	1.919
0.010	0.000	0.000	0.005	0.010	-0.005	0.391	2.705	1.909	1.909	1.899	1.919	1.914	1.914
-0.005	0.000	0.000	0.000	0.020	0.010	0.386	2.695	1.904	1.904	1.904	1.919	1.914	1.924
-0.010	0.000	0.000	0.000	0.039	0.005	0.391	2.686	1.904	1.904	1.904	1.924	1.924	1.924
0.000	0.005	0.005	-0.005	0.044	0.005	0.386	2.700	1.909	1.904	1.904	1.919	1.919	1.919
-0.010	0.000	0.005	-0.015	-0.015	-0.010	0.400	2.695	1.909	1.904	1.904	1.914	1.904	1.909
0.005	0.000	0.000	-0.010	-0.034	-0.020	0.391	2.676	1.904	1.904	1.899	1.919	1.895	1.904
0.005	-0.010	0.000	-0.005	-0.049	-0.034	0.391	2.686	1.895	1.895	1.899	1.919	1.895	1.895
0.005	0.000	0.000	0.005	-0.029	-0.049	0.381	2.690	1.899	1.899	1.899	1.919	1.909	1.895
0.015	-0.005	0.000	0.005	-0.005	-0.029	0.391	2.676	1.899	1.899	1.899	1.919	1.914	1.904
0.034	0.005	0.005	0.005	0.015	-0.029	0.386	2.700	1.899	1.899	1.899	1.919	1.919	1.909
0.024	0.005	0.000	0.000	0.029	-0.015	0.396	2.700	1.899	1.895	1.895	1.919	1.919	1.914
0.024	-0.005	0.010	0.000	0.044	0.005	0.386	2.710	1.899	1.890	1.895	1.919	1.924	1.924
0.010	-0.005	0.005	0.010	0.034	0.000	0.391	2.686	1.899	1.899	1.895	1.919	1.919	1.924
0.010	0.000	0.005	0.005	0.024	0.034	0.376	2.681	1.899	1.899	1.895	1.914	1.914	1.929
0.000	0.000	0.000	0.000	-0.015	0.068	0.386	2.700	1.899	1.899	1.895	1.914	1.904	1.929
-0.005	0.010	0.000	0.000	-0.010	0.083	0.386	2.686	1.899	1.899	1.899	1.914	1.909	1.929
-0.005	0.005	0.000	0.000	-0.039	0.093	0.386	2.700	1.909	1.904	1.899	1.914	1.899	1.919
-0.010	-0.005	0.000	0.000	-0.044	0.068	0.376	2.651	1.904	1.904	1.895	1.914	1.904	1.909
-0.010	0.005	-0.005	0.000	-0.029	0.068	0.386	2.705	1.904	1.904	1.899	1.914	1.909	1.914
-0.005	-0.010	0.000	0.005	-0.029	0.029	0.381	2.798	1.904	1.899	1.899	1.919	1.909	1.904
-0.015	-0.005	0.000	0.000	-0.054	0.010	0.396	2.651	1.899	1.899	1.899	1.914	1.899	1.899
-0.015	0.005	-0.005	0.000	-0.073	-0.005	0.381	2.720	1.904	1.904	1.899	1.914	1.899	1.890
-0.020	0.000	0.000	0.000	-0.059	-0.024	0.391	2.651	1.895	1.895	1.895	1.914	1.904	1.890
-0.010	0.010	0.000	0.005	-0.034	-0.054	0.386	2.666	1.895	1.895	1.895	1.914	1.909	1.890
-0.010	-0.005	0.005	0.000	-0.015	-0.039	0.391	2.739	1.895	1.890	1.895	1.919	1.919	1.899
-0.010	-0.005	0.000	0.005	0.005	-0.039	0.396	2.632	1.890	1.890	1.890	1.914	1.919	1.909
-0.010	0.005	0.000	0.000	0.015	-0.039	0.386	2.637	1.899	1.895	1.890	1.909	1.919	1.904
-0.005	0.005	-0.005	0.000	0.000	-0.039	0.381	2.695	1.885	1.890	1.890	1.909	1.909	1.904
0.000	0.000	0.000	0.005	0.010	-0.059	0.381	2.734	1.895	1.890	1.890	1.909	1.914	1.904
0.005	-0.005	0.000	0.010	0.049	-0.029	0.381	2.734	1.909	1.895	1.890	1.914	1.924	1.919
0.005	-0.005	0.005	0.005	0.063	-0.039	0.391	2.676	1.904	1.895	1.895	1.909	1.924	1.919
-0.010	0.000	0.005	0.000	0.054	0.000	0.386	2.725	1.909	1.899	1.895	1.909	1.914	1.929
0.005	0.000	-0.005	0.005	0.029	0.005	0.381	2.700	1.909	1.904	1.899	1.914	1.909	1.924
0.005	0.005	0.000	-0.005	0.020	0.029	0.381	2.705	1.914	1.909	1.899	1.914	1.909	1.929
-0.005	0.000	0.000	0.000	0.068	0.039	0.391	2.700	1.914	1.909	1.904	1.919	1.924	1.924
-0.005	0.005	0.000	-0.005	0.063	0.044	0.386	2.686	1.914	1.914	1.904	1.914	1.924	1.929
0.005	0.000	-0.005	-0.005	0.034	-0.005	0.381	2.681	1.909	1.909	1.909	1.919	1.909	1.914
0.000	0.005	0.000	0.000	0.020	-0.005	0.386	2.686	1.904	1.909	1.909	1.919	1.904	1.904
0.005	0.000	-0.005	0.000	-0.005	-0.005	0.381	2.700	1.904	1.909	1.904	1.924	1.904	1.909
0.000	0.000	0.005	0.005	-0.005	0.015	0.391	2.705	1.904	1.904	1.904	1.924	1.904	1.909
0.005	-0.005	0.000	0.000	-0.049	0.034	0.381	2.705	1.904	1.899	1.899	1.919	1.899	1.909
0.015	0.000	0.000	0.010	-0.059	0.034	0.386	2.681	1.904	1.909	1.904	1.919	1.899	1.909
-0.005	0.005	-0.010	0.005	-0.049	0.039	0.376	2.700	1.895	1.899	1.904	1.919	1.904	1.909
0.000	0.010	0.005	0.005	-0.044	0.034	0.386	2.710	1.904	1.904	1.899	1.919	1.909	1.904
-0.020	0.015	0.005	0.010	-0.039	0.010	0.381	2.710	1.895	1.899	1.899	1.919	1.909	1.899
-0.005	0.024	0.010	0.010	-0.054	0.024	0.391	2.690	1.899	1.904	1.904	1.919	1.909	1.904
-0.005	0.005	0.010	0.005	-0.029	0.000	0.386	2.686	1.899	1.895	1.899	1.914	1.914	1.904
0.010	0.005	0.010	0.005	-0.029	0.005	0.386	2.686	1.899	1.895	1.899	1.914	1.909	1.904
-0.005	-0.005	0.000	0.000	-0.127	-0.054	0.381	2.690	1.899	1.895	1.895	1.914	1.885	1.885
0.015	-0.005	-0.005	-0.005	-0.142	-0.029	0.386	2.710	1.904	1.899	1.895	1.914	1.890	1.890
0.005	0.000	0.000	-0.005	-0.107	-0.039	0.386	2.710	1.904	1.904	1.899	1.914	1.909	1.895
-0.010	-0.005	-0.005	-0.005	0.029	-0.034	0.386	2.676	1.895	1.899	1.899	1.919	1.948	1.914
-0.015	-0.020	-0.005	-0.005	0.146	-0.029	0.386	2.686	1.895	1.895	1.899	1.924	1.973	1.934
-0.005	0.000	0.000	0.000	0.205	0.015	0.386	2.686	1.904	1.899	1.899	1.924	1.973	1.958
0.015	0.000	-0.005	0.005	0.225	0.029	0.381	2.705	1.909	1.904	1.904	1.924	1.963	1.968
0.024	0.005	0.005	0.000	0.137	0.010	0.386	2.690	1.914	1.909	1.899	1.919	1.929	1.948
0.015	0.005	0.000	0.005	0.073	0.024	0.381	2.690	1.909	1.909	1.904	1.914	1.904	1.934
0.010	0.005	0.005	0.005	0.015	0.010	0.391	2.651	1.904	1.909	1.904	1.919	1.890	1.914
0.010	0.000	0.000	0.015	-0.039	0.005	0.386	2.710	1.904	1.904	1.904	1.914	1.880	1.904
0.000	0.005	0.005	0.015	0.000	0.010	0.386	2.803	1.909	1.904	1.899	1.919	1.904	1.904
0.010	0.005	0.005	0.010	0.020	0.010	0.386	2.661	1.904	1.904	1.899	1.919	1.909	1.904
0.010	0.010	0.005	0.005	0.029	-0.010	0.386	2.734	1.909	1.904	1.899	1.914	1.909	1.904
0.024	0.000	0.005	0.005	0.010	0.010	0.386	2.744	1.919	1.904	1.899	1.914	1.904	1.904
0.034	0.000	0.005	-0.005	-0.020	-0.024	0.386	2.788	1.924	1.909	1.899	1.914	1.899	1.895
0.039	0.000	0.005	-0.005	-0.005	-0.029	0.391	2.729	1.909	1.909	1.904	1.914	1.909	1.899
0.034	0.000	0.005	-0.010	0.020	-0.029	0.386	2.651	1.904	1.909	1.909	1.919	1.914	1.904
0.039	-0.010	0.005	-0.005	0.015	-0.029	0.386	2.656	1.904	1.904	1.909	1.924	1.914	1.904
0.029	0.000	0.000	0.000	-0.005	-0.005	0.386	2.734	1.909	1.914	1.909	1.929	1.914	1.914
0.005	0.000	0.000	0.000	-0.020	0.010	0.391	2.632	1.895	1.904	1.909	1.924	1.909	1.914
0.005	-0.010	0.000	0.000	-0.039	0.015	0.386	2.734	1.904	1.899	1.904	1.924	1.909	1.924
-0.010	-0.010	0.000	-0.005	-0.034	0.020	0.391	2.676	1.899	1.899	1.904	1.924	1.914	1.919
-0.010	-0.010	0.000	-0.005	-0.015	-0.010	0.386	2.651	1.895	1.899	1.904	1.924	1.919	1.909
-0.010	0.000	0.005	0.010	0.005	0.020	0.386	2.686	1.890	1.899	1.899	1.924	1.929	1.924
-0.010	0.000	0.005	0.020	0.029	0.010	0.386	2.642	1.890	1.895	1.895	1.924	1.929	1.919
-0.015	0.005	0.000	0.024	0.020	-0.005	0.386	2.690	1.895	1.895	1.895	1.924	1.924	1.914
-0.020	0.015	-0.005	0.024	0.015	-0.024	0.376	2.676	1.890	1.895	1.895	1.919	1.914	1.909
-0.020	0.029	-0.005	0.015	0.000	0.010	0.381	2.681	1.890	1.895	1.895	1.914	1.909	1.924
-0.005	0.024	-0.005	0.020	-0.010	-0.005	0.381	2.676	1.895	1.895	1.890	1.909	1.904	1.909
-0.005	0.015	0.000	0.010	-0.029	-0.010	0.391	2.700	1.899	1.895	1.890	1.909	1.899	1.904
-0.034	0.010	0.005	0.005	-0.039	-0.005	0.391	2.710	1.895	1.890	1.890	1.909	1.899	1.904
-0.020	-0.005	0.005	-0.005	-0.044	0.000	0.391	2.700	1.899	1.890	1.890	1.909	1.899	1.904
-0.015	0.000	0.005	-0.010	-0.029	0.000	0.386	2.705	1.904	1.895	1.895	1.904	1.904	1.909
-0.015	-0.020	0.000	-0.005	-0.020	0.000	0.381	2.681	1.904	1.890	1.890	1.909	1.909	1.909
-0.015	-0.024	0.000	0.000	-0.010	0.015	0.381	2.700	1.909	1.895	1.895	1.909	1.914	1.914
-0.005	-0.010	0.005	-0.010	-0.010	0.020	0.381	2.686	1.914	1.904	1.899	1.909	1.914	1.914
0.000	0.024	0.005	-0.015	0.015	-0.005	0.386	2.690	1.914	1.919	1.899	1.909	1.914	1.909
0.015	0.039	0.005	-0.015	0.034	0.020	0.391	2.705	1.919	1.919	1.909	1.919	1.919	1.924
0.015	-0.005	0.000	-0.005	0.039	0.005	0.386	2.705	1.914	1.904	1.904	1.924	1.919	1.919
0.020	-0.029	-0.005	0.005	-0.005	-0.005	0.381	2.695	1.909	1.899	1.899	1.919	1.904	1.909
0.024	-0.015	0.000	0.005	-0.044	0.015	0.386	2.681	1.909	1.909	1.899	1.919	1.899	1.909
0.010	0.010	0.000	0.015	-0.054	0.005	0.386	2.700	1.899	1.909	1.899	1.919	1.899	1.899
0.010	0.010	0.000	0.010	-0.034	-0.005	0.391	2.690	1.899	1.904	1.899	1.919	1.909	1.904
-0.005	0.005	0.000	0.005	-0.010	0.000	0.386	2.700	1.890	1.899	1.899	1.919	1.914	1.904
0.005	0.010	0.000	0.005	0.020	0.020	0.391	2.686	1.895	1.895	1.899	1.919	1.924	1.919
-0.010	0.020	0.005	0.005	0.068	0.005	0.376	2.695	1.895	1.895	1.899	1.919	1.934	1.924
-0.005	0.005	0.000	0.005	0.088	0.015	0.386	2.681	1.895	1.895	1.895	1.919	1.934	1.929
-0.005	-0.005	0.005	-0.005	0.059	0.015	0.386	2.690	1.899	1.890	1.895	1.914	1.919	1.924
-0.005	-0.010	0.005	-0.005	-0.034	0.015	0.396	2.671	1.899	1.895	1.895	1.909	1.890	1.909
-0.005	-0.005	0.010	-0.005	-0.093	0.020	0.381	2.739	1.909	1.895	1.895	1.914	1.880	1.904
0.000	0.000	0.010	0.000	-0.044	0.015	0.386	2.646	1.904	1.904	1.899	1.914	1.909	1.909
-0.005	0.024	-0.005	0.000	0.024	-0.015	0.386	2.661	1.899	1.904	1.899	1.919	1.924	1.899
-0.010	0.015	0.000	0.010	0.054	-0.020	0.396	2.754	1.909	1.904	1.899	1.924	1.929	1.909
-0.005	0.005	0.000	0.010	0.063	-0.029	0.391	2.637	1.899	1.899	1.899	1.919	1.929	1.914
-0.010	-0.005	0.000	-0.005	0.024	-0.024	0.391	2.666	1.909	1.904	1.904	1.914	1.914	1.914
-0.005	0.000	0.005	0.000	0.005	-0.024	0.386	2.729	1.914	1.909	1.899	1.919	1.909	1.909
0.005	-0.005	0.000	0.005	-0.010	-0.020	0.391	2.720	1.914	1.909	1.904	1.919	1.909	1.914
0.000	0.015	-0.005	0.000	-0.010	0.024	0.386	2.637	1.904	1.909	1.899	1.919	1.909	1.919
0.005	0.020	0.000	0.000	-0.005	0.044	0.386	2.759	1.909	1.909	1.904	1.919	1.909	1.919
0.010	-0.010	0.000	0.000	-0.020	0.044	0.381	2.627	1.899	1.899	1.899	1.909	1.904	1.919
0.024	-0.005	0.000	-0.010	-0.020	0.044	0.386	2.739	1.909	1.899	1.895	1.914	1.909	1.909
0.015	-0.005	-0.005	0.000	0.020	0.024	0.386	2.676	1.899	1.899	1.899	1.914	1.919	1.909
0.010	-0.005	0.000	0.000	0.020	0.020	0.386	2.661	1.890	1.899	1.899	1.914	1.919	1.909
0.015	-0.005	0.005	0.000	-0.015	-0.010	0.381	2.705	1.899	1.899	1.899	1.914	1.904	1.899
0.005	-0.005	0.010	0.005	-0.029	-0.029	0.381	2.749	1.904	1.899	1.899	1.919	1.899	1.895
0.000	-0.010	0.005	0.020	-0.029	-0.015	0.386	2.690	1.899	1.899	1.899	1.924	1.909	1.904
-0.005	-0.005	0.005	0.024	-0.029	0.005	0.381	2.681	1.895	1.899	1.899	1.924	1.909	1.914
-0.005	0.015	0.000	0.024	-0.049	0.024	0.386	2.676	1.899	1.909	1.899	1.919	1.909	1.919
-0.010	0.034	0.005	0.020	-0.068	0.034	0.381	2.690	1.904	1.914	1.904	1.924	1.909	1.924
0.005	0.034	0.005	0.015	-0.039	0.049	0.391	2.686	1.909	1.909	1.904	1.924	1.919	1.919
0.015	0.020	0.005	0.005	0.054	0.044	0.386	2.695	1.909	1.904	1.904	1.924	1.943	1.929
0.024	0.005	0.000	-0.005	0.073	0.015	0.396	2.686	1.909	1.899	1.904	1.919	1.938	1.924
0.015	-0.015	0.000	-0.005	0.073	0.005	0.376	2.705	1.904	1.895	1.899	1.919	1.934	1.924
0.005	-0.020	0.000	-0.005	0.054	-0.010	0.391	2.671	1.904	1.899	1.899	1.914	1.919	1.919
0.015	-0.020	0.000	-0.010	0.039	-0.015	0.381	2.695	1.904	1.899	1.895	1.914	1.914	1.914
0.005	-0.015	0.000	-0.010	0.039	-0.044	0.381	2.686	1.899	1.899	1.895	1.909	1.909	1.899
0.015	-0.010	0.000	-0.005	0.029	-0.059	0.386	2.700	1.899	1.899	1.895	1.914	1.904	1.899
0.010	0.005	0.005	-0.005	0.020	-0.073	0.391	2.700	1.895	1.899	1.895	1.909	1.904	1.895
0.000	-0.010	0.005	0.000	0.000	-0.039	0.381	2.700	1.895	1.895	1.895	1.909	1.899	1.904
0.000	0.010	-0.005	0.005	0.005	-0.059	0.396	2.700	1.895	1.895	1.895	1.914	1.904	1.899
-0.010	0.005	-0.005	0.005	0.000	0.000	0.386	2.705	1.895	1.899	1.895	1.914	1.909	1.919
0.000	0.015	0.005	0.005	0.005	-0.005	0.391	2.710	1.909	1.904	1.899	1.914	1.909	1.919
0.005	0.010	0.000	0.005	0.005	0.029	0.381	2.681	1.904	1.899	1.899	1.914	1.909	1.924
0.010	0.005	0.000	0.005	0.005	0.015	0.386	2.676	1.909	1.904	1.904	1.919	1.914	1.919
0.010	-0.005	0.000	0.005	0.005	0.020	0.391	2.695	1.909	1.899	1.899	1.919	1.914	1.919
0.015	0.000	0.005	0.005	0.010	0.020	0.396	2.705	1.909	1.904	1.904	1.919	1.919	1.919
-0.010	-0.005	0.005	0.005	0.020	0.010	0.386	2.705	1.909	1.904	1.904	1.924	1.919	1.914
-0.015	-0.005	0.010	0.000	0.010	-0.010	0.381	2.705	1.909	1.904	1.904	1.924	1.914	1.914
-0.005	0.000	0.005	0.005	-0.010	0.020	0.381	2.651	1.904	1.904	1.904	1.919	1.914	1.914
0.000	-0.010	0.005	0.000	-0.010	0.029	0.386	2.705	1.904	1.904	1.899	1.919	1.909	1.919
0.000	0.005	-0.005	-0.005	-0.029	0.029	0.386	2.793	1.899	1.904	1.899	1.919	1.904	1.914
-0.005	0.015	0.000	-0.005	-0.029	0.029	0.386	2.651	1.899	1.904	1.899	1.914	1.909	1.914
-0.010	0.015	0.005	0.005	-0.034	0.039	0.386	2.725	1.899	1.899	1.899	1.914	1.909	1.914
-0.010	-0.020	0.000	0.000	-0.039	0.034	0.386	2.739	1.895	1.890	1.895	1.914	1.904	1.909
-0.005	-0.005	0.000	0.005	-0.039	-0.005	0.386	2.651	1.890	1.895	1.895	1.914	1.904	1.899
-0.005	0.010	0.000	-0.005	-0.054	0.020	0.386	2.739	1.899	1.895	1.895	1.909	1.899	1.904
-0.010	0.024	0.000	0.005	-0.063	0.010	0.386	2.637	1.890	1.899	1.895	1.909	1.899	1.899
0.015	0.020	0.000	0.000	-0.063	-0.010	0.376	2.734	1.899	1.899	1.895	1.914	1.904	1.895
0.005	0.010	0.000	0.000	-0.010	-0.039	0.391	2.739	1.904	1.899	1.899	1.914	1.919	1.895
0.010	0.020	0.005	-0.005	0.049	-0.068	0.386	2.642	1.899	1.899	1.899	1.914	1.934	1.904
0.010	-0.024	0.000	-0.005	0.093	-0.044	0.391	2.632	1.895	1.885	1.895	1.919	1.938	1.919
0.024	-0.044	0.005	0.000	0.088	-0.054	0.386	2.666	1.899	1.885	1.895	1.919	1.934	1.919
0.000	-0.010	0.000	0.000	0.059	-0.005	0.391	2.642	1.890	1.895	1.895	1.914	1.919	1.934
0.005	0.000	0.000	0.000	0.034	0.015	0.386	2.686	1.895	1.899	1.895	1.914	1.914	1.934
-0.010	-0.005	0.000	-0.005	0.010	0.029	0.391	2.646	1.904	1.899	1.895	1.909	1.899	1.929
-0.005	-0.010	0.000	0.000	-0.059	0.039	0.381	2.681	1.904	1.895	1.895	1.914	1.885	1.914
0.000	0.000	0.005	0.000	-0.127	0.039	0.381	2.681	1.904	1.899	1.899	1.909	1.875	1.899
-0.005	-0.005	0.005	0.000	-0.166	0.024	0.381	2.695	1.899	1.899	1.895	1.914	1.875	1.890
-0.010	-0.005	0.005	0.005	-0.137	0.049	0.391	2.686	1.895	1.899	1.895	1.914	1.890	1.899
0.000	0.015	0.000	0.005	-0.073	0.049	0.386	2.705	1.899	1.899	1.895	1.914	1.909	1.899
-0.005	0.044	0.000	0.005	-0.039	0.005	0.386	2.700	1.899	1.904	1.899	1.909	1.914	1.895
0.000	-0.005	0.000	0.005	-0.010	-0.005	0.381	2.710	1.895	1.890	1.890	1.914	1.919	1.899
-0.005	0.015	0.005	0.005	-0.010	0.005	0.381	2.690	1.895	1.899	1.890	1.914	1.919	1.909
0.000	0.015	0.000	0.005	0.044	-0.024	0.386	2.681	1.895	1.895	1.895	1.914	1.934	1.909
-0.005	0.010	0.005	0.005	0.112	-0.015	0.386	2.686	1.899	1.890	1.895	1.914	1.943	1.924
0.010	-0.005	-0.005	0.005	0.181	0.000	0.381	2.686	1.899	1.890	1.895	1.919	1.958	1.938
0.000	-0.005	0.000	0.005	0.195	0.000	0.386	2.690	1.904	1.895	1.895	1.919	1.948	1.938
0.015	-0.010	0.000	0.005	0.166	0.000	0.386	2.690	1.914	1.904	1.895	1.919	1.929	1.934
-0.005	-0.005	0.005	0.005	0.112	-0.015	0.381	2.681	1.909	1.904	1.899	1.914	1.909	1.929
0.000	0.005	0.000	0.000	0.078	-0.029	0.381	2.700	1.914	1.909	1.899	1.914	1.899	1.909
0.000	-0.005	0.005	0.000	0.029	-0.024	0.381	2.710	1.909	1.909	1.899	1.919	1.890	1.904
0.000	-0.010	0.005	0.000	0.000	-0.039	0.381	2.686	1.909	1.904	1.904	1.914	1.890	1.899
0.005	0.000	0.000	0.000	-0.020	-0.029	0.381	2.700	1.904	1.904	1.904	1.914	1.890	1.899
-0.005	-0.005	0.000	0.000	0.000	-0.044	0.391	2.686	1.899	1.899	1.904	1.914	1.899	1.895
-0.005	0.005	0.005	0.000	0.044	-0.034	0.386	2.700	1.899	1.899	1.899	1.919	1.914	1.904
0.000	0.005	0.000	-0.005	0.010	-0.039	0.386	2.700	1.895	1.899	1.895	1.914	1.904	1.899
0.000	-0.005	0.005	-0.005	-0.068	-0.010	0.381	2.700	1.899	1.895	1.895	1.909	1.880	1.899
-0.005	0.000	0.000	0.000	-0.083	-0.005	0.386	2.686	1.895	1.895	1.895	1.909	1.885	1.899
0.000	-0.005	0.000	0.005	-0.059	0.054	0.381	2.637	1.890	1.890	1.890	1.914	1.899	1.914
-0.020	0.000	-0.005	0.005	-0.029	0.063	0.391	2.710	1.885	1.890	1.890	1.909	1.909	1.914
-0.010	0.005	0.000	-0.005	-0.044	0.063	0.391	2.793	1.904	1.895	1.890	1.909	1.904	1.909
-0.015	0.015	0.000	0.005	-0.054	0.059	0.386	2.656	1.904	1.899	1.895	1.914	1.904	1.909
-0.010	-0.005	0.000	0.005	-0.005	0.039	0.386	2.734	1.914	1.904	1.895	1.914	1.924	1.909
0.005	0.020	0.005	0.000	0.039	0.049	0.381	2.646	1.909	1.909	1.904	1.919	1.934	1.919
0.010	0.005	0.005	0.005	0.049	0.059	0.381	2.661	1.909	1.909	1.904	1.919	1.929	1.924
0.024	0.010	0.000	0.005	0.020	0.059	0.386	2.720	1.919	1.914	1.904	1.919	1.919	1.924
0.029	0.034	0.000	0.010	-0.005	0.020	0.376	2.642	1.909	1.919	1.909	1.924	1.914	1.909
0.034	0.010	0.000	0.005	-0.005	0.024	0.386	2.642	1.904	1.909	1.909	1.924	1.914	1.914
0.024	0.005	0.000	0.000	0.024	-0.015	0.381	2.651	1.899	1.904	1.909	1.924	1.919	1.904
0.020	0.005	0.000	0.000	-0.010	0.000	0.386	2.642	1.890	1.899	1.904	1.919	1.909	1.909
0.024	0.000	0.005	0.005	-0.029	-0.005	0.381	2.744	1.904	1.899	1.899	1.919	1.909	1.904
0.010	0.000	0.005	0.010	-0.029	-0.044	0.391	2.666	1.895	1.895	1.899	1.919	1.909	1.895
-0.005	0.005	0.000	0.000	-0.020	-0.015	0.386	2.734	1.890	1.895	1.895	1.914	1.914	1.904
-0.015	-0.005	0.000	-0.005	0.000	-0.068	0.391	2.700	1.885	1.885	1.890	1.909	1.914	1.895
-0.015	-0.005	0.005	-0.005	-0.005	-0.049	0.386	2.637	1.895	1.890	1.890	1.909	1.909	1.899
-0.015	-0.005	0.005	0.005	0.015	-0.039	0.381	2.686	1.895	1.890	1.890	1.909	1.914	1.909
-0.010	-0.015	0.000	0.005	0.005	-0.024	0.381	2.686	1.895	1.890	1.890	1.909	1.909	1.914
-0.015	0.000	0.000	0.005	-0.005	0.005	0.376	2.681	1.895	1.895	1.890	1.909	1.904	1.924
-0.005	0.005	0.005	0.000	-0.015	0.024	0.391	2.686	1.904	1.899	1.890	1.909	1.904	1.924
-0.005	0.000	0.005	0.000	-0.024	0.034	0.391	2.681	1.909	1.899	1.895	1.909	1.904	1.919
0.005	0.015	0.000	0.005	-0.015	0.034	0.391	2.700	1.909	1.904	1.895	1.914	1.909	1.914
0.015	-0.020	0.000	0.000	-0.024	0.015	0.391	2.695	1.909	1.895	1.895	1.914	1.904	1.909
0.015	-0.024	0.000	0.005	-0.024	-0.010	0.396	2.705	1.914	1.899	1.895	1.914	1.904	1.904
0.015	-0.010	0.000	0.015	-0.015	-0.024	0.391	2.690	1.909	1.909	1.904	1.919	1.909	1.904
0.010	-0.010	0.000	0.010	-0.010	-0.044	0.391	2.681	1.904	1.904	1.904	1.919	1.909	1.899
0.000	0.000	0.000	0.005	-0.015	-0.029	0.381	2.715	1.899	1.904	1.899	1.919	1.914	1.904
0.005	-0.005	-0.005	0.005	-0.020	-0.010	0.381	2.695	1.899	1.904	1.899	1.919	1.914	1.914
0.000	0.000	-0.005	0.005	-0.034	-0.010	0.381	2.705	1.899	1.904	1.899	1.914	1.909	1.909
-0.005	0.010	0.000	0.000	-0.020	-0.034	0.381	2.690	1.895	1.899	1.899	1.914	1.909	1.904
-0.005	-0.005	0.000	0.000	0.015	-0.005	0.376	2.695	1.890	1.895	1.895	1.914	1.924	1.914
-0.010	-0.020	0.000	0.000	0.054	0.010	0.386	2.700	1.895	1.890	1.895	1.909	1.924	1.924
0.000	0.000	0.000	-0.010	0.034	0.000	0.381	2.700	1.899	1.899	1.895	1.909	1.909	1.919
-0.005	0.010	0.000	-0.005	0.020	0.010	0.391	2.710	1.899	1.899	1.895	1.909	1.904	1.914
0.000	0.000	0.000	-0.010	0.015	0.029	0.386	2.705	1.899	1.899	1.895	1.909	1.909	1.919
-0.005	-0.005	0.000	-0.005	0.005	0.010	0.391	2.705	1.904	1.895	1.895	1.909	1.904	1.909
-0.005	0.020	0.005	0.005	-0.024	0.005	0.396	2.700	1.904	1.909	1.899	1.914	1.895	1.904
0.000	0.020	0.000	0.000	-0.024	0.015	0.391	2.710	1.909	1.909	1.899	1.914	1.904	1.904
0.000	0.020	0.000	0.000	0.005	0.020	0.386	2.700	1.909	1.909	1.904	1.919	1.914	1.914
0.000	0.024	0.005	0.005	0.010	0.005	0.381	2.656	1.904	1.909	1.904	1.924	1.914	1.909
-0.005	0.005	0.000	0.005	0.034	0.029	0.386	2.720	1.909	1.904	1.904	1.924	1.929	1.924
0.000	0.000	0.005	0.005	0.039	0.000	0.386	2.793	1.919	1.904	1.904	1.924	1.924	1.914
0.000	0.010	0.005	0.000	0.049	0.034	0.386	2.661	1.914	1.909	1.904	1.924	1.929	1.929
0.000	-0.010	0.005	0.005	0.015	0.044	0.386	2.729	1.914	1.904	1.904	1.919	1.914	1.924
0.005	0.000	-0.005	0.000	-0.029	0.029	0.386	2.656	1.904	1.904	1.899	1.919	1.899	1.914
-0.005	-0.005	-0.005	0.005	-0.034	-0.005	0.391	2.676	1.899	1.899	1.899	1.919	1.899	1.904
-0.005	0.000	0.000	0.005	-0.034	-0.020	0.391	2.632	1.904	1.904	1.899	1.919	1.904	1.895
0.000	0.005	0.005	0.005	-0.034	-0.034	0.391	2.651	1.899	1.904	1.899	1.919	1.904	1.895
-0.005	0.000	-0.005	0.000	-0.024	-0.029	0.391	2.739	1.895	1.895	1.895	1.914	1.909	1.899
0.005	-0.010	0.005	0.005	0.034	-0.034	0.386	2.749	1.904	1.895	1.899	1.914	1.924	1.909
0.010	-0.020	0.005	0.000	0.068	-0.029	0.386	2.637	1.899	1.890	1.895	1.914	1.929	1.914
0.000	-0.005	0.005	0.000	0.093	-0.039	0.381	2.637	1.890	1.895	1.895	1.914	1.929	1.914
0.000	0.000	0.005	0.000	0.068	-0.073	0.386	2.681	1.895	1.899	1.895	1.914	1.919	1.904
0.000	-0.010	0.000	0.000	0.044	-0.044	0.376	2.739	1.899	1.895	1.895	1.914	1.909	1.919
0.005	-0.010	0.005	0.005	0.024	-0.015	0.386	2.690	1.904	1.904	1.899	1.914	1.909	1.924
0.005	0.005	0.010	0.005	-0.020	0.010	0.381	2.646	1.899	1.904	1.899	1.914	1.899	1.919
0.005	0.005	0.000	0.005	-0.039	0.029	0.391	2.700	1.904	1.899	1.899	1.919	1.895	1.924
0.000	0.000	0.000	0.010	-0.127	0.054	0.386	2.676	1.899	1.899	1.899	1.919	1.880	1.914
-0.005	0.015	0.000	0.005	-0.171	0.083	0.386	2.700	1.904	1.904	1.899	1.914	1.880	1.914
0.015	0.005	0.000	0.000	-0.171	0.122	0.386	2.686	1.899	1.904	1.899	1.914	1.890	1.914
0.010	0.015	0.005	0.000	-0.186	0.146	0.386	2.700	1.899	1.904	1.899	1.914	1.890	1.914
0.000	0.010	0.000	-0.005	-0.181	0.117	0.386	2.710	1.899	1.895	1.895	1.914	1.899	1.899
0.005	0.005	0.000	-0.005	-0.122	0.103	0.386	2.690	1.899	1.895	1.895	1.914	1.914	1.904
-0.005	0.000	0.000	0.000	0.005	0.044	0.381	2.695	1.895	1.895	1.895	1.919	1.948	1.904
-0.005	0.005	0.005	0.005	0.117	-0.015	0.386	2.695	1.895	1.895	1.899	1.919	1.963	1.899
0.000	-0.005	0.000	0.005	0.220	-0.068	0.381	2.700	1.890	1.890	1.895	1.919	1.978	1.909
0.024	0.005	0.000	0.000	0.249	-0.103	0.386	2.686	1.899	1.895	1.890	1.919	1.963	1.919
0.020	0.010	0.005	0.000	0.166	-0.088	0.381	2.700	1.899	1.899	1.895	1.909	1.929	1.919
0.005	0.020	0.000	0.005	0.195	-0.068	0.386	2.681	1.895	1.899	1.895	1.914	1.938	1.929
-0.010	-0.005	-0.005	0.000	0.264	-0.039	0.396	2.686	1.899	1.895	1.895	1.914	1.948	1.943
-0.024	0.010	0.000	0.005	0.171	-0.049	0.396	2.686	1.899	1.895	1.895	1.914	1.909	1.929
-0.034	0.010	0.005	0.010	0.117	-0.034	0.386	2.710	1.904	1.899	1.895	1.919	1.899	1.924
-0.024	0.005	0.000	0.005	0.093	-0.029	0.391	2.700	1.909	1.904	1.899	1.914	1.895	1.919
-0.029	-0.005	0.000	0.000	0.024	-0.029	0.386	2.681	1.909	1.904	1.899	1.909	1.880	1.904
-0.029	-0.015	0.005	0.010	-0.044	-0.024	0.386	2.695	1.904	1.899	1.895	1.914	1.870	1.895
-0.020	0.000	0.000	0.005	-0.073	-0.029	0.386	2.710	1.909	1.904	1.899	1.909	1.875	1.885
0.000	-0.005	0.000	0.000	-0.049	-0.010	0.381	2.705	1.909	1.904	1.899	1.914	1.895	1.895
0.005	-0.010	0.005	0.000	-0.020	0.020	0.386	2.705	1.914	1.909	1.904	1.914	1.904	1.904
0.005	-0.010	0.000	-0.005	-0.044	0.010	0.376	2.695	1.909	1.904	1.899	1.914	1.895	1.899
0.024	0.000	-0.005	-0.005	-0.088	0.005	0.381	2.656	1.899	1.904	1.899	1.909	1.885	1.890
0.044	0.000	0.000	0.000	-0.083	-0.005	0.386	2.710	1.899	1.899	1.899	1.914	1.895	1.890
0.054	0.000	0.005	0.000	-0.088	0.010	0.386	2.798	1.914	1.904	1.899	1.914	1.895	1.895
0.059	-0.010	0.000	0.010	-0.103	0.024	0.381	2.651	1.904	1.904	1.895	1.914	1.895	1.899
0.054	0.000	0.000	0.005	-0.127	0.000	0.386	2.729	1.904	1.899	1.899	1.914	1.890	1.890
0.044	-0.005	0.000	0.010	-0.117	0.015	0.381	2.729	1.899	1.899	1.899	1.919	1.904	1.899
0.039	-0.005	0.000	0.005	-0.068	0.063	0.381	2.666	1.895	1.899	1.899	1.919	1.919	1.919
0.020	0.000	0.005	0.005	-0.039	0.059	0.386	2.729	1.899	1.899	1.899	1.919	1.929	1.919
-0.005	0.020	0.005	0.005	-0.034	0.034	0.391	2.651	1.890	1.899	1.899	1.919	1.929	1.919
-0.010	0.024	0.005	0.000	-0.010	0.049	0.381	2.744	1.899	1.904	1.904	1.924	1.934	1.929
-0.020	0.024	0.000	-0.005	0.029	0.049	0.386	2.759	1.904	1.904	1.904	1.919	1.934	1.929
-0.020	0.010	0.000	-0.010	0.005	0.020	0.381	2.637	1.899	1.899	1.899	1.919	1.924	1.919
-0.024	-0.005	0.000	0.000	0.000	0.010	0.396	2.661	1.899	1.895	1.899	1.924	1.919	1.919
-0.020	-0.005	0.000	0.005	0.000	-0.034	0.386	2.666	1.899	1.895	1.899	1.919	1.919	1.909
-0.010	0.020	0.000	0.005	0.166	-0.024	0.396	2.651	1.895	1.904	1.899	1.924	1.973	1.929
-0.020	0.034	-0.005	0.005	0.283	-0.020	0.381	2.676	1.899	1.904	1.904	1.924	1.982	1.943
-0.020	0.015	-0.005	0.005	0.220	-0.039	0.391	2.627	1.904	1.899	1.899	1.919	1.943	1.934
-0.010	0.005	0.000	0.005	0.093	-0.020	0.386	2.690	1.899	1.895	1.895	1.914	1.899	1.929
-0.010	-0.029	0.000	0.005	-0.015	-0.024	0.391	2.690	1.899	1.885	1.890	1.909	1.875	1.909
-0.010	-0.029	0.005	0.000	-0.054	-0.029	0.386	2.686	1.895	1.885	1.885	1.904	1.870	1.899
0.000	-0.015	0.010	0.000	-0.059	-0.024	0.381	2.695	1.904	1.895	1.890	1.904	1.875	1.890
0.000	-0.015	0.000	0.000	-0.039	-0.034	0.386	2.710	1.904	1.895	1.890	1.909	1.890	1.885
0.000	-0.005	0.005	0.000	-0.020	-0.034	0.386	2.705	1.899	1.899	1.895	1.904	1.895	1.890
0.005	0.000	0.005	0.005	-0.024	0.000	0.391	2.705	1.899	1.904	1.895	1.909	1.899	1.904
0.010	0.000	0.005	0.010	-0.029	0.015	0.386	2.705	1.909	1.909	1.895	1.914	1.904	1.904
0.005	0.010	0.000	0.005	-0.024	0.024	0.391	2.681	1.904	1.914	1.899	1.914	1.909	1.914
-0.010	0.005	0.000	0.005	-0.020	0.034	0.386	2.686	1.899	1.904	1.904	1.919	1.909	1.914
-0.010	0.010	0.005	0.005	-0.029	0.029	0.386	2.690	1.904	1.909	1.904	1.919	1.909	1.914
0.000	0.015	0.005	0.000	-0.034	0.049	0.386	2.715	1.909	1.909	1.904	1.919	1.909	1.914
-0.005	0.024	0.005	0.000	-0.034	0.039	0.381	2.710	1.909	1.909	1.909	1.919	1.909	1.914
0.005	0.015	0.000	0.000	-0.029	0.024	0.376	2.705	1.914	1.909	1.904	1.924	1.914	1.909
0.005	0.020	-0.005	0.000	-0.029	0.005	0.381	2.676	1.904	1.909	1.904	1.919	1.914	1.904
0.010	0.020	0.005	0.005	-0.034	0.010	0.381	2.700	1.904	1.909	1.904	1.919	1.909	1.904
0.010	0.024	0.000	0.005	-0.020	0.010	0.386	2.710	1.904	1.904	1.904	1.924	1.914	1.909
0.010	0.020	0.005	0.005	-0.015	0.015	0.396	2.705	1.904	1.904	1.899	1.919	1.919	1.909
0.024	0.010	0.000	0.005	-0.010	0.010	0.396	2.686	1.899	1.899	1.899	1.919	1.919	1.914
0.015	-0.015	-0.005	0.010	-0.010	-0.005	0.386	2.681	1.895	1.890	1.895	1.914	1.914	1.909
0.000	-0.039	0.000	0.005	-0.005	-0.005	0.381	2.690	1.890	1.880	1.890	1.914	1.914	1.909
0.005	-0.010	0.000	0.005	0.000	-0.010	0.386	2.690	1.899	1.895	1.890	1.914	1.914	1.909
0.005	0.000	0.000	0.000	-0.005	-0.020	0.391	2.705	1.904	1.899	1.890	1.914	1.909	1.904
0.005	-0.005	0.000	0.005	0.000	-0.010	0.391	2.646	1.895	1.899	1.895	1.914	1.909	1.909
0.005	-0.005	-0.005	0.005	0.000	-0.010	0.391	2.705	1.899	1.899	1.895	1.914	1.909	1.909
0.010	-0.010	0.000	0.000	-0.005	-0.005	0.386	2.793	1.914	1.899	1.895	1.914	1.909	1.914
-0.005	-0.015	0.010	0.000	0.005	-0.024	0.381	2.666	1.909	1.899	1.899	1.914	1.914	1.909
0.000	0.005	0.005	0.000	0.010	-0.024	0.381	2.744	1.914	1.909	1.899	1.919	1.914	1.914
-0.005	0.000	0.005	-0.005	0.010	-0.024	0.386	2.729	1.914	1.909	1.899	1.914	1.914	1.909
0.000	-0.010	0.005	-0.005	0.010	-0.054	0.386	2.666	1.909	1.909	1.904	1.919	1.909	1.904
0.005	0.000	0.000	-0.005	0.005	-0.054	0.386	2.642	1.904	1.904	1.899	1.919	1.914	1.909
-0.005	-0.010	0.000	-0.005	0.015	-0.015	0.386	2.651	1.899	1.904	1.904	1.919	1.914	1.919
-0.010	-0.005	0.000	0.000	0.000	0.024	0.386	2.749	1.904	1.899	1.899	1.919	1.909	1.929
-0.005	0.010	0.005	0.000	-0.015	0.024	0.391	2.744	1.909	1.904	1.899	1.919	1.909	1.924
0.005	0.029	0.000	0.000	-0.010	0.034	0.381	2.729	1.914	1.909	1.899	1.919	1.909	1.919
-0.005	0.020	0.005	0.000	-0.024	0.059	0.391	2.646	1.899	1.909	1.899	1.919	1.909	1.924
0.000	0.005	0.005	0.015	-0.020	0.073	0.381	2.656	1.899	1.899	1.899	1.919	1.909	1.924
0.000	-0.005	0.000	0.015	-0.015	0.098	0.391	2.720	1.904	1.895	1.899	1.919	1.914	1.929
0.015	0.020	0.000	0.020	0.010	0.127	0.386	2.695	1.909	1.904	1.899	1.919	1.924	1.938
0.005	0.010	0.000	0.015	0.029	0.137	0.381	2.637	1.904	1.904	1.904	1.919	1.929	1.934
0.000	0.005	0.005	0.010	0.039	0.068	0.391	2.681	1.904	1.904	1.904	1.919	1.924	1.914
-0.005	0.005	0.010	0.000	0.059	-0.020	0.386	2.690	1.904	1.904	1.904	1.919	1.924	1.890
0.005	-0.005	0.010	0.000	0.049	-0.029	0.386	2.700	1.909	1.904	1.899	1.924	1.919	1.899
-0.010	0.015	0.005	-0.005	0.034	-0.034	0.400	2.690	1.904	1.909	1.904	1.919	1.914	1.904
0.000	0.000	0.000	0.000	0.044	-0.015	0.391	2.690	1.909	1.904	1.899	1.924	1.919	1.914
0.000	-0.010	-0.005	-0.005	0.059	-0.039	0.391	2.705	1.909	1.899	1.899	1.919	1.924	1.909
0.000	-0.029	-0.005	-0.005	0.044	-0.078	0.381	2.700	1.909	1.895	1.899	1.919	1.914	1.899
0.005	-0.029	-0.005	-0.005	0.024	-0.112	0.386	2.690	1.909	1.899	1.899	1.914	1.904	1.890
0.005	-0.015	-0.005	-0.005	0.005	-0.083	0.381	2.686	1.904	1.899	1.895	1.914	1.904	1.904
-0.010	0.000	-0.010	0.000	0.005	-0.054	0.391	2.695	1.899	1.899	1.899	1.919	1.909	1.909
0.005	0.015	-0.010	-0.005	-0.005	-0.059	0.386	2.690	1.899	1.904	1.899	1.914	1.904	1.904
-0.010	-0.010	0.000	-0.005	-0.049	-0.005	0.386	2.686	1.890	1.890	1.895	1.914	1.895	1.919
-0.005	0.010	0.000	0.000	-0.054	0.034	0.381	2.686	1.895	1.899	1.899	1.914	1.895	1.919
