-0.005	0.000	0.000	0.000	-0.005	0.005	0.386	2.676	2.671	2.197	2.080	1.992	2.002	1.992
0.005	0.000	0.000	0.000	-0.005	0.005	0.386	2.690	2.485	2.280	2.134	2.036	2.007	1.997
-0.005	0.005	0.005	0.000	-0.005	0.000	0.381	2.695	2.344	2.305	2.183	2.080	2.021	2.002
-0.005	0.005	0.000	0.000	0.000	0.005	0.391	2.695	2.251	2.295	2.212	2.124	2.051	2.017
0.010	0.005	0.000	0.000	0.000	-0.005	0.386	2.681	2.183	2.266	2.231	2.158	2.080	2.031
-0.005	0.005	0.000	0.005	0.000	-0.010	0.391	2.676	2.124	2.227	2.231	2.183	2.104	2.046
0.000	0.010	-0.005	0.005	0.005	-0.005	0.386	2.686	2.095	2.192	2.222	2.197	2.129	2.075
0.000	0.010	-0.005	-0.005	0.005	-0.039	0.386	2.690	2.065	2.163	2.207	2.207	2.148	2.085
-0.005	-0.015	0.000	-0.005	-0.005	-0.020	0.386	2.676	2.051	2.124	2.187	2.202	2.168	2.114
0.005	-0.010	0.000	-0.005	0.005	-0.015	0.391	2.710	2.051	2.109	2.163	2.202	2.178	2.134
-0.005	-0.005	0.005	0.005	0.005	0.015	0.386	2.656	2.036	2.090	2.144	2.192	2.183	2.153
0.005	-0.005	0.000	0.000	0.005	0.015	0.391	2.695	2.031	2.070	2.124	2.178	2.183	2.158
0.005	0.000	0.005	0.005	-0.005	0.005	0.386	2.686	2.036	2.065	2.109	2.168	2.173	2.158
0.005	0.015	0.000	0.005	0.000	0.010	0.386	2.681	2.031	2.056	2.095	2.148	2.168	2.163
0.000	0.000	0.000	0.000	0.000	0.005	0.386	2.681	2.031	2.046	2.080	2.134	2.158	2.163
-0.005	0.000	0.000	0.005	0.000	0.005	0.386	2.681	2.031	2.041	2.065	2.124	2.144	2.153
0.000	0.005	0.000	0.000	0.000	0.005	0.386	2.671	2.026	2.041	2.061	2.109	2.134	2.153
0.000	0.005	0.000	0.005	0.005	0.005	0.386	2.710	2.031	2.036	2.051	2.100	2.124	2.144
0.000	0.000	0.000	0.005	0.005	0.005	0.386	2.656	2.031	2.036	2.046	2.090	2.114	2.139
-0.005	0.005	0.005	0.005	0.010	-0.024	0.386	2.681	2.026	2.036	2.046	2.080	2.104	2.119
0.005	0.005	0.000	0.000	0.015	0.010	0.391	2.686	2.036	2.036	2.041	2.075	2.095	2.124
0.015	0.000	0.000	0.005	0.020	0.020	0.391	2.700	2.041	2.036	2.041	2.070	2.090	2.119
0.010	-0.010	0.000	0.005	0.020	0.010	0.391	2.686	2.036	2.036	2.036	2.065	2.085	2.109
0.000	-0.005	0.005	0.010	0.020	0.010	0.391	2.705	2.041	2.036	2.036	2.065	2.075	2.100
-0.010	0.000	0.000	0.010	0.015	0.010	0.391	2.700	2.041	2.041	2.036	2.065	2.070	2.095
-0.005	0.000	0.005	0.005	0.024	0.000	0.391	2.695	2.036	2.041	2.036	2.061	2.070	2.090
0.005	-0.010	0.000	0.005	0.020	0.020	0.400	2.686	2.036	2.036	2.036	2.061	2.065	2.085
0.005	0.000	0.000	0.005	0.015	0.029	0.386	2.690	2.031	2.041	2.036	2.061	2.061	2.080
0.000	-0.005	-0.005	0.000	0.015	0.005	0.391	2.681	2.026	2.031	2.031	2.056	2.056	2.065
0.015	0.010	0.005	0.005	0.015	0.024	0.386	2.681	2.026	2.031	2.036	2.051	2.056	2.065
0.005	0.000	0.000	0.005	0.005	0.000	0.391	2.666	2.017	2.026	2.031	2.051	2.046	2.061
0.000	-0.010	0.005	0.005	0.010	0.020	0.386	2.686	2.017	2.021	2.026	2.051	2.046	2.056
0.000	0.005	0.005	0.000	0.015	0.024	0.396	2.695	2.012	2.017	2.026	2.046	2.046	2.056
0.000	0.005	0.005	0.005	0.005	0.015	0.386	2.705	2.017	2.017	2.021	2.046	2.041	2.046
-0.005	0.005	0.000	0.000	0.005	0.020	0.391	2.656	2.007	2.012	2.017	2.041	2.041	2.051
0.000	0.000	0.000	0.000	0.005	0.005	0.386	2.690	2.007	2.012	2.012	2.036	2.036	2.041
0.005	-0.005	0.000	0.000	0.000	0.005	0.391	2.686	2.007	2.012	2.012	2.036	2.036	2.041
0.010	0.000	0.000	0.005	-0.005	0.005	0.391	2.695	2.017	2.012	2.012	2.036	2.031	2.041
0.000	0.005	0.000	0.005	-0.010	0.015	0.391	2.690	2.007	2.012	2.012	2.036	2.031	2.041
0.010	0.000	0.000	0.000	-0.010	-0.005	0.386	2.686	2.012	2.012	2.012	2.031	2.031	2.036
0.015	0.005	0.000	0.000	-0.015	-0.015	0.386	2.695	2.017	2.017	2.012	2.031	2.026	2.031
0.000	0.005	0.000	-0.005	-0.005	0.000	0.386	2.686	2.012	2.012	2.012	2.031	2.031	2.036
0.000	0.005	0.000	0.000	-0.010	0.000	0.391	2.681	2.002	2.012	2.012	2.031	2.031	2.031
-0.005	0.000	0.000	0.000	-0.015	-0.005	0.386	2.686	1.997	2.007	2.012	2.031	2.026	2.031
0.000	0.000	0.000	0.000	-0.005	0.000	0.391	2.695	2.007	2.007	2.007	2.031	2.026	2.026
0.010	0.000	0.005	0.005	-0.015	-0.024	0.386	2.700	2.002	2.002	2.007	2.031	2.026	2.026
0.000	-0.005	0.005	0.005	-0.010	-0.005	0.381	2.676	1.992	1.997	2.002	2.026	2.026	2.026
-0.005	0.000	0.000	0.010	-0.010	0.015	0.386	2.676	1.987	1.997	1.997	2.021	2.026	2.031
-0.005	0.005	0.000	0.005	-0.015	0.005	0.386	2.690	1.987	1.992	1.992	2.021	2.021	2.026
0.000	0.005	-0.005	0.005	-0.010	-0.005	0.386	2.671	1.987	1.992	1.992	2.017	2.017	2.021
-0.005	0.000	0.000	0.005	-0.010	0.000	0.386	2.646	1.982	1.987	1.992	2.012	2.012	2.021
0.000	0.010	0.000	0.000	-0.005	0.005	0.386	2.695	1.982	1.987	1.992	2.012	2.012	2.017
0.005	0.024	-0.005	0.005	-0.010	0.000	0.386	2.686	1.987	1.992	1.987	2.012	2.012	2.017
0.010	0.015	0.000	0.005	-0.010	-0.005	0.386	2.676	1.982	1.987	1.987	2.007	2.012	2.012
0.000	0.010	0.000	0.000	-0.005	-0.034	0.381	2.695	1.982	1.987	1.987	2.007	2.007	2.002
0.005	0.005	0.000	0.000	-0.005	0.005	0.391	2.686	1.982	1.982	1.987	2.012	2.012	2.021
0.005	0.000	0.000	0.005	-0.005	0.005	0.386	2.700	1.987	1.982	1.987	2.012	2.012	2.017
0.000	0.000	0.000	0.005	-0.005	0.005	0.386	2.725	1.992	1.987	1.987	2.012	2.007	2.012
0.010	0.005	0.005	0.005	0.005	0.000	0.381	2.666	1.987	1.987	1.987	2.007	2.012	2.012
-0.005	0.000	-0.005	0.005	0.005	0.000	0.391	2.676	1.982	1.987	1.987	2.007	2.007	2.012
-0.005	0.000	0.000	0.000	0.000	0.000	0.381	2.676	1.978	1.982	1.982	2.007	2.007	2.012
0.010	-0.005	0.000	0.000	0.000	-0.005	0.391	2.686	1.982	1.982	1.982	2.007	2.002	2.012
0.000	-0.005	0.000	0.000	0.005	0.000	0.386	2.681	1.978	1.978	1.982	2.002	2.002	2.007
-0.010	-0.005	0.000	0.000	0.005	-0.005	0.391	2.690	1.973	1.973	1.978	2.002	1.997	2.007
0.000	-0.005	0.000	0.000	0.005	0.000	0.386	2.686	1.973	1.973	1.973	1.997	1.997	2.002
0.000	-0.005	-0.005	-0.005	0.005	0.000	0.386	2.676	1.973	1.973	1.968	1.992	1.997	1.997
0.000	-0.005	0.000	0.000	0.005	0.000	0.386	2.686	1.963	1.968	1.973	1.992	1.992	1.997
0.000	-0.010	0.000	0.000	0.005	-0.005	0.391	2.671	1.968	1.968	1.968	1.992	1.987	1.992
-0.005	-0.005	0.005	-0.005	0.005	0.000	0.381	2.700	1.968	1.968	1.968	1.987	1.987	1.992
0.010	-0.005	0.000	0.005	0.005	0.005	0.386	2.695	1.973	1.968	1.968	1.987	1.987	1.992
0.005	0.005	0.005	0.010	0.000	0.005	0.386	2.690	1.973	1.973	1.968	1.987	1.987	1.992
0.005	0.005	0.000	0.005	0.005	0.000	0.391	2.676	1.968	1.973	1.968	1.987	1.987	1.992
0.000	0.010	0.000	0.000	-0.005	-0.010	0.386	2.681	1.968	1.973	1.968	1.987	1.982	1.987
0.005	0.000	0.000	0.000	0.000	0.000	0.386	2.720	1.973	1.968	1.968	1.992	1.987	1.992
0.000	0.010	0.000	0.000	0.000	-0.029	0.386	2.646	1.963	1.973	1.968	1.987	1.987	1.982
0.000	0.000	0.000	0.000	0.000	-0.020	0.386	2.676	1.963	1.968	1.968	1.992	1.987	1.992
0.000	-0.005	0.000	0.000	0.005	-0.010	0.386	2.695	1.968	1.963	1.968	1.992	1.987	1.992
0.000	-0.005	0.000	0.005	0.005	0.015	0.391	2.686	1.963	1.963	1.963	1.987	1.987	1.992
0.000	0.000	0.000	0.000	0.005	0.020	0.386	2.686	1.958	1.963	1.963	1.982	1.987	1.992
0.000	-0.005	0.000	0.000	0.005	-0.005	0.386	2.676	1.958	1.963	1.958	1.982	1.982	1.982
-0.005	0.005	0.000	-0.005	0.010	0.005	0.391	2.690	1.958	1.958	1.958	1.982	1.978	1.987
-0.010	0.000	-0.005	0.000	0.005	0.000	0.381	2.686	1.953	1.958	1.958	1.978	1.978	1.982
0.000	0.000	0.000	0.000	0.005	-0.005	0.386	2.686	1.958	1.958	1.958	1.978	1.978	1.978
0.010	0.005	0.005	0.000	0.005	0.005	0.381	2.700	1.953	1.953	1.953	1.973	1.973	1.978
0.000	-0.010	0.005	-0.005	0.005	0.015	0.381	2.695	1.953	1.948	1.953	1.973	1.973	1.982
0.000	0.000	0.000	0.000	0.000	-0.015	0.381	2.686	1.953	1.953	1.953	1.973	1.968	1.973
0.005	0.010	0.005	0.000	0.005	0.010	0.386	2.690	1.953	1.958	1.953	1.973	1.968	1.978
0.000	0.005	0.000	0.000	0.000	0.010	0.381	2.695	1.953	1.953	1.948	1.973	1.968	1.973
-0.005	0.005	-0.005	0.000	0.000	0.005	0.396	2.690	1.953	1.953	1.948	1.973	1.973	1.973
-0.010	0.000	0.000	0.000	0.000	0.010	0.386	2.710	1.953	1.953	1.953	1.973	1.968	1.973
0.000	0.000	0.000	0.000	-0.005	0.005	0.386	2.676	1.953	1.958	1.958	1.973	1.973	1.973
0.005	0.005	0.000	0.000	-0.005	-0.015	0.381	2.671	1.958	1.958	1.958	1.978	1.968	1.973
0.010	0.000	0.000	0.000	0.000	0.000	0.386	2.690	1.958	1.953	1.958	1.978	1.973	1.973
0.005	0.000	0.005	0.005	0.000	0.005	0.386	2.681	1.953	1.953	1.953	1.978	1.973	1.973
0.000	0.000	0.005	0.000	0.005	0.015	0.391	2.695	1.953	1.953	1.953	1.973	1.973	1.978
-0.005	0.015	0.005	0.005	0.000	0.010	0.386	2.671	1.943	1.953	1.953	1.973	1.973	1.973
-0.005	0.005	0.005	0.000	0.005	0.010	0.386	2.700	1.943	1.948	1.953	1.973	1.968	1.973
0.000	0.005	0.005	0.005	0.005	-0.005	0.381	2.710	1.943	1.943	1.948	1.973	1.968	1.963
0.000	-0.005	0.005	0.005	0.010	-0.024	0.386	2.676	1.943	1.943	1.943	1.968	1.963	1.958
-0.005	-0.005	0.000	0.005	0.005	0.015	0.391	2.686	1.938	1.943	1.943	1.963	1.963	1.973
-0.005	0.000	0.000	0.005	0.005	0.015	0.386	2.690	1.938	1.938	1.938	1.963	1.963	1.968
0.000	0.000	0.000	0.000	0.000	-0.005	0.386	2.690	1.938	1.938	1.938	1.958	1.958	1.963
0.000	-0.005	-0.005	0.000	-0.005	-0.005	0.386	2.686	1.943	1.934	1.938	1.958	1.953	1.958
0.005	0.000	0.005	0.000	0.000	-0.020	0.391	2.686	1.943	1.943	1.938	1.958	1.958	1.953
-0.005	0.000	0.000	0.005	0.000	0.010	0.386	2.700	1.943	1.943	1.938	1.963	1.953	1.968
0.015	0.000	0.000	0.010	-0.005	0.010	0.386	2.681	1.943	1.943	1.943	1.958	1.953	1.963
0.005	-0.005	0.005	0.005	-0.005	0.005	0.386	2.686	1.943	1.943	1.943	1.958	1.953	1.963
0.000	-0.005	0.000	0.000	0.000	-0.010	0.381	2.686	1.943	1.943	1.943	1.958	1.958	1.958
0.005	0.005	0.005	0.005	0.000	0.000	0.386	2.690	1.948	1.948	1.943	1.963	1.958	1.958
0.005	0.000	0.005	0.000	0.005	-0.020	0.386	2.690	1.943	1.943	1.943	1.963	1.958	1.953
0.005	0.000	-0.005	0.000	0.005	0.010	0.381	2.661	1.938	1.938	1.943	1.963	1.958	1.963
0.005	0.000	0.000	0.000	0.000	-0.010	0.381	2.690	1.943	1.943	1.938	1.958	1.958	1.953
-0.005	0.010	0.000	0.000	0.005	-0.010	0.386	2.690	1.934	1.938	1.938	1.958	1.953	1.953
-0.005	0.005	0.010	0.000	0.010	0.015	0.386	2.705	1.938	1.934	1.938	1.958	1.958	1.963
0.000	-0.005	0.005	0.000	0.005	0.020	0.381	2.642	1.929	1.934	1.934	1.953	1.953	1.963
0.005	-0.015	-0.010	0.000	0.010	0.010	0.386	2.686	1.929	1.929	1.929	1.953	1.953	1.958
0.000	-0.005	0.000	0.000	0.010	0.015	0.381	2.700	1.934	1.929	1.929	1.948	1.948	1.953
0.000	0.000	0.005	-0.005	0.000	0.005	0.386	2.686	1.929	1.929	1.929	1.948	1.943	1.948
0.000	-0.005	-0.005	0.000	0.005	-0.010	0.381	2.690	1.934	1.929	1.929	1.948	1.943	1.943
0.005	0.000	0.005	0.005	0.000	0.005	0.386	2.666	1.929	1.934	1.929	1.948	1.943	1.948
-0.005	0.015	0.000	0.000	-0.005	0.005	0.386	2.686	1.934	1.934	1.934	1.948	1.943	1.948
0.005	0.010	0.000	0.000	-0.005	0.015	0.386	2.690	1.938	1.934	1.934	1.948	1.943	1.948
0.000	0.015	-0.005	0.000	-0.005	0.010	0.381	2.690	1.934	1.934	1.934	1.953	1.943	1.948
0.005	0.005	0.000	0.005	-0.005	0.005	0.386	2.690	1.934	1.934	1.934	1.948	1.948	1.948
0.000	-0.005	0.000	0.000	-0.005	0.000	0.386	2.686	1.938	1.934	1.934	1.953	1.948	1.948
-0.005	0.015	0.005	0.005	0.005	0.005	0.386	2.700	1.938	1.938	1.938	1.953	1.948	1.948
0.000	0.010	0.005	0.005	0.005	0.000	0.386	2.695	1.938	1.938	1.938	1.953	1.948	1.948
0.000	0.000	0.005	0.005	0.005	0.005	0.391	2.700	1.938	1.934	1.934	1.953	1.953	1.948
0.005	0.000	0.000	0.000	0.005	-0.010	0.386	2.715	1.938	1.938	1.934	1.953	1.948	1.948
-0.005	-0.005	-0.005	0.000	0.005	-0.005	0.391	2.676	1.934	1.934	1.934	1.948	1.948	1.948
-0.005	0.005	0.000	0.005	0.000	-0.005	0.381	2.690	1.929	1.934	1.929	1.948	1.943	1.943
0.000	0.000	0.005	0.000	-0.005	0.010	0.381	2.686	1.929	1.929	1.929	1.943	1.943	1.948
0.005	0.000	-0.005	0.005	0.005	0.010	0.381	2.681	1.924	1.924	1.924	1.943	1.943	1.948
0.000	-0.005	0.000	0.005	0.005	0.010	0.381	2.690	1.924	1.924	1.924	1.943	1.938	1.943
0.000	0.000	0.000	0.000	0.000	0.000	0.381	2.690	1.924	1.924	1.924	1.943	1.938	1.938
-0.005	-0.015	0.000	-0.005	-0.005	0.005	0.381	2.690	1.924	1.919	1.919	1.938	1.938	1.943
0.005	-0.020	0.000	0.000	0.000	0.010	0.386	2.720	1.934	1.919	1.919	1.938	1.938	1.938
0.005	-0.015	0.000	0.005	0.000	-0.005	0.391	2.681	1.934	1.924	1.924	1.943	1.938	1.934
0.000	-0.005	0.010	0.005	0.000	0.015	0.386	2.695	1.929	1.929	1.924	1.943	1.938	1.943
0.000	-0.005	0.005	0.000	0.000	0.010	0.386	2.690	1.934	1.934	1.929	1.943	1.938	1.938
-0.005	0.000	0.000	0.000	-0.005	-0.005	0.391	2.686	1.929	1.934	1.929	1.948	1.938	1.938
0.000	0.010	0.005	0.000	0.005	0.000	0.376	2.690	1.929	1.934	1.934	1.948	1.943	1.943
-0.005	0.010	0.000	0.000	0.000	0.010	0.386	2.690	1.929	1.934	1.929	1.948	1.943	1.943
0.000	0.005	0.000	0.000	0.000	0.005	0.381	2.700	1.934	1.929	1.934	1.948	1.943	1.943
0.005	0.000	0.000	0.000	0.005	0.010	0.386	2.681	1.929	1.934	1.929	1.948	1.948	1.948
0.010	0.005	0.005	0.000	0.005	0.005	0.381	2.690	1.929	1.929	1.929	1.948	1.943	1.943
0.000	0.010	0.005	0.000	0.005	-0.010	0.391	2.690	1.924	1.929	1.929	1.943	1.943	1.938
-0.005	0.000	0.000	0.000	0.005	0.010	0.386	2.690	1.924	1.924	1.924	1.943	1.943	1.943
0.000	-0.005	0.000	0.000	0.010	0.000	0.386	2.705	1.929	1.919	1.919	1.943	1.938	1.938
0.000	-0.005	0.000	0.000	0.005	-0.020	0.381	2.686	1.919	1.919	1.919	1.938	1.934	1.934
0.005	-0.010	-0.005	0.000	0.005	0.000	0.386	2.686	1.914	1.914	1.914	1.934	1.934	1.934
0.000	0.000	0.005	0.000	0.005	0.000	0.386	2.690	1.919	1.914	1.914	1.934	1.934	1.934
0.000	0.000	-0.005	0.005	-0.005	-0.010	0.386	2.715	1.924	1.919	1.914	1.934	1.929	1.934
0.010	0.005	0.005	0.005	0.000	0.005	0.386	2.651	1.919	1.924	1.919	1.938	1.934	1.943
-0.005	0.010	0.005	0.000	0.005	0.000	0.391	2.690	1.919	1.924	1.919	1.938	1.934	1.934
0.005	0.005	0.005	0.000	0.000	0.010	0.381	2.686	1.924	1.924	1.924	1.938	1.934	1.938
0.005	0.010	-0.005	0.005	0.000	-0.010	0.386	2.686	1.924	1.924	1.924	1.943	1.934	1.934
-0.005	0.005	0.000	0.000	0.005	0.000	0.386	2.690	1.924	1.924	1.924	1.938	1.938	1.938
0.010	0.005	0.000	0.005	0.000	0.010	0.391	2.690	1.929	1.924	1.924	1.943	1.938	1.938
0.005	0.015	0.000	0.005	-0.005	0.005	0.386	2.695	1.929	1.929	1.924	1.943	1.938	1.938
-0.005	0.005	0.005	0.010	0.005	0.005	0.386	2.690	1.924	1.924	1.924	1.943	1.938	1.938
-0.005	-0.005	0.000	0.000	0.010	-0.015	0.391	2.686	1.924	1.924	1.924	1.943	1.938	1.934
0.000	0.005	0.000	0.000	0.005	0.005	0.391	2.690	1.924	1.919	1.919	1.943	1.934	1.938
0.005	0.000	0.005	0.005	0.010	0.005	0.381	2.686	1.919	1.919	1.919	1.938	1.938	1.938
-0.005	-0.005	-0.005	0.000	0.000	-0.010	0.386	2.690	1.914	1.914	1.914	1.934	1.929	1.929
0.000	-0.005	0.000	0.000	-0.005	0.015	0.381	2.661	1.909	1.909	1.914	1.934	1.934	1.938
0.005	-0.010	-0.005	0.000	0.000	0.000	0.381	2.690	1.909	1.909	1.909	1.934	1.929	1.934
0.005	-0.005	-0.005	0.000	0.005	-0.024	0.386	2.671	1.909	1.909	1.909	1.929	1.929	1.924
-0.005	0.000	0.000	0.000	0.000	0.000	0.381	2.715	1.914	1.909	1.909	1.934	1.929	1.929
0.000	-0.005	0.005	-0.005	0.000	0.000	0.386	2.661	1.914	1.914	1.909	1.929	1.929	1.934
0.005	0.015	0.005	0.000	0.000	0.000	0.386	2.690	1.919	1.919	1.914	1.934	1.929	1.929
0.000	0.010	0.005	0.005	0.005	0.000	0.391	2.690	1.919	1.919	1.914	1.934	1.929	1.929
0.010	-0.005	0.000	0.005	-0.005	0.000	0.381	2.676	1.919	1.914	1.909	1.934	1.929	1.934
0.005	0.015	0.000	0.005	0.005	0.005	0.391	2.686	1.924	1.924	1.914	1.934	1.934	1.934
0.000	0.000	0.000	0.005	-0.005	0.000	0.376	2.695	1.924	1.919	1.919	1.934	1.929	1.929
0.000	-0.010	0.000	0.005	0.000	0.010	0.391	2.676	1.919	1.914	1.919	1.934	1.934	1.934
0.005	-0.005	0.000	0.000	0.005	0.010	0.381	2.710	1.924	1.919	1.919	1.934	1.934	1.934
0.010	-0.005	0.000	0.005	0.000	0.010	0.391	2.671	1.924	1.924	1.919	1.934	1.929	1.934
-0.005	-0.005	0.000	0.010	0.010	0.005	0.381	2.690	1.914	1.919	1.914	1.934	1.934	1.934
-0.005	0.000	0.000	0.005	0.000	-0.029	0.386	2.690	1.914	1.919	1.914	1.934	1.929	1.919
0.000	-0.005	0.000	0.005	0.010	0.010	0.386	2.695	1.914	1.914	1.914	1.934	1.929	1.934
0.005	0.005	0.000	0.000	0.010	-0.024	0.386	2.681	1.914	1.914	1.914	1.929	1.924	1.924
0.000	0.000	0.005	0.000	0.010	0.015	0.386	2.690	1.914	1.909	1.909	1.929	1.924	1.929
0.000	0.005	0.005	0.000	0.010	0.010	0.386	2.686	1.909	1.909	1.909	1.929	1.929	1.929
-0.005	-0.005	0.005	0.000	0.005	-0.005	0.386	2.690	1.909	1.909	1.909	1.924	1.924	1.924
0.000	-0.005	0.005	0.000	0.005	-0.005	0.386	2.690	1.909	1.909	1.909	1.929	1.924	1.924
0.000	0.000	0.005	0.000	0.000	0.005	0.386	2.681	1.909	1.914	1.909	1.924	1.924	1.929
0.000	0.000	0.005	0.005	0.000	0.020	0.386	2.690	1.909	1.914	1.909	1.929	1.924	1.929
0.005	0.000	0.000	0.005	-0.005	0.015	0.386	2.686	1.919	1.909	1.909	1.929	1.924	1.929
0.000	0.005	0.000	-0.005	-0.005	0.005	0.386	2.808	1.929	1.914	1.914	1.929	1.924	1.924
0.005	0.000	0.005	0.000	-0.010	0.010	0.386	2.690	1.929	1.919	1.914	1.934	1.924	1.924
0.005	-0.005	-0.005	0.000	-0.005	-0.005	0.386	2.686	1.924	1.924	1.914	1.929	1.929	1.924
0.000	0.000	0.000	0.000	0.000	0.010	0.386	2.715	1.924	1.924	1.919	1.934	1.929	1.929
0.000	0.000	0.000	0.000	0.005	0.005	0.386	2.651	1.914	1.919	1.919	1.934	1.934	1.924
-0.005	0.000	0.000	0.000	-0.005	0.000	0.386	2.681	1.909	1.919	1.919	1.934	1.929	1.929
-0.005	0.000	0.000	0.000	0.005	0.010	0.386	2.681	1.909	1.914	1.914	1.938	1.934	1.934
0.005	-0.010	0.005	0.005	0.005	0.005	0.391	2.686	1.914	1.909	1.914	1.934	1.929	1.929
0.000	0.000	0.005	0.000	0.005	0.005	0.386	2.671	1.909	1.909	1.914	1.934	1.929	1.929
-0.005	0.000	0.000	0.005	0.000	0.005	0.391	2.671	1.904	1.909	1.909	1.929	1.929	1.929
0.010	0.000	0.000	0.005	0.000	0.000	0.386	2.681	1.904	1.904	1.909	1.929	1.924	1.929
-0.005	0.000	0.005	0.000	0.000	0.000	0.386	2.681	1.904	1.904	1.904	1.929	1.924	1.924
-0.005	0.010	0.005	0.005	0.000	0.015	0.386	2.695	1.909	1.904	1.904	1.924	1.924	1.924
0.000	0.005	0.000	0.005	0.000	-0.005	0.386	2.681	1.909	1.904	1.904	1.924	1.919	1.924
-0.005	0.010	-0.005	0.000	0.005	-0.024	0.381	2.681	1.904	1.904	1.904	1.924	1.924	1.919
0.005	0.005	0.000	0.000	0.000	0.005	0.391	2.690	1.914	1.909	1.904	1.924	1.919	1.924
0.000	0.005	0.000	0.000	0.000	0.015	0.381	2.686	1.914	1.914	1.904	1.924	1.924	1.924
0.005	0.010	0.000	0.000	-0.005	0.005	0.391	2.686	1.914	1.914	1.909	1.924	1.919	1.924
0.005	0.005	0.005	0.005	0.005	0.000	0.381	2.686	1.914	1.914	1.909	1.929	1.929	1.929
0.000	0.005	0.005	0.005	0.000	-0.010	0.391	2.686	1.919	1.914	1.909	1.929	1.924	1.919
0.000	-0.005	0.000	0.005	0.000	-0.005	0.386	2.656	1.914	1.914	1.909	1.929	1.924	1.924
0.010	-0.005	0.000	0.000	0.000	0.010	0.391	2.690	1.914	1.914	1.909	1.929	1.924	1.929
0.000	-0.005	0.000	0.005	0.005	0.000	0.386	2.666	1.909	1.909	1.909	1.929	1.924	1.924
0.000	-0.005	0.000	0.000	0.000	0.000	0.391	2.686	1.904	1.909	1.909	1.924	1.924	1.924
-0.005	0.005	0.000	0.000	0.005	0.005	0.381	2.681	1.904	1.909	1.909	1.924	1.924	1.924
-0.005	0.000	0.000	0.000	0.000	-0.005	0.386	2.700	1.909	1.904	1.904	1.929	1.919	1.919
0.005	0.000	0.000	-0.005	0.005	-0.010	0.381	2.686	1.909	1.904	1.904	1.924	1.919	1.919
0.000	-0.005	0.000	0.005	0.005	0.015	0.386	2.705	1.904	1.899	1.899	1.924	1.919	1.919
-0.005	0.000	0.000	-0.005	0.000	-0.010	0.386	2.666	1.904	1.904	1.899	1.919	1.919	1.919
0.005	0.000	0.000	0.005	0.005	0.000	0.386	2.686	1.904	1.899	1.904	1.924	1.919	1.919
0.005	0.000	0.005	0.005	-0.005	-0.005	0.381	2.676	1.904	1.904	1.899	1.924	1.919	1.919
-0.005	0.005	0.000	0.000	-0.005	0.005	0.381	2.690	1.904	1.904	1.904	1.919	1.914	1.919
0.005	0.005	-0.005	0.000	-0.005	0.010	0.386	2.695	1.909	1.909	1.904	1.919	1.914	1.924
0.005	0.000	0.000	0.000	0.000	-0.010	0.386	2.681	1.914	1.909	1.909	1.924	1.919	1.914
0.000	-0.005	0.000	0.000	-0.005	0.010	0.386	2.686	1.914	1.909	1.909	1.924	1.919	1.919
0.005	0.000	0.005	0.000	0.000	0.015	0.386	2.690	1.919	1.914	1.909	1.924	1.919	1.924
-0.005	0.005	0.000	0.000	0.000	0.015	0.386	2.690	1.914	1.914	1.909	1.924	1.924	1.924
-0.005	-0.005	0.000	0.005	0.005	-0.005	0.386	2.686	1.914	1.909	1.909	1.929	1.924	1.919
-0.005	0.000	0.005	0.000	0.005	0.005	0.386	2.690	1.914	1.914	1.909	1.929	1.924	1.924
0.000	0.005	0.000	0.000	0.010	0.005	0.386	2.690	1.914	1.914	1.909	1.924	1.919	1.919
0.005	0.005	0.000	-0.005	0.000	-0.005	0.386	2.671	1.909	1.909	1.909	1.924	1.919	1.919
-0.005	0.015	0.005	0.000	0.005	-0.010	0.381	2.686	1.904	1.909	1.904	1.924	1.919	1.914
0.005	-0.005	-0.005	0.000	0.005	-0.005	0.386	2.695	1.904	1.904	1.899	1.924	1.919	1.919
-0.005	-0.005	0.000	0.000	0.000	0.020	0.386	2.710	1.909	1.904	1.904	1.919	1.919	1.924
0.000	0.005	-0.005	0.000	0.005	0.005	0.386	2.646	1.899	1.899	1.904	1.919	1.914	1.919
0.005	0.000	0.000	0.000	0.005	0.000	0.381	2.671	1.899	1.899	1.899	1.919	1.914	1.919
0.000	-0.005	0.000	0.000	0.000	0.015	0.386	2.695	1.904	1.899	1.899	1.919	1.914	1.919
0.005	0.005	-0.005	0.000	0.000	-0.024	0.386	2.686	1.904	1.904	1.904	1.919	1.914	1.909
0.010	-0.005	0.000	0.000	-0.005	-0.005	0.386	2.676	1.904	1.904	1.904	1.919	1.914	1.914
0.005	0.000	0.005	0.000	0.000	0.015	0.391	2.700	1.909	1.904	1.904	1.924	1.919	1.924
0.000	0.015	0.000	0.000	0.005	-0.029	0.391	2.690	1.909	1.909	1.909	1.924	1.914	1.909
0.000	0.005	0.000	0.000	0.000	0.000	0.386	2.700	1.909	1.909	1.909	1.924	1.919	1.924
0.000	-0.010	0.005	0.005	0.000	0.015	0.386	2.676	1.914	1.904	1.904	1.924	1.919	1.924
-0.005	-0.010	-0.005	0.005	0.000	0.005	0.386	2.686	1.909	1.909	1.904	1.929	1.919	1.924
0.005	-0.010	0.000	0.000	-0.005	0.005	0.386	2.690	1.914	1.909	1.909	1.924	1.919	1.924
-0.005	0.000	-0.005	0.005	0.000	0.005	0.381	2.676	1.904	1.914	1.904	1.924	1.919	1.919
0.000	0.010	0.000	0.000	0.005	0.005	0.391	2.686	1.909	1.909	1.909	1.924	1.919	1.919
-0.005	0.010	0.005	0.000	0.000	0.000	0.391	2.695	1.909	1.909	1.909	1.924	1.919	1.919
0.010	-0.005	0.005	0.005	0.010	0.000	0.386	2.695	1.909	1.904	1.904	1.924	1.919	1.919
0.005	-0.005	0.000	0.000	0.000	-0.034	0.381	2.705	1.904	1.904	1.904	1.919	1.914	1.909
0.000	-0.005	0.000	0.000	0.000	0.010	0.381	2.681	1.904	1.904	1.899	1.919	1.919	1.919
0.000	0.010	-0.005	0.005	0.005	0.005	0.386	2.690	1.904	1.904	1.904	1.919	1.919	1.919
0.005	0.010	0.010	0.000	0.005	-0.005	0.391	2.676	1.904	1.904	1.904	1.924	1.919	1.919
-0.005	0.005	0.000	0.000	-0.005	0.000	0.386	2.681	1.899	1.899	1.899	1.919	1.914	1.919
0.000	0.000	0.005	0.000	0.005	0.000	0.386	2.695	1.904	1.904	1.904	1.919	1.914	1.919
0.005	0.010	0.000	0.005	0.000	0.005	0.386	2.690	1.909	1.904	1.904	1.924	1.914	1.919
0.010	0.000	0.000	0.005	0.000	0.005	0.386	2.690	1.909	1.904	1.904	1.924	1.914	1.919
0.010	0.010	0.000	0.005	0.005	0.010	0.391	2.700	1.914	1.909	1.904	1.924	1.919	1.914
0.005	0.005	0.000	0.000	-0.010	0.005	0.386	2.632	1.904	1.909	1.904	1.924	1.919	1.919
0.005	-0.010	0.005	0.000	0.000	0.000	0.391	2.793	1.919	1.909	1.909	1.924	1.919	1.919
0.000	0.010	0.000	0.000	0.000	0.015	0.386	2.681	1.914	1.914	1.909	1.924	1.919	1.924
-0.005	0.010	0.000	0.000	0.010	-0.020	0.386	2.646	1.904	1.909	1.909	1.929	1.919	1.919
0.005	0.005	0.000	0.005	0.000	0.000	0.386	2.666	1.904	1.909	1.909	1.929	1.924	1.919
0.000	0.000	0.005	-0.005	0.000	0.010	0.386	2.651	1.899	1.904	1.904	1.924	1.919	1.924
0.000	0.005	0.005	0.000	0.005	0.010	0.381	2.646	1.899	1.899	1.899	1.924	1.919	1.919
0.010	0.000	0.000	0.000	0.005	0.000	0.391	2.642	1.895	1.899	1.899	1.919	1.919	1.919
-0.005	0.010	-0.005	-0.005	0.000	0.000	0.381	2.744	1.899	1.899	1.895	1.919	1.914	1.914
-0.005	0.000	0.000	0.005	0.000	-0.024	0.391	2.651	1.895	1.895	1.895	1.919	1.914	1.909
-0.005	0.010	0.000	0.000	0.000	0.005	0.386	2.734	1.904	1.899	1.895	1.914	1.914	1.914
0.005	0.024	0.000	0.000	0.000	-0.010	0.391	2.729	1.914	1.904	1.895	1.914	1.909	1.909
0.005	0.024	0.000	0.000	0.005	0.000	0.391	2.773	1.924	1.904	1.899	1.914	1.909	1.914
0.005	0.015	0.005	0.000	0.005	0.005	0.396	2.749	1.929	1.909	1.899	1.919	1.914	1.919
0.005	0.000	0.010	0.005	-0.005	0.015	0.386	2.739	1.929	1.914	1.904	1.919	1.914	1.919
0.000	0.000	0.000	0.005	0.000	0.005	0.391	2.666	1.919	1.914	1.904	1.924	1.914	1.919
0.005	0.005	0.000	-0.005	-0.005	-0.005	0.381	2.671	1.914	1.914	1.909	1.924	1.914	1.914
0.010	0.000	0.005	0.000	0.000	0.000	0.391	2.676	1.909	1.914	1.914	1.929	1.919	1.914
-0.005	-0.020	-0.005	0.005	0.000	0.015	0.386	2.793	1.919	1.909	1.909	1.929	1.924	1.924
-0.010	-0.015	0.000	0.005	0.005	-0.005	0.386	2.656	1.914	1.914	1.909	1.929	1.924	1.919
-0.005	-0.015	0.000	0.005	0.005	-0.015	0.386	2.637	1.904	1.909	1.909	1.924	1.919	1.914
0.005	0.000	0.010	0.005	0.000	-0.020	0.386	2.695	1.909	1.914	1.914	1.929	1.919	1.919
0.000	0.005	0.000	0.005	0.005	0.015	0.381	2.632	1.899	1.909	1.909	1.929	1.924	1.924
0.000	0.005	-0.005	0.005	0.000	0.015	0.386	2.646	1.899	1.909	1.909	1.924	1.924	1.924
-0.005	0.000	0.000	0.000	0.005	0.005	0.391	2.744	1.899	1.899	1.904	1.924	1.919	1.919
0.000	0.000	0.005	0.005	0.005	0.000	0.386	2.637	1.899	1.899	1.904	1.924	1.919	1.919
0.010	-0.005	0.000	0.005	0.005	0.000	0.381	2.637	1.890	1.890	1.899	1.919	1.914	1.914
0.005	0.000	0.000	0.005	0.000	0.005	0.386	2.725	1.895	1.895	1.899	1.919	1.914	1.919
0.000	-0.010	0.000	0.005	0.005	0.000	0.391	2.739	1.904	1.890	1.895	1.919	1.914	1.914
0.000	-0.010	0.005	0.000	0.000	0.010	0.386	2.729	1.909	1.895	1.895	1.919	1.914	1.919
0.000	-0.005	0.000	0.005	0.000	-0.015	0.391	2.666	1.909	1.904	1.895	1.919	1.914	1.909
0.010	-0.010	0.000	0.010	0.000	0.005	0.386	2.734	1.914	1.904	1.899	1.919	1.919	1.919
0.000	-0.010	0.005	0.005	0.000	0.010	0.391	2.690	1.914	1.904	1.899	1.919	1.919	1.919
0.010	0.000	0.010	0.000	0.000	0.010	0.386	2.690	1.914	1.914	1.909	1.919	1.919	1.919
-0.005	-0.005	0.005	0.000	0.000	-0.020	0.391	2.681	1.909	1.909	1.904	1.924	1.914	1.909
-0.005	0.020	0.000	0.000	0.000	0.005	0.386	2.695	1.909	1.914	1.909	1.924	1.919	1.924
0.000	0.005	0.005	0.000	0.000	0.010	0.396	2.700	1.919	1.914	1.909	1.924	1.919	1.919
0.000	-0.005	0.005	0.000	0.005	0.010	0.386	2.705	1.914	1.909	1.909	1.924	1.919	1.919
-0.005	0.000	0.005	0.000	0.010	0.005	0.391	2.710	1.909	1.909	1.909	1.924	1.919	1.919
0.000	0.005	0.000	0.000	0.000	-0.005	0.381	2.690	1.909	1.909	1.909	1.924	1.919	1.914
0.000	0.010	0.000	0.000	0.005	-0.005	0.391	2.676	1.904	1.909	1.904	1.924	1.919	1.914
0.015	-0.005	0.000	0.005	0.005	0.005	0.386	2.700	1.909	1.909	1.904	1.924	1.919	1.919
0.010	0.010	0.000	0.000	-0.005	0.010	0.391	2.686	1.904	1.909	1.904	1.919	1.914	1.919
0.000	0.010	-0.005	0.005	0.005	0.000	0.391	2.676	1.899	1.904	1.904	1.924	1.919	1.919
0.005	0.000	0.000	0.005	0.005	-0.020	0.396	2.700	1.904	1.904	1.899	1.919	1.919	1.914
0.000	0.010	0.005	0.000	0.000	-0.015	0.391	2.710	1.909	1.904	1.899	1.919	1.914	1.919
0.000	0.005	0.005	0.000	0.005	-0.010	0.391	2.705	1.909	1.899	1.904	1.919	1.919	1.919
0.005	0.000	0.000	0.000	0.005	-0.005	0.386	2.705	1.914	1.904	1.904	1.919	1.919	1.914
0.000	0.000	0.005	0.005	-0.005	-0.005	0.386	2.681	1.909	1.909	1.904	1.924	1.914	1.919
0.005	0.000	0.005	0.005	-0.005	0.024	0.386	2.695	1.909	1.909	1.904	1.924	1.924	1.929
0.000	0.000	0.010	0.000	0.005	0.024	0.381	2.695	1.909	1.914	1.909	1.924	1.919	1.924
-0.005	0.010	0.005	0.000	-0.005	0.015	0.381	2.705	1.909	1.914	1.909	1.929	1.919	1.924
0.000	0.010	0.000	0.000	0.000	0.005	0.391	2.681	1.909	1.909	1.909	1.929	1.919	1.924
-0.005	0.020	0.000	0.000	0.010	0.015	0.386	2.705	1.914	1.914	1.909	1.929	1.924	1.924
0.005	-0.010	-0.005	0.005	0.005	0.005	0.386	2.686	1.909	1.904	1.909	1.924	1.924	1.919
0.000	0.000	0.005	0.000	0.000	-0.005	0.386	2.671	1.904	1.909	1.904	1.924	1.919	1.914
0.000	0.000	0.000	0.005	0.005	0.005	0.391	2.808	1.914	1.909	1.904	1.924	1.919	1.919
0.010	-0.005	0.005	0.005	0.010	-0.015	0.386	2.661	1.909	1.904	1.904	1.924	1.919	1.914
0.000	-0.005	-0.005	0.000	0.005	-0.024	0.386	2.646	1.899	1.904	1.899	1.919	1.914	1.909
0.000	0.005	0.000	-0.005	0.000	0.015	0.391	2.671	1.899	1.899	1.899	1.919	1.914	1.919
0.010	0.015	0.005	0.000	0.000	0.005	0.381	2.744	1.909	1.904	1.899	1.919	1.914	1.914
0.005	0.000	0.000	0.000	-0.005	0.000	0.381	2.700	1.909	1.899	1.899	1.919	1.914	1.914
0.000	0.005	0.005	0.005	-0.005	-0.020	0.391	2.729	1.914	1.909	1.904	1.919	1.914	1.909
0.000	0.000	0.005	0.005	-0.005	-0.005	0.386	2.690	1.909	1.904	1.904	1.924	1.914	1.919
0.020	0.010	0.005	0.005	0.000	0.015	0.381	2.725	1.919	1.914	1.904	1.924	1.919	1.919
0.000	0.010	-0.005	0.005	-0.005	0.010	0.391	2.744	1.909	1.909	1.909	1.924	1.919	1.919
0.005	0.010	0.005	0.005	0.000	-0.020	0.381	2.627	1.899	1.909	1.909	1.924	1.919	1.914
0.000	0.015	0.000	0.000	0.000	0.015	0.386	2.632	1.895	1.904	1.909	1.924	1.924	1.924
-0.005	0.005	0.005	0.000	0.000	0.015	0.391	2.642	1.895	1.899	1.904	1.924	1.924	1.924
0.005	0.010	0.005	0.000	0.000	0.010	0.391	2.642	1.895	1.899	1.909	1.924	1.924	1.924
0.000	0.005	0.000	0.005	0.005	0.010	0.391	2.671	1.899	1.895	1.899	1.924	1.924	1.924
-0.005	-0.015	0.000	0.000	0.005	0.000	0.391	2.754	1.895	1.890	1.895	1.919	1.919	1.919
-0.005	-0.010	0.010	0.000	0.005	0.005	0.391	2.686	1.895	1.890	1.895	1.919	1.919	1.919
-0.005	-0.010	0.000	0.000	0.000	-0.010	0.391	2.686	1.899	1.895	1.890	1.914	1.914	1.909
0.000	0.000	0.005	0.005	0.000	-0.015	0.391	2.700	1.899	1.895	1.890	1.909	1.914	1.914
0.005	0.005	0.005	-0.005	0.005	0.005	0.391	2.700	1.904	1.895	1.890	1.914	1.909	1.914
0.005	-0.005	0.000	-0.005	0.000	0.005	0.391	2.710	1.904	1.895	1.890	1.909	1.904	1.909
0.000	0.005	0.005	0.000	0.000	0.000	0.391	2.715	1.909	1.899	1.895	1.914	1.909	1.909
0.010	-0.005	-0.005	0.005	0.000	-0.020	0.391	2.705	1.909	1.899	1.890	1.909	1.904	1.909
0.005	0.000	0.000	0.000	0.005	0.010	0.396	2.695	1.909	1.904	1.899	1.914	1.909	1.909
0.000	0.000	0.005	-0.005	0.000	-0.005	0.391	2.710	1.904	1.909	1.899	1.914	1.909	1.909
-0.005	0.005	0.000	0.000	0.000	0.005	0.391	2.705	1.914	1.909	1.899	1.914	1.909	1.909
0.005	0.005	0.000	0.000	0.000	-0.020	0.391	2.700	1.909	1.909	1.904	1.919	1.909	1.909
0.015	0.010	0.005	0.005	0.000	0.024	0.381	2.695	1.914	1.909	1.909	1.919	1.914	1.919
0.000	0.005	0.000	0.000	0.000	0.000	0.386	2.710	1.909	1.909	1.909	1.924	1.914	1.909
-0.005	-0.010	-0.005	0.000	0.000	0.015	0.381	2.705	1.914	1.909	1.904	1.924	1.919	1.914
0.015	-0.005	0.005	0.005	0.005	0.010	0.391	2.705	1.919	1.914	1.909	1.924	1.919	1.919
-0.005	-0.005	0.000	0.000	0.000	-0.015	0.391	2.700	1.909	1.909	1.909	1.924	1.914	1.909
-0.005	-0.010	0.005	0.005	0.000	-0.010	0.386	2.686	1.904	1.904	1.909	1.924	1.919	1.914
0.000	0.000	0.000	0.005	0.010	0.024	0.386	2.690	1.909	1.909	1.904	1.929	1.924	1.924
0.000	0.010	0.005	0.005	0.005	0.005	0.386	2.681	1.904	1.909	1.904	1.924	1.919	1.914
0.005	-0.005	0.000	0.005	0.005	-0.005	0.396	2.700	1.904	1.899	1.899	1.919	1.914	1.914
0.000	0.000	0.005	0.005	0.010	-0.010	0.391	2.690	1.899	1.899	1.899	1.914	1.914	1.909
-0.010	0.000	0.000	-0.005	0.000	0.000	0.386	2.705	1.899	1.899	1.899	1.914	1.914	1.909
0.005	-0.005	0.005	0.005	0.000	0.010	0.386	2.681	1.904	1.899	1.899	1.919	1.914	1.919
0.000	-0.005	0.000	0.000	0.000	0.020	0.391	2.676	1.899	1.899	1.899	1.914	1.914	1.919
0.005	0.000	0.000	0.000	0.005	0.005	0.396	2.803	1.909	1.904	1.899	1.919	1.909	1.914
0.005	0.005	0.000	0.000	0.010	-0.029	0.381	2.671	1.899	1.904	1.899	1.914	1.909	1.904
0.005	0.010	0.000	0.000	0.000	-0.010	0.396	2.651	1.904	1.904	1.904	1.919	1.909	1.914
0.005	0.005	0.000	0.005	0.000	0.015	0.386	2.661	1.899	1.904	1.904	1.919	1.914	1.924
-0.005	0.000	0.000	-0.005	0.005	0.010	0.396	2.734	1.909	1.904	1.904	1.919	1.914	1.919
0.000	0.000	0.005	0.000	0.000	0.000	0.391	2.686	1.909	1.909	1.904	1.919	1.919	1.914
0.000	-0.005	0.000	-0.005	0.000	0.005	0.391	2.725	1.914	1.904	1.904	1.919	1.919	1.919
0.000	-0.005	0.005	0.005	0.000	-0.005	0.381	2.666	1.909	1.909	1.904	1.919	1.914	1.914
0.010	0.010	0.000	0.005	0.000	-0.020	0.386	2.734	1.914	1.909	1.904	1.924	1.914	1.909
0.010	-0.010	-0.005	0.000	0.005	0.010	0.381	2.666	1.914	1.904	1.904	1.919	1.919	1.919
0.005	-0.005	0.005	0.005	0.000	0.005	0.386	2.637	1.919	1.909	1.904	1.919	1.919	1.914
0.000	0.000	0.000	0.005	0.005	-0.020	0.386	2.637	1.904	1.909	1.904	1.919	1.914	1.909
-0.010	0.005	0.000	0.000	0.005	0.015	0.386	2.734	1.904	1.909	1.904	1.919	1.914	1.919
0.000	0.000	0.005	0.000	0.005	0.005	0.386	2.739	1.914	1.904	1.904	1.919	1.914	1.919
0.005	0.005	0.000	0.005	0.005	0.005	0.386	2.671	1.904	1.904	1.904	1.919	1.914	1.914
0.000	0.005	0.000	0.005	0.005	-0.005	0.386	2.715	1.895	1.904	1.899	1.919	1.914	1.914
-0.005	0.005	0.005	0.000	0.000	-0.010	0.391	2.686	1.899	1.899	1.904	1.924	1.914	1.909
-0.005	-0.005	0.005	0.000	-0.005	0.015	0.386	2.710	1.899	1.895	1.899	1.924	1.914	1.914
0.000	0.005	0.005	0.000	0.000	0.000	0.386	2.695	1.904	1.904	1.899	1.919	1.919	1.914
0.005	0.000	0.000	0.000	-0.005	0.020	0.386	2.690	1.909	1.904	1.899	1.919	1.919	1.919
0.005	0.005	0.000	0.000	0.000	0.010	0.381	2.700	1.909	1.909	1.904	1.924	1.914	1.919
0.005	0.000	0.000	0.000	-0.005	0.000	0.391	2.686	1.909	1.904	1.904	1.924	1.919	1.914
0.005	0.005	0.005	0.000	0.000	-0.010	0.386	2.715	1.914	1.909	1.904	1.924	1.919	1.914
0.010	0.005	0.005	0.005	0.000	0.015	0.386	2.681	1.909	1.909	1.904	1.924	1.919	1.919
-0.005	-0.005	0.005	0.000	0.005	0.010	0.391	2.676	1.904	1.904	1.904	1.924	1.919	1.919
-0.005	0.005	0.005	0.005	0.010	0.005	0.391	2.700	1.904	1.904	1.904	1.924	1.919	1.919
-0.005	0.015	0.000	0.000	0.000	0.015	0.381	2.700	1.904	1.909	1.904	1.924	1.919	1.919
0.000	0.005	0.000	0.000	0.005	0.015	0.386	2.710	1.909	1.904	1.899	1.919	1.919	1.919
0.005	0.005	0.005	0.005	0.005	0.005	0.381	2.690	1.909	1.904	1.899	1.919	1.914	1.914
-0.005	0.015	0.000	0.005	0.005	-0.024	0.386	2.700	1.899	1.904	1.899	1.914	1.914	1.909
0.000	0.000	0.000	0.000	0.005	0.005	0.391	2.686	1.904	1.899	1.899	1.919	1.914	1.914
0.000	0.000	0.000	0.005	0.005	0.005	0.396	2.695	1.904	1.899	1.899	1.919	1.914	1.914
0.000	0.005	0.000	0.000	0.000	0.005	0.386	2.695	1.904	1.899	1.899	1.914	1.914	1.914
0.000	0.000	0.005	0.005	0.000	0.005	0.386	2.700	1.909	1.904	1.899	1.914	1.914	1.914
0.010	0.000	0.000	0.005	0.000	-0.015	0.381	2.695	1.909	1.904	1.899	1.919	1.914	1.904
-0.005	-0.005	0.000	0.005	0.000	0.005	0.386	2.705	1.904	1.904	1.904	1.919	1.914	1.914
0.000	0.000	0.005	0.000	0.000	0.010	0.391	2.681	1.909	1.909	1.904	1.919	1.914	1.919
0.005	0.005	0.005	0.000	0.000	0.010	0.396	2.690	1.914	1.909	1.904	1.924	1.914	1.919
0.005	-0.005	0.005	0.000	-0.005	0.005	0.386	2.700	1.909	1.909	1.904	1.919	1.914	1.914
0.005	0.005	0.000	0.000	0.000	0.005	0.391	2.671	1.909	1.909	1.904	1.924	1.919	1.919
0.000	-0.005	0.000	0.000	0.000	0.005	0.381	2.808	1.924	1.904	1.904	1.924	1.919	1.919
0.000	0.000	0.000	0.000	0.005	0.005	0.386	2.671	1.914	1.909	1.904	1.924	1.919	1.914
0.005	-0.005	0.005	0.000	0.005	-0.024	0.386	2.651	1.909	1.909	1.904	1.924	1.919	1.909
0.000	-0.015	0.005	0.010	0.005	-0.020	0.386	2.656	1.899	1.904	1.904	1.924	1.914	1.914
0.005	0.000	0.000	0.000	0.005	0.015	0.391	2.729	1.904	1.904	1.899	1.919	1.914	1.924
0.010	0.005	0.000	0.005	0.005	0.010	0.386	2.676	1.904	1.904	1.904	1.919	1.914	1.919
0.000	0.000	-0.005	0.010	0.005	0.000	0.386	2.729	1.904	1.899	1.899	1.919	1.919	1.919
0.000	-0.005	-0.005	0.010	0.005	0.010	0.386	2.690	1.904	1.899	1.899	1.919	1.914	1.919
-0.005	-0.010	0.000	0.005	0.000	0.005	0.386	2.729	1.904	1.899	1.899	1.914	1.914	1.909
0.000	-0.005	0.005	0.000	0.005	-0.020	0.381	2.642	1.914	1.904	1.899	1.914	1.914	1.904
0.000	0.000	0.010	0.000	0.000	0.005	0.386	2.651	1.904	1.904	1.899	1.914	1.914	1.914
0.000	-0.005	0.000	-0.005	0.000	0.005	0.386	2.642	1.904	1.899	1.899	1.919	1.914	1.914
0.005	-0.005	0.000	0.000	-0.005	0.000	0.386	2.739	1.909	1.904	1.899	1.919	1.914	1.914
0.005	0.015	0.000	0.000	0.005	-0.010	0.381	2.646	1.909	1.909	1.904	1.924	1.919	1.914
0.000	0.000	0.000	0.000	0.000	-0.020	0.386	2.671	1.899	1.904	1.904	1.924	1.919	1.914
-0.005	0.020	0.000	-0.005	0.005	-0.010	0.391	2.744	1.904	1.909	1.909	1.924	1.919	1.919
0.000	0.020	0.000	0.000	0.010	-0.010	0.400	2.686	1.904	1.909	1.909	1.929	1.924	1.919
0.000	0.015	0.000	0.005	0.000	0.005	0.391	2.681	1.904	1.909	1.904	1.924	1.919	1.924
0.000	0.005	0.000	0.005	0.000	0.020	0.391	2.700	1.904	1.904	1.904	1.924	1.919	1.924
0.005	0.010	0.005	0.005	0.005	0.024	0.386	2.690	1.909	1.909	1.904	1.924	1.919	1.924
0.000	0.000	0.000	0.000	0.005	0.015	0.386	2.705	1.904	1.899	1.904	1.919	1.919	1.919
-0.010	-0.005	0.005	0.005	0.010	0.020	0.381	2.686	1.899	1.899	1.899	1.919	1.919	1.919
0.000	0.005	0.000	0.005	0.000	0.015	0.391	2.710	1.904	1.904	1.899	1.914	1.914	1.914
0.005	0.000	0.000	0.005	0.000	-0.005	0.386	2.686	1.904	1.899	1.899	1.914	1.909	1.909
0.000	0.000	0.000	0.000	0.005	0.005	0.386	2.700	1.904	1.899	1.895	1.914	1.914	1.914
0.005	0.000	0.005	0.005	0.005	0.005	0.386	2.700	1.904	1.895	1.899	1.914	1.909	1.914
0.005	0.005	0.000	0.000	0.005	0.005	0.391	2.690	1.909	1.899	1.899	1.914	1.909	1.914
0.005	-0.005	0.005	0.000	0.005	0.000	0.386	2.700	1.909	1.904	1.899	1.919	1.914	1.909
0.000	0.000	0.000	0.000	-0.005	-0.005	0.381	2.686	1.909	1.909	1.899	1.919	1.914	1.909
0.010	-0.005	0.010	0.000	-0.005	0.000	0.376	2.695	1.914	1.909	1.904	1.919	1.914	1.914
0.000	-0.010	0.000	0.000	0.000	0.000	0.381	2.681	1.909	1.909	1.904	1.919	1.914	1.914
0.005	-0.005	0.005	0.000	0.000	-0.005	0.386	2.705	1.909	1.909	1.909	1.924	1.914	1.919
0.005	0.000	0.010	0.000	0.005	-0.020	0.391	2.695	1.914	1.909	1.909	1.929	1.919	1.914
0.000	-0.005	0.005	0.000	0.000	0.005	0.391	2.705	1.914	1.909	1.909	1.929	1.924	1.919
-0.005	0.000	0.000	0.005	0.000	-0.005	0.381	2.705	1.909	1.909	1.904	1.924	1.919	1.919
0.000	0.000	0.000	0.000	0.000	0.000	0.386	2.695	1.909	1.909	1.904	1.924	1.919	1.919
-0.005	0.000	0.005	0.000	0.005	0.005	0.391	2.681	1.899	1.904	1.909	1.924	1.924	1.924
0.000	0.020	0.000	0.000	0.005	0.010	0.386	2.681	1.904	1.909	1.904	1.924	1.919	1.924
0.005	0.010	0.000	0.000	0.005	0.020	0.381	2.695	1.904	1.904	1.904	1.919	1.919	1.919
0.005	0.010	0.000	0.005	0.005	-0.015	0.386	2.671	1.899	1.899	1.899	1.919	1.914	1.909
0.005	0.000	-0.005	0.005	0.000	0.015	0.381	2.661	1.899	1.899	1.899	1.919	1.914	1.919
0.005	0.000	0.005	0.010	0.000	0.015	0.386	2.681	1.895	1.895	1.899	1.919	1.914	1.919
0.005	0.000	0.000	0.005	0.000	-0.020	0.381	2.798	1.914	1.899	1.899	1.919	1.914	1.909
0.000	0.005	0.005	0.005	0.005	0.010	0.391	2.666	1.909	1.899	1.899	1.919	1.914	1.919
0.005	0.000	0.000	0.000	-0.005	0.005	0.381	2.656	1.904	1.904	1.899	1.919	1.909	1.919
0.010	-0.010	0.000	0.005	0.000	0.005	0.391	2.681	1.904	1.904	1.899	1.919	1.914	1.914
0.010	0.005	0.000	0.005	0.000	0.005	0.386	2.661	1.904	1.909	1.904	1.919	1.914	1.914
0.000	-0.020	0.010	0.000	-0.005	0.010	0.391	2.671	1.904	1.899	1.904	1.919	1.914	1.919
0.010	-0.005	0.000	0.005	0.005	-0.020	0.381	2.749	1.909	1.904	1.904	1.919	1.919	1.914
0.005	-0.005	-0.005	0.000	0.005	0.010	0.391	2.720	1.904	1.909	1.904	1.919	1.919	1.924
-0.005	0.000	0.000	-0.005	0.005	-0.005	0.381	2.661	1.904	1.904	1.904	1.924	1.914	1.914
0.000	0.005	0.000	0.000	0.005	0.000	0.386	2.734	1.909	1.909	1.904	1.919	1.919	1.919
0.000	0.005	0.005	0.000	0.010	0.020	0.386	2.729	1.914	1.909	1.909	1.919	1.919	1.924
-0.005	0.005	-0.005	0.000	0.005	0.015	0.386	2.632	1.904	1.904	1.904	1.919	1.914	1.919
-0.005	0.034	0.000	0.000	0.005	0.005	0.386	2.666	1.899	1.909	1.904	1.924	1.914	1.914
0.000	0.020	0.000	0.000	0.005	0.010	0.386	2.744	1.904	1.904	1.904	1.919	1.914	1.914
0.000	0.015	0.000	0.005	0.005	0.005	0.376	2.671	1.904	1.904	1.899	1.919	1.914	1.914
0.000	0.015	0.000	0.000	0.005	0.000	0.381	2.690	1.899	1.899	1.899	1.919	1.914	1.909
0.000	0.010	0.005	-0.005	0.000	-0.010	0.381	2.686	1.899	1.899	1.899	1.919	1.914	1.909
-0.005	0.010	0.005	0.010	0.005	-0.010	0.386	2.676	1.895	1.895	1.899	1.919	1.914	1.914
0.005	0.000	0.000	0.005	0.000	-0.010	0.391	2.690	1.904	1.899	1.899	1.919	1.914	1.914
0.000	0.000	0.005	0.005	0.005	-0.015	0.386	2.686	1.904	1.899	1.899	1.919	1.914	1.914
0.000	0.000	0.000	0.005	0.000	0.015	0.381	2.705	1.904	1.899	1.899	1.919	1.919	1.924
-0.005	0.005	0.000	0.000	0.000	0.005	0.381	2.695	1.909	1.904	1.899	1.919	1.914	1.914
0.005	-0.005	0.000	0.000	0.000	0.010	0.381	2.700	1.914	1.904	1.904	1.919	1.919	1.924
-0.005	0.000	0.000	-0.005	0.005	0.005	0.386	2.700	1.914	1.904	1.904	1.924	1.914	1.919
-0.005	-0.005	0.000	-0.005	0.000	0.005	0.391	2.690	1.909	1.909	1.904	1.924	1.914	1.914
0.000	-0.010	0.010	0.005	0.000	0.000	0.386	2.686	1.904	1.909	1.904	1.924	1.919	1.919
0.000	-0.005	0.010	0.000	0.000	-0.005	0.381	2.690	1.909	1.909	1.909	1.924	1.919	1.914
0.010	-0.005	0.000	0.000	0.005	0.005	0.376	2.700	1.909	1.904	1.904	1.924	1.919	1.919
0.000	-0.015	0.005	0.000	0.005	0.005	0.386	2.695	1.899	1.899	1.899	1.919	1.919	1.919
0.010	-0.010	0.000	0.000	0.000	-0.010	0.381	2.700	1.904	1.899	1.899	1.919	1.914	1.914
0.000	-0.005	0.000	0.005	0.010	-0.005	0.391	2.681	1.899	1.904	1.899	1.919	1.914	1.919
0.010	-0.005	-0.005	0.000	0.000	0.000	0.386	2.686	1.899	1.899	1.895	1.919	1.909	1.914
-0.005	-0.005	0.000	0.005	0.000	-0.010	0.396	2.695	1.904	1.899	1.895	1.919	1.909	1.909
-0.005	0.005	0.005	0.000	0.000	-0.005	0.381	2.710	1.904	1.904	1.899	1.914	1.909	1.909
0.010	0.000	-0.005	0.000	0.000	-0.020	0.381	2.690	1.904	1.899	1.899	1.914	1.909	1.909
0.005	-0.005	0.000	0.000	0.000	-0.010	0.376	2.690	1.909	1.904	1.899	1.919	1.909	1.914
0.005	0.005	0.000	0.005	0.000	-0.024	0.386	2.690	1.909	1.909	1.904	1.919	1.914	1.909
0.010	0.000	0.010	0.005	0.000	-0.020	0.386	2.676	1.904	1.909	1.904	1.919	1.914	1.914
0.000	0.015	-0.005	0.000	0.000	0.005	0.386	2.798	1.914	1.909	1.904	1.919	1.919	1.919
0.010	0.015	0.000	0.005	0.000	0.024	0.381	2.676	1.914	1.909	1.909	1.924	1.919	1.924
0.000	0.000	0.005	0.000	0.000	0.005	0.391	2.656	1.909	1.904	1.909	1.924	1.919	1.914
-0.005	-0.010	0.005	0.005	0.000	0.010	0.376	2.666	1.899	1.904	1.904	1.924	1.919	1.924
0.005	0.010	0.000	0.005	0.000	0.005	0.386	2.739	1.909	1.909	1.904	1.924	1.919	1.919
0.000	0.015	0.000	0.000	0.005	-0.005	0.386	2.690	1.904	1.909	1.909	1.924	1.919	1.919
-0.010	0.000	0.000	0.000	0.005	-0.015	0.386	2.637	1.895	1.904	1.899	1.919	1.914	1.909
-0.005	0.015	0.000	0.000	0.005	0.005	0.381	2.808	1.899	1.899	1.899	1.919	1.919	1.919
0.000	0.005	-0.005	0.005	0.005	0.010	0.386	2.725	1.895	1.899	1.899	1.919	1.914	1.919
-0.005	0.005	0.000	0.000	0.005	-0.005	0.386	2.744	1.904	1.895	1.895	1.919	1.914	1.914
0.000	-0.005	0.000	0.000	0.005	-0.010	0.381	2.725	1.909	1.895	1.895	1.914	1.914	1.909
0.000	-0.005	0.005	0.000	0.000	0.000	0.381	2.661	1.904	1.895	1.895	1.914	1.909	1.919
0.000	0.000	0.005	0.005	0.000	0.000	0.386	2.739	1.909	1.899	1.895	1.914	1.914	1.914
-0.005	0.005	0.000	0.005	-0.005	0.010	0.381	2.637	1.899	1.904	1.899	1.914	1.909	1.914
0.005	0.000	0.000	0.005	0.000	0.015	0.381	2.651	1.899	1.904	1.899	1.919	1.909	1.919
0.010	0.010	0.005	-0.005	-0.005	-0.020	0.381	2.739	1.909	1.904	1.899	1.919	1.909	1.904
0.005	-0.010	0.010	0.000	-0.005	0.024	0.381	2.676	1.909	1.899	1.899	1.919	1.914	1.924
0.000	-0.020	0.000	0.000	0.000	0.015	0.376	2.681	1.909	1.899	1.899	1.919	1.919	1.919
0.005	0.000	0.000	0.010	0.005	0.010	0.386	2.705	1.909	1.904	1.899	1.924	1.919	1.914
0.010	-0.005	0.000	0.000	0.000	-0.020	0.386	2.695	1.909	1.909	1.904	1.919	1.914	1.914
-0.010	-0.010	0.000	0.000	0.000	-0.020	0.376	2.710	1.904	1.904	1.899	1.919	1.919	1.909
0.005	0.000	0.005	0.000	0.005	-0.010	0.391	2.715	1.914	1.909	1.904	1.924	1.914	1.919
0.000	0.005	0.000	0.000	0.005	0.000	0.386	2.705	1.909	1.909	1.904	1.919	1.919	1.919
0.000	0.029	0.005	0.000	0.005	0.005	0.391	2.690	1.909	1.909	1.909	1.924	1.914	1.919
-0.005	0.015	0.000	0.000	0.010	-0.015	0.386	2.681	1.909	1.904	1.904	1.919	1.914	1.909
-0.005	0.005	0.000	0.005	0.010	0.010	0.386	2.681	1.899	1.899	1.899	1.919	1.914	1.919
0.005	0.010	0.000	0.005	0.005	0.010	0.376	2.705	1.904	1.899	1.899	1.919	1.909	1.909
0.000	0.000	0.005	0.000	0.005	0.010	0.386	2.690	1.899	1.899	1.899	1.919	1.909	1.919
0.000	0.015	0.000	0.005	0.005	0.005	0.386	2.700	1.904	1.899	1.899	1.919	1.909	1.919
0.000	0.005	0.005	0.000	0.005	0.010	0.381	2.690	1.904	1.899	1.899	1.919	1.914	1.914
0.010	0.005	0.005	0.000	0.000	0.005	0.376	2.705	1.904	1.899	1.899	1.914	1.909	1.914
0.015	-0.005	-0.005	0.005	-0.005	-0.005	0.386	2.700	1.909	1.904	1.899	1.919	1.914	1.914
0.005	0.005	0.000	0.000	0.000	0.000	0.376	2.695	1.909	1.904	1.899	1.914	1.914	1.914
0.000	0.005	0.005	0.000	0.000	0.000	0.386	2.690	1.909	1.909	1.904	1.919	1.914	1.914
0.005	-0.010	0.000	0.005	0.000	0.000	0.386	2.715	1.914	1.909	1.904	1.924	1.919	1.914
0.005	-0.020	0.000	0.000	0.000	-0.015	0.386	2.705	1.909	1.904	1.909	1.919	1.919	1.914
-0.005	-0.015	0.000	0.010	0.000	0.005	0.376	2.690	1.904	1.904	1.904	1.924	1.919	1.924
0.000	-0.015	-0.005	0.005	0.005	0.000	0.381	2.690	1.909	1.909	1.909	1.919	1.919	1.919
-0.005	0.010	-0.005	0.000	0.000	-0.020	0.381	2.686	1.904	1.914	1.904	1.924	1.919	1.909
-0.005	0.015	0.005	0.005	0.010	0.010	0.386	2.671	1.904	1.909	1.909	1.924	1.919	1.924
-0.010	0.010	-0.005	0.005	0.010	0.010	0.386	2.798	1.909	1.904	1.904	1.924	1.914	1.919
0.000	0.005	0.005	0.000	0.005	0.000	0.386	2.676	1.909	1.904	1.904	1.924	1.914	1.919
-0.005	-0.005	-0.005	0.000	0.005	0.005	0.381	2.642	1.899	1.899	1.899	1.919	1.914	1.914
0.000	0.005	0.000	0.000	0.010	-0.020	0.386	2.661	1.904	1.904	1.899	1.919	1.914	1.904
0.000	0.010	0.005	0.005	-0.005	0.000	0.381	2.734	1.904	1.899	1.899	1.919	1.909	1.909
0.005	0.020	0.000	0.000	0.000	0.020	0.386	2.705	1.909	1.904	1.899	1.924	1.914	1.919
0.005	0.010	-0.005	0.010	-0.005	0.000	0.381	2.725	1.909	1.904	1.899	1.919	1.914	1.914
0.005	0.000	0.000	0.000	0.000	0.015	0.381	2.666	1.904	1.899	1.904	1.919	1.914	1.919
0.010	0.005	0.000	0.000	0.000	0.015	0.381	2.744	1.909	1.904	1.899	1.919	1.914	1.914
0.005	0.005	0.005	-0.005	-0.005	0.010	0.381	2.734	1.909	1.909	1.909	1.924	1.919	1.919
0.010	0.000	-0.005	0.000	-0.005	-0.015	0.386	2.744	1.914	1.909	1.904	1.924	1.919	1.914
0.005	0.005	0.000	-0.005	0.005	0.005	0.376	2.642	1.909	1.909	1.909	1.924	1.919	1.919
0.005	-0.005	0.005	0.000	0.000	0.010	0.381	2.632	1.899	1.904	1.909	1.924	1.924	1.919
0.005	-0.005	0.000	0.000	0.005	0.005	0.381	2.729	1.909	1.904	1.909	1.924	1.924	1.924
0.005	0.005	0.005	0.005	0.005	0.010	0.381	2.661	1.904	1.909	1.904	1.924	1.924	1.924
-0.005	0.010	0.005	0.005	0.005	-0.005	0.381	2.744	1.899	1.904	1.904	1.924	1.924	1.919
-0.005	0.010	0.000	0.005	0.010	0.005	0.391	2.681	1.899	1.904	1.904	1.924	1.919	1.919
-0.005	0.000	0.000	0.005	-0.005	-0.029	0.381	2.690	1.895	1.895	1.895	1.919	1.914	1.909
0.000	-0.005	0.000	0.005	0.000	0.000	0.381	2.700	1.904	1.899	1.895	1.919	1.914	1.914
-0.005	-0.005	0.005	0.000	0.000	-0.005	0.381	2.686	1.899	1.895	1.895	1.914	1.914	1.909
0.000	-0.015	0.000	0.005	0.000	0.015	0.391	2.700	1.899	1.895	1.895	1.914	1.914	1.919
0.005	-0.010	0.005	0.005	0.000	0.010	0.381	2.700	1.904	1.895	1.895	1.909	1.914	1.914
0.000	-0.005	0.000	0.000	0.000	0.005	0.386	2.700	1.899	1.899	1.895	1.909	1.909	1.914
0.000	0.005	0.005	0.005	0.000	-0.010	0.376	2.690	1.904	1.899	1.899	1.919	1.909	1.909
0.000	0.010	0.005	0.000	0.000	-0.005	0.381	2.710	1.909	1.904	1.895	1.914	1.909	1.909
-0.005	-0.005	0.000	0.005	-0.005	0.005	0.376	2.700	1.909	1.904	1.899	1.919	1.914	1.919
0.000	0.000	-0.005	0.000	0.005	-0.005	0.386	2.681	1.904	1.909	1.904	1.919	1.914	1.919
0.000	0.010	0.000	0.000	-0.005	-0.005	0.386	2.686	1.909	1.909	1.909	1.919	1.914	1.909
0.005	0.010	0.000	-0.005	0.000	-0.005	0.386	2.705	1.914	1.909	1.904	1.924	1.919	1.919
0.005	0.000	0.005	0.000	0.005	0.010	0.386	2.710	1.914	1.909	1.909	1.924	1.919	1.919
0.005	0.005	0.005	0.005	0.005	0.010	0.376	2.695	1.914	1.909	1.909	1.924	1.919	1.919
-0.005	-0.020	0.000	0.000	0.000	0.000	0.386	2.705	1.909	1.904	1.904	1.924	1.919	1.914
0.000	-0.005	0.000	0.000	0.000	0.000	0.381	2.690	1.909	1.904	1.904	1.924	1.919	1.919
-0.005	-0.005	0.005	0.010	0.005	-0.005	0.386	2.690	1.904	1.904	1.904	1.924	1.919	1.914
0.000	0.000	0.000	0.015	0.000	-0.005	0.386	2.681	1.904	1.904	1.904	1.924	1.919	1.914
0.005	0.000	0.000	0.005	0.010	0.000	0.386	2.705	1.904	1.904	1.899	1.919	1.919	1.914
0.000	0.005	0.000	0.000	0.000	0.015	0.386	2.686	1.904	1.899	1.899	1.919	1.914	1.914
0.000	0.005	0.000	0.000	0.000	0.005	0.391	2.686	1.904	1.904	1.899	1.914	1.914	1.914
0.005	0.000	0.000	0.005	0.005	0.000	0.386	2.690	1.899	1.899	1.899	1.919	1.914	1.914
0.000	0.005	-0.005	0.000	-0.005	0.010	0.386	2.686	1.899	1.899	1.895	1.919	1.909	1.914
0.005	0.010	0.000	0.005	0.005	-0.010	0.381	2.803	1.914	1.904	1.899	1.919	1.909	1.904
0.005	0.005	0.000	0.000	0.005	-0.005	0.386	2.676	1.914	1.904	1.904	1.919	1.914	1.914
0.000	0.015	0.000	0.005	-0.005	0.005	0.386	2.656	1.904	1.909	1.904	1.919	1.914	1.919
0.010	0.005	0.000	0.000	0.000	0.010	0.386	2.666	1.904	1.904	1.904	1.924	1.914	1.919
0.005	0.005	0.000	0.000	0.000	0.010	0.381	2.725	1.909	1.904	1.904	1.924	1.919	1.919
-0.005	0.000	0.000	0.000	-0.005	-0.020	0.381	2.676	1.904	1.904	1.904	1.924	1.914	1.914
0.000	0.005	0.005	0.000	0.005	0.005	0.381	2.637	1.904	1.909	1.909	1.924	1.919	1.919
0.000	0.000	0.000	0.005	0.000	-0.005	0.386	2.686	1.919	1.904	1.904	1.924	1.919	1.914
-0.005	0.000	0.000	0.000	0.000	-0.024	0.386	2.637	1.909	1.909	1.909	1.924	1.919	1.914
0.005	-0.005	0.000	0.005	0.005	-0.005	0.386	2.637	1.904	1.904	1.904	1.924	1.919	1.924
-0.005	0.000	0.000	0.000	0.000	-0.020	0.376	2.729	1.904	1.904	1.899	1.924	1.919	1.914
0.000	-0.005	0.000	0.005	0.005	0.005	0.386	2.646	1.899	1.899	1.899	1.924	1.919	1.919
-0.005	0.010	0.010	-0.005	0.005	0.020	0.391	2.749	1.899	1.899	1.899	1.919	1.914	1.924
0.005	0.005	0.005	0.000	0.005	0.010	0.386	2.729	1.904	1.899	1.895	1.919	1.914	1.919
0.005	0.005	0.005	0.000	0.005	-0.020	0.391	2.666	1.904	1.895	1.899	1.919	1.909	1.909
0.000	0.020	0.000	0.005	0.000	0.005	0.391	2.739	1.909	1.904	1.899	1.914	1.909	1.914
0.000	0.024	0.000	0.000	0.000	0.010	0.386	2.686	1.909	1.909	1.899	1.919	1.914	1.914
0.000	0.020	0.005	0.000	0.000	0.010	0.381	2.681	1.909	1.909	1.904	1.919	1.914	1.914
0.010	0.015	0.005	0.000	-0.005	0.010	0.381	2.695	1.914	1.904	1.904	1.919	1.914	1.914
0.010	0.000	0.000	0.005	-0.005	-0.015	0.386	2.690	1.914	1.904	1.904	1.924	1.914	1.914
0.000	0.005	0.005	0.005	0.000	0.010	0.381	2.700	1.909	1.904	1.904	1.924	1.919	1.919
0.005	0.005	0.005	0.005	0.000	-0.005	0.381	2.695	1.914	1.909	1.904	1.924	1.919	1.914
0.010	-0.010	0.005	0.005	0.000	-0.020	0.381	2.700	1.909	1.909	1.909	1.924	1.919	1.909
0.005	-0.005	0.000	0.000	0.000	-0.005	0.376	2.686	1.904	1.904	1.904	1.924	1.919	1.919
0.000	-0.005	0.010	0.010	0.005	0.000	0.376	2.690	1.904	1.904	1.904	1.929	1.924	1.919
0.000	-0.005	0.005	0.000	0.005	0.015	0.376	2.700	1.904	1.909	1.904	1.924	1.924	1.924
-0.005	-0.005	0.000	0.000	0.005	-0.015	0.386	2.710	1.904	1.904	1.899	1.924	1.919	1.914
0.005	-0.015	0.005	0.000	0.000	-0.005	0.381	2.686	1.904	1.899	1.899	1.919	1.914	1.919
0.005	-0.029	0.000	0.000	0.005	0.015	0.381	2.700	1.909	1.899	1.899	1.919	1.914	1.924
-0.015	-0.005	0.000	0.005	0.005	0.005	0.381	2.686	1.899	1.899	1.899	1.914	1.914	1.914
-0.010	0.000	-0.005	0.000	0.005	0.000	0.391	2.690	1.899	1.899	1.895	1.914	1.914	1.914
0.000	0.000	0.005	0.000	0.000	0.005	0.386	2.710	1.904	1.899	1.899	1.914	1.909	1.914
0.000	-0.005	0.000	0.005	0.000	0.000	0.381	2.690	1.904	1.899	1.899	1.914	1.909	1.914
0.005	0.005	0.005	0.005	0.000	0.010	0.376	2.676	1.904	1.909	1.899	1.919	1.914	1.919
0.005	0.000	0.000	0.005	0.000	0.010	0.386	2.700	1.904	1.909	1.904	1.919	1.914	1.919
0.015	0.005	0.000	0.005	0.000	0.005	0.376	2.710	1.914	1.909	1.904	1.924	1.914	1.914
0.005	0.005	0.005	0.000	0.000	0.000	0.381	2.695	1.909	1.909	1.904	1.924	1.914	1.914
0.005	-0.005	0.000	0.000	0.000	0.000	0.381	2.700	1.909	1.909	1.909	1.924	1.919	1.914
0.000	0.020	0.000	0.005	0.005	-0.005	0.381	2.695	1.914	1.914	1.909	1.924	1.919	1.914
0.000	0.015	0.000	0.000	0.000	-0.015	0.381	2.681	1.909	1.909	1.909	1.924	1.919	1.914
0.000	0.015	0.000	0.000	0.005	-0.010	0.386	2.817	1.924	1.909	1.909	1.924	1.919	1.914
0.000	0.005	0.000	0.005	0.000	0.010	0.386	2.676	1.914	1.909	1.909	1.924	1.919	1.924
0.000	0.005	0.005	0.005	0.005	0.000	0.386	2.646	1.909	1.909	1.909	1.924	1.919	1.924
-0.010	0.005	0.000	0.000	0.000	0.005	0.381	2.656	1.899	1.904	1.904	1.924	1.919	1.924
-0.005	0.000	0.000	0.000	0.000	0.000	0.376	2.725	1.904	1.899	1.904	1.919	1.914	1.919
-0.005	0.000	0.005	0.000	0.005	-0.020	0.381	2.700	1.904	1.899	1.904	1.919	1.914	1.909
0.010	-0.005	-0.005	0.000	-0.005	0.010	0.381	2.651	1.909	1.899	1.895	1.919	1.914	1.919
-0.005	-0.010	0.005	0.000	0.000	-0.010	0.386	2.808	1.919	1.904	1.899	1.919	1.914	1.914
0.000	-0.005	0.000	0.000	0.000	0.015	0.381	2.646	1.909	1.909	1.899	1.914	1.914	1.919
-0.005	-0.005	0.005	0.000	0.000	0.010	0.381	2.739	1.914	1.909	1.904	1.919	1.914	1.919
0.000	-0.005	-0.005	0.000	-0.005	-0.005	0.386	2.729	1.914	1.909	1.904	1.919	1.914	1.919
0.005	0.000	0.005	0.000	0.000	0.005	0.391	2.651	1.909	1.914	1.904	1.924	1.919	1.914
0.005	0.010	0.000	0.000	0.005	0.010	0.386	2.651	1.909	1.914	1.909	1.929	1.919	1.919
0.010	0.000	0.000	0.000	0.000	0.000	0.391	2.646	1.904	1.909	1.909	1.924	1.919	1.919
0.010	0.000	0.000	0.005	-0.005	0.000	0.381	2.656	1.904	1.909	1.909	1.929	1.919	1.919
0.010	-0.005	0.000	0.000	0.000	0.005	0.386	2.744	1.914	1.904	1.909	1.929	1.924	1.924
0.010	-0.005	0.005	0.005	-0.005	0.005	0.381	2.666	1.909	1.904	1.909	1.929	1.924	1.924
-0.005	0.010	0.005	0.005	0.000	-0.005	0.386	2.700	1.909	1.909	1.909	1.929	1.924	1.919
0.005	0.005	0.005	0.000	0.005	0.005	0.386	2.700	1.914	1.909	1.904	1.929	1.924	1.919
-0.015	0.000	0.000	-0.005	0.000	-0.020	0.386	2.705	1.909	1.909	1.904	1.924	1.924	1.914
-0.010	0.000	0.000	0.000	0.005	0.005	0.386	2.695	1.904	1.904	1.899	1.919	1.919	1.919
0.005	0.005	0.000	0.000	0.000	0.005	0.391	2.681	1.909	1.904	1.904	1.924	1.919	1.919
-0.005	0.005	0.000	0.000	0.005	0.005	0.386	2.686	1.899	1.899	1.899	1.924	1.919	1.919
-0.005	0.005	0.005	0.000	0.005	0.005	0.386	2.690	1.904	1.899	1.899	1.919	1.914	1.919
-0.005	-0.005	0.005	0.010	0.000	-0.005	0.386	2.676	1.904	1.899	1.899	1.919	1.909	1.914
-0.010	-0.010	0.000	0.000	0.000	0.005	0.391	2.700	1.899	1.899	1.895	1.914	1.909	1.914
-0.005	0.005	0.000	0.000	0.000	0.000	0.376	2.700	1.909	1.904	1.899	1.919	1.909	1.914
0.015	0.005	0.000	0.000	-0.005	-0.005	0.381	2.710	1.914	1.904	1.899	1.919	1.914	1.909
0.015	0.000	0.000	0.000	0.000	0.000	0.376	2.671	1.914	1.909	1.904	1.919	1.914	1.919
0.015	0.000	0.005	0.000	0.000	0.000	0.381	2.686	1.914	1.909	1.909	1.924	1.919	1.919
0.015	0.010	0.005	0.000	0.000	0.000	0.386	2.705	1.914	1.914	1.909	1.924	1.919	1.919
0.010	0.015	0.005	0.000	0.005	0.000	0.381	2.710	1.914	1.914	1.909	1.929	1.919	1.919
0.010	0.000	0.005	0.000	0.000	0.000	0.381	2.681	1.909	1.909	1.909	1.924	1.919	1.919
0.015	0.000	0.000	0.000	0.005	0.000	0.381	2.681	1.909	1.909	1.909	1.929	1.919	1.924
0.005	-0.005	0.000	0.000	0.005	0.000	0.376	2.695	1.909	1.904	1.909	1.929	1.924	1.919
-0.005	0.005	0.005	0.000	0.005	-0.034	0.381	2.705	1.909	1.909	1.909	1.929	1.924	1.914
-0.005	-0.005	0.005	0.005	0.005	0.000	0.386	2.671	1.904	1.904	1.909	1.924	1.919	1.924
0.000	-0.005	0.005	0.005	0.005	0.000	0.391	2.671	1.904	1.904	1.904	1.924	1.919	1.919
0.000	0.000	0.005	0.005	0.005	-0.005	0.381	2.690	1.899	1.899	1.904	1.919	1.919	1.919
-0.005	0.015	0.005	0.005	0.005	-0.024	0.381	2.671	1.899	1.899	1.899	1.919	1.914	1.914
0.000	0.010	-0.005	0.005	0.000	0.000	0.381	2.788	1.909	1.904	1.899	1.914	1.914	1.914
0.000	0.005	0.000	0.000	0.000	0.005	0.381	2.671	1.909	1.899	1.899	1.914	1.914	1.919
-0.005	0.005	-0.005	0.005	0.005	0.005	0.381	2.661	1.904	1.904	1.899	1.919	1.914	1.914
-0.005	0.005	0.000	0.005	0.005	0.000	0.381	2.661	1.904	1.904	1.899	1.914	1.914	1.919
0.000	0.000	0.000	0.005	0.005	-0.005	0.381	2.734	1.904	1.904	1.899	1.919	1.914	1.909
0.010	0.005	0.000	0.000	0.015	0.015	0.381	2.700	1.919	1.909	1.904	1.919	1.919	1.924
0.005	0.000	0.000	0.005	0.024	0.020	0.391	2.651	1.909	1.909	1.904	1.924	1.919	1.924
0.005	-0.015	0.000	0.005	0.020	0.015	0.376	2.798	1.904	1.904	1.904	1.924	1.919	1.919
0.000	-0.005	0.000	0.005	0.024	0.010	0.381	2.734	1.914	1.909	1.909	1.929	1.924	1.924
-0.005	0.000	0.000	0.005	0.024	0.015	0.381	2.734	1.914	1.909	1.909	1.924	1.919	1.924
-0.005	-0.005	0.005	0.005	0.020	0.015	0.391	2.734	1.919	1.909	1.909	1.929	1.919	1.924
-0.010	0.005	0.000	0.005	0.015	0.020	0.386	2.656	1.909	1.914	1.909	1.924	1.924	1.919
-0.024	0.010	0.005	0.005	0.015	0.020	0.391	2.637	1.899	1.909	1.904	1.924	1.919	1.919
-0.015	0.000	0.000	0.000	0.010	0.000	0.381	2.646	1.904	1.904	1.904	1.924	1.919	1.919
0.010	-0.010	-0.005	0.000	0.010	0.015	0.386	2.676	1.914	1.904	1.899	1.924	1.914	1.914
0.000	0.000	0.000	0.000	0.010	0.020	0.381	2.734	1.909	1.904	1.899	1.919	1.914	1.919
-0.005	0.010	0.005	-0.005	0.005	0.020	0.381	2.681	1.904	1.904	1.899	1.919	1.914	1.914
-0.005	0.005	0.000	0.000	0.010	0.010	0.381	2.710	1.904	1.904	1.899	1.919	1.914	1.914
-0.005	0.005	0.005	0.000	0.005	0.015	0.386	2.715	1.909	1.904	1.904	1.919	1.914	1.909
0.010	0.000	0.005	0.005	0.005	0.010	0.386	2.690	1.909	1.904	1.899	1.919	1.914	1.914
0.000	0.015	0.005	0.005	0.000	0.010	0.381	2.700	1.909	1.909	1.904	1.924	1.914	1.914
0.005	-0.010	-0.005	0.000	0.005	0.005	0.381	2.695	1.909	1.904	1.904	1.919	1.914	1.909
0.029	0.000	0.000	0.000	-0.005	-0.005	0.386	2.705	1.914	1.909	1.904	1.919	1.914	1.914
0.034	-0.005	-0.005	0.000	-0.005	0.010	0.381	2.686	1.914	1.909	1.909	1.924	1.919	1.919
0.034	0.000	0.005	0.005	-0.005	0.000	0.391	2.705	1.919	1.914	1.909	1.924	1.919	1.914
0.034	-0.005	0.010	0.000	-0.010	0.005	0.386	2.690	1.914	1.914	1.914	1.924	1.919	1.919
0.029	0.000	0.000	0.005	-0.010	0.000	0.376	2.705	1.909	1.919	1.909	1.929	1.924	1.914
0.024	0.000	0.000	0.000	-0.010	-0.029	0.381	2.676	1.904	1.909	1.909	1.924	1.919	1.909
0.000	0.000	0.005	0.000	-0.010	0.005	0.381	2.686	1.895	1.904	1.909	1.929	1.924	1.924
-0.010	0.005	0.000	0.000	-0.005	0.000	0.386	2.671	1.895	1.904	1.904	1.929	1.924	1.924
0.000	0.000	0.000	0.005	-0.010	-0.015	0.381	2.681	1.895	1.899	1.904	1.924	1.919	1.919
-0.005	0.005	0.000	0.000	-0.010	-0.005	0.381	2.705	1.895	1.899	1.899	1.919	1.919	1.914
-0.015	-0.010	0.010	0.000	-0.010	0.010	0.381	2.695	1.895	1.890	1.899	1.919	1.914	1.924
-0.020	0.005	0.005	0.000	-0.010	-0.010	0.381	2.695	1.899	1.895	1.895	1.919	1.914	1.914
-0.020	0.005	0.000	0.000	-0.005	0.005	0.386	2.710	1.904	1.895	1.895	1.914	1.914	1.919
-0.010	0.000	0.000	0.005	-0.005	0.005	0.391	2.710	1.909	1.899	1.895	1.914	1.909	1.914
-0.010	0.000	0.000	0.005	-0.015	-0.005	0.381	2.681	1.904	1.899	1.895	1.909	1.909	1.909
-0.005	-0.010	0.000	0.005	-0.010	-0.005	0.381	2.686	1.909	1.904	1.895	1.909	1.914	1.909
-0.015	0.005	0.000	0.005	-0.010	-0.005	0.381	2.695	1.909	1.909	1.899	1.914	1.909	1.909
-0.010	0.005	0.005	0.000	-0.005	0.000	0.391	2.822	1.909	1.909	1.904	1.919	1.914	1.914
0.005	0.005	0.005	0.000	-0.005	0.000	0.381	2.656	1.909	1.909	1.904	1.919	1.914	1.919
0.000	0.010	0.000	-0.005	0.000	-0.005	0.381	2.676	1.909	1.909	1.904	1.919	1.919	1.919
0.000	0.000	0.000	0.000	0.000	0.000	0.386	2.656	1.919	1.914	1.909	1.924	1.919	1.919
0.005	0.005	0.005	0.000	-0.005	0.000	0.386	2.671	1.914	1.914	1.909	1.924	1.919	1.919
0.010	0.005	-0.005	0.000	0.010	0.005	0.381	2.739	1.919	1.909	1.909	1.924	1.919	1.919
0.005	-0.005	0.005	0.000	0.005	-0.020	0.381	2.681	1.909	1.909	1.909	1.924	1.919	1.909
0.005	0.005	0.005	0.000	0.005	-0.005	0.381	2.744	1.914	1.909	1.909	1.924	1.919	1.914
0.010	0.005	0.010	0.000	0.005	0.005	0.391	2.676	1.909	1.909	1.909	1.924	1.919	1.919
0.000	-0.005	0.000	0.000	0.010	0.000	0.386	2.642	1.899	1.904	1.904	1.924	1.919	1.919
-0.005	0.000	0.000	0.000	0.005	-0.005	0.386	2.642	1.895	1.899	1.904	1.924	1.914	1.914
-0.020	0.000	0.000	0.000	0.005	-0.005	0.381	2.651	1.885	1.899	1.899	1.919	1.914	1.914
-0.020	0.000	0.000	0.000	0.000	0.000	0.386	2.637	1.890	1.890	1.895	1.924	1.914	1.914
-0.005	0.005	0.000	0.005	0.000	0.000	0.386	2.720	1.899	1.895	1.895	1.919	1.919	1.914
0.000	0.005	0.005	0.005	0.000	0.005	0.381	2.749	1.914	1.899	1.895	1.919	1.914	1.919
0.005	0.005	0.005	0.005	0.000	0.010	0.386	2.690	1.914	1.899	1.895	1.919	1.914	1.919
0.015	0.000	0.000	0.005	0.005	0.000	0.391	2.734	1.919	1.909	1.899	1.919	1.914	1.914
0.005	0.000	0.005	0.000	0.005	0.000	0.376	2.686	1.914	1.909	1.904	1.919	1.914	1.919
0.010	0.000	0.005	0.000	-0.005	0.010	0.386	2.695	1.919	1.914	1.904	1.919	1.914	1.919
0.015	-0.005	0.005	0.000	0.000	-0.020	0.381	2.690	1.914	1.914	1.909	1.924	1.914	1.909
0.024	0.000	0.000	0.000	0.000	0.000	0.376	2.705	1.919	1.914	1.904	1.924	1.919	1.919
0.020	-0.010	0.005	0.000	0.005	0.000	0.381	2.715	1.914	1.914	1.909	1.924	1.919	1.919
0.024	0.000	0.005	0.000	0.010	0.010	0.381	2.676	1.914	1.914	1.909	1.924	1.919	1.924
0.024	-0.005	0.010	0.000	0.005	0.005	0.386	2.690	1.909	1.914	1.909	1.929	1.919	1.924
0.015	0.000	0.000	0.005	0.010	-0.005	0.391	2.686	1.909	1.909	1.909	1.924	1.919	1.914
-0.005	-0.005	0.000	0.005	0.005	0.015	0.391	2.705	1.899	1.904	1.904	1.924	1.919	1.919
0.000	0.005	0.000	0.005	0.015	0.010	0.386	2.700	1.904	1.904	1.904	1.919	1.919	1.919
0.000	-0.005	-0.005	0.005	0.010	0.005	0.381	2.695	1.899	1.899	1.904	1.919	1.914	1.914
-0.005	0.005	-0.005	0.005	0.005	0.005	0.376	2.686	1.899	1.899	1.899	1.919	1.914	1.914
0.000	0.005	0.000	0.005	-0.005	-0.015	0.386	2.695	1.904	1.899	1.899	1.919	1.914	1.909
-0.005	0.010	0.005	0.010	0.000	-0.005	0.386	2.700	1.909	1.904	1.899	1.919	1.914	1.914
-0.005	0.005	0.005	0.005	0.005	0.005	0.391	2.700	1.904	1.904	1.899	1.919	1.919	1.919
-0.005	0.000	0.005	0.000	0.005	0.005	0.381	2.710	1.909	1.904	1.899	1.919	1.914	1.914
-0.005	0.005	0.000	-0.005	0.000	0.000	0.386	2.695	1.909	1.909	1.904	1.919	1.914	1.914
-0.005	-0.010	0.000	0.000	0.000	-0.015	0.381	2.686	1.909	1.904	1.904	1.924	1.914	1.914
0.000	0.005	0.000	0.000	0.000	0.000	0.386	2.690	1.909	1.909	1.904	1.924	1.919	1.919
-0.005	-0.005	0.000	0.000	0.005	0.010	0.381	2.705	1.914	1.909	1.904	1.924	1.924	1.924
-0.005	0.005	0.000	0.000	0.005	-0.010	0.381	2.695	1.909	1.909	1.904	1.924	1.919	1.914
-0.015	0.010	0.000	0.000	0.000	0.010	0.381	2.710	1.904	1.909	1.904	1.924	1.919	1.924
-0.015	0.015	0.005	0.000	0.000	0.010	0.386	2.690	1.909	1.909	1.909	1.924	1.919	1.919
-0.015	0.000	0.000	0.000	0.005	0.005	0.386	2.671	1.904	1.899	1.904	1.919	1.919	1.919
-0.010	-0.005	0.000	0.005	0.010	-0.010	0.386	2.788	1.914	1.899	1.904	1.919	1.919	1.914
-0.010	-0.005	0.000	0.000	0.005	0.005	0.386	2.676	1.904	1.899	1.899	1.919	1.914	1.919
-0.010	-0.005	0.005	0.000	0.005	0.005	0.386	2.642	1.904	1.904	1.899	1.919	1.914	1.914
-0.005	0.005	0.000	0.000	0.000	0.000	0.381	2.666	1.899	1.904	1.899	1.919	1.909	1.914
0.010	-0.020	0.000	0.005	0.005	-0.005	0.386	2.739	1.904	1.899	1.899	1.919	1.914	1.914
0.020	-0.020	0.005	0.000	0.000	0.000	0.381	2.686	1.909	1.904	1.899	1.919	1.914	1.914
0.024	-0.015	0.000	0.000	0.000	-0.015	0.386	2.651	1.904	1.904	1.899	1.914	1.914	1.914
0.024	0.005	-0.005	0.000	0.005	0.005	0.386	2.803	1.904	1.909	1.904	1.919	1.914	1.914
0.024	-0.005	-0.005	0.000	0.005	-0.015	0.391	2.734	1.914	1.909	1.904	1.919	1.914	1.914
0.024	0.000	0.000	0.005	0.000	0.010	0.386	2.744	1.919	1.909	1.909	1.924	1.919	1.919
0.024	0.005	-0.005	0.005	-0.005	0.010	0.386	2.749	1.919	1.919	1.909	1.924	1.914	1.919
0.005	0.010	0.005	0.005	-0.005	-0.029	0.381	2.661	1.914	1.914	1.914	1.924	1.919	1.909
-0.010	0.000	0.005	0.005	0.000	-0.015	0.381	2.646	1.904	1.909	1.914	1.929	1.924	1.919
0.000	0.015	0.000	0.005	0.005	0.015	0.386	2.642	1.899	1.909	1.909	1.924	1.924	1.929
-0.010	0.015	0.005	0.000	0.005	0.010	0.381	2.671	1.899	1.904	1.904	1.924	1.919	1.924
-0.020	0.015	0.000	0.000	0.010	0.010	0.381	2.725	1.899	1.904	1.904	1.924	1.924	1.924
-0.024	0.020	0.005	0.000	0.000	0.005	0.376	2.681	1.895	1.899	1.904	1.924	1.919	1.919
-0.015	0.000	0.000	0.000	0.000	0.010	0.391	2.690	1.899	1.895	1.899	1.924	1.919	1.919
-0.010	-0.005	0.005	0.000	0.005	0.000	0.381	2.695	1.904	1.895	1.899	1.919	1.919	1.914
0.000	0.000	0.000	0.000	0.005	-0.005	0.391	2.695	1.904	1.895	1.895	1.919	1.914	1.919
0.000	-0.005	0.005	0.000	0.000	-0.010	0.381	2.695	1.909	1.899	1.895	1.914	1.914	1.914
0.010	0.005	0.000	0.005	0.000	0.015	0.386	2.700	1.909	1.904	1.899	1.914	1.914	1.919
0.010	0.010	0.000	0.005	0.005	0.010	0.381	2.715	1.909	1.904	1.899	1.919	1.914	1.919
0.020	0.005	0.000	0.005	0.005	-0.005	0.396	2.695	1.914	1.909	1.904	1.919	1.914	1.914
0.005	0.005	0.000	0.005	0.000	0.015	0.386	2.705	1.909	1.904	1.904	1.919	1.914	1.919
0.005	0.000	0.000	0.005	-0.005	0.010	0.386	2.700	1.909	1.904	1.904	1.919	1.914	1.914
0.000	0.005	0.005	0.000	-0.005	0.005	0.386	2.710	1.909	1.909	1.904	1.919	1.914	1.914
0.000	-0.005	0.010	0.005	0.000	0.005	0.391	2.690	1.914	1.909	1.909	1.924	1.919	1.914
0.015	-0.005	0.005	0.005	0.005	-0.005	0.386	2.710	1.919	1.914	1.909	1.924	1.919	1.914
0.000	-0.005	0.005	0.000	0.005	0.000	0.386	2.690	1.909	1.909	1.909	1.929	1.919	1.919
-0.010	0.000	0.005	0.005	0.000	0.010	0.386	2.710	1.909	1.909	1.904	1.924	1.919	1.919
0.000	0.000	0.005	0.000	0.000	0.010	0.381	2.710	1.909	1.909	1.904	1.924	1.919	1.919
-0.005	-0.005	0.005	0.010	0.005	0.005	0.381	2.681	1.904	1.909	1.909	1.929	1.924	1.924
-0.010	0.000	0.000	0.000	0.005	0.000	0.386	2.686	1.904	1.904	1.904	1.924	1.919	1.919
-0.010	0.005	0.000	0.000	0.000	-0.005	0.381	2.681	1.899	1.904	1.904	1.919	1.919	1.914
-0.005	0.005	0.000	0.005	0.005	0.005	0.386	2.700	1.904	1.899	1.904	1.924	1.919	1.919
-0.010	0.005	0.000	0.000	0.005	-0.005	0.386	2.690	1.899	1.899	1.899	1.919	1.914	1.914
-0.010	0.000	0.000	-0.005	0.005	-0.005	0.381	2.690	1.904	1.899	1.899	1.914	1.914	1.914
-0.005	-0.005	0.000	0.000	0.000	0.000	0.381	2.681	1.899	1.899	1.899	1.914	1.914	1.909
0.010	0.000	0.005	0.005	0.005	-0.005	0.376	2.812	1.904	1.895	1.899	1.919	1.914	1.914
0.024	0.000	0.000	0.005	0.005	0.000	0.381	2.803	1.919	1.904	1.899	1.919	1.914	1.919
0.005	0.000	0.000	0.000	0.000	0.010	0.381	2.676	1.914	1.909	1.899	1.919	1.914	1.919
0.000	0.005	0.000	0.005	-0.005	0.010	0.381	2.656	1.914	1.909	1.904	1.919	1.914	1.919
0.010	0.010	-0.005	0.010	0.000	-0.024	0.386	2.661	1.909	1.909	1.904	1.924	1.914	1.914
0.020	0.015	0.000	0.010	0.005	0.010	0.381	2.739	1.919	1.914	1.914	1.929	1.924	1.924
0.015	-0.005	0.005	0.000	0.000	0.020	0.381	2.700	1.914	1.909	1.909	1.924	1.919	1.929
0.015	-0.005	0.000	0.000	0.005	-0.005	0.386	2.622	1.909	1.909	1.909	1.929	1.924	1.919
0.015	-0.005	0.005	0.000	0.005	0.020	0.381	2.793	1.924	1.914	1.914	1.929	1.924	1.924
0.000	-0.010	0.000	0.000	0.005	-0.010	0.386	2.739	1.914	1.909	1.904	1.924	1.924	1.914
0.005	-0.015	0.000	-0.005	0.005	0.020	0.381	2.642	1.909	1.904	1.904	1.924	1.924	1.924
0.005	-0.005	0.000	-0.005	0.005	0.020	0.386	2.749	1.914	1.909	1.904	1.924	1.919	1.919
-0.010	-0.005	0.005	-0.005	0.010	0.010	0.381	2.646	1.904	1.909	1.904	1.924	1.919	1.919
0.005	0.005	0.005	-0.005	0.005	-0.010	0.391	2.725	1.909	1.909	1.904	1.924	1.914	1.909
-0.015	0.015	0.000	0.005	0.005	0.005	0.386	2.720	1.904	1.909	1.904	1.924	1.919	1.914
-0.010	0.000	0.005	0.000	0.000	-0.020	0.391	2.661	1.904	1.904	1.904	1.924	1.919	1.909
-0.005	0.000	0.000	0.005	0.000	0.000	0.386	2.725	1.904	1.899	1.904	1.924	1.919	1.919
0.005	0.000	0.000	0.010	0.005	0.005	0.386	2.676	1.909	1.904	1.904	1.919	1.919	1.919
0.000	0.010	0.005	0.010	0.000	0.010	0.386	2.686	1.909	1.909	1.904	1.924	1.919	1.919
0.000	0.005	-0.005	0.010	-0.005	0.000	0.386	2.705	1.909	1.909	1.904	1.924	1.919	1.919
-0.005	0.010	0.000	0.000	0.000	0.000	0.376	2.700	1.909	1.904	1.904	1.924	1.919	1.919
-0.010	0.000	0.005	0.000	-0.005	-0.005	0.376	2.705	1.914	1.909	1.909	1.924	1.924	1.919
0.000	-0.005	0.005	0.005	0.000	0.005	0.381	2.686	1.919	1.909	1.904	1.924	1.924	1.924
0.015	0.005	0.000	0.000	-0.005	0.010	0.386	2.710	1.924	1.914	1.909	1.924	1.919	1.924
0.005	0.010	0.005	0.005	0.000	0.005	0.386	2.690	1.914	1.919	1.909	1.924	1.924	1.924
0.010	-0.005	0.000	0.005	0.010	0.005	0.391	2.686	1.914	1.914	1.909	1.929	1.924	1.924
0.005	0.000	0.005	0.005	0.005	-0.024	0.386	2.705	1.914	1.914	1.909	1.929	1.924	1.914
0.000	0.005	0.005	0.000	0.000	-0.005	0.386	2.695	1.909	1.914	1.909	1.929	1.919	1.914
-0.005	0.000	0.005	0.005	0.010	0.005	0.376	2.676	1.904	1.904	1.909	1.924	1.919	1.924
0.000	0.015	0.000	0.005	0.010	0.005	0.376	2.686	1.909	1.909	1.904	1.924	1.919	1.924
0.000	0.010	-0.005	0.005	0.000	0.005	0.381	2.681	1.904	1.909	1.909	1.924	1.919	1.919
0.000	0.010	-0.005	0.000	0.000	0.000	0.381	2.695	1.899	1.899	1.904	1.924	1.914	1.919
-0.005	0.015	0.000	0.000	0.000	-0.024	0.386	2.710	1.904	1.899	1.904	1.919	1.919	1.909
-0.005	0.000	0.000	0.000	0.000	0.000	0.381	2.681	1.899	1.895	1.899	1.924	1.919	1.919
0.000	0.000	0.005	0.000	-0.005	0.000	0.381	2.681	1.904	1.899	1.899	1.919	1.914	1.919
0.000	0.000	-0.005	0.005	-0.005	-0.005	0.376	2.695	1.909	1.904	1.899	1.924	1.919	1.924
0.005	0.000	0.005	0.005	-0.005	0.010	0.381	2.695	1.909	1.904	1.904	1.924	1.919	1.924
0.000	-0.005	0.005	0.000	-0.005	0.015	0.386	2.695	1.914	1.904	1.904	1.924	1.919	1.924
-0.010	-0.005	0.005	0.000	-0.005	-0.005	0.391	2.700	1.914	1.909	1.904	1.924	1.919	1.914
-0.010	-0.005	0.005	0.000	-0.005	0.034	0.386	2.695	1.909	1.909	1.909	1.924	1.924	1.934
-0.010	0.000	0.000	0.000	0.000	0.029	0.391	2.808	1.924	1.914	1.909	1.924	1.924	1.929
-0.005	-0.005	0.000	0.000	0.010	0.020	0.381	2.798	1.934	1.914	1.909	1.924	1.919	1.924
0.010	0.005	0.000	0.000	0.005	0.010	0.391	2.671	1.929	1.919	1.914	1.924	1.919	1.919
0.005	0.005	0.000	0.005	0.005	-0.005	0.381	2.646	1.914	1.919	1.914	1.929	1.919	1.914
0.015	-0.010	0.000	0.005	0.005	-0.010	0.386	2.666	1.909	1.909	1.909	1.924	1.919	1.914
0.020	-0.024	0.000	-0.005	0.005	0.000	0.376	2.720	1.909	1.904	1.904	1.924	1.919	1.919
0.020	-0.010	0.000	0.000	0.005	-0.005	0.381	2.676	1.909	1.909	1.909	1.924	1.914	1.914
0.024	0.010	0.000	0.000	0.005	-0.005	0.376	2.646	1.904	1.909	1.909	1.924	1.919	1.919
0.024	0.005	0.000	0.000	0.000	0.000	0.386	2.817	1.919	1.909	1.904	1.924	1.914	1.914
0.029	0.010	0.000	0.005	0.005	-0.005	0.386	2.720	1.914	1.909	1.904	1.924	1.919	1.914
0.015	0.000	-0.005	0.000	0.000	-0.005	0.381	2.656	1.904	1.909	1.904	1.924	1.919	1.914
-0.005	0.005	-0.005	0.010	0.000	0.000	0.381	2.739	1.904	1.909	1.904	1.929	1.924	1.924
-0.005	0.005	0.005	0.005	0.000	-0.005	0.391	2.666	1.904	1.909	1.909	1.929	1.924	1.919
-0.005	0.000	0.000	0.000	0.000	0.000	0.376	2.729	1.909	1.909	1.909	1.924	1.924	1.924
-0.015	-0.005	0.005	0.000	0.000	0.005	0.376	2.734	1.914	1.909	1.909	1.929	1.924	1.924
-0.020	0.000	-0.005	0.000	0.000	-0.005	0.376	2.676	1.914	1.914	1.909	1.929	1.924	1.919
-0.020	0.000	0.000	0.005	0.000	0.005	0.376	2.749	1.919	1.914	1.909	1.929	1.924	1.924
-0.010	0.000	0.005	0.010	0.000	0.010	0.386	2.686	1.914	1.914	1.909	1.929	1.929	1.924
-0.010	-0.005	0.005	0.005	0.005	0.010	0.381	2.686	1.914	1.914	1.909	1.929	1.924	1.929
0.005	0.000	0.005	0.005	0.005	0.005	0.381	2.695	1.914	1.914	1.909	1.929	1.924	1.924
0.005	0.005	0.000	0.000	0.010	0.000	0.381	2.695	1.919	1.914	1.904	1.929	1.924	1.924
-0.010	0.010	0.000	0.000	0.005	0.005	0.376	2.705	1.914	1.909	1.909	1.929	1.919	1.924
0.010	-0.005	0.005	0.000	0.005	-0.005	0.376	2.686	1.914	1.909	1.904	1.924	1.919	1.919
0.010	-0.005	0.005	0.005	0.005	0.005	0.386	2.705	1.914	1.909	1.904	1.924	1.919	1.919
0.015	0.000	0.000	0.005	0.005	0.005	0.376	2.681	1.909	1.909	1.904	1.924	1.919	1.924
0.005	-0.005	0.000	0.005	0.000	0.020	0.386	2.710	1.909	1.909	1.904	1.924	1.919	1.924
0.015	0.015	0.005	0.000	0.000	0.010	0.376	2.676	1.909	1.909	1.909	1.924	1.919	1.919
0.015	0.010	0.000	0.000	0.000	-0.010	0.381	2.700	1.909	1.909	1.904	1.924	1.919	1.909
0.015	0.000	0.000	0.000	0.005	-0.010	0.381	2.686	1.914	1.909	1.909	1.924	1.919	1.914
0.005	-0.005	0.005	-0.005	0.000	-0.005	0.391	2.710	1.914	1.909	1.909	1.929	1.919	1.919
0.010	0.000	0.000	0.000	0.010	-0.020	0.386	2.700	1.914	1.909	1.909	1.929	1.924	1.914
0.020	0.000	0.000	-0.005	-0.005	0.000	0.386	2.686	1.919	1.909	1.909	1.924	1.919	1.924
0.020	-0.015	0.000	0.000	-0.010	-0.010	0.386	2.690	1.914	1.909	1.909	1.929	1.919	1.919
0.000	0.000	0.000	-0.005	0.000	0.005	0.391	2.690	1.909	1.909	1.909	1.934	1.924	1.929
-0.005	0.005	0.000	0.005	0.005	0.015	0.381	2.705	1.909	1.914	1.909	1.934	1.929	1.934
-0.015	0.000	0.005	0.005	0.005	0.005	0.381	2.690	1.909	1.909	1.909	1.929	1.929	1.929
-0.024	-0.005	0.000	0.005	0.000	0.024	0.381	2.715	1.904	1.909	1.909	1.929	1.924	1.929
-0.029	0.000	0.000	0.005	0.000	0.024	0.386	2.690	1.904	1.909	1.904	1.924	1.924	1.929
-0.029	-0.005	0.005	0.000	0.000	0.044	0.386	2.690	1.909	1.904	1.904	1.924	1.924	1.929
-0.020	0.000	0.005	0.005	0.005	0.015	0.381	2.690	1.904	1.904	1.899	1.919	1.924	1.919
-0.005	-0.005	0.005	0.005	0.005	0.015	0.376	2.808	1.904	1.904	1.899	1.914	1.919	1.919
-0.005	0.000	0.000	0.005	0.010	0.010	0.386	2.803	1.919	1.904	1.899	1.919	1.914	1.914
0.000	-0.005	0.000	0.000	-0.005	-0.005	0.386	2.671	1.914	1.904	1.899	1.919	1.914	1.914
-0.005	0.005	0.000	0.000	0.000	-0.010	0.381	2.646	1.904	1.904	1.899	1.919	1.914	1.914
0.000	0.005	0.005	0.005	0.000	0.000	0.381	2.661	1.904	1.904	1.904	1.924	1.914	1.914
-0.005	0.005	-0.005	0.010	0.000	-0.010	0.381	2.739	1.904	1.909	1.904	1.924	1.914	1.914
-0.010	0.010	-0.005	0.005	0.000	0.000	0.386	2.686	1.909	1.904	1.904	1.924	1.919	1.919
-0.005	0.000	0.005	0.005	0.010	-0.029	0.386	2.632	1.914	1.909	1.909	1.924	1.919	1.909
0.000	0.000	0.000	0.010	0.000	0.015	0.386	2.793	1.929	1.914	1.914	1.924	1.924	1.924
0.000	0.005	0.005	-0.005	-0.005	-0.005	0.381	2.759	1.929	1.919	1.914	1.929	1.919	1.924
0.000	0.005	0.000	0.000	0.000	0.000	0.381	2.661	1.919	1.919	1.909	1.929	1.924	1.919
0.005	0.000	0.000	0.000	-0.005	0.010	0.381	2.749	1.924	1.919	1.914	1.929	1.924	1.924
0.010	0.000	0.005	0.000	0.005	0.005	0.386	2.642	1.914	1.924	1.919	1.929	1.924	1.924
0.010	0.005	0.000	0.000	0.000	-0.005	0.386	2.725	1.914	1.919	1.914	1.929	1.924	1.919
0.010	0.000	0.005	0.000	0.000	-0.029	0.386	2.739	1.919	1.914	1.909	1.929	1.924	1.914
0.015	0.005	0.000	0.000	0.000	-0.029	0.381	2.671	1.914	1.914	1.909	1.929	1.924	1.914
0.015	0.000	0.000	0.000	0.005	-0.005	0.386	2.729	1.914	1.909	1.909	1.929	1.924	1.924
0.010	0.010	0.000	0.000	0.000	0.005	0.381	2.681	1.909	1.909	1.909	1.924	1.919	1.924
0.010	0.000	0.005	0.000	0.005	0.000	0.381	2.681	1.904	1.904	1.909	1.924	1.924	1.924
0.010	0.005	0.005	0.000	0.000	0.005	0.386	2.705	1.909	1.909	1.909	1.924	1.924	1.919
0.005	0.000	0.000	0.000	0.005	0.010	0.381	2.705	1.909	1.904	1.909	1.924	1.924	1.929
0.015	0.000	0.000	0.000	-0.005	-0.010	0.376	2.705	1.914	1.909	1.909	1.924	1.919	1.919
0.010	-0.005	0.000	0.000	-0.005	0.010	0.391	2.690	1.909	1.904	1.909	1.929	1.919	1.929
0.010	0.010	0.000	0.000	0.010	0.010	0.386	2.695	1.914	1.914	1.909	1.929	1.924	1.929
0.010	0.005	0.005	0.005	0.010	0.020	0.391	2.690	1.914	1.914	1.909	1.934	1.929	1.934
0.000	0.000	0.000	0.000	0.010	0.005	0.386	2.700	1.914	1.914	1.909	1.934	1.929	1.934
0.000	0.005	-0.005	0.005	0.005	0.015	0.381	2.686	1.914	1.914	1.909	1.934	1.929	1.929
0.005	0.000	0.000	0.000	0.005	0.015	0.376	2.705	1.914	1.909	1.914	1.929	1.924	1.929
-0.005	0.000	-0.005	0.005	0.010	0.005	0.391	2.686	1.914	1.909	1.909	1.929	1.924	1.924
-0.005	0.000	0.000	0.005	0.010	-0.010	0.386	2.705	1.914	1.909	1.909	1.929	1.924	1.919
-0.010	-0.005	0.000	0.005	0.010	0.000	0.381	2.695	1.909	1.909	1.909	1.924	1.924	1.924
-0.005	-0.005	0.005	0.000	0.000	0.000	0.381	2.695	1.909	1.904	1.904	1.924	1.919	1.924
-0.005	0.005	0.005	0.000	0.005	-0.020	0.376	2.710	1.909	1.909	1.904	1.924	1.919	1.914
0.005	-0.005	0.000	0.000	0.005	-0.039	0.376	2.686	1.909	1.904	1.904	1.924	1.914	1.909
0.005	-0.005	-0.005	-0.005	-0.005	0.000	0.386	2.690	1.904	1.904	1.899	1.919	1.914	1.919
0.010	0.015	0.000	0.005	-0.005	0.000	0.386	2.681	1.904	1.904	1.904	1.919	1.914	1.919
0.005	0.005	0.000	0.000	-0.015	-0.010	0.381	2.695	1.904	1.904	1.904	1.919	1.914	1.919
-0.005	0.000	0.000	0.000	-0.010	-0.005	0.386	2.695	1.904	1.904	1.899	1.919	1.914	1.914
-0.005	0.000	0.000	0.000	-0.020	-0.005	0.381	2.690	1.909	1.904	1.899	1.919	1.914	1.914
-0.010	-0.005	0.000	0.000	-0.020	0.059	0.381	2.700	1.909	1.904	1.904	1.924	1.919	1.934
-0.015	0.000	0.000	0.005	-0.010	0.034	0.386	2.817	1.899	1.904	1.904	1.924	1.919	1.929
-0.015	0.000	0.000	0.000	-0.015	0.029	0.386	2.798	1.919	1.909	1.904	1.924	1.919	1.919
-0.010	0.000	0.005	0.000	-0.005	0.039	0.381	2.681	1.914	1.909	1.909	1.924	1.924	1.929
-0.010	-0.005	0.010	-0.005	-0.005	0.020	0.386	2.671	1.914	1.909	1.909	1.929	1.924	1.919
-0.005	-0.005	0.005	0.000	0.005	0.010	0.376	2.666	1.914	1.909	1.909	1.929	1.924	1.919
0.015	0.005	0.005	0.000	0.010	0.005	0.386	2.725	1.924	1.914	1.909	1.929	1.924	1.919
0.015	0.000	0.000	0.000	0.020	0.000	0.386	2.690	1.924	1.914	1.909	1.929	1.924	1.919
0.020	0.005	0.005	0.000	0.020	0.000	0.381	2.651	1.909	1.914	1.909	1.929	1.924	1.919
0.024	-0.005	0.000	0.000	0.020	0.010	0.386	2.681	1.909	1.909	1.909	1.929	1.924	1.924
0.024	0.005	-0.005	0.005	0.020	0.005	0.391	2.656	1.904	1.909	1.909	1.924	1.924	1.924
0.020	0.010	0.000	0.005	0.015	0.005	0.381	2.656	1.899	1.904	1.904	1.919	1.924	1.924
0.010	0.010	0.000	0.010	0.010	-0.010	0.386	2.642	1.890	1.899	1.904	1.919	1.914	1.919
0.015	0.005	0.000	0.005	0.005	-0.010	0.381	2.646	1.890	1.895	1.899	1.919	1.914	1.914
0.015	0.010	0.005	0.005	0.000	-0.029	0.386	2.725	1.899	1.899	1.899	1.919	1.909	1.904
-0.010	0.000	0.000	0.005	-0.005	-0.005	0.386	2.632	1.890	1.890	1.899	1.919	1.914	1.919
-0.005	0.000	0.000	0.005	-0.005	-0.015	0.381	2.661	1.890	1.895	1.895	1.919	1.914	1.909
-0.005	0.000	0.000	0.000	0.000	0.000	0.386	2.725	1.904	1.895	1.895	1.919	1.914	1.914
-0.005	0.010	-0.005	0.005	0.010	-0.024	0.381	2.681	1.904	1.899	1.895	1.914	1.914	1.914
-0.010	0.005	0.000	0.000	0.005	-0.010	0.376	2.690	1.904	1.904	1.899	1.919	1.914	1.919
-0.010	0.005	0.000	0.000	0.005	-0.015	0.386	2.705	1.909	1.904	1.904	1.919	1.914	1.919
-0.005	0.000	0.000	0.000	0.024	-0.010	0.381	2.695	1.919	1.904	1.904	1.924	1.919	1.919
-0.015	-0.015	0.000	0.000	0.020	0.000	0.386	2.705	1.909	1.899	1.899	1.919	1.914	1.924
-0.005	-0.005	-0.005	0.000	0.000	0.010	0.386	2.690	1.909	1.909	1.899	1.919	1.909	1.924
0.000	-0.005	0.005	0.000	0.005	-0.010	0.386	2.700	1.909	1.909	1.904	1.919	1.914	1.914
-0.005	0.000	0.000	0.000	0.000	0.000	0.386	2.681	1.909	1.909	1.904	1.919	1.909	1.914
-0.005	0.000	0.005	0.000	-0.005	0.034	0.381	2.715	1.909	1.904	1.904	1.919	1.914	1.924
-0.005	0.015	0.005	-0.005	0.005	0.020	0.386	2.690	1.909	1.909	1.904	1.919	1.914	1.914
0.005	0.010	0.005	0.005	-0.005	0.044	0.376	2.690	1.909	1.909	1.904	1.919	1.909	1.919
0.010	0.005	0.005	0.000	-0.005	0.010	0.381	2.690	1.909	1.904	1.899	1.919	1.909	1.904
0.010	0.005	0.000	0.000	-0.010	0.024	0.376	2.695	1.909	1.904	1.899	1.919	1.909	1.909
0.015	0.000	0.000	0.000	-0.015	0.010	0.386	2.695	1.909	1.904	1.899	1.919	1.909	1.909
0.015	0.010	0.005	0.000	-0.024	-0.005	0.381	2.690	1.909	1.909	1.904	1.924	1.909	1.904
0.015	0.005	0.000	0.000	-0.029	-0.034	0.381	2.715	1.909	1.909	1.904	1.919	1.909	1.899
0.005	0.005	0.005	0.000	-0.029	-0.015	0.381	2.690	1.909	1.909	1.909	1.924	1.914	1.909
0.005	0.015	0.000	0.010	-0.015	-0.020	0.386	2.690	1.909	1.909	1.909	1.924	1.914	1.909
0.005	0.015	-0.005	0.005	-0.010	-0.034	0.376	2.690	1.904	1.914	1.909	1.929	1.924	1.914
-0.005	0.000	-0.005	0.010	-0.010	0.000	0.381	2.705	1.904	1.904	1.909	1.929	1.924	1.924
0.000	0.000	0.000	0.005	0.000	-0.005	0.381	2.690	1.909	1.899	1.909	1.929	1.929	1.924
-0.005	0.000	-0.005	0.005	0.010	0.000	0.391	2.686	1.909	1.904	1.904	1.924	1.929	1.924
-0.005	-0.015	0.000	0.005	0.029	-0.010	0.386	2.686	1.909	1.904	1.904	1.924	1.929	1.929
0.005	-0.010	0.005	0.000	0.039	-0.005	0.386	2.808	1.909	1.904	1.904	1.919	1.929	1.924
0.000	0.000	0.005	0.000	0.020	0.010	0.381	2.661	1.904	1.904	1.904	1.919	1.919	1.929
-0.005	0.005	-0.005	0.000	0.024	0.020	0.391	2.671	1.899	1.904	1.899	1.919	1.919	1.924
-0.005	0.000	0.000	0.000	0.015	0.024	0.376	2.646	1.899	1.899	1.895	1.919	1.914	1.924
0.000	0.000	0.005	0.000	0.010	0.000	0.386	2.666	1.899	1.895	1.895	1.914	1.909	1.914
-0.005	0.000	0.010	0.005	0.010	0.000	0.386	2.744	1.899	1.895	1.895	1.919	1.909	1.914
0.000	0.005	0.005	0.005	0.029	0.020	0.391	2.710	1.909	1.904	1.895	1.914	1.919	1.919
0.005	-0.005	0.005	0.005	0.054	0.010	0.386	2.700	1.909	1.899	1.899	1.919	1.919	1.919
0.010	0.000	0.000	0.005	0.005	-0.020	0.376	2.734	1.909	1.904	1.899	1.914	1.904	1.909
0.005	-0.005	0.000	0.005	-0.010	-0.015	0.386	2.632	1.904	1.904	1.899	1.919	1.909	1.914
0.000	0.005	0.000	0.005	0.005	0.020	0.376	2.764	1.914	1.909	1.904	1.919	1.914	1.919
0.000	-0.010	-0.005	0.005	-0.010	0.005	0.386	2.651	1.914	1.909	1.904	1.924	1.909	1.914
0.000	0.005	0.005	0.000	-0.005	-0.010	0.381	2.627	1.904	1.909	1.909	1.924	1.914	1.909
0.005	0.000	0.000	0.000	0.010	-0.024	0.386	2.744	1.914	1.909	1.904	1.924	1.919	1.909
0.005	0.000	0.005	0.000	0.000	-0.010	0.376	2.759	1.919	1.914	1.904	1.924	1.914	1.914
-0.010	0.000	0.000	-0.005	-0.005	-0.034	0.376	2.686	1.914	1.909	1.909	1.924	1.914	1.909
0.000	0.005	0.000	0.000	-0.015	-0.005	0.376	2.642	1.909	1.909	1.904	1.924	1.914	1.919
-0.005	0.000	-0.005	0.000	-0.015	0.005	0.381	2.666	1.899	1.904	1.904	1.924	1.914	1.919
0.005	-0.005	0.000	0.005	-0.020	0.000	0.376	2.676	1.899	1.899	1.904	1.924	1.914	1.919
0.005	-0.005	0.005	0.005	-0.015	0.024	0.381	2.681	1.895	1.899	1.904	1.919	1.914	1.924
0.005	-0.005	0.000	0.005	-0.005	0.015	0.376	2.695	1.899	1.895	1.899	1.919	1.919	1.919
-0.010	-0.005	0.000	0.000	0.005	0.020	0.386	2.705	1.895	1.895	1.895	1.914	1.919	1.919
-0.010	0.000	-0.005	0.000	0.000	-0.010	0.381	2.710	1.899	1.899	1.890	1.914	1.914	1.904
-0.005	0.005	-0.005	0.000	0.010	0.010	0.386	2.710	1.904	1.899	1.895	1.914	1.914	1.914
-0.005	0.000	0.000	0.005	-0.005	-0.005	0.386	2.686	1.904	1.899	1.895	1.914	1.909	1.909
0.020	0.024	0.005	0.005	-0.010	0.010	0.391	2.705	1.914	1.909	1.899	1.919	1.909	1.919
0.020	0.015	0.005	0.000	0.010	0.020	0.386	2.715	1.919	1.909	1.904	1.919	1.919	1.919
-0.005	0.015	0.005	0.005	0.005	0.000	0.391	2.710	1.909	1.909	1.904	1.924	1.914	1.914
-0.015	0.010	0.000	0.010	-0.020	-0.005	0.386	2.686	1.909	1.909	1.904	1.924	1.914	1.914
-0.010	0.000	0.000	0.005	-0.015	0.005	0.386	2.681	1.904	1.909	1.904	1.924	1.919	1.919
-0.015	0.005	0.005	0.005	0.010	-0.010	0.386	2.695	1.909	1.904	1.909	1.924	1.924	1.914
-0.010	0.000	0.005	0.000	0.029	0.000	0.381	2.676	1.904	1.904	1.904	1.924	1.929	1.919
0.000	0.015	0.000	0.000	0.010	0.000	0.381	2.700	1.909	1.904	1.904	1.924	1.919	1.919
0.015	0.000	0.000	0.005	-0.010	-0.005	0.386	2.686	1.909	1.904	1.904	1.919	1.914	1.919
0.015	0.000	0.005	0.000	-0.010	0.005	0.386	2.690	1.909	1.904	1.904	1.919	1.919	1.914
0.029	0.010	0.005	0.000	-0.005	0.010	0.381	2.690	1.909	1.909	1.904	1.919	1.914	1.919
0.039	-0.005	0.005	0.005	-0.010	0.005	0.381	2.700	1.909	1.904	1.904	1.919	1.909	1.914
0.024	-0.005	0.005	0.000	0.000	0.020	0.381	2.686	1.904	1.899	1.899	1.919	1.914	1.919
0.015	-0.010	0.000	0.000	0.000	0.015	0.381	2.705	1.904	1.899	1.899	1.919	1.914	1.914
0.015	0.005	0.005	-0.005	-0.005	0.010	0.386	2.705	1.904	1.904	1.899	1.919	1.909	1.914
0.015	0.005	0.005	0.005	0.000	-0.005	0.381	2.808	1.914	1.909	1.904	1.919	1.914	1.909
0.000	0.005	0.005	0.005	0.010	-0.010	0.381	2.788	1.924	1.909	1.904	1.919	1.914	1.909
0.000	0.005	-0.005	0.000	0.024	-0.020	0.386	2.681	1.914	1.914	1.904	1.919	1.919	1.909
-0.005	0.005	-0.005	0.000	0.015	-0.015	0.381	2.656	1.904	1.909	1.909	1.919	1.919	1.919
0.000	0.000	0.005	0.005	0.010	0.010	0.381	2.661	1.904	1.909	1.909	1.924	1.919	1.924
-0.015	0.005	0.005	0.000	-0.005	-0.010	0.381	2.671	1.909	1.909	1.909	1.924	1.919	1.919
-0.005	0.010	0.005	0.005	0.000	0.015	0.381	2.710	1.914	1.914	1.909	1.929	1.919	1.924
-0.005	-0.005	0.005	0.000	-0.005	0.015	0.381	2.632	1.909	1.909	1.909	1.929	1.919	1.924
-0.020	0.000	0.000	0.000	0.005	-0.005	0.386	2.671	1.904	1.904	1.904	1.929	1.924	1.919
-0.020	-0.005	0.005	0.005	-0.015	0.000	0.386	2.676	1.899	1.904	1.904	1.924	1.914	1.919
-0.015	0.000	0.000	0.000	-0.010	0.000	0.386	2.646	1.895	1.899	1.899	1.924	1.919	1.919
-0.010	-0.005	0.000	0.000	-0.010	0.005	0.376	2.617	1.890	1.899	1.899	1.919	1.914	1.919
-0.010	-0.005	-0.005	-0.005	-0.010	-0.005	0.386	2.642	1.890	1.895	1.895	1.919	1.914	1.919
-0.005	0.005	0.000	0.005	-0.005	0.015	0.381	2.637	1.890	1.895	1.895	1.914	1.914	1.919
-0.010	0.005	0.000	0.010	0.005	0.020	0.386	2.749	1.899	1.895	1.895	1.914	1.914	1.919
0.005	0.000	0.005	0.000	-0.005	0.010	0.376	2.666	1.904	1.895	1.895	1.914	1.914	1.914
-0.005	-0.005	0.005	0.005	0.005	-0.015	0.386	2.617	1.904	1.895	1.895	1.909	1.914	1.909
0.000	0.005	0.000	0.000	0.005	0.005	0.381	2.681	1.909	1.899	1.895	1.909	1.914	1.914
0.005	-0.005	0.000	0.005	0.005	0.000	0.386	2.686	1.904	1.899	1.895	1.914	1.909	1.914
0.000	0.000	-0.005	0.000	0.010	0.005	0.376	2.710	1.914	1.904	1.895	1.914	1.909	1.909
0.005	0.020	0.005	-0.005	0.000	0.000	0.391	2.710	1.914	1.914	1.904	1.919	1.909	1.909
0.005	0.005	0.000	0.000	0.000	-0.005	0.381	2.715	1.914	1.909	1.904	1.919	1.909	1.909
0.000	-0.005	0.005	0.000	-0.005	-0.024	0.381	2.710	1.914	1.909	1.909	1.919	1.909	1.909
0.005	0.005	0.000	0.005	0.000	0.000	0.381	2.700	1.909	1.914	1.909	1.924	1.914	1.914
0.005	-0.010	0.005	0.005	0.000	0.010	0.386	2.686	1.914	1.909	1.909	1.924	1.919	1.914
0.015	-0.015	0.005	0.010	0.010	0.020	0.386	2.710	1.914	1.909	1.909	1.924	1.919	1.919
0.020	-0.010	0.005	0.015	0.010	0.015	0.386	2.695	1.914	1.909	1.909	1.929	1.919	1.919
0.015	0.010	0.000	0.010	0.005	0.005	0.386	2.676	1.909	1.914	1.909	1.924	1.919	1.919
0.010	0.020	0.000	0.005	0.010	-0.015	0.386	2.695	1.909	1.914	1.909	1.924	1.919	1.909
0.000	0.010	0.005	0.005	0.000	-0.010	0.386	2.700	1.899	1.904	1.909	1.919	1.919	1.909
-0.005	0.010	0.000	0.005	0.010	0.005	0.381	2.690	1.895	1.904	1.904	1.924	1.919	1.919
0.005	0.010	0.000	0.000	0.005	-0.005	0.381	2.690	1.899	1.899	1.899	1.919	1.919	1.919
0.010	0.005	0.000	0.000	0.000	0.015	0.386	2.710	1.904	1.899	1.899	1.919	1.914	1.919
0.000	-0.005	0.000	0.000	0.005	0.005	0.381	2.690	1.904	1.895	1.899	1.914	1.909	1.914
0.000	-0.005	-0.005	-0.005	-0.005	0.000	0.381	2.686	1.899	1.895	1.895	1.919	1.909	1.914
0.000	0.005	-0.005	0.000	0.000	-0.034	0.381	2.686	1.904	1.899	1.895	1.919	1.914	1.904
0.005	0.005	0.000	0.000	0.005	-0.005	0.376	2.715	1.909	1.909	1.899	1.919	1.919	1.914
-0.010	-0.005	-0.005	0.000	0.005	0.000	0.386	2.686	1.904	1.904	1.904	1.919	1.919	1.919
-0.005	-0.005	0.005	0.000	0.005	0.005	0.381	2.681	1.909	1.909	1.904	1.919	1.914	1.924
-0.005	0.000	0.005	0.000	-0.005	0.005	0.386	2.690	1.909	1.909	1.909	1.924	1.914	1.919
-0.005	0.015	0.005	0.000	0.000	0.005	0.381	2.817	1.909	1.909	1.909	1.924	1.914	1.919
0.000	0.010	0.000	0.005	0.000	-0.005	0.386	2.793	1.919	1.909	1.909	1.924	1.919	1.914
0.000	0.005	0.000	0.005	0.010	0.000	0.381	2.671	1.914	1.909	1.904	1.924	1.919	1.914
0.005	-0.005	0.005	-0.005	0.005	0.010	0.386	2.656	1.909	1.909	1.904	1.919	1.919	1.919
-0.005	-0.010	-0.005	0.000	0.005	-0.024	0.381	2.651	1.899	1.899	1.899	1.919	1.914	1.909
-0.005	0.000	-0.005	0.000	0.005	0.000	0.386	2.729	1.904	1.899	1.899	1.919	1.914	1.919
0.000	0.005	-0.010	0.000	0.010	0.005	0.386	2.695	1.904	1.904	1.899	1.919	1.914	1.919
-0.005	0.000	-0.005	-0.005	0.010	0.005	0.386	2.622	1.899	1.899	1.899	1.919	1.914	1.914
0.010	0.010	0.000	0.000	0.015	0.020	0.376	2.661	1.899	1.899	1.899	1.919	1.914	1.924
0.000	0.000	0.005	0.005	0.005	0.020	0.381	2.651	1.890	1.895	1.899	1.919	1.909	1.914
0.010	0.000	0.005	0.005	0.000	0.010	0.376	2.651	1.899	1.895	1.895	1.919	1.909	1.914
0.015	0.000	0.000	0.005	-0.005	0.020	0.386	2.754	1.909	1.904	1.899	1.919	1.909	1.919
0.005	0.000	0.005	0.005	-0.005	0.024	0.386	2.656	1.904	1.899	1.899	1.919	1.914	1.919
0.010	-0.005	0.005	0.000	0.005	0.020	0.386	2.627	1.899	1.899	1.899	1.919	1.914	1.919
0.010	0.000	0.010	-0.005	-0.005	0.005	0.386	2.651	1.909	1.904	1.899	1.919	1.914	1.914
0.005	0.000	0.010	0.000	0.000	-0.005	0.386	2.671	1.909	1.904	1.904	1.924	1.914	1.914
0.000	0.000	0.005	0.000	0.000	-0.005	0.386	2.749	1.914	1.909	1.904	1.924	1.914	1.914
0.010	0.000	0.005	0.000	-0.005	-0.029	0.381	2.681	1.914	1.909	1.904	1.924	1.914	1.904
0.010	-0.005	0.000	0.000	-0.005	-0.020	0.381	2.681	1.909	1.909	1.899	1.919	1.919	1.914
0.010	0.000	0.000	0.005	0.005	-0.010	0.381	2.700	1.904	1.904	1.904	1.919	1.919	1.919
-0.029	-0.005	-0.005	0.000	0.000	0.000	0.386	2.700	1.899	1.904	1.899	1.919	1.914	1.919
-0.039	0.005	0.000	0.000	0.000	0.005	0.381	2.705	1.895	1.899	1.899	1.919	1.914	1.919
-0.020	-0.005	0.005	0.010	0.005	0.000	0.381	2.700	1.904	1.899	1.899	1.919	1.914	1.919
-0.015	0.005	-0.005	0.005	0.000	-0.005	0.381	2.700	1.904	1.899	1.899	1.914	1.909	1.914
-0.024	0.020	-0.005	0.005	-0.005	0.005	0.391	2.690	1.904	1.899	1.899	1.914	1.909	1.914
-0.015	0.020	0.000	0.000	0.005	-0.005	0.381	2.695	1.904	1.899	1.899	1.914	1.914	1.909
0.015	0.000	0.000	0.005	0.005	-0.005	0.386	2.700	1.909	1.904	1.899	1.914	1.914	1.914
0.020	0.000	0.005	0.000	0.005	-0.005	0.386	2.690	1.909	1.904	1.899	1.914	1.909	1.914
0.029	0.005	0.000	0.005	0.000	-0.005	0.391	2.695	1.914	1.904	1.904	1.919	1.909	1.909
0.029	0.005	0.010	0.010	-0.005	-0.010	0.386	2.686	1.914	1.909	1.904	1.924	1.914	1.909
0.049	-0.005	0.005	0.005	0.010	-0.020	0.391	2.686	1.919	1.909	1.904	1.919	1.919	1.914
0.044	-0.005	0.000	0.005	0.010	-0.029	0.381	2.705	1.914	1.914	1.909	1.924	1.919	1.914
0.034	-0.010	-0.005	0.005	0.015	0.000	0.391	2.700	1.909	1.909	1.904	1.924	1.919	1.924
0.029	0.000	-0.005	0.000	0.005	0.020	0.381	2.686	1.909	1.909	1.904	1.929	1.919	1.929
0.005	-0.005	0.000	0.000	0.005	0.029	0.381	2.690	1.904	1.909	1.909	1.924	1.924	1.929
-0.005	0.005	0.000	0.005	0.000	0.029	0.371	2.690	1.899	1.909	1.904	1.924	1.919	1.924
-0.010	0.000	0.005	0.005	0.000	0.034	0.381	2.690	1.899	1.904	1.904	1.924	1.919	1.924
-0.020	-0.010	0.005	0.000	0.000	0.029	0.381	2.681	1.895	1.895	1.904	1.924	1.919	1.924
-0.024	-0.005	0.010	0.000	0.005	0.029	0.381	2.686	1.899	1.895	1.899	1.919	1.914	1.919
0.005	0.005	0.010	0.000	0.005	0.034	0.386	2.700	1.909	1.899	1.899	1.919	1.914	1.919
0.000	0.000	0.010	0.005	0.005	-0.010	0.391	2.822	1.919	1.904	1.899	1.919	1.914	1.904
0.000	0.015	0.005	0.005	0.005	0.010	0.381	2.788	1.924	1.909	1.899	1.914	1.909	1.909
-0.005	0.010	0.005	0.000	0.005	-0.029	0.386	2.671	1.914	1.909	1.899	1.914	1.909	1.899
-0.024	0.010	0.000	0.000	-0.005	-0.049	0.381	2.666	1.899	1.904	1.899	1.919	1.909	1.899
-0.049	0.005	-0.005	0.000	0.005	-0.034	0.381	2.661	1.885	1.899	1.899	1.919	1.914	1.909
-0.044	0.005	0.000	0.005	0.015	-0.015	0.386	2.642	1.899	1.895	1.899	1.919	1.919	1.914
-0.039	0.000	0.000	0.005	0.010	-0.039	0.386	2.705	1.909	1.899	1.899	1.924	1.919	1.914
-0.010	-0.005	-0.005	0.000	0.000	0.015	0.386	2.656	1.909	1.909	1.899	1.914	1.914	1.929
0.005	0.000	0.000	0.000	0.000	0.024	0.381	2.793	1.929	1.914	1.909	1.924	1.919	1.924
0.015	-0.005	-0.010	-0.005	0.005	0.000	0.386	2.739	1.934	1.914	1.909	1.924	1.919	1.919
0.020	-0.010	-0.015	-0.005	0.005	0.029	0.381	2.729	1.934	1.919	1.909	1.924	1.919	1.924
0.024	0.000	-0.005	-0.005	0.010	0.029	0.386	2.715	1.919	1.924	1.914	1.924	1.919	1.924
0.044	0.000	0.000	0.000	0.005	0.034	0.381	2.656	1.919	1.919	1.914	1.929	1.919	1.924
0.034	0.005	0.005	0.000	0.005	0.015	0.381	2.637	1.904	1.919	1.919	1.929	1.924	1.914
0.024	0.005	0.005	0.000	0.010	0.020	0.381	2.744	1.909	1.914	1.919	1.929	1.924	1.919
0.015	0.005	0.015	0.000	0.005	-0.005	0.391	2.681	1.909	1.909	1.914	1.934	1.919	1.909
0.015	0.005	0.010	0.000	-0.010	-0.010	0.381	2.729	1.909	1.909	1.909	1.929	1.919	1.909
0.044	0.000	0.005	0.000	-0.010	-0.010	0.381	2.676	1.909	1.904	1.904	1.924	1.919	1.914
0.034	0.000	0.010	0.005	0.005	-0.005	0.371	2.686	1.904	1.904	1.904	1.924	1.924	1.914
0.015	-0.005	0.000	0.000	-0.005	-0.010	0.386	2.705	1.899	1.899	1.899	1.924	1.919	1.914
0.010	-0.010	0.005	0.005	-0.005	0.000	0.381	2.715	1.904	1.899	1.899	1.919	1.919	1.919
-0.005	0.000	0.000	-0.005	-0.034	-0.005	0.386	2.710	1.899	1.899	1.899	1.919	1.909	1.914
-0.015	0.005	-0.005	0.000	-0.044	-0.005	0.381	2.695	1.899	1.899	1.899	1.924	1.909	1.919
-0.015	0.010	0.000	0.005	-0.044	-0.020	0.386	2.710	1.904	1.909	1.904	1.924	1.914	1.909
-0.020	0.010	0.005	0.000	-0.034	-0.020	0.381	2.695	1.904	1.904	1.904	1.924	1.919	1.914
-0.029	-0.005	0.005	0.000	0.000	-0.039	0.381	2.690	1.904	1.904	1.904	1.924	1.929	1.914
-0.015	-0.005	0.005	0.000	0.029	-0.020	0.381	2.690	1.909	1.904	1.904	1.924	1.934	1.924
-0.010	-0.010	0.000	0.005	0.034	-0.010	0.386	2.700	1.909	1.904	1.904	1.924	1.934	1.929
-0.005	-0.005	0.005	0.015	0.044	-0.010	0.381	2.681	1.909	1.909	1.904	1.929	1.934	1.934
-0.010	-0.005	0.000	0.005	0.044	-0.020	0.386	2.681	1.909	1.909	1.904	1.924	1.929	1.929
-0.010	0.000	0.005	0.000	0.054	0.039	0.381	2.700	1.909	1.909	1.899	1.919	1.929	1.943
0.000	0.015	0.005	0.000	0.044	0.020	0.386	2.695	1.909	1.909	1.899	1.919	1.924	1.934
-0.015	0.015	0.000	0.000	0.029	0.059	0.381	2.710	1.904	1.909	1.904	1.919	1.914	1.938
-0.015	0.020	0.000	0.000	0.005	0.034	0.381	2.681	1.899	1.904	1.899	1.914	1.904	1.919
-0.024	0.005	0.000	0.000	0.005	0.024	0.386	2.681	1.899	1.899	1.899	1.919	1.904	1.909
-0.020	0.000	0.000	0.005	0.000	0.000	0.376	2.700	1.904	1.899	1.899	1.914	1.904	1.904
-0.020	0.010	0.000	0.005	-0.020	0.005	0.381	2.700	1.904	1.904	1.899	1.919	1.904	1.904
-0.005	0.010	0.000	0.005	-0.020	-0.005	0.381	2.690	1.914	1.904	1.899	1.919	1.904	1.904
-0.005	0.015	0.005	0.005	-0.015	0.020	0.381	2.705	1.914	1.909	1.904	1.919	1.909	1.909
0.015	-0.005	0.000	0.000	-0.005	0.015	0.376	2.690	1.914	1.904	1.904	1.924	1.914	1.914
0.024	-0.005	0.000	-0.005	0.000	-0.010	0.386	2.808	1.929	1.909	1.904	1.919	1.914	1.909
0.029	0.005	0.000	0.000	-0.010	-0.015	0.381	2.734	1.943	1.924	1.914	1.924	1.914	1.909
0.020	0.005	0.010	-0.005	-0.029	-0.024	0.381	2.666	1.929	1.929	1.919	1.924	1.914	1.909
0.015	0.000	0.000	-0.005	-0.020	-0.024	0.381	2.729	1.914	1.919	1.919	1.934	1.919	1.914
0.024	0.000	0.000	0.000	0.015	-0.024	0.386	2.661	1.914	1.919	1.919	1.934	1.934	1.914
0.029	-0.005	0.000	0.000	0.029	-0.024	0.386	2.642	1.909	1.914	1.919	1.934	1.934	1.929
0.005	0.000	-0.005	-0.005	0.039	-0.020	0.381	2.695	1.904	1.909	1.914	1.934	1.934	1.929
-0.015	-0.005	0.000	0.005	0.020	0.010	0.381	2.710	1.909	1.904	1.909	1.934	1.929	1.934
-0.005	-0.005	0.000	0.000	-0.005	0.020	0.386	2.681	1.909	1.904	1.904	1.929	1.919	1.934
-0.005	0.000	-0.005	0.000	0.000	0.034	0.381	2.744	1.899	1.904	1.904	1.924	1.919	1.934
0.000	-0.005	-0.005	0.010	-0.005	0.049	0.386	2.642	1.899	1.899	1.899	1.924	1.919	1.934
0.010	-0.005	0.000	0.010	-0.010	0.024	0.381	2.632	1.899	1.899	1.899	1.924	1.914	1.924
0.020	0.000	0.005	0.005	-0.029	0.015	0.386	2.661	1.904	1.899	1.904	1.919	1.909	1.914
0.020	0.005	0.000	0.000	-0.029	-0.029	0.376	2.729	1.909	1.904	1.899	1.919	1.914	1.899
0.034	0.010	0.000	-0.005	-0.005	-0.015	0.386	2.661	1.909	1.904	1.904	1.919	1.919	1.909
0.034	0.005	-0.005	0.000	0.034	-0.029	0.386	2.666	1.904	1.904	1.899	1.924	1.929	1.914
0.000	-0.005	-0.005	0.000	0.039	-0.029	0.381	2.754	1.909	1.909	1.904	1.924	1.929	1.914
0.000	0.005	0.005	0.005	0.000	-0.015	0.376	2.686	1.904	1.909	1.909	1.924	1.914	1.924
-0.005	0.000	0.005	-0.005	0.015	0.005	0.386	2.690	1.904	1.904	1.909	1.924	1.924	1.929
-0.015	-0.010	0.005	0.005	0.000	0.005	0.386	2.690	1.904	1.904	1.904	1.924	1.919	1.924
-0.024	-0.005	0.005	0.005	0.010	0.005	0.376	2.695	1.904	1.904	1.904	1.924	1.924	1.924
-0.020	0.000	-0.005	0.005	0.005	-0.010	0.386	2.695	1.909	1.909	1.899	1.924	1.919	1.919
-0.024	-0.005	-0.005	0.005	-0.010	0.024	0.381	2.705	1.909	1.904	1.899	1.924	1.914	1.929
-0.005	-0.005	0.000	0.010	0.005	0.054	0.386	2.695	1.909	1.909	1.904	1.924	1.924	1.934
-0.010	0.000	-0.010	0.010	0.020	0.039	0.376	2.686	1.909	1.904	1.899	1.919	1.924	1.929
-0.020	0.005	-0.005	0.010	0.000	0.044	0.376	2.700	1.909	1.909	1.899	1.919	1.914	1.924
-0.020	-0.005	0.000	0.010	-0.029	0.029	0.376	2.676	1.909	1.904	1.899	1.914	1.904	1.909
-0.010	0.005	0.010	0.005	-0.029	0.024	0.386	2.700	1.909	1.904	1.904	1.914	1.909	1.909
-0.010	0.015	0.020	0.000	0.000	0.005	0.381	2.690	1.904	1.909	1.909	1.919	1.914	1.909
-0.010	0.020	0.024	0.000	0.010	0.029	0.386	2.686	1.909	1.909	1.909	1.924	1.919	1.919
0.000	0.024	0.024	0.010	0.015	0.049	0.381	2.695	1.909	1.909	1.909	1.924	1.924	1.924
0.024	0.015	0.020	0.010	0.000	0.039	0.381	2.710	1.914	1.909	1.904	1.924	1.919	1.919
0.015	0.005	0.015	0.005	-0.005	0.020	0.376	2.710	1.919	1.914	1.904	1.924	1.914	1.914
0.024	0.000	0.005	-0.005	-0.005	-0.020	0.381	2.695	1.914	1.909	1.904	1.924	1.914	1.904
0.005	-0.020	0.000	0.000	-0.015	-0.029	0.386	2.710	1.914	1.909	1.904	1.924	1.914	1.904
0.010	-0.005	-0.005	-0.005	-0.005	-0.049	0.391	2.690	1.909	1.909	1.904	1.924	1.914	1.904
0.015	-0.010	-0.005	0.000	-0.010	-0.029	0.386	2.695	1.909	1.914	1.909	1.924	1.919	1.914
0.000	-0.005	-0.005	0.000	0.000	-0.024	0.381	2.690	1.909	1.914	1.909	1.924	1.924	1.919
-0.015	0.000	-0.010	-0.005	0.010	-0.010	0.376	2.700	1.909	1.909	1.909	1.924	1.924	1.924
-0.005	-0.015	-0.010	-0.005	0.015	-0.015	0.381	2.695	1.909	1.904	1.904	1.924	1.924	1.919
0.000	-0.005	-0.020	-0.005	0.020	-0.034	0.376	2.817	1.919	1.904	1.899	1.924	1.924	1.919
0.000	0.000	-0.010	-0.005	0.010	-0.010	0.386	2.783	1.924	1.909	1.904	1.919	1.919	1.919
-0.010	0.010	-0.010	0.000	-0.005	-0.010	0.381	2.676	1.909	1.909	1.904	1.919	1.909	1.919
-0.010	0.015	-0.005	0.000	-0.015	-0.005	0.386	2.671	1.904	1.914	1.909	1.919	1.909	1.914
-0.010	0.024	0.005	0.005	-0.020	0.005	0.376	2.671	1.899	1.904	1.909	1.924	1.909	1.919
-0.005	0.024	0.000	0.005	-0.005	0.000	0.381	2.695	1.909	1.909	1.909	1.929	1.919	1.914
0.005	0.015	-0.015	0.015	-0.005	0.000	0.376	2.686	1.909	1.904	1.899	1.924	1.919	1.919
0.000	0.005	-0.015	0.010	-0.005	0.000	0.386	2.651	1.904	1.904	1.899	1.924	1.919	1.919
0.020	0.005	-0.015	0.010	-0.024	-0.010	0.386	2.808	1.924	1.909	1.904	1.924	1.914	1.914
0.020	-0.010	0.005	0.000	-0.020	-0.005	0.386	2.739	1.929	1.914	1.909	1.924	1.919	1.919
0.005	0.000	0.015	0.000	0.000	-0.015	0.381	2.671	1.919	1.919	1.914	1.929	1.924	1.919
0.024	-0.005	0.029	0.000	0.015	0.010	0.376	2.651	1.919	1.914	1.919	1.929	1.929	1.929
0.015	0.000	0.039	-0.005	0.020	0.015	0.381	2.651	1.914	1.919	1.924	1.934	1.934	1.929
0.005	0.000	0.039	-0.005	0.024	0.015	0.381	2.646	1.904	1.909	1.919	1.934	1.934	1.929
-0.005	0.000	0.029	0.005	0.034	-0.024	0.386	2.651	1.890	1.909	1.914	1.934	1.934	1.919
-0.015	0.000	0.020	0.000	0.054	-0.015	0.381	2.666	1.895	1.904	1.904	1.929	1.938	1.929
-0.010	0.000	0.005	0.000	0.049	0.000	0.391	2.734	1.904	1.904	1.904	1.924	1.929	1.938
-0.015	-0.005	-0.015	0.000	0.034	0.015	0.386	2.671	1.899	1.899	1.895	1.919	1.924	1.934
-0.015	0.005	-0.015	0.005	0.024	0.010	0.391	2.690	1.904	1.899	1.895	1.919	1.919	1.929
-0.010	-0.005	-0.010	0.000	0.015	-0.020	0.371	2.686	1.909	1.899	1.895	1.914	1.909	1.914
-0.005	-0.010	-0.010	0.000	-0.029	-0.015	0.381	2.690	1.909	1.899	1.895	1.914	1.899	1.909
0.005	-0.005	-0.010	0.005	0.005	0.010	0.376	2.715	1.909	1.899	1.895	1.914	1.914	1.919
0.010	-0.015	-0.010	0.000	0.059	0.034	0.381	2.695	1.904	1.899	1.895	1.914	1.924	1.929
0.010	-0.005	-0.005	0.000	0.044	0.039	0.376	2.705	1.909	1.904	1.904	1.919	1.919	1.929
0.010	0.010	0.000	0.005	0.024	0.039	0.386	2.695	1.914	1.909	1.904	1.919	1.914	1.919
0.010	0.005	0.005	0.000	0.020	0.029	0.386	2.681	1.914	1.909	1.909	1.919	1.909	1.914
0.020	0.005	0.000	0.000	-0.039	0.000	0.386	2.681	1.909	1.909	1.909	1.919	1.895	1.904
0.010	0.005	0.000	-0.005	-0.112	-0.005	0.381	2.686	1.909	1.909	1.909	1.919	1.880	1.899
0.000	0.000	0.000	0.000	-0.137	0.005	0.391	2.695	1.909	1.904	1.904	1.924	1.890	1.895
-0.005	0.005	0.010	0.005	-0.107	0.005	0.386	2.676	1.904	1.909	1.909	1.929	1.909	1.904
0.000	-0.005	0.005	0.010	-0.049	-0.015	0.386	2.690	1.904	1.904	1.909	1.929	1.924	1.904
0.000	-0.005	0.010	0.005	-0.010	-0.010	0.381	2.700	1.904	1.899	1.909	1.929	1.934	1.914
-0.015	0.000	0.005	0.000	-0.024	0.000	0.386	2.700	1.904	1.899	1.904	1.924	1.924	1.919
-0.005	0.005	0.005	0.000	0.005	0.005	0.376	2.681	1.904	1.899	1.899	1.924	1.934	1.924
0.000	-0.005	0.010	0.000	0.015	0.020	0.386	2.686	1.904	1.899	1.904	1.919	1.934	1.929
-0.005	-0.010	0.000	-0.005	-0.010	0.015	0.381	2.690	1.904	1.899	1.895	1.919	1.919	1.924
-0.005	0.000	0.000	0.000	-0.059	0.005	0.381	2.700	1.904	1.899	1.895	1.919	1.904	1.914
-0.005	0.005	-0.005	0.005	-0.034	-0.015	0.376	2.671	1.899	1.904	1.895	1.914	1.914	1.909
0.010	0.000	-0.005	0.005	0.063	-0.005	0.381	2.700	1.909	1.899	1.899	1.919	1.938	1.919
0.010	0.010	-0.005	0.005	0.142	0.000	0.376	2.690	1.904	1.904	1.899	1.919	1.948	1.934
0.010	0.005	-0.005	0.000	0.117	-0.015	0.381	2.817	1.924	1.904	1.899	1.919	1.929	1.929
0.010	0.005	-0.005	0.000	0.054	-0.024	0.381	2.656	1.919	1.914	1.904	1.919	1.909	1.919
0.010	0.010	-0.005	0.005	0.034	-0.029	0.386	2.681	1.914	1.914	1.909	1.919	1.909	1.914
0.000	0.015	-0.005	0.005	0.029	-0.020	0.381	2.646	1.904	1.914	1.909	1.924	1.909	1.919
-0.020	0.005	0.000	0.005	0.020	-0.015	0.381	2.661	1.904	1.904	1.909	1.924	1.909	1.919
-0.005	-0.005	-0.005	0.005	0.020	-0.010	0.381	2.725	1.899	1.904	1.909	1.929	1.914	1.924
-0.005	-0.005	-0.005	0.005	-0.005	0.000	0.381	2.681	1.904	1.904	1.909	1.924	1.909	1.924
-0.010	-0.010	0.000	0.000	-0.020	0.015	0.386	2.734	1.909	1.904	1.904	1.924	1.909	1.919
-0.005	0.000	0.000	0.005	-0.005	-0.005	0.386	2.808	1.929	1.914	1.909	1.929	1.919	1.914
0.005	-0.020	0.005	0.000	0.005	-0.020	0.381	2.642	1.914	1.909	1.904	1.924	1.919	1.914
0.010	-0.010	0.005	0.000	0.005	-0.029	0.381	2.646	1.909	1.909	1.909	1.924	1.914	1.909
0.024	-0.005	0.000	-0.005	-0.005	0.005	0.386	2.651	1.909	1.909	1.904	1.919	1.914	1.924
0.034	-0.010	-0.005	-0.005	-0.015	0.020	0.386	2.646	1.904	1.904	1.899	1.919	1.914	1.924
0.049	-0.005	0.000	-0.005	-0.010	0.024	0.386	2.725	1.909	1.904	1.904	1.919	1.914	1.919
0.039	0.015	0.000	-0.005	0.010	0.020	0.386	2.754	1.914	1.909	1.904	1.919	1.919	1.919
0.029	0.000	0.000	0.000	0.049	0.024	0.386	2.681	1.904	1.904	1.904	1.924	1.929	1.924
0.000	0.010	0.005	0.000	0.034	0.020	0.376	2.739	1.904	1.904	1.904	1.924	1.924	1.924
0.000	0.015	0.000	0.000	0.029	0.000	0.386	2.686	1.904	1.909	1.904	1.924	1.919	1.914
0.000	0.015	0.005	0.010	0.024	0.024	0.376	2.710	1.909	1.904	1.904	1.929	1.919	1.924
-0.005	0.015	0.005	0.010	-0.020	0.024	0.381	2.690	1.909	1.909	1.909	1.924	1.909	1.919
-0.010	0.010	0.010	0.010	-0.068	0.015	0.376	2.676	1.909	1.909	1.909	1.924	1.899	1.909
-0.015	0.024	0.000	0.020	-0.063	0.015	0.376	2.676	1.904	1.914	1.909	1.929	1.909	1.914
-0.034	0.029	0.000	0.015	-0.044	0.005	0.386	2.710	1.904	1.909	1.909	1.929	1.914	1.909
-0.020	0.020	-0.005	0.010	0.015	0.000	0.386	2.695	1.909	1.909	1.909	1.929	1.934	1.919
-0.024	0.015	-0.010	0.005	-0.015	-0.005	0.386	2.695	1.909	1.904	1.904	1.924	1.919	1.919
-0.005	0.010	0.000	0.005	-0.029	-0.020	0.386	2.700	1.914	1.904	1.909	1.924	1.919	1.914
0.010	-0.005	0.010	0.005	-0.039	-0.034	0.391	2.686	1.914	1.904	1.909	1.924	1.914	1.909
0.015	0.005	0.015	0.000	-0.034	-0.063	0.386	2.705	1.914	1.909	1.909	1.924	1.914	1.904
0.024	-0.010	0.015	0.000	-0.024	-0.029	0.386	2.690	1.914	1.904	1.904	1.924	1.919	1.914
0.029	-0.010	0.020	0.000	-0.010	-0.034	0.386	2.686	1.909	1.904	1.904	1.919	1.924	1.914
0.039	-0.020	0.015	-0.010	0.005	-0.029	0.381	2.705	1.909	1.899	1.899	1.914	1.924	1.919
0.039	-0.024	0.005	-0.010	0.010	-0.034	0.371	2.690	1.904	1.899	1.895	1.914	1.924	1.924
0.039	0.000	0.010	-0.010	0.039	-0.020	0.386	2.700	1.904	1.909	1.899	1.919	1.929	1.924
0.034	0.005	0.000	-0.005	0.039	0.020	0.381	2.676	1.904	1.909	1.899	1.919	1.924	1.934
0.029	-0.015	0.000	0.000	0.024	0.000	0.386	2.700	1.904	1.904	1.899	1.919	1.919	1.924
0.010	-0.005	-0.010	0.000	0.020	0.029	0.381	2.700	1.904	1.904	1.899	1.919	1.914	1.929
0.000	0.000	0.000	0.000	0.015	0.039	0.381	2.705	1.904	1.904	1.904	1.924	1.919	1.929
-0.010	0.005	-0.005	0.000	0.015	0.054	0.376	2.690	1.904	1.909	1.904	1.924	1.919	1.934
-0.034	0.010	-0.010	0.005	0.034	0.059	0.381	2.671	1.899	1.909	1.904	1.924	1.924	1.934
-0.034	0.015	-0.005	0.010	0.034	0.049	0.381	2.690	1.904	1.909	1.904	1.924	1.924	1.929
-0.029	0.005	0.000	0.000	0.024	0.029	0.386	2.812	1.924	1.909	1.909	1.929	1.919	1.924
-0.039	-0.005	0.000	0.005	0.020	0.010	0.381	2.651	1.919	1.909	1.904	1.924	1.919	1.914
-0.029	-0.010	0.000	0.005	0.015	-0.010	0.386	2.671	1.914	1.909	1.904	1.924	1.914	1.909
-0.020	0.010	0.000	0.000	0.005	-0.029	0.381	2.798	1.914	1.914	1.909	1.924	1.914	1.904
-0.005	-0.005	0.005	0.005	-0.010	-0.005	0.381	2.666	1.904	1.909	1.909	1.924	1.909	1.909
-0.005	0.010	0.005	0.005	-0.015	0.000	0.386	2.651	1.904	1.904	1.904	1.924	1.909	1.909
0.000	0.000	0.000	0.005	-0.024	0.005	0.391	2.686	1.904	1.904	1.904	1.919	1.909	1.909
0.010	0.005	0.000	-0.005	-0.029	0.005	0.381	2.646	1.904	1.899	1.899	1.919	1.909	1.909
-0.005	0.005	-0.005	0.005	-0.010	0.000	0.386	2.783	1.909	1.899	1.899	1.919	1.914	1.909
0.010	0.005	0.000	0.000	0.000	-0.020	0.391	2.744	1.914	1.904	1.899	1.919	1.914	1.904
0.020	0.005	0.000	-0.005	-0.005	-0.039	0.381	2.661	1.909	1.909	1.904	1.919	1.914	1.904
0.024	0.000	0.000	-0.005	-0.015	-0.015	0.381	2.646	1.904	1.904	1.904	1.919	1.914	1.914
0.010	-0.010	0.005	-0.005	-0.005	-0.024	0.386	2.661	1.899	1.899	1.904	1.919	1.919	1.914
0.020	-0.005	0.005	0.000	-0.005	-0.005	0.386	2.637	1.899	1.904	1.904	1.924	1.919	1.924
0.010	-0.005	0.010	0.000	0.005	-0.005	0.386	2.661	1.899	1.904	1.904	1.924	1.924	1.924
0.020	-0.005	0.010	0.000	0.020	0.005	0.381	2.661	1.904	1.904	1.904	1.924	1.924	1.929
0.010	0.005	0.005	0.000	0.000	-0.029	0.381	2.622	1.909	1.909	1.904	1.924	1.919	1.914
0.010	0.005	0.000	0.005	-0.005	0.034	0.386	2.681	1.904	1.904	1.904	1.924	1.919	1.934
-0.005	0.000	0.010	0.005	-0.010	0.044	0.386	2.710	1.904	1.899	1.904	1.929	1.919	1.934
0.005	0.005	0.000	0.005	-0.010	0.024	0.386	2.681	1.909	1.909	1.899	1.919	1.919	1.924
-0.010	0.015	-0.005	0.010	-0.010	0.049	0.386	2.695	1.904	1.904	1.899	1.919	1.914	1.929
-0.010	0.010	-0.010	0.005	-0.010	0.039	0.391	2.700	1.904	1.899	1.899	1.919	1.914	1.919
-0.010	0.000	-0.005	0.005	-0.010	0.024	0.386	2.705	1.904	1.895	1.895	1.919	1.909	1.909
-0.005	-0.005	-0.005	0.000	-0.029	0.005	0.391	2.705	1.904	1.899	1.895	1.914	1.909	1.904
-0.010	0.000	0.000	-0.005	-0.020	-0.010	0.381	2.690	1.904	1.899	1.895	1.909	1.904	1.899
-0.005	0.000	0.000	-0.005	-0.010	-0.010	0.381	2.700	1.904	1.895	1.895	1.909	1.909	1.899
-0.005	0.000	0.000	-0.005	0.000	-0.010	0.376	2.700	1.904	1.899	1.895	1.914	1.914	1.909
-0.005	-0.020	0.000	0.000	0.020	-0.005	0.381	2.710	1.904	1.895	1.895	1.914	1.919	1.909
-0.005	-0.005	0.005	0.000	0.034	-0.029	0.381	2.676	1.909	1.904	1.899	1.919	1.919	1.909
0.000	0.005	0.000	-0.005	0.034	-0.039	0.381	2.700	1.909	1.909	1.904	1.919	1.919	1.909
-0.005	0.024	0.000	0.000	0.020	-0.020	0.381	2.710	1.914	1.914	1.909	1.924	1.914	1.919
0.000	0.015	0.000	0.000	0.034	-0.015	0.386	2.705	1.914	1.914	1.909	1.924	1.919	1.919
0.010	0.015	0.005	0.005	0.029	-0.010	0.386	2.715	1.919	1.914	1.914	1.924	1.919	1.919
0.000	0.005	0.010	0.005	0.029	-0.024	0.391	2.686	1.914	1.914	1.914	1.929	1.924	1.919
0.000	0.005	0.005	0.000	0.020	0.010	0.381	2.700	1.909	1.909	1.909	1.929	1.919	1.929
-0.015	0.000	-0.005	0.000	0.005	0.005	0.386	2.700	1.904	1.904	1.909	1.924	1.919	1.924
-0.034	-0.005	0.000	0.000	0.010	0.000	0.381	2.705	1.904	1.899	1.904	1.924	1.919	1.919
-0.020	-0.015	0.000	0.005	0.005	0.010	0.381	2.686	1.909	1.899	1.899	1.924	1.919	1.919
-0.024	-0.015	-0.005	0.005	0.005	-0.010	0.381	2.676	1.904	1.904	1.895	1.919	1.914	1.914
-0.005	0.000	0.000	0.000	0.000	0.000	0.381	2.695	1.904	1.904	1.899	1.919	1.909	1.914
-0.010	-0.005	0.000	0.000	0.005	-0.010	0.376	2.808	1.914	1.904	1.899	1.919	1.909	1.909
0.000	-0.005	0.005	0.005	0.005	-0.029	0.381	2.690	1.929	1.909	1.899	1.919	1.909	1.909
0.015	-0.010	0.005	0.005	0.015	0.024	0.381	2.671	1.919	1.909	1.904	1.919	1.914	1.924
0.024	0.005	0.005	0.005	0.024	0.029	0.386	2.739	1.914	1.914	1.904	1.924	1.919	1.924
0.039	0.010	0.000	0.000	0.034	0.005	0.381	2.666	1.919	1.914	1.909	1.924	1.919	1.914
0.049	0.005	0.005	0.010	0.000	-0.020	0.386	2.651	1.929	1.919	1.909	1.924	1.909	1.909
0.034	0.015	0.000	0.010	0.020	0.020	0.386	2.695	1.919	1.919	1.914	1.929	1.924	1.924
0.020	0.000	0.000	0.020	0.024	0.024	0.386	2.651	1.909	1.919	1.914	1.934	1.929	1.929
0.010	0.005	0.000	0.000	0.005	0.020	0.391	2.803	1.919	1.919	1.914	1.929	1.919	1.919
-0.010	0.000	0.005	-0.005	0.005	0.034	0.376	2.744	1.914	1.914	1.914	1.929	1.924	1.929
-0.020	0.000	0.005	0.000	-0.029	0.054	0.381	2.695	1.904	1.909	1.914	1.929	1.914	1.929
-0.024	-0.010	0.000	-0.005	-0.034	0.044	0.381	2.749	1.904	1.909	1.914	1.929	1.914	1.919
-0.020	0.015	0.000	0.000	-0.005	0.024	0.386	2.656	1.899	1.914	1.909	1.934	1.924	1.919
-0.005	0.000	-0.005	0.010	0.029	-0.029	0.381	2.637	1.899	1.904	1.909	1.934	1.934	1.909
0.000	0.005	0.000	0.005	0.020	0.000	0.381	2.642	1.890	1.899	1.909	1.929	1.929	1.924
0.000	0.000	0.005	0.005	0.005	-0.005	0.381	2.671	1.895	1.899	1.904	1.924	1.924	1.919
0.005	0.005	-0.005	0.000	-0.015	0.010	0.391	2.749	1.904	1.895	1.899	1.919	1.914	1.919
0.020	0.005	0.005	0.005	-0.015	0.015	0.386	2.681	1.904	1.899	1.899	1.924	1.914	1.919
0.010	0.005	0.010	0.005	0.000	0.020	0.391	2.690	1.904	1.899	1.899	1.919	1.919	1.924
0.015	0.005	0.005	0.015	-0.005	0.015	0.381	2.681	1.909	1.899	1.899	1.924	1.919	1.919
0.024	0.010	0.005	0.015	0.020	0.024	0.381	2.705	1.914	1.909	1.899	1.919	1.924	1.919
0.020	0.005	0.005	0.010	-0.005	0.024	0.381	2.705	1.909	1.909	1.904	1.919	1.914	1.919
0.015	0.005	0.000	0.005	-0.010	0.024	0.381	2.710	1.914	1.909	1.899	1.919	1.914	1.919
0.000	0.005	-0.005	0.000	0.000	0.015	0.376	2.710	1.914	1.909	1.904	1.919	1.919	1.914
-0.010	-0.010	0.000	-0.005	0.020	-0.010	0.391	2.690	1.909	1.904	1.909	1.919	1.924	1.909
-0.005	-0.005	0.000	0.000	0.010	-0.015	0.381	2.700	1.909	1.909	1.904	1.924	1.919	1.914
-0.005	-0.005	-0.005	-0.005	-0.015	-0.039	0.386	2.700	1.914	1.914	1.904	1.919	1.904	1.904
-0.005	-0.005	-0.005	0.000	-0.029	-0.029	0.376	2.705	1.909	1.909	1.904	1.919	1.909	1.909
0.000	0.015	0.000	0.000	-0.024	-0.039	0.386	2.690	1.914	1.914	1.909	1.924	1.914	1.909
-0.010	-0.005	-0.005	-0.005	-0.015	-0.029	0.381	2.700	1.909	1.904	1.909	1.924	1.919	1.914
-0.005	0.015	0.010	0.005	0.000	-0.015	0.386	2.686	1.904	1.909	1.909	1.929	1.924	1.919
0.005	0.010	0.005	-0.005	0.015	0.005	0.386	2.700	1.909	1.904	1.909	1.924	1.924	1.929
-0.010	0.000	0.010	0.000	0.029	0.000	0.381	2.700	1.904	1.904	1.904	1.919	1.929	1.924
0.000	0.000	0.005	0.000	0.005	0.029	0.381	2.686	1.904	1.899	1.899	1.919	1.919	1.929
-0.005	-0.005	0.005	0.000	0.015	0.024	0.381	2.681	1.899	1.899	1.899	1.919	1.919	1.924
-0.005	0.005	0.000	0.000	0.010	0.020	0.386	2.710	1.904	1.899	1.899	1.919	1.914	1.919
-0.010	0.010	-0.005	0.005	0.005	0.024	0.381	2.705	1.904	1.904	1.899	1.919	1.914	1.924
0.000	0.015	0.000	0.005	0.015	0.000	0.391	2.695	1.909	1.904	1.899	1.919	1.914	1.914
-0.010	0.000	-0.005	0.005	0.000	-0.005	0.386	2.700	1.909	1.904	1.899	1.919	1.909	1.914
0.010	0.005	0.000	0.005	-0.010	0.005	0.386	2.695	1.914	1.909	1.904	1.924	1.914	1.914
0.005	0.005	0.005	0.005	0.000	0.005	0.376	2.808	1.929	1.909	1.909	1.924	1.919	1.919
0.005	0.000	0.000	0.005	0.000	-0.020	0.381	2.661	1.914	1.914	1.904	1.924	1.919	1.909
-0.005	0.000	-0.005	0.005	-0.010	-0.029	0.381	2.686	1.914	1.909	1.904	1.924	1.914	1.909
0.000	0.005	0.000	0.000	-0.039	-0.005	0.386	2.803	1.924	1.914	1.909	1.924	1.909	1.914
0.010	0.000	0.000	-0.010	-0.049	-0.005	0.386	2.651	1.919	1.919	1.909	1.919	1.909	1.909
0.005	-0.005	0.000	-0.005	-0.039	-0.005	0.391	2.637	1.904	1.909	1.909	1.924	1.914	1.914
0.000	0.000	0.005	-0.010	-0.039	0.005	0.386	2.710	1.909	1.909	1.909	1.924	1.914	1.919
0.000	-0.015	0.000	-0.010	-0.039	0.020	0.386	2.651	1.909	1.904	1.904	1.924	1.914	1.919
0.000	0.010	0.000	-0.005	-0.029	0.015	0.386	2.656	1.904	1.909	1.909	1.924	1.919	1.919
0.005	0.000	0.000	-0.005	-0.005	-0.010	0.381	2.749	1.909	1.909	1.904	1.924	1.924	1.914
-0.010	-0.005	0.000	-0.005	0.005	-0.020	0.386	2.642	1.899	1.899	1.899	1.924	1.929	1.919
-0.020	-0.015	0.005	-0.005	0.024	-0.024	0.386	2.627	1.885	1.895	1.899	1.919	1.929	1.914
-0.024	-0.010	0.005	0.000	0.034	-0.024	0.376	2.646	1.885	1.890	1.895	1.919	1.929	1.919
-0.015	0.005	0.000	0.005	0.029	-0.039	0.386	2.632	1.890	1.895	1.895	1.919	1.924	1.914
0.000	0.015	0.000	0.010	0.010	-0.029	0.381	2.734	1.904	1.904	1.899	1.919	1.914	1.919
0.005	0.005	0.000	0.010	0.010	-0.020	0.386	2.676	1.909	1.899	1.899	1.924	1.914	1.919
0.020	0.000	0.000	0.005	-0.005	0.024	0.381	2.642	1.909	1.899	1.899	1.919	1.914	1.929
0.024	-0.005	0.000	0.000	-0.029	0.029	0.386	2.686	1.909	1.904	1.899	1.919	1.909	1.929
0.039	0.005	0.000	0.005	-0.029	0.024	0.391	2.681	1.914	1.909	1.899	1.919	1.914	1.924
0.034	0.005	0.000	0.005	-0.034	0.024	0.381	2.686	1.914	1.909	1.904	1.919	1.909	1.919
0.029	-0.005	0.000	0.000	-0.010	0.015	0.376	2.690	1.909	1.914	1.904	1.919	1.919	1.919
0.029	0.005	0.000	0.005	0.000	0.010	0.376	2.695	1.909	1.909	1.904	1.924	1.919	1.914
0.034	0.005	0.000	0.005	-0.010	0.020	0.381	2.710	1.909	1.909	1.909	1.924	1.919	1.914
0.020	0.005	0.000	-0.005	0.010	-0.015	0.386	2.700	1.904	1.904	1.904	1.919	1.924	1.909
0.010	0.005	0.005	-0.005	0.000	-0.010	0.391	2.690	1.899	1.899	1.904	1.919	1.914	1.919
0.005	0.000	0.005	-0.005	-0.024	0.010	0.386	2.690	1.899	1.899	1.899	1.919	1.909	1.914
-0.005	0.005	0.000	-0.005	-0.015	-0.015	0.386	2.705	1.899	1.899	1.899	1.919	1.909	1.904
-0.010	0.000	0.000	-0.005	-0.039	0.010	0.376	2.705	1.895	1.895	1.895	1.919	1.904	1.914
-0.010	0.000	0.000	0.000	0.093	0.020	0.381	2.700	1.904	1.895	1.895	1.919	1.948	1.929
-0.020	0.000	0.000	-0.005	0.200	0.015	0.381	2.690	1.899	1.899	1.899	1.919	1.958	1.938
-0.020	0.005	0.005	0.000	0.083	0.005	0.391	2.705	1.909	1.899	1.895	1.914	1.914	1.929
-0.010	0.010	0.005	0.005	-0.010	-0.015	0.381	2.681	1.909	1.904	1.899	1.914	1.890	1.909
-0.015	0.010	0.005	0.000	-0.010	-0.020	0.381	2.695	1.909	1.904	1.899	1.919	1.899	1.909
-0.034	0.020	0.000	0.005	0.024	-0.010	0.376	2.686	1.904	1.909	1.899	1.919	1.914	1.914
-0.029	0.024	0.000	0.015	0.024	-0.010	0.386	2.695	1.909	1.909	1.904	1.924	1.914	1.909
-0.020	0.020	0.000	0.010	0.005	-0.024	0.381	2.686	1.914	1.909	1.909	1.924	1.909	1.914
-0.010	0.000	0.000	0.010	-0.015	0.000	0.386	2.695	1.914	1.904	1.904	1.924	1.909	1.914
-0.015	-0.010	-0.005	0.005	-0.010	0.000	0.376	2.681	1.909	1.904	1.904	1.924	1.914	1.914
-0.010	-0.005	0.000	0.000	-0.005	0.000	0.386	2.690	1.909	1.904	1.904	1.919	1.914	1.914
-0.005	-0.010	0.005	-0.005	0.000	0.015	0.386	2.690	1.909	1.904	1.904	1.919	1.914	1.919
0.020	-0.005	0.000	-0.005	-0.039	0.020	0.386	2.808	1.924	1.904	1.904	1.919	1.904	1.919
0.024	-0.005	0.005	0.000	-0.044	0.005	0.381	2.676	1.934	1.914	1.904	1.919	1.904	1.909
0.024	0.000	0.010	0.005	0.010	-0.010	0.386	2.671	1.919	1.914	1.909	1.919	1.924	1.909
0.029	-0.005	0.010	0.000	0.049	-0.039	0.386	2.788	1.909	1.909	1.909	1.924	1.929	1.909
0.024	0.005	0.005	0.005	0.044	0.000	0.386	2.661	1.904	1.909	1.904	1.924	1.924	1.924
0.015	0.015	0.005	0.005	0.044	0.000	0.381	2.656	1.909	1.914	1.904	1.924	1.929	1.919
0.024	0.005	0.010	0.000	0.039	-0.010	0.386	2.686	1.909	1.909	1.909	1.924	1.924	1.914
0.015	0.029	0.005	0.000	0.024	-0.020	0.381	2.671	1.914	1.914	1.909	1.924	1.919	1.924
-0.010	-0.010	0.000	0.005	0.000	0.015	0.381	2.651	1.895	1.899	1.904	1.924	1.914	1.929
-0.034	0.000	0.000	0.010	-0.024	0.020	0.376	2.754	1.880	1.899	1.904	1.929	1.909	1.919
-0.049	0.000	-0.005	0.015	-0.039	0.020	0.381	2.666	1.885	1.895	1.899	1.929	1.909	1.919
-0.039	-0.005	0.000	0.005	-0.063	0.029	0.391	2.754	1.904	1.895	1.904	1.919	1.909	1.919
-0.029	-0.010	0.000	0.005	-0.054	0.044	0.381	2.637	1.904	1.899	1.899	1.919	1.914	1.924
-0.005	0.005	0.005	0.005	-0.049	0.083	0.386	2.642	1.909	1.904	1.904	1.919	1.919	1.934
0.020	0.000	-0.005	0.010	-0.020	0.078	0.376	2.729	1.914	1.909	1.899	1.919	1.924	1.929
0.015	0.024	-0.005	0.010	0.005	0.059	0.386	2.661	1.914	1.914	1.904	1.919	1.924	1.919
0.029	0.034	0.000	0.005	0.010	0.029	0.376	2.710	1.919	1.919	1.909	1.924	1.924	1.919
0.044	0.010	0.000	0.005	0.039	0.000	0.381	2.671	1.914	1.909	1.904	1.919	1.929	1.909
0.034	-0.010	0.000	0.000	0.024	-0.044	0.381	2.686	1.904	1.899	1.904	1.919	1.914	1.899
0.024	-0.015	-0.005	-0.005	-0.010	-0.059	0.386	2.676	1.909	1.899	1.899	1.914	1.904	1.899
0.015	-0.010	0.005	-0.005	-0.029	-0.029	0.386	2.686	1.899	1.899	1.899	1.914	1.899	1.899
0.015	-0.010	0.005	-0.005	-0.005	-0.039	0.391	2.710	1.899	1.899	1.899	1.914	1.914	1.904
0.015	0.005	-0.005	-0.005	-0.010	-0.024	0.386	2.695	1.899	1.899	1.899	1.914	1.909	1.909
0.015	0.010	0.000	-0.005	-0.010	-0.029	0.396	2.705	1.904	1.899	1.899	1.914	1.909	1.909
0.005	0.010	0.005	-0.005	0.029	-0.005	0.386	2.695	1.904	1.899	1.899	1.924	1.924	1.919
-0.005	-0.005	0.005	0.005	0.024	-0.015	0.386	2.700	1.909	1.899	1.904	1.924	1.919	1.919
-0.005	-0.005	0.020	0.005	0.034	0.034	0.386	2.686	1.909	1.904	1.909	1.924	1.924	1.938
-0.005	0.010	0.005	0.000	0.059	0.020	0.381	2.700	1.909	1.904	1.904	1.924	1.934	1.934
-0.010	0.010	0.010	0.005	0.073	0.024	0.371	2.690	1.914	1.909	1.909	1.929	1.934	1.929
-0.005	0.024	0.010	0.005	0.063	0.020	0.381	2.695	1.909	1.914	1.909	1.929	1.929	1.934
0.010	0.010	0.000	0.000	0.044	0.020	0.376	2.681	1.914	1.909	1.909	1.924	1.924	1.929
0.015	0.015	0.005	0.000	0.044	0.005	0.381	2.695	1.914	1.909	1.909	1.924	1.919	1.924
0.015	-0.005	0.005	-0.005	0.015	-0.034	0.381	2.700	1.919	1.904	1.909	1.924	1.909	1.909
0.015	-0.010	0.005	-0.005	-0.005	-0.005	0.376	2.690	1.914	1.904	1.904	1.924	1.904	1.909
0.015	-0.005	0.005	0.000	-0.015	-0.015	0.376	2.681	1.904	1.909	1.904	1.919	1.909	1.909
0.000	0.005	-0.005	0.000	-0.020	0.005	0.376	2.700	1.899	1.904	1.899	1.919	1.904	1.914
-0.005	-0.005	0.000	0.005	-0.034	-0.005	0.381	2.700	1.899	1.899	1.899	1.919	1.904	1.909
-0.020	-0.005	0.000	0.005	-0.049	-0.010	0.381	2.695	1.895	1.899	1.899	1.919	1.904	1.904
-0.015	-0.010	0.000	0.005	-0.044	-0.020	0.386	2.686	1.899	1.899	1.895	1.919	1.909	1.904
-0.010	-0.010	0.000	0.010	-0.024	-0.010	0.381	2.681	1.895	1.895	1.895	1.914	1.914	1.909
-0.005	-0.005	-0.005	0.005	-0.015	-0.015	0.386	2.822	1.914	1.899	1.895	1.914	1.914	1.909
0.010	-0.005	0.000	0.005	-0.015	0.000	0.381	2.671	1.914	1.909	1.899	1.914	1.914	1.914
0.000	-0.005	-0.005	0.000	-0.020	0.005	0.381	2.681	1.909	1.904	1.904	1.919	1.914	1.914
-0.010	0.000	0.005	0.000	-0.010	0.015	0.376	2.798	1.914	1.909	1.904	1.919	1.919	1.919
0.005	-0.005	0.000	0.000	0.000	0.024	0.386	2.661	1.914	1.914	1.909	1.924	1.924	1.924
0.000	0.000	-0.005	0.000	0.005	0.039	0.381	2.642	1.909	1.914	1.909	1.924	1.919	1.929
0.005	-0.005	0.005	0.000	0.005	0.015	0.391	2.700	1.914	1.909	1.909	1.924	1.924	1.924
0.005	-0.020	0.000	0.000	0.015	0.015	0.381	2.646	1.899	1.909	1.904	1.924	1.924	1.919
-0.010	-0.015	0.000	-0.005	0.010	0.000	0.386	2.734	1.909	1.909	1.904	1.924	1.919	1.914
0.000	0.005	0.010	0.000	-0.015	-0.020	0.386	2.739	1.914	1.914	1.909	1.924	1.909	1.909
0.000	0.005	-0.005	0.000	-0.015	0.000	0.386	2.642	1.904	1.909	1.904	1.924	1.914	1.919
-0.005	0.005	0.005	0.005	0.000	0.005	0.381	2.632	1.895	1.904	1.904	1.924	1.924	1.919
-0.010	0.005	0.005	0.000	-0.010	0.010	0.381	2.646	1.890	1.899	1.904	1.924	1.919	1.919
0.000	0.005	0.010	-0.005	0.010	0.005	0.376	2.632	1.890	1.895	1.899	1.919	1.919	1.919
-0.005	0.005	0.010	0.005	-0.005	0.005	0.376	2.739	1.890	1.895	1.895	1.919	1.914	1.909
0.000	0.010	0.000	0.010	-0.024	0.005	0.386	2.671	1.890	1.890	1.895	1.919	1.909	1.914
-0.005	0.000	-0.005	0.010	-0.015	0.000	0.381	2.642	1.899	1.890	1.890	1.919	1.914	1.909
-0.034	0.010	0.005	0.010	0.000	-0.024	0.381	2.690	1.895	1.890	1.895	1.914	1.914	1.904
-0.020	0.010	0.005	0.005	0.000	0.005	0.381	2.695	1.899	1.895	1.895	1.914	1.919	1.919
-0.015	0.010	-0.005	0.005	-0.005	-0.005	0.376	2.686	1.909	1.899	1.895	1.914	1.914	1.914
-0.005	0.005	0.000	0.000	-0.015	0.000	0.386	2.700	1.914	1.899	1.895	1.914	1.909	1.919
0.005	0.015	-0.005	0.000	0.010	0.005	0.386	2.705	1.919	1.909	1.899	1.909	1.919	1.919
0.010	0.010	0.000	-0.005	0.020	0.020	0.386	2.705	1.924	1.909	1.904	1.919	1.924	1.924
0.024	-0.005	0.010	0.000	0.024	0.005	0.386	2.700	1.924	1.914	1.909	1.924	1.924	1.919
0.024	0.015	0.005	0.000	0.005	-0.020	0.391	2.681	1.924	1.919	1.909	1.919	1.914	1.914
0.034	0.010	0.005	-0.005	0.000	0.005	0.391	2.690	1.919	1.914	1.909	1.919	1.914	1.914
0.029	-0.005	0.005	-0.005	0.010	-0.029	0.381	2.705	1.914	1.909	1.909	1.924	1.914	1.904
0.029	-0.005	0.005	-0.005	-0.005	0.005	0.386	2.690	1.904	1.909	1.904	1.924	1.914	1.914
0.020	0.005	-0.005	0.000	-0.010	0.005	0.386	2.681	1.899	1.909	1.904	1.924	1.909	1.914
0.010	-0.005	0.005	0.000	0.005	0.015	0.391	2.705	1.899	1.899	1.904	1.924	1.919	1.919
0.005	0.000	0.000	0.005	0.020	0.024	0.381	2.700	1.904	1.899	1.899	1.924	1.919	1.919
-0.005	0.010	0.000	0.000	-0.005	0.024	0.386	2.686	1.895	1.899	1.899	1.919	1.914	1.919
-0.015	0.000	0.005	0.005	-0.024	0.015	0.376	2.695	1.899	1.899	1.899	1.919	1.909	1.909
-0.015	0.005	0.005	0.005	-0.024	0.000	0.386	2.690	1.895	1.899	1.899	1.919	1.909	1.909
0.005	0.015	0.010	0.010	-0.029	-0.015	0.381	2.686	1.904	1.904	1.899	1.924	1.909	1.904
