0.000	-0.010	0.000	0.005	0.005	-0.024	0.430	2.676	2.612	2.168	2.061	1.963	1.973	1.953
0.000	0.000	0.000	0.005	0.005	-0.005	0.420	2.705	2.437	2.246	2.109	2.007	1.978	1.963
0.010	-0.005	0.000	0.000	0.005	0.005	0.425	2.700	2.310	2.266	2.153	2.051	1.997	1.973
0.010	0.000	0.005	0.005	0.005	-0.010	0.425	2.681	2.212	2.256	2.183	2.090	2.021	1.987
0.000	0.005	-0.005	0.005	0.005	0.010	0.430	2.676	2.148	2.227	2.192	2.124	2.041	2.007
0.010	0.005	0.005	0.005	0.005	0.005	0.435	2.705	2.109	2.192	2.197	2.153	2.075	2.017
0.010	0.000	0.000	0.000	0.000	0.015	0.430	2.690	2.075	2.163	2.187	2.168	2.095	2.041
0.005	0.000	0.005	0.000	-0.005	-0.020	0.420	2.671	2.046	2.129	2.173	2.173	2.114	2.051
0.005	-0.005	0.005	0.000	-0.005	0.015	0.430	2.661	2.046	2.104	2.158	2.178	2.129	2.085
0.000	0.005	0.000	-0.005	0.000	0.015	0.430	2.690	2.026	2.090	2.139	2.173	2.148	2.100
0.000	-0.010	0.005	0.010	0.005	0.010	0.430	2.661	2.021	2.070	2.119	2.168	2.148	2.114
-0.005	-0.005	0.000	0.000	0.000	-0.010	0.430	2.749	2.017	2.056	2.104	2.153	2.153	2.114
0.000	0.005	0.005	0.005	0.000	-0.005	0.425	2.676	2.017	2.046	2.090	2.144	2.148	2.134
0.000	0.005	0.000	0.005	0.000	0.015	0.430	2.637	2.012	2.036	2.070	2.129	2.144	2.139
0.000	-0.005	0.005	0.000	0.005	0.015	0.420	2.681	2.012	2.026	2.061	2.114	2.134	2.134
0.010	-0.005	0.000	0.000	0.005	0.005	0.425	2.749	2.021	2.026	2.051	2.100	2.124	2.134
-0.005	0.000	0.005	0.000	0.000	-0.005	0.425	2.705	2.017	2.021	2.041	2.090	2.109	2.119
-0.005	0.000	0.005	0.000	0.005	0.000	0.430	2.661	2.026	2.021	2.031	2.080	2.104	2.119
0.000	0.000	0.000	0.000	-0.005	-0.005	0.430	2.720	2.021	2.021	2.026	2.065	2.090	2.109
-0.005	-0.005	0.000	0.005	0.005	0.000	0.425	2.632	2.017	2.017	2.026	2.061	2.080	2.104
-0.005	0.005	0.005	0.000	-0.005	0.000	0.420	2.651	2.012	2.017	2.021	2.056	2.070	2.095
0.010	0.024	0.000	0.005	-0.005	-0.010	0.430	2.729	2.026	2.026	2.026	2.051	2.065	2.085
0.010	-0.010	0.000	0.005	0.000	-0.010	0.425	2.651	2.017	2.012	2.021	2.046	2.061	2.080
0.000	-0.005	-0.005	0.000	0.000	0.005	0.430	2.661	2.012	2.012	2.017	2.046	2.051	2.075
0.010	0.000	0.005	0.005	0.005	0.010	0.425	2.686	2.012	2.021	2.017	2.046	2.051	2.070
0.000	0.005	0.000	0.000	0.000	-0.020	0.430	2.705	2.021	2.017	2.017	2.041	2.046	2.056
-0.005	0.010	0.000	0.005	0.005	0.005	0.425	2.715	2.017	2.021	2.021	2.041	2.051	2.065
0.005	0.000	-0.005	0.000	0.005	-0.010	0.435	2.710	2.021	2.021	2.017	2.041	2.041	2.056
0.005	0.005	0.005	0.000	0.005	0.015	0.425	2.690	2.017	2.021	2.021	2.036	2.041	2.056
0.000	0.000	0.000	0.000	0.000	-0.010	0.425	2.700	2.017	2.017	2.017	2.036	2.036	2.046
-0.005	-0.005	0.005	0.000	0.000	0.010	0.425	2.705	2.012	2.012	2.017	2.036	2.036	2.046
0.005	-0.005	0.010	0.000	0.005	0.000	0.430	2.695	2.012	2.012	2.017	2.036	2.036	2.041
-0.010	0.005	0.005	-0.005	0.005	0.005	0.430	2.695	2.002	2.012	2.012	2.031	2.031	2.041
-0.005	0.005	0.005	0.000	0.010	0.005	0.425	2.686	2.002	2.007	2.007	2.026	2.031	2.036
0.010	0.005	0.005	0.000	0.005	0.015	0.430	2.690	2.007	2.007	2.007	2.026	2.026	2.036
0.005	0.005	0.005	0.000	0.005	0.020	0.425	2.700	2.002	2.002	2.002	2.026	2.026	2.031
0.005	0.005	0.000	0.005	0.005	0.005	0.430	2.705	2.002	2.002	2.002	2.026	2.026	2.026
0.000	0.015	0.005	0.000	-0.005	-0.005	0.425	2.705	1.997	2.002	2.002	2.021	2.021	2.021
0.005	0.000	0.005	0.000	0.005	0.005	0.425	2.700	1.997	1.997	2.002	2.021	2.021	2.026
0.000	0.005	0.000	0.000	0.005	-0.024	0.425	2.710	1.997	1.997	1.997	2.021	2.017	2.017
0.010	-0.005	0.005	0.005	0.005	0.005	0.425	2.681	1.997	1.997	1.997	2.021	2.021	2.021
0.005	-0.005	0.000	0.005	-0.005	0.005	0.430	2.705	1.992	1.997	1.997	2.021	2.017	2.026
0.005	0.005	0.000	0.005	0.005	0.005	0.425	2.705	2.002	2.002	1.997	2.017	2.021	2.021
0.000	0.005	0.005	0.000	0.005	0.005	0.425	2.686	1.992	2.002	1.997	2.017	2.017	2.021
0.010	0.005	0.000	0.000	0.005	-0.024	0.425	2.690	1.997	2.002	1.997	2.017	2.017	2.017
0.005	0.010	-0.005	0.005	-0.005	-0.005	0.430	2.686	1.987	1.997	1.997	2.017	2.017	2.017
0.005	0.010	0.000	0.010	0.000	-0.020	0.425	2.690	1.987	2.002	1.997	2.017	2.017	2.017
0.000	0.015	0.000	0.005	-0.005	0.000	0.425	2.671	1.982	1.992	1.997	2.017	2.012	2.017
-0.005	0.005	0.000	0.000	-0.005	-0.010	0.425	2.651	1.973	1.987	1.992	2.012	2.012	2.012
0.000	0.015	0.000	0.000	-0.005	-0.020	0.430	2.803	1.987	1.982	1.987	2.012	2.007	2.012
-0.005	0.005	0.005	0.000	0.000	0.015	0.430	2.656	1.973	1.978	1.982	2.007	2.007	2.017
0.005	-0.005	0.005	0.005	-0.005	0.010	0.425	2.739	1.987	1.978	1.982	2.007	2.007	2.017
-0.005	0.000	0.000	0.000	-0.005	0.024	0.430	2.686	1.982	1.978	1.978	2.002	2.002	2.012
-0.005	0.000	0.000	0.000	0.000	0.010	0.425	2.661	1.968	1.973	1.978	1.997	1.997	2.007
0.005	0.010	0.005	-0.005	0.000	0.010	0.430	2.681	1.968	1.973	1.978	1.997	1.997	2.002
0.000	-0.020	0.010	0.005	0.000	0.010	0.425	2.764	1.982	1.973	1.973	1.997	1.997	2.002
0.000	-0.015	0.000	0.000	0.000	-0.005	0.430	2.710	1.982	1.978	1.973	1.997	1.997	1.997
0.005	-0.010	0.000	0.000	0.000	-0.020	0.430	2.729	1.982	1.978	1.978	1.997	1.997	1.997
-0.005	0.000	0.000	0.000	0.000	0.005	0.430	2.725	1.982	1.982	1.978	1.997	1.992	1.997
0.000	0.005	0.005	0.000	0.005	0.005	0.430	2.739	1.987	1.987	1.982	2.002	1.997	2.002
0.000	0.010	0.000	-0.005	0.000	0.005	0.430	2.739	1.978	1.987	1.982	1.997	1.992	1.997
0.000	0.010	0.000	0.005	0.000	-0.005	0.425	2.632	1.968	1.982	1.982	2.002	1.992	1.992
0.000	0.010	0.000	0.000	0.000	-0.005	0.425	2.759	1.968	1.978	1.982	1.997	1.997	1.997
0.000	0.000	0.005	0.000	-0.005	-0.005	0.430	2.651	1.968	1.973	1.978	1.997	1.997	1.992
-0.005	0.000	0.005	0.000	0.000	0.000	0.430	2.695	1.963	1.968	1.973	1.997	1.992	1.997
-0.005	0.000	0.000	0.000	0.000	0.005	0.430	2.710	1.958	1.963	1.973	1.997	1.992	1.992
-0.010	0.000	0.000	0.000	0.005	0.000	0.420	2.681	1.958	1.958	1.963	1.992	1.992	1.997
0.005	0.000	0.000	0.005	0.000	-0.010	0.430	2.700	1.963	1.958	1.963	1.987	1.987	1.987
0.005	0.000	0.000	0.005	0.005	0.000	0.425	2.705	1.963	1.958	1.958	1.982	1.987	1.987
-0.005	0.000	0.000	0.005	0.000	0.000	0.435	2.700	1.958	1.958	1.958	1.982	1.982	1.987
-0.005	0.005	0.000	0.005	0.005	-0.010	0.425	2.715	1.958	1.958	1.958	1.982	1.982	1.982
0.005	-0.010	0.005	0.000	-0.005	-0.010	0.430	2.690	1.958	1.953	1.958	1.978	1.973	1.982
-0.005	0.000	0.000	0.005	0.000	0.000	0.420	2.715	1.953	1.958	1.958	1.978	1.978	1.982
0.015	0.005	0.005	0.005	0.000	-0.010	0.435	2.690	1.963	1.963	1.958	1.978	1.978	1.982
0.000	-0.010	0.000	0.000	0.000	0.000	0.425	2.681	1.958	1.958	1.958	1.978	1.978	1.982
0.005	-0.005	0.005	0.005	0.005	-0.010	0.430	2.705	1.963	1.963	1.958	1.978	1.978	1.978
0.005	-0.005	0.005	0.005	0.015	-0.020	0.435	2.681	1.958	1.963	1.958	1.978	1.978	1.982
0.000	-0.005	0.005	0.010	0.020	0.029	0.425	2.690	1.958	1.963	1.963	1.978	1.982	1.992
-0.005	0.000	-0.005	0.005	0.015	0.020	0.430	2.700	1.963	1.963	1.958	1.978	1.982	1.992
0.000	-0.005	-0.005	0.000	0.020	0.000	0.430	2.710	1.963	1.963	1.958	1.978	1.978	1.978
-0.005	0.000	-0.005	0.010	0.024	0.020	0.425	2.700	1.953	1.963	1.958	1.978	1.978	1.987
0.000	0.020	0.000	0.005	0.020	0.029	0.430	2.700	1.958	1.968	1.963	1.982	1.978	1.982
0.000	0.020	0.005	0.005	0.024	0.010	0.425	2.700	1.953	1.958	1.958	1.978	1.973	1.973
-0.005	0.020	0.000	0.000	0.024	0.020	0.435	2.690	1.953	1.958	1.958	1.973	1.973	1.978
0.005	0.010	0.000	0.005	0.024	-0.010	0.430	2.705	1.948	1.948	1.953	1.973	1.968	1.968
-0.005	0.010	-0.005	0.005	0.010	0.024	0.425	2.695	1.943	1.943	1.948	1.973	1.968	1.973
0.005	0.005	0.005	0.000	0.010	-0.005	0.425	2.695	1.948	1.943	1.948	1.973	1.963	1.963
0.000	-0.020	0.005	0.010	0.010	0.000	0.425	2.676	1.943	1.938	1.943	1.968	1.968	1.968
0.005	-0.015	0.000	0.010	0.005	0.020	0.430	2.651	1.958	1.943	1.943	1.968	1.963	1.968
0.000	-0.015	0.005	0.005	0.005	0.000	0.420	2.798	1.948	1.943	1.943	1.963	1.963	1.963
0.000	0.000	0.000	0.000	0.000	0.015	0.430	2.666	1.943	1.953	1.948	1.968	1.963	1.968
0.005	0.020	0.000	0.000	0.005	0.010	0.420	2.744	1.953	1.958	1.948	1.968	1.963	1.968
0.005	0.005	-0.005	0.000	0.005	0.010	0.430	2.690	1.953	1.953	1.953	1.968	1.963	1.963
0.010	0.015	0.000	0.005	-0.005	0.005	0.430	2.749	1.958	1.958	1.953	1.968	1.963	1.968
0.015	0.005	0.000	0.005	0.000	-0.010	0.430	2.681	1.948	1.953	1.953	1.968	1.963	1.958
-0.005	0.005	0.005	0.005	-0.005	0.000	0.420	2.744	1.948	1.953	1.953	1.968	1.963	1.963
0.005	0.000	0.000	0.000	-0.005	-0.005	0.435	2.686	1.953	1.948	1.948	1.973	1.963	1.963
-0.005	0.005	0.000	0.000	-0.010	0.000	0.420	2.739	1.938	1.948	1.948	1.973	1.963	1.968
0.000	-0.005	0.005	0.000	-0.010	0.005	0.435	2.715	1.943	1.943	1.943	1.968	1.968	1.963
0.000	0.005	-0.005	0.000	-0.010	0.005	0.425	2.739	1.948	1.943	1.943	1.963	1.958	1.963
0.000	0.015	0.000	0.000	-0.010	-0.024	0.430	2.632	1.934	1.943	1.943	1.963	1.958	1.953
0.005	-0.010	-0.005	-0.005	-0.010	0.000	0.430	2.695	1.938	1.934	1.943	1.958	1.958	1.963
0.005	-0.005	0.005	0.000	-0.015	-0.015	0.425	2.686	1.934	1.934	1.938	1.958	1.953	1.953
0.000	-0.010	0.000	0.000	-0.015	0.005	0.425	2.651	1.924	1.929	1.934	1.958	1.953	1.958
0.005	0.000	0.005	0.000	-0.010	-0.005	0.430	2.695	1.934	1.934	1.934	1.958	1.953	1.953
-0.010	0.000	0.000	0.005	-0.015	0.005	0.430	2.700	1.934	1.934	1.934	1.958	1.953	1.958
0.000	0.005	0.000	0.000	-0.015	0.005	0.425	2.700	1.938	1.934	1.934	1.953	1.953	1.958
0.005	-0.010	0.005	0.000	-0.010	0.020	0.425	2.710	1.943	1.929	1.934	1.953	1.953	1.958
0.000	0.010	-0.005	0.005	-0.005	-0.005	0.430	2.700	1.943	1.943	1.934	1.953	1.953	1.953
-0.010	0.005	0.005	0.005	-0.005	0.005	0.425	2.700	1.938	1.943	1.934	1.958	1.958	1.953
0.000	0.015	0.000	0.005	-0.005	-0.005	0.425	2.710	1.948	1.948	1.938	1.958	1.958	1.953
0.000	0.005	-0.005	0.000	-0.010	-0.010	0.425	2.690	1.938	1.943	1.938	1.958	1.953	1.953
0.005	0.010	0.000	0.000	0.000	-0.049	0.425	2.705	1.938	1.943	1.938	1.953	1.953	1.943
0.010	0.015	0.000	0.000	0.005	0.000	0.425	2.686	1.943	1.943	1.943	1.958	1.958	1.958
0.010	0.000	0.000	0.000	0.005	0.005	0.420	2.690	1.943	1.938	1.934	1.958	1.953	1.958
0.010	-0.005	0.005	0.000	0.005	-0.005	0.430	2.695	1.938	1.934	1.938	1.958	1.948	1.958
0.010	0.000	0.000	0.000	0.000	0.005	0.430	2.686	1.934	1.934	1.934	1.953	1.948	1.953
0.015	-0.005	0.005	0.000	0.005	0.010	0.430	2.686	1.934	1.929	1.929	1.953	1.948	1.953
0.010	-0.005	0.005	0.005	0.000	0.000	0.430	2.700	1.929	1.929	1.929	1.948	1.948	1.948
0.000	0.010	0.000	0.005	0.005	-0.005	0.435	2.690	1.929	1.929	1.929	1.948	1.943	1.948
0.005	0.000	0.005	0.000	0.005	0.005	0.425	2.715	1.934	1.929	1.929	1.948	1.943	1.948
0.000	0.000	0.005	0.005	0.005	-0.015	0.439	2.705	1.934	1.929	1.924	1.943	1.943	1.938
0.005	0.010	0.010	0.005	0.005	-0.005	0.425	2.690	1.934	1.934	1.929	1.948	1.943	1.948
-0.005	0.005	0.010	0.005	0.005	0.015	0.425	2.666	1.929	1.934	1.929	1.948	1.948	1.953
-0.010	0.000	0.000	0.005	0.000	-0.005	0.430	2.700	1.929	1.929	1.929	1.948	1.943	1.948
0.000	-0.005	0.000	0.005	0.000	0.005	0.435	2.695	1.934	1.929	1.929	1.948	1.943	1.948
0.005	0.010	-0.005	0.000	0.000	0.000	0.430	2.690	1.938	1.934	1.929	1.948	1.943	1.948
0.005	-0.005	0.005	0.005	0.000	0.005	0.430	2.666	1.934	1.929	1.934	1.948	1.948	1.948
0.005	0.005	0.000	0.005	0.010	0.010	0.430	2.651	1.929	1.934	1.934	1.948	1.948	1.948
-0.010	-0.005	0.000	-0.005	0.000	0.005	0.425	2.803	1.938	1.934	1.929	1.948	1.943	1.943
0.000	0.000	0.000	-0.005	0.005	-0.020	0.425	2.666	1.934	1.934	1.929	1.948	1.943	1.938
0.005	-0.005	-0.005	0.000	0.005	-0.005	0.435	2.734	1.938	1.934	1.929	1.948	1.943	1.943
0.000	0.000	-0.005	0.005	0.005	-0.005	0.430	2.671	1.929	1.934	1.929	1.948	1.943	1.938
0.000	0.000	0.000	0.000	0.000	-0.010	0.430	2.754	1.934	1.929	1.929	1.948	1.938	1.938
-0.005	0.005	0.000	0.010	0.005	0.005	0.430	2.700	1.929	1.929	1.929	1.948	1.943	1.948
0.000	0.000	0.000	0.005	0.005	0.000	0.430	2.720	1.929	1.929	1.929	1.943	1.943	1.938
0.005	0.010	-0.005	0.005	0.000	-0.005	0.430	2.695	1.929	1.929	1.924	1.938	1.938	1.943
0.000	0.010	0.005	0.000	-0.005	0.005	0.425	2.734	1.929	1.929	1.924	1.943	1.938	1.938
0.000	0.000	0.005	-0.005	0.000	0.010	0.430	2.749	1.934	1.929	1.924	1.943	1.938	1.938
-0.005	-0.005	0.005	0.000	0.010	-0.005	0.425	2.661	1.929	1.929	1.929	1.943	1.943	1.943
-0.005	0.005	0.000	0.005	0.005	0.005	0.430	2.656	1.924	1.934	1.929	1.948	1.943	1.943
0.000	0.000	0.000	0.000	0.000	-0.005	0.430	2.646	1.934	1.929	1.929	1.943	1.938	1.938
0.000	0.005	0.000	0.000	0.000	0.015	0.430	2.744	1.924	1.929	1.929	1.948	1.943	1.948
0.005	-0.005	0.000	0.005	0.000	0.015	0.420	2.661	1.924	1.929	1.929	1.948	1.943	1.943
0.005	-0.005	0.000	0.000	0.000	0.010	0.430	2.686	1.929	1.929	1.929	1.948	1.943	1.948
-0.005	0.005	0.005	0.000	0.005	0.015	0.430	2.715	1.934	1.929	1.929	1.948	1.943	1.943
0.000	0.005	0.000	0.000	0.000	0.005	0.435	2.700	1.934	1.929	1.929	1.948	1.943	1.943
0.010	0.005	0.000	0.005	0.005	0.000	0.425	2.700	1.929	1.934	1.929	1.948	1.943	1.943
0.005	0.005	0.000	0.005	0.005	0.005	0.425	2.705	1.934	1.929	1.924	1.948	1.943	1.943
0.005	0.000	-0.005	0.005	0.010	-0.010	0.420	2.700	1.924	1.929	1.929	1.948	1.943	1.938
0.010	0.005	0.000	0.000	0.005	-0.005	0.425	2.695	1.924	1.929	1.924	1.943	1.943	1.938
0.005	0.020	0.000	-0.005	0.000	0.010	0.420	2.700	1.919	1.929	1.924	1.938	1.938	1.938
0.000	0.015	-0.005	0.000	0.005	0.000	0.430	2.686	1.914	1.924	1.924	1.943	1.938	1.938
0.000	0.005	0.005	-0.005	0.000	-0.010	0.425	2.700	1.919	1.914	1.919	1.938	1.934	1.934
-0.005	0.000	0.005	-0.005	0.005	0.000	0.425	2.700	1.919	1.919	1.914	1.938	1.938	1.938
0.005	0.005	0.005	0.005	0.000	0.005	0.425	2.676	1.919	1.919	1.919	1.938	1.934	1.938
0.010	0.005	0.010	-0.005	0.005	0.010	0.435	2.686	1.919	1.919	1.919	1.938	1.938	1.938
0.010	0.000	0.000	0.000	0.000	0.010	0.430	2.690	1.924	1.919	1.919	1.938	1.934	1.938
-0.005	-0.005	0.005	0.000	0.000	0.000	0.430	2.690	1.919	1.924	1.919	1.934	1.934	1.938
0.005	0.005	0.000	0.000	-0.005	0.010	0.425	2.681	1.924	1.924	1.919	1.938	1.934	1.938
0.000	0.000	0.005	0.000	0.005	0.005	0.430	2.686	1.929	1.924	1.924	1.943	1.938	1.938
0.000	-0.005	0.000	0.005	0.000	-0.005	0.425	2.695	1.929	1.924	1.919	1.943	1.934	1.934
0.000	0.000	0.000	0.005	0.000	0.000	0.425	2.676	1.919	1.929	1.924	1.938	1.938	1.934
0.000	-0.005	0.000	0.005	0.005	0.005	0.420	2.710	1.924	1.924	1.924	1.943	1.938	1.938
-0.005	0.005	0.000	0.005	-0.005	0.000	0.420	2.705	1.914	1.919	1.919	1.938	1.934	1.934
0.000	-0.005	0.005	0.000	0.005	0.005	0.430	2.676	1.914	1.919	1.919	1.934	1.934	1.938
0.000	-0.005	-0.005	0.000	0.000	-0.010	0.425	2.690	1.914	1.914	1.914	1.934	1.929	1.934
0.005	-0.010	0.005	0.000	0.000	-0.015	0.430	2.676	1.914	1.909	1.909	1.934	1.929	1.929
-0.010	0.005	0.000	0.000	0.005	0.015	0.420	2.788	1.914	1.914	1.909	1.929	1.929	1.938
0.005	0.000	0.000	0.000	0.005	0.010	0.435	2.788	1.929	1.919	1.909	1.929	1.929	1.934
0.000	-0.005	0.010	0.005	0.005	0.000	0.425	2.671	1.924	1.914	1.914	1.934	1.929	1.929
0.000	-0.005	0.000	0.000	-0.005	0.000	0.425	2.734	1.929	1.919	1.909	1.929	1.924	1.924
0.005	0.000	0.005	-0.005	0.000	-0.015	0.425	2.695	1.929	1.924	1.914	1.934	1.929	1.924
0.000	0.005	-0.005	0.000	0.005	0.000	0.430	2.632	1.929	1.924	1.919	1.934	1.929	1.924
0.005	0.010	0.005	0.005	0.000	0.010	0.435	2.690	1.929	1.929	1.924	1.938	1.929	1.934
-0.010	-0.005	0.000	0.000	0.000	0.005	0.430	2.729	1.924	1.924	1.924	1.938	1.929	1.934
0.005	0.000	0.000	-0.005	0.000	0.005	0.430	2.705	1.938	1.934	1.929	1.938	1.934	1.929
0.000	0.000	0.000	0.000	0.000	0.005	0.430	2.749	1.934	1.929	1.929	1.943	1.934	1.934
0.005	-0.005	0.005	0.000	-0.005	0.005	0.430	2.749	1.934	1.929	1.929	1.943	1.934	1.929
0.010	0.000	0.000	0.000	0.005	0.005	0.430	2.705	1.938	1.934	1.924	1.948	1.938	1.934
0.000	-0.005	0.005	0.000	0.000	-0.020	0.430	2.744	1.934	1.934	1.929	1.943	1.938	1.929
0.000	0.005	0.005	0.005	0.005	0.015	0.430	2.627	1.924	1.934	1.929	1.943	1.938	1.938
-0.010	0.015	0.005	0.000	0.000	0.020	0.420	2.661	1.914	1.924	1.929	1.948	1.938	1.943
0.000	0.000	0.000	-0.005	0.005	0.010	0.430	2.646	1.909	1.914	1.924	1.943	1.938	1.938
-0.005	0.010	0.005	0.000	0.005	0.010	0.425	2.686	1.909	1.914	1.924	1.943	1.934	1.934
0.000	-0.005	0.010	-0.005	0.005	-0.005	0.420	2.690	1.904	1.909	1.914	1.938	1.934	1.929
0.015	-0.005	0.000	0.010	0.005	0.000	0.420	2.681	1.909	1.909	1.909	1.938	1.934	1.934
0.000	-0.005	0.000	0.000	0.000	0.010	0.430	2.705	1.914	1.909	1.909	1.934	1.934	1.934
0.005	0.005	0.000	0.005	0.005	0.000	0.430	2.710	1.914	1.914	1.909	1.934	1.934	1.929
0.005	0.010	0.005	0.000	0.000	0.005	0.435	2.710	1.919	1.914	1.914	1.934	1.934	1.934
-0.005	-0.005	0.000	0.005	0.005	0.005	0.425	2.690	1.914	1.909	1.909	1.934	1.934	1.934
0.000	0.005	-0.005	0.005	0.005	0.000	0.420	2.695	1.919	1.914	1.909	1.934	1.934	1.934
0.005	-0.005	0.005	0.005	0.000	-0.005	0.435	2.715	1.924	1.919	1.914	1.934	1.934	1.934
0.000	0.005	0.000	0.000	0.005	-0.015	0.420	2.710	1.924	1.924	1.919	1.934	1.929	1.929
0.005	0.015	0.000	0.005	0.005	-0.010	0.430	2.695	1.924	1.924	1.919	1.934	1.934	1.934
0.005	0.005	0.000	0.000	0.000	0.010	0.425	2.705	1.924	1.924	1.919	1.938	1.934	1.938
-0.005	-0.010	0.000	0.005	-0.005	-0.024	0.435	2.695	1.919	1.914	1.914	1.934	1.929	1.924
-0.015	-0.010	0.005	0.005	0.005	0.015	0.420	2.686	1.914	1.919	1.919	1.934	1.934	1.938
0.000	0.000	0.000	0.000	0.005	0.010	0.425	2.705	1.919	1.919	1.914	1.934	1.934	1.934
0.015	0.000	0.000	0.000	0.000	0.005	0.420	2.690	1.914	1.919	1.914	1.934	1.929	1.929
0.005	0.005	0.000	0.005	0.005	-0.010	0.430	2.700	1.909	1.914	1.914	1.934	1.929	1.929
-0.005	0.024	0.000	-0.005	0.005	0.005	0.430	2.705	1.914	1.919	1.914	1.929	1.929	1.929
-0.005	0.005	0.005	0.000	0.005	-0.020	0.430	2.705	1.914	1.909	1.909	1.929	1.924	1.919
0.000	0.005	0.010	0.000	0.000	0.010	0.435	2.690	1.914	1.914	1.909	1.929	1.929	1.929
0.000	0.000	0.000	-0.005	0.000	0.010	0.425	2.710	1.914	1.909	1.909	1.929	1.924	1.929
0.000	0.015	0.005	0.000	0.000	0.005	0.420	2.690	1.914	1.914	1.909	1.929	1.924	1.924
0.000	0.005	0.000	0.000	0.000	0.005	0.435	2.681	1.914	1.909	1.909	1.929	1.924	1.929
0.015	0.005	0.000	0.000	0.000	0.010	0.425	2.666	1.914	1.914	1.914	1.929	1.929	1.929
0.015	-0.005	0.005	0.000	-0.005	-0.010	0.425	2.656	1.914	1.914	1.914	1.934	1.924	1.919
0.005	0.000	0.005	-0.005	0.005	0.005	0.425	2.793	1.904	1.914	1.914	1.934	1.929	1.929
0.015	0.005	0.000	0.000	0.000	0.005	0.425	2.666	1.909	1.914	1.914	1.934	1.929	1.929
0.005	-0.010	0.000	0.000	0.005	0.005	0.430	2.739	1.914	1.909	1.914	1.934	1.929	1.929
0.005	-0.010	0.000	0.000	0.010	0.005	0.425	2.676	1.914	1.914	1.914	1.934	1.934	1.929
0.005	0.000	0.000	0.000	0.000	-0.015	0.430	2.734	1.919	1.914	1.909	1.929	1.929	1.924
0.000	-0.005	0.000	0.005	-0.005	-0.010	0.425	2.690	1.919	1.914	1.909	1.934	1.929	1.924
-0.005	-0.005	0.000	0.000	0.005	0.010	0.430	2.769	1.924	1.914	1.909	1.934	1.929	1.934
-0.005	0.000	0.010	0.000	0.005	0.020	0.430	2.695	1.919	1.914	1.909	1.929	1.924	1.929
0.000	0.000	0.000	0.000	0.000	0.010	0.430	2.637	1.909	1.909	1.904	1.924	1.924	1.924
0.005	-0.005	0.000	0.000	0.005	-0.024	0.425	2.720	1.914	1.909	1.904	1.924	1.924	1.914
-0.005	-0.005	0.000	0.000	0.005	0.010	0.430	2.642	1.904	1.909	1.904	1.924	1.924	1.924
0.000	0.000	0.000	0.000	0.000	0.010	0.425	2.656	1.904	1.909	1.904	1.924	1.914	1.924
0.000	0.000	0.000	0.005	0.000	0.005	0.435	2.637	1.909	1.909	1.909	1.924	1.919	1.919
0.005	0.005	-0.005	0.005	0.000	-0.020	0.420	2.725	1.904	1.904	1.904	1.924	1.919	1.914
0.010	-0.005	0.005	0.005	-0.005	0.005	0.430	2.656	1.904	1.909	1.909	1.924	1.919	1.919
0.000	0.015	0.000	0.005	-0.005	0.005	0.420	2.690	1.909	1.909	1.904	1.929	1.919	1.924
0.000	0.005	0.005	0.005	0.005	-0.024	0.435	2.710	1.914	1.909	1.909	1.929	1.924	1.919
-0.005	0.000	0.000	0.010	0.000	0.010	0.420	2.700	1.914	1.909	1.909	1.929	1.924	1.929
-0.005	0.005	0.000	0.005	0.000	0.005	0.435	2.705	1.914	1.909	1.909	1.929	1.924	1.929
-0.010	0.010	0.000	0.000	0.000	-0.010	0.420	2.705	1.914	1.909	1.909	1.924	1.924	1.924
0.000	0.000	0.000	0.000	0.005	-0.005	0.430	2.720	1.919	1.914	1.909	1.929	1.924	1.919
0.000	0.000	0.000	0.000	0.000	0.020	0.430	2.710	1.919	1.914	1.909	1.929	1.924	1.929
0.000	0.005	0.000	-0.005	0.010	-0.005	0.425	2.705	1.914	1.909	1.909	1.929	1.919	1.919
0.005	0.000	0.005	0.000	0.005	0.000	0.425	2.681	1.909	1.914	1.909	1.929	1.924	1.919
-0.005	0.005	0.000	0.000	0.005	-0.005	0.430	2.700	1.904	1.909	1.904	1.924	1.919	1.919
-0.010	0.000	0.000	0.000	0.005	-0.010	0.430	2.686	1.904	1.904	1.904	1.924	1.919	1.914
0.005	0.000	0.000	0.000	0.005	0.000	0.430	2.710	1.909	1.904	1.904	1.924	1.924	1.924
0.000	-0.015	0.000	0.000	0.000	0.005	0.425	2.705	1.909	1.904	1.899	1.919	1.919	1.919
0.000	0.010	0.000	0.000	0.005	-0.020	0.425	2.676	1.904	1.909	1.904	1.919	1.914	1.919
0.000	0.005	0.000	0.000	-0.005	0.010	0.430	2.700	1.904	1.909	1.904	1.924	1.919	1.919
0.005	0.005	0.000	0.000	0.000	0.000	0.420	2.686	1.914	1.904	1.904	1.924	1.919	1.919
0.000	0.005	0.000	0.005	0.000	0.005	0.430	2.681	1.909	1.909	1.904	1.924	1.919	1.924
0.000	0.005	-0.005	0.000	0.000	-0.010	0.425	2.681	1.909	1.909	1.904	1.924	1.919	1.919
-0.005	-0.005	-0.005	0.005	0.000	0.010	0.435	2.705	1.909	1.909	1.904	1.924	1.919	1.919
0.005	0.000	0.000	0.000	0.000	0.005	0.420	2.710	1.914	1.914	1.909	1.924	1.924	1.924
0.000	-0.005	0.000	0.005	0.005	0.005	0.430	2.705	1.909	1.909	1.909	1.929	1.924	1.919
-0.005	0.015	0.000	0.010	0.005	0.010	0.420	2.690	1.904	1.914	1.909	1.929	1.924	1.924
-0.005	0.005	0.000	0.005	0.000	0.005	0.435	2.695	1.909	1.909	1.909	1.929	1.919	1.924
0.015	0.010	-0.005	0.005	0.000	0.000	0.425	2.671	1.909	1.909	1.909	1.924	1.924	1.924
0.000	0.005	0.005	0.000	0.005	-0.029	0.435	2.651	1.904	1.904	1.909	1.924	1.919	1.914
-0.005	0.005	0.000	0.005	0.000	0.005	0.425	2.793	1.914	1.904	1.909	1.929	1.919	1.924
0.000	-0.005	0.000	0.000	0.005	0.000	0.430	2.656	1.909	1.904	1.904	1.924	1.919	1.924
0.000	0.000	0.000	0.000	0.000	-0.005	0.420	2.734	1.909	1.904	1.899	1.919	1.914	1.914
0.010	0.010	0.000	0.005	0.000	0.000	0.430	2.686	1.904	1.904	1.904	1.919	1.914	1.914
0.000	-0.010	0.000	0.000	0.005	0.005	0.430	2.710	1.904	1.904	1.899	1.919	1.919	1.919
0.000	0.000	0.010	0.000	0.000	0.015	0.425	2.681	1.904	1.904	1.899	1.919	1.914	1.919
0.010	0.005	0.000	0.005	0.005	0.005	0.425	2.744	1.914	1.909	1.904	1.919	1.919	1.919
0.005	0.005	0.005	0.005	0.000	0.015	0.430	2.690	1.909	1.909	1.909	1.924	1.914	1.919
0.000	0.005	0.000	0.000	0.000	0.010	0.425	2.729	1.914	1.909	1.904	1.919	1.919	1.919
-0.005	0.015	0.000	0.000	0.000	0.005	0.425	2.729	1.919	1.909	1.904	1.924	1.919	1.919
-0.010	0.010	0.000	0.000	0.005	0.000	0.425	2.651	1.909	1.909	1.909	1.924	1.924	1.919
0.000	0.005	0.000	0.000	0.005	0.000	0.430	2.651	1.924	1.914	1.909	1.924	1.919	1.919
0.000	0.005	0.000	0.005	0.005	-0.005	0.425	2.642	1.909	1.909	1.909	1.929	1.924	1.919
0.005	0.000	0.000	0.005	0.005	0.005	0.430	2.734	1.914	1.914	1.914	1.929	1.924	1.924
0.000	0.000	0.005	0.005	0.000	0.000	0.435	2.661	1.914	1.914	1.914	1.929	1.924	1.919
0.000	0.000	0.000	0.000	0.005	0.000	0.425	2.700	1.909	1.909	1.909	1.929	1.919	1.919
-0.005	0.005	0.005	0.005	0.000	-0.024	0.425	2.705	1.909	1.909	1.909	1.929	1.919	1.914
0.000	0.000	0.000	0.010	0.005	0.010	0.425	2.676	1.899	1.904	1.904	1.929	1.924	1.924
0.000	0.000	0.000	0.000	0.010	0.005	0.430	2.695	1.909	1.904	1.904	1.924	1.919	1.924
-0.005	0.000	0.000	0.000	0.005	-0.005	0.430	2.705	1.909	1.904	1.899	1.924	1.919	1.919
0.000	0.000	0.000	0.005	-0.005	0.000	0.430	2.705	1.904	1.904	1.899	1.919	1.914	1.914
0.010	0.000	0.000	0.000	0.000	0.000	0.425	2.695	1.909	1.904	1.904	1.919	1.919	1.914
0.010	0.005	0.000	0.005	0.000	-0.010	0.435	2.690	1.909	1.909	1.904	1.919	1.914	1.914
0.010	0.005	0.000	0.000	-0.005	0.000	0.420	2.705	1.909	1.904	1.904	1.919	1.914	1.919
0.000	-0.005	0.000	-0.005	0.000	0.010	0.435	2.695	1.909	1.904	1.904	1.919	1.919	1.924
0.005	0.005	0.000	0.000	0.000	0.005	0.425	2.690	1.914	1.909	1.904	1.924	1.919	1.919
0.000	0.005	0.005	0.005	0.000	0.005	0.435	2.710	1.914	1.909	1.909	1.924	1.919	1.919
0.000	0.010	0.000	0.005	0.000	0.010	0.425	2.695	1.914	1.914	1.909	1.924	1.919	1.924
0.005	0.005	-0.005	0.005	0.000	0.010	0.435	2.690	1.919	1.909	1.909	1.929	1.924	1.924
0.010	-0.005	0.000	0.005	0.005	0.005	0.425	2.700	1.914	1.909	1.909	1.929	1.924	1.924
0.005	-0.005	0.005	0.000	0.005	0.000	0.430	2.686	1.909	1.909	1.909	1.929	1.924	1.919
0.000	-0.010	0.000	0.000	0.005	-0.020	0.430	2.710	1.909	1.909	1.909	1.929	1.924	1.914
0.005	0.000	0.005	0.000	0.010	-0.020	0.425	2.710	1.909	1.909	1.909	1.924	1.924	1.914
-0.005	0.000	0.005	-0.005	0.010	0.015	0.435	2.710	1.904	1.909	1.904	1.924	1.924	1.924
0.000	0.000	0.005	0.000	0.000	0.010	0.425	2.700	1.909	1.904	1.904	1.924	1.919	1.924
-0.005	0.005	0.005	0.000	0.000	0.005	0.430	2.705	1.904	1.904	1.904	1.924	1.919	1.919
0.000	0.000	0.005	0.000	-0.005	0.010	0.430	2.700	1.904	1.904	1.904	1.919	1.914	1.914
0.000	0.010	0.000	0.005	0.005	-0.010	0.425	2.690	1.904	1.904	1.899	1.924	1.914	1.914
-0.005	0.005	0.010	-0.005	-0.005	0.010	0.420	2.651	1.904	1.904	1.904	1.919	1.914	1.919
0.005	0.015	0.000	0.000	0.005	0.005	0.430	2.671	1.899	1.904	1.899	1.919	1.914	1.919
-0.010	0.010	0.005	-0.005	0.000	0.005	0.425	2.803	1.909	1.904	1.904	1.919	1.914	1.914
-0.015	0.005	-0.005	-0.005	0.000	0.005	0.430	2.661	1.914	1.904	1.904	1.919	1.914	1.919
0.005	0.005	0.000	0.000	0.005	0.000	0.425	2.729	1.919	1.909	1.904	1.924	1.919	1.919
0.010	0.005	-0.005	0.000	0.000	0.000	0.430	2.676	1.919	1.914	1.904	1.924	1.919	1.919
0.010	0.005	0.005	-0.005	0.000	0.000	0.420	2.646	1.929	1.919	1.909	1.929	1.919	1.919
0.000	0.000	0.005	0.000	0.005	-0.020	0.430	2.676	1.924	1.919	1.914	1.929	1.924	1.914
0.005	0.005	0.000	0.000	0.005	0.005	0.430	2.720	1.919	1.924	1.914	1.929	1.924	1.924
0.005	0.000	0.000	0.000	0.005	0.000	0.425	2.695	1.914	1.914	1.914	1.929	1.924	1.924
0.010	0.000	0.005	0.005	0.005	0.010	0.430	2.656	1.909	1.914	1.919	1.934	1.924	1.924
0.005	-0.005	0.000	0.000	0.005	0.005	0.425	2.720	1.914	1.909	1.914	1.929	1.924	1.919
0.010	0.000	-0.005	0.005	0.000	0.005	0.430	2.749	1.909	1.909	1.909	1.929	1.924	1.924
0.005	0.000	0.000	0.005	0.000	-0.024	0.425	2.642	1.899	1.904	1.909	1.929	1.919	1.914
0.005	0.005	0.010	0.000	0.005	0.005	0.415	2.637	1.890	1.904	1.904	1.924	1.924	1.929
0.000	0.000	0.000	0.005	0.000	0.005	0.430	2.764	1.904	1.899	1.899	1.924	1.924	1.919
-0.005	0.005	-0.005	0.005	0.005	0.010	0.425	2.656	1.895	1.899	1.899	1.924	1.919	1.919
0.000	0.010	0.000	0.010	-0.005	0.015	0.435	2.695	1.904	1.904	1.899	1.924	1.919	1.924
-0.005	0.015	0.000	-0.005	0.005	0.010	0.425	2.715	1.909	1.904	1.899	1.919	1.919	1.919
0.005	0.010	0.000	0.005	0.000	0.000	0.430	2.705	1.909	1.904	1.899	1.919	1.919	1.914
0.005	0.000	0.005	0.005	0.000	0.005	0.420	2.705	1.914	1.904	1.904	1.919	1.919	1.919
0.000	0.000	-0.005	0.005	0.005	-0.005	0.425	2.710	1.914	1.909	1.904	1.924	1.919	1.919
0.005	0.015	0.005	0.005	0.000	0.000	0.435	2.715	1.919	1.914	1.909	1.924	1.919	1.919
0.005	0.010	0.000	0.000	0.000	0.010	0.430	2.705	1.914	1.914	1.909	1.924	1.919	1.924
0.000	0.010	0.000	0.000	0.005	0.010	0.430	2.700	1.914	1.914	1.909	1.924	1.919	1.919
-0.005	0.010	-0.005	0.000	0.000	0.005	0.425	2.705	1.914	1.914	1.909	1.929	1.919	1.924
0.000	0.005	0.005	0.000	0.005	-0.010	0.430	2.686	1.914	1.909	1.909	1.929	1.924	1.919
0.005	0.005	-0.005	0.000	-0.005	-0.020	0.425	2.686	1.909	1.909	1.909	1.924	1.919	1.919
0.000	-0.010	0.000	0.000	0.005	0.005	0.420	2.695	1.909	1.904	1.909	1.924	1.919	1.924
-0.005	0.000	0.000	0.000	0.005	0.010	0.425	2.681	1.904	1.904	1.904	1.924	1.919	1.924
0.005	-0.010	0.005	0.000	0.000	0.005	0.435	2.681	1.904	1.899	1.899	1.919	1.919	1.919
0.000	-0.015	0.005	0.005	0.005	0.000	0.420	2.686	1.899	1.899	1.899	1.924	1.914	1.919
0.005	-0.010	0.000	0.005	-0.005	0.005	0.430	2.681	1.904	1.899	1.899	1.919	1.914	1.914
0.000	-0.005	0.000	0.000	0.010	-0.005	0.425	2.710	1.904	1.904	1.899	1.919	1.919	1.919
0.000	0.000	0.000	0.000	0.005	0.000	0.425	2.690	1.904	1.904	1.899	1.919	1.914	1.914
-0.010	-0.005	0.000	0.005	0.005	-0.024	0.425	2.690	1.899	1.899	1.899	1.919	1.914	1.909
-0.020	0.000	0.000	0.000	0.000	0.015	0.430	2.720	1.909	1.904	1.899	1.919	1.919	1.924
-0.005	-0.005	0.005	0.005	0.005	0.010	0.425	2.715	1.914	1.904	1.904	1.924	1.919	1.914
-0.005	0.005	0.000	0.000	0.005	-0.029	0.425	2.690	1.909	1.909	1.904	1.919	1.919	1.909
-0.005	0.000	0.000	0.000	0.005	0.020	0.425	2.700	1.914	1.909	1.909	1.924	1.919	1.924
0.000	0.000	-0.005	0.010	-0.005	0.005	0.430	2.671	1.909	1.909	1.909	1.929	1.919	1.924
0.005	-0.005	-0.005	0.000	0.000	-0.005	0.430	2.661	1.909	1.909	1.909	1.924	1.919	1.914
0.000	0.015	0.000	0.005	0.000	0.015	0.430	2.793	1.919	1.914	1.909	1.929	1.924	1.924
0.010	0.005	-0.005	0.005	0.005	0.000	0.430	2.661	1.919	1.914	1.909	1.929	1.924	1.924
0.005	0.010	0.000	0.000	0.000	0.015	0.425	2.744	1.914	1.914	1.909	1.924	1.919	1.919
0.005	0.010	0.000	0.005	0.005	0.015	0.425	2.686	1.909	1.909	1.909	1.929	1.919	1.924
0.015	-0.005	0.005	0.010	0.000	-0.015	0.430	2.695	1.919	1.909	1.909	1.929	1.919	1.919
0.015	0.000	0.000	0.000	0.000	0.000	0.430	2.690	1.914	1.909	1.904	1.924	1.919	1.914
0.029	-0.005	0.000	0.000	0.005	0.010	0.425	2.749	1.919	1.909	1.909	1.924	1.919	1.924
0.024	0.000	0.000	0.005	0.005	-0.005	0.435	2.695	1.909	1.909	1.909	1.919	1.919	1.914
0.024	0.005	0.000	0.005	0.000	0.010	0.420	2.749	1.914	1.914	1.909	1.924	1.919	1.919
0.015	0.005	0.005	0.005	0.000	0.000	0.420	2.720	1.919	1.909	1.909	1.924	1.919	1.919
0.000	-0.005	0.005	-0.005	0.005	-0.010	0.430	2.739	1.919	1.914	1.909	1.924	1.919	1.914
0.010	0.005	0.005	0.000	-0.005	-0.005	0.425	2.661	1.914	1.914	1.909	1.929	1.919	1.919
0.005	-0.020	0.000	0.005	0.005	0.010	0.420	2.642	1.904	1.904	1.909	1.934	1.924	1.924
-0.015	-0.005	0.000	0.005	0.000	0.005	0.430	2.749	1.914	1.914	1.909	1.929	1.924	1.924
-0.005	0.005	0.005	0.005	0.005	0.005	0.425	2.671	1.909	1.914	1.909	1.934	1.929	1.924
-0.015	0.005	-0.005	0.000	0.000	0.005	0.430	2.695	1.899	1.914	1.909	1.934	1.924	1.929
-0.020	0.000	0.000	-0.005	0.000	0.000	0.420	2.710	1.904	1.904	1.909	1.929	1.924	1.924
-0.015	0.005	0.005	0.000	0.005	0.005	0.430	2.700	1.909	1.909	1.914	1.929	1.929	1.929
-0.024	0.020	0.000	0.000	0.000	-0.005	0.420	2.690	1.904	1.909	1.909	1.929	1.924	1.924
-0.010	0.024	0.000	-0.005	0.000	0.000	0.425	2.686	1.904	1.909	1.909	1.929	1.924	1.924
0.010	0.015	0.000	0.000	0.000	-0.005	0.425	2.700	1.909	1.909	1.904	1.924	1.924	1.919
-0.005	0.010	0.000	-0.005	0.000	0.010	0.425	2.690	1.904	1.904	1.904	1.919	1.924	1.924
-0.020	0.005	0.005	-0.005	0.005	0.005	0.430	2.700	1.899	1.895	1.904	1.919	1.919	1.924
-0.015	0.000	0.005	-0.005	0.005	0.005	0.425	2.686	1.904	1.904	1.899	1.919	1.919	1.919
0.000	0.000	0.000	-0.005	0.005	-0.024	0.420	2.690	1.909	1.899	1.895	1.919	1.914	1.914
0.015	-0.005	0.000	0.000	0.000	0.005	0.430	2.690	1.914	1.904	1.899	1.919	1.919	1.924
0.020	-0.005	0.000	0.010	0.000	-0.020	0.425	2.700	1.914	1.904	1.904	1.919	1.914	1.914
0.024	0.000	0.005	0.005	0.005	-0.020	0.430	2.715	1.919	1.909	1.904	1.919	1.914	1.914
0.039	0.005	0.010	0.010	0.000	0.015	0.430	2.695	1.919	1.914	1.909	1.924	1.919	1.929
0.039	-0.010	0.000	0.010	0.000	0.020	0.425	2.690	1.914	1.909	1.909	1.924	1.919	1.924
0.034	-0.005	0.000	0.010	0.000	0.005	0.420	2.690	1.919	1.914	1.909	1.929	1.919	1.919
0.020	0.000	0.000	0.005	0.000	-0.024	0.425	2.690	1.909	1.919	1.909	1.929	1.924	1.914
0.005	0.005	0.000	0.005	0.000	0.015	0.420	2.695	1.904	1.914	1.909	1.929	1.924	1.924
0.005	-0.005	0.000	0.010	0.005	-0.010	0.425	2.700	1.909	1.909	1.909	1.929	1.924	1.919
-0.005	-0.005	0.000	-0.010	0.000	-0.020	0.420	2.690	1.904	1.904	1.904	1.924	1.919	1.919
-0.015	0.000	-0.005	-0.010	0.000	0.010	0.425	2.710	1.904	1.904	1.904	1.924	1.919	1.929
-0.024	0.000	0.005	-0.005	0.000	0.005	0.425	2.686	1.904	1.904	1.904	1.924	1.919	1.919
-0.015	0.015	0.005	-0.005	0.000	0.015	0.425	2.695	1.904	1.904	1.904	1.924	1.919	1.924
-0.010	0.005	0.000	0.005	0.000	-0.010	0.430	2.671	1.899	1.899	1.899	1.924	1.919	1.914
-0.005	0.015	-0.005	0.005	0.005	0.005	0.425	2.656	1.899	1.899	1.899	1.919	1.919	1.919
-0.010	0.010	0.000	0.015	0.000	-0.005	0.435	2.803	1.914	1.899	1.899	1.919	1.914	1.919
-0.010	0.005	0.000	0.015	0.000	0.015	0.430	2.671	1.909	1.899	1.895	1.919	1.919	1.919
-0.015	0.000	0.000	0.010	0.005	0.010	0.425	2.734	1.909	1.899	1.899	1.919	1.914	1.914
-0.015	0.010	0.000	0.005	0.005	0.010	0.415	2.690	1.909	1.909	1.899	1.919	1.914	1.914
-0.020	0.024	0.005	0.005	0.005	0.000	0.430	2.739	1.914	1.909	1.904	1.914	1.914	1.914
-0.015	0.015	0.005	0.000	-0.005	0.000	0.425	2.695	1.914	1.914	1.904	1.919	1.914	1.914
-0.015	0.010	0.000	-0.015	0.000	-0.005	0.425	2.637	1.904	1.909	1.909	1.919	1.914	1.914
-0.024	0.015	0.000	-0.010	0.000	0.010	0.415	2.686	1.909	1.909	1.909	1.924	1.914	1.919
0.000	-0.005	0.000	-0.005	-0.005	0.000	0.430	2.637	1.909	1.904	1.909	1.929	1.919	1.919
0.000	0.000	-0.005	0.005	0.000	0.005	0.425	2.646	1.899	1.904	1.909	1.929	1.919	1.919
0.015	0.000	0.005	0.010	0.000	0.000	0.425	2.651	1.914	1.909	1.904	1.929	1.924	1.914
0.034	0.005	0.005	0.020	0.000	-0.005	0.430	2.632	1.909	1.909	1.909	1.929	1.924	1.914
0.024	-0.005	0.005	0.015	0.000	-0.010	0.425	2.627	1.895	1.904	1.904	1.929	1.924	1.919
0.024	-0.005	0.000	0.015	0.005	-0.005	0.425	2.754	1.914	1.904	1.904	1.924	1.924	1.919
0.020	0.000	0.000	0.010	0.000	0.005	0.435	2.661	1.899	1.899	1.899	1.919	1.919	1.919
0.029	0.005	0.005	0.010	-0.005	0.005	0.425	2.695	1.909	1.899	1.899	1.919	1.914	1.919
0.024	-0.005	0.000	0.005	-0.005	-0.020	0.430	2.715	1.904	1.899	1.895	1.914	1.909	1.909
0.029	-0.005	0.005	0.000	0.010	0.015	0.425	2.700	1.909	1.899	1.899	1.914	1.919	1.924
0.010	-0.020	0.000	-0.005	0.000	-0.005	0.420	2.715	1.904	1.899	1.895	1.914	1.909	1.909
0.024	-0.005	0.000	-0.010	0.000	0.005	0.420	2.700	1.909	1.904	1.895	1.914	1.909	1.914
0.020	0.010	0.000	-0.010	0.005	0.005	0.430	2.700	1.904	1.909	1.899	1.914	1.914	1.914
0.010	0.010	0.000	0.000	0.005	-0.010	0.430	2.705	1.904	1.904	1.899	1.919	1.914	1.914
-0.015	0.000	0.005	0.000	0.005	0.005	0.430	2.700	1.904	1.904	1.904	1.924	1.914	1.914
-0.005	-0.005	0.005	0.000	0.005	0.000	0.425	2.695	1.909	1.904	1.904	1.919	1.919	1.914
-0.005	0.000	0.000	0.000	0.000	0.000	0.420	2.715	1.909	1.909	1.904	1.924	1.919	1.914
-0.010	-0.010	0.000	0.000	0.000	0.005	0.420	2.695	1.909	1.904	1.899	1.919	1.919	1.919
-0.015	-0.005	0.005	0.000	0.005	-0.005	0.415	2.710	1.909	1.904	1.904	1.924	1.919	1.919
-0.015	-0.015	0.000	-0.005	0.000	-0.005	0.430	2.681	1.904	1.904	1.904	1.919	1.914	1.919
-0.010	-0.010	0.000	-0.005	0.005	-0.010	0.425	2.700	1.914	1.904	1.904	1.919	1.914	1.914
0.010	-0.015	0.000	-0.010	0.005	-0.015	0.425	2.705	1.909	1.904	1.899	1.919	1.914	1.914
0.015	-0.015	0.005	-0.005	0.005	0.005	0.425	2.671	1.914	1.904	1.899	1.919	1.914	1.919
0.010	0.005	0.000	-0.005	0.005	0.005	0.425	2.681	1.909	1.914	1.904	1.919	1.914	1.914
0.010	0.020	0.000	0.000	0.000	0.010	0.425	2.695	1.909	1.914	1.904	1.919	1.914	1.914
0.015	0.010	-0.005	0.000	0.000	0.000	0.430	2.700	1.899	1.909	1.899	1.919	1.914	1.914
0.015	0.005	0.000	0.010	0.005	0.010	0.430	2.686	1.899	1.904	1.899	1.919	1.914	1.914
0.000	0.015	0.000	0.005	0.000	0.024	0.435	2.710	1.899	1.904	1.899	1.924	1.914	1.919
-0.010	0.015	0.005	0.010	-0.005	0.005	0.420	2.690	1.899	1.899	1.899	1.919	1.914	1.909
-0.010	0.005	0.005	0.005	0.000	0.010	0.425	2.700	1.899	1.899	1.904	1.924	1.919	1.919
0.000	-0.010	0.010	0.010	-0.005	0.000	0.425	2.681	1.904	1.899	1.899	1.924	1.919	1.914
0.000	-0.005	0.005	0.010	0.000	-0.005	0.425	2.690	1.914	1.899	1.899	1.919	1.919	1.914
-0.010	0.000	0.000	0.015	0.000	0.000	0.430	2.788	1.919	1.909	1.899	1.924	1.919	1.914
-0.039	0.000	0.005	0.005	0.000	0.005	0.430	2.676	1.909	1.909	1.904	1.924	1.919	1.919
-0.039	-0.005	0.005	0.000	0.005	0.015	0.430	2.651	1.904	1.909	1.909	1.919	1.919	1.919
-0.020	0.005	0.005	0.000	0.000	0.020	0.430	2.681	1.909	1.909	1.904	1.919	1.919	1.924
-0.015	-0.010	0.000	-0.005	0.000	-0.005	0.425	2.720	1.909	1.904	1.904	1.919	1.919	1.919
0.000	0.000	0.000	0.000	0.005	-0.005	0.425	2.686	1.914	1.909	1.904	1.924	1.919	1.919
0.015	0.005	0.000	-0.005	0.005	0.015	0.430	2.725	1.919	1.909	1.904	1.919	1.919	1.919
0.029	0.005	0.000	0.000	0.005	0.005	0.430	2.681	1.919	1.914	1.909	1.924	1.914	1.919
0.034	0.005	0.005	0.005	0.005	0.000	0.430	2.651	1.909	1.914	1.909	1.924	1.914	1.914
0.024	-0.005	0.005	0.005	0.005	0.010	0.430	2.646	1.899	1.909	1.904	1.919	1.919	1.914
0.029	0.000	0.000	0.005	0.005	0.010	0.430	2.749	1.904	1.904	1.904	1.919	1.914	1.914
0.020	0.000	0.000	0.005	0.000	-0.005	0.425	2.656	1.899	1.904	1.904	1.924	1.919	1.914
0.015	0.000	0.000	0.000	0.000	0.005	0.425	2.661	1.899	1.899	1.904	1.919	1.914	1.914
0.005	0.000	0.000	0.000	0.000	-0.020	0.425	2.642	1.895	1.899	1.899	1.919	1.914	1.904
-0.005	0.010	0.000	0.000	0.000	0.005	0.430	2.656	1.890	1.899	1.899	1.919	1.914	1.919
0.005	0.029	0.000	-0.005	0.000	0.005	0.425	2.705	1.899	1.899	1.904	1.919	1.914	1.919
-0.005	0.015	0.005	0.000	0.005	0.000	0.435	2.695	1.904	1.899	1.899	1.924	1.919	1.914
-0.005	0.015	0.005	0.000	0.005	0.000	0.425	2.700	1.909	1.904	1.904	1.924	1.919	1.919
-0.010	0.005	0.000	0.000	0.000	-0.010	0.425	2.690	1.909	1.904	1.899	1.924	1.919	1.914
-0.015	0.005	0.000	0.005	0.005	0.015	0.430	2.681	1.904	1.904	1.904	1.924	1.919	1.924
-0.010	-0.005	0.000	0.005	0.005	0.010	0.425	2.695	1.909	1.899	1.899	1.919	1.919	1.919
-0.020	0.000	0.005	0.005	0.010	0.005	0.430	2.686	1.904	1.899	1.899	1.919	1.919	1.924
-0.020	0.000	0.005	0.000	0.010	-0.010	0.425	2.705	1.909	1.909	1.899	1.919	1.914	1.914
-0.015	-0.015	0.000	-0.005	0.000	0.010	0.420	2.695	1.904	1.899	1.895	1.914	1.914	1.919
-0.010	-0.015	0.000	0.005	0.000	0.000	0.435	2.690	1.904	1.899	1.895	1.914	1.909	1.914
0.005	-0.005	0.005	-0.005	0.005	0.000	0.415	2.681	1.909	1.899	1.895	1.914	1.909	1.914
0.010	0.005	0.000	0.000	0.000	0.010	0.430	2.681	1.904	1.904	1.895	1.914	1.909	1.914
0.005	0.020	0.000	0.005	0.010	0.010	0.430	2.686	1.904	1.904	1.899	1.914	1.909	1.909
0.000	0.005	0.000	0.005	0.000	0.005	0.430	2.705	1.899	1.899	1.899	1.914	1.909	1.909
-0.005	0.010	0.005	0.010	0.000	0.005	0.425	2.695	1.904	1.904	1.899	1.919	1.909	1.909
0.000	0.000	0.005	0.010	0.000	0.005	0.425	2.695	1.909	1.899	1.899	1.919	1.914	1.909
-0.010	0.010	-0.005	0.005	-0.005	0.005	0.435	2.695	1.904	1.904	1.895	1.919	1.914	1.914
-0.010	0.000	-0.005	0.000	0.000	-0.005	0.420	2.686	1.904	1.899	1.899	1.914	1.909	1.909
-0.010	-0.010	-0.005	-0.005	0.005	0.015	0.430	2.700	1.909	1.904	1.899	1.919	1.914	1.914
0.005	0.000	0.005	0.005	0.000	0.015	0.425	2.690	1.914	1.909	1.904	1.919	1.914	1.914
-0.005	0.005	0.000	0.000	0.000	0.005	0.435	2.700	1.909	1.914	1.909	1.924	1.919	1.914
0.010	0.010	0.000	0.000	0.000	-0.015	0.420	2.690	1.914	1.909	1.909	1.924	1.919	1.909
0.010	0.000	0.005	0.000	-0.005	0.000	0.430	2.690	1.909	1.909	1.904	1.924	1.914	1.914
-0.005	0.000	0.010	-0.005	0.000	0.005	0.425	2.661	1.899	1.904	1.904	1.919	1.919	1.914
0.010	0.015	0.010	0.000	0.005	-0.020	0.430	2.656	1.899	1.904	1.904	1.924	1.914	1.909
0.000	0.015	0.005	-0.005	0.000	0.005	0.425	2.793	1.914	1.899	1.904	1.919	1.914	1.919
0.010	0.010	0.005	-0.005	0.005	-0.005	0.430	2.671	1.904	1.899	1.899	1.919	1.914	1.914
0.005	-0.010	0.010	-0.005	0.005	-0.015	0.425	2.739	1.904	1.895	1.895	1.914	1.914	1.904
0.005	-0.005	0.000	-0.005	0.005	-0.020	0.430	2.695	1.904	1.899	1.895	1.914	1.914	1.909
-0.005	-0.005	0.000	-0.005	0.005	0.010	0.425	2.651	1.909	1.899	1.895	1.914	1.909	1.919
0.020	0.005	0.000	-0.005	0.005	0.010	0.435	2.686	1.914	1.909	1.895	1.914	1.914	1.914
0.010	0.000	0.000	0.005	-0.005	-0.005	0.425	2.759	1.914	1.904	1.899	1.919	1.909	1.909
0.000	0.000	0.000	0.000	-0.005	0.020	0.430	2.705	1.909	1.904	1.899	1.919	1.914	1.919
-0.010	-0.005	0.000	0.000	0.000	0.015	0.430	2.642	1.904	1.904	1.904	1.919	1.914	1.919
-0.015	0.000	0.005	0.005	-0.005	-0.010	0.430	2.754	1.909	1.904	1.904	1.919	1.914	1.909
-0.010	0.000	0.000	-0.005	0.000	0.005	0.425	2.642	1.904	1.909	1.904	1.919	1.914	1.914
-0.005	0.000	0.000	0.000	0.005	0.015	0.430	2.744	1.909	1.909	1.909	1.924	1.919	1.919
-0.005	-0.005	-0.005	0.000	0.005	0.010	0.425	2.646	1.909	1.904	1.904	1.924	1.924	1.919
-0.005	0.005	0.000	0.010	0.000	-0.020	0.430	2.749	1.909	1.909	1.904	1.924	1.919	1.914
0.005	0.000	-0.010	0.005	0.010	0.010	0.430	2.651	1.909	1.909	1.904	1.924	1.919	1.924
0.005	0.005	-0.005	0.005	0.005	0.005	0.430	2.681	1.904	1.909	1.904	1.924	1.919	1.919
0.010	-0.005	0.000	0.005	0.000	-0.005	0.430	2.690	1.909	1.904	1.904	1.924	1.919	1.914
0.015	0.000	0.000	0.005	0.000	0.005	0.415	2.690	1.904	1.904	1.904	1.919	1.919	1.919
0.005	-0.005	0.005	0.015	0.000	0.005	0.435	2.700	1.904	1.899	1.904	1.924	1.914	1.914
0.015	-0.005	0.005	0.010	-0.005	0.005	0.425	2.700	1.899	1.899	1.899	1.919	1.914	1.914
0.015	0.005	0.005	0.010	0.005	0.000	0.435	2.705	1.909	1.904	1.899	1.919	1.914	1.914
0.015	-0.010	0.000	0.005	0.000	-0.010	0.420	2.705	1.904	1.899	1.899	1.919	1.909	1.909
0.020	0.005	0.005	0.005	0.000	0.005	0.435	2.700	1.914	1.904	1.899	1.919	1.914	1.914
0.020	0.005	0.000	-0.010	-0.005	-0.024	0.420	2.686	1.904	1.904	1.899	1.914	1.909	1.909
0.015	0.000	0.005	-0.015	0.000	0.015	0.435	2.705	1.904	1.899	1.899	1.914	1.909	1.919
0.000	0.005	0.005	-0.010	0.000	0.005	0.425	2.690	1.904	1.904	1.904	1.919	1.914	1.914
-0.005	0.010	0.000	-0.010	0.005	0.020	0.425	2.690	1.904	1.909	1.904	1.919	1.919	1.919
0.000	0.005	-0.005	-0.005	0.000	0.015	0.425	2.705	1.909	1.909	1.904	1.924	1.919	1.914
-0.005	0.000	0.000	-0.005	0.010	-0.005	0.425	2.686	1.904	1.904	1.904	1.924	1.919	1.909
-0.005	0.000	0.000	0.015	0.005	0.005	0.425	2.690	1.904	1.909	1.904	1.929	1.924	1.919
-0.005	-0.005	0.000	0.015	0.005	0.005	0.425	2.710	1.909	1.904	1.904	1.929	1.919	1.919
-0.010	0.000	0.005	0.015	0.005	0.000	0.430	2.715	1.904	1.904	1.904	1.929	1.919	1.914
-0.015	0.000	0.000	0.015	0.005	-0.020	0.425	2.705	1.904	1.904	1.904	1.924	1.919	1.909
-0.010	0.000	0.005	0.015	-0.005	0.015	0.430	2.686	1.899	1.904	1.904	1.924	1.919	1.924
-0.020	-0.005	-0.005	0.005	-0.005	0.005	0.430	2.705	1.899	1.899	1.899	1.914	1.914	1.919
-0.010	0.000	0.000	0.000	0.000	0.010	0.425	2.700	1.904	1.904	1.899	1.914	1.914	1.919
-0.010	0.005	0.000	-0.005	0.005	0.015	0.430	2.690	1.899	1.899	1.895	1.914	1.914	1.914
-0.010	0.005	0.000	-0.005	0.000	0.010	0.425	2.695	1.899	1.899	1.895	1.914	1.909	1.914
-0.015	0.020	0.000	-0.005	0.000	0.010	0.430	2.661	1.899	1.904	1.899	1.914	1.914	1.914
-0.005	0.005	0.000	-0.005	-0.005	0.005	0.430	2.651	1.899	1.895	1.899	1.914	1.909	1.909
0.005	0.010	0.005	-0.005	-0.005	0.010	0.425	2.798	1.914	1.904	1.904	1.914	1.909	1.914
0.010	0.010	0.000	-0.005	0.005	-0.020	0.425	2.656	1.909	1.904	1.899	1.914	1.914	1.904
0.015	0.015	0.000	-0.005	0.000	-0.015	0.420	2.734	1.914	1.909	1.904	1.919	1.914	1.909
0.015	0.010	0.000	-0.005	0.005	0.005	0.425	2.676	1.919	1.909	1.904	1.919	1.919	1.919
0.010	0.010	0.000	-0.005	0.005	-0.010	0.425	2.656	1.909	1.909	1.904	1.919	1.914	1.914
0.000	-0.010	-0.005	0.000	0.000	0.000	0.430	2.676	1.909	1.904	1.904	1.924	1.919	1.919
0.010	-0.005	0.005	0.000	0.005	-0.005	0.430	2.739	1.914	1.909	1.909	1.929	1.924	1.914
0.020	0.005	0.005	0.000	0.005	0.010	0.425	2.695	1.914	1.914	1.909	1.924	1.924	1.924
0.020	-0.010	0.000	0.005	0.005	0.010	0.425	2.632	1.899	1.904	1.909	1.929	1.924	1.924
0.015	-0.005	0.000	0.010	0.010	0.005	0.425	2.739	1.909	1.899	1.904	1.929	1.919	1.919
0.010	-0.010	0.000	0.010	0.010	0.005	0.430	2.651	1.895	1.899	1.899	1.924	1.919	1.919
0.005	-0.005	0.000	0.010	0.005	-0.005	0.430	2.734	1.890	1.895	1.899	1.924	1.919	1.914
0.000	-0.005	0.000	0.010	0.005	-0.034	0.420	2.622	1.885	1.890	1.895	1.919	1.914	1.909
-0.005	-0.005	0.000	0.005	0.005	-0.005	0.435	2.739	1.890	1.890	1.895	1.914	1.914	1.914
-0.005	-0.005	0.000	0.000	0.005	0.005	0.430	2.671	1.890	1.890	1.890	1.909	1.909	1.919
-0.005	0.000	0.000	0.000	0.000	0.005	0.425	2.700	1.895	1.890	1.890	1.909	1.909	1.914
0.005	0.010	0.000	0.000	0.000	0.010	0.425	2.700	1.904	1.899	1.895	1.909	1.909	1.919
0.005	0.000	0.000	0.010	-0.005	0.015	0.430	2.690	1.909	1.899	1.895	1.914	1.909	1.914
0.015	0.005	0.010	0.005	0.000	0.010	0.435	2.710	1.914	1.904	1.899	1.919	1.909	1.909
0.005	0.005	0.000	0.010	0.000	-0.005	0.435	2.686	1.904	1.904	1.899	1.914	1.909	1.909
-0.005	0.005	0.000	0.000	0.000	0.015	0.425	2.705	1.909	1.904	1.899	1.919	1.909	1.914
-0.005	0.005	0.005	0.000	0.005	-0.015	0.430	2.686	1.909	1.909	1.904	1.919	1.914	1.909
0.000	0.010	0.005	0.000	0.000	-0.005	0.425	2.710	1.914	1.909	1.904	1.919	1.914	1.909
0.005	0.005	0.000	0.000	0.005	-0.005	0.430	2.690	1.909	1.909	1.904	1.919	1.914	1.914
0.000	-0.010	0.000	0.000	0.005	-0.024	0.425	2.700	1.904	1.904	1.904	1.919	1.914	1.909
-0.005	0.010	0.000	0.000	0.005	-0.005	0.420	2.690	1.904	1.904	1.904	1.919	1.914	1.914
-0.005	0.005	0.000	0.000	0.000	0.015	0.425	2.695	1.899	1.904	1.904	1.919	1.914	1.919
-0.020	0.000	0.005	-0.005	0.000	0.010	0.425	2.700	1.895	1.895	1.899	1.919	1.914	1.914
-0.010	0.000	0.000	0.000	0.000	0.005	0.430	2.690	1.899	1.899	1.895	1.919	1.909	1.914
-0.010	0.000	0.005	0.000	0.000	0.010	0.425	2.690	1.904	1.899	1.895	1.919	1.914	1.914
0.005	-0.005	0.005	0.005	0.000	0.005	0.435	2.705	1.904	1.899	1.895	1.914	1.909	1.914
0.005	0.000	0.000	0.005	0.000	0.000	0.430	2.700	1.909	1.899	1.895	1.914	1.914	1.909
0.010	0.020	0.000	0.000	0.005	-0.005	0.430	2.690	1.909	1.904	1.895	1.919	1.909	1.909
0.005	0.020	0.000	0.010	0.005	-0.010	0.425	2.705	1.909	1.904	1.899	1.914	1.914	1.904
0.005	0.015	0.005	0.010	-0.005	0.000	0.430	2.705	1.909	1.904	1.899	1.919	1.914	1.914
0.000	0.015	0.000	0.005	0.005	-0.020	0.425	2.700	1.909	1.909	1.904	1.919	1.914	1.909
0.005	0.005	0.000	0.005	-0.005	0.010	0.435	2.700	1.909	1.904	1.904	1.919	1.914	1.919
-0.010	0.005	0.000	0.000	-0.005	0.005	0.430	2.695	1.904	1.904	1.904	1.919	1.914	1.914
0.010	0.005	0.000	-0.005	-0.005	-0.005	0.425	2.671	1.909	1.904	1.904	1.919	1.919	1.919
-0.005	0.000	0.005	0.000	-0.005	-0.005	0.425	2.656	1.904	1.904	1.899	1.924	1.919	1.914
-0.010	0.000	0.005	0.000	0.000	0.024	0.430	2.783	1.909	1.904	1.904	1.924	1.919	1.924
0.005	-0.005	0.005	0.000	0.000	0.020	0.420	2.661	1.909	1.904	1.899	1.924	1.919	1.924
0.010	0.000	-0.005	-0.005	0.010	0.024	0.435	2.734	1.914	1.904	1.904	1.919	1.919	1.924
0.005	-0.015	0.000	0.000	0.000	0.015	0.425	2.690	1.909	1.899	1.899	1.919	1.914	1.919
0.015	0.000	0.000	0.005	0.005	0.005	0.430	2.627	1.899	1.904	1.899	1.919	1.914	1.914
0.020	0.000	0.000	0.000	0.005	-0.005	0.425	2.686	1.904	1.904	1.899	1.914	1.914	1.909
0.024	-0.005	0.000	0.010	0.005	-0.005	0.430	2.729	1.904	1.904	1.899	1.919	1.909	1.909
0.020	-0.005	0.005	0.010	0.000	-0.015	0.430	2.681	1.904	1.899	1.899	1.919	1.909	1.909
0.005	-0.015	0.005	0.010	0.005	-0.015	0.425	2.729	1.904	1.895	1.899	1.919	1.914	1.909
0.005	-0.005	0.005	0.000	0.000	-0.020	0.425	2.739	1.909	1.899	1.895	1.914	1.909	1.909
0.000	-0.005	0.000	0.000	0.000	0.000	0.425	2.637	1.909	1.899	1.899	1.914	1.909	1.914
0.005	0.005	0.005	0.005	0.000	-0.010	0.435	2.656	1.904	1.909	1.899	1.919	1.909	1.914
-0.010	0.020	0.000	0.010	0.000	0.000	0.430	2.642	1.899	1.909	1.904	1.919	1.914	1.919
-0.005	0.005	0.000	0.000	0.005	0.010	0.430	2.749	1.909	1.904	1.904	1.919	1.914	1.919
-0.005	0.005	0.000	-0.005	0.005	-0.005	0.425	2.661	1.909	1.904	1.904	1.919	1.914	1.919
-0.010	0.005	0.005	0.000	0.000	0.024	0.425	2.686	1.904	1.904	1.904	1.924	1.919	1.924
0.005	-0.005	0.000	0.000	0.000	-0.015	0.425	2.695	1.909	1.909	1.904	1.919	1.914	1.914
0.000	-0.005	-0.005	0.000	0.005	-0.015	0.430	2.695	1.904	1.904	1.904	1.919	1.919	1.914
0.000	0.005	0.010	-0.005	0.000	-0.015	0.430	2.710	1.909	1.904	1.904	1.924	1.919	1.914
-0.005	-0.005	0.000	0.000	0.000	-0.024	0.420	2.681	1.899	1.899	1.899	1.919	1.914	1.909
-0.015	0.000	0.000	-0.005	0.005	-0.024	0.425	2.705	1.895	1.895	1.895	1.919	1.914	1.909
-0.020	0.005	-0.005	0.000	0.000	0.010	0.425	2.681	1.895	1.895	1.895	1.919	1.914	1.919
-0.020	-0.005	0.000	0.000	0.000	0.024	0.420	2.705	1.899	1.895	1.895	1.914	1.914	1.919
-0.005	0.000	0.000	0.005	0.000	0.024	0.435	2.710	1.904	1.895	1.895	1.914	1.909	1.924
0.015	0.015	-0.005	0.005	0.000	0.020	0.420	2.690	1.909	1.904	1.895	1.914	1.909	1.914
0.015	0.020	0.005	0.010	0.000	0.034	0.435	2.681	1.914	1.909	1.899	1.914	1.909	1.919
0.010	0.005	0.000	0.005	0.000	0.029	0.430	2.715	1.909	1.904	1.899	1.914	1.909	1.914
0.010	0.010	0.000	0.005	0.000	0.029	0.435	2.686	1.909	1.904	1.899	1.919	1.909	1.919
0.010	0.015	0.005	0.005	0.000	0.020	0.435	2.686	1.909	1.909	1.904	1.919	1.914	1.914
0.005	0.005	0.000	0.005	0.000	0.000	0.425	2.681	1.904	1.904	1.904	1.919	1.914	1.904
0.000	0.000	0.000	0.000	0.000	-0.020	0.415	2.681	1.904	1.904	1.904	1.919	1.914	1.904
0.005	0.005	0.000	0.000	-0.005	0.020	0.430	2.681	1.904	1.909	1.904	1.924	1.919	1.919
-0.005	0.000	0.005	0.000	0.005	0.000	0.430	2.710	1.904	1.904	1.899	1.924	1.919	1.914
0.010	0.000	0.000	-0.005	0.005	-0.015	0.430	2.700	1.909	1.909	1.904	1.919	1.919	1.909
0.000	-0.005	-0.005	0.000	0.005	-0.024	0.435	2.690	1.904	1.904	1.904	1.924	1.919	1.914
-0.005	0.000	0.000	0.000	0.005	-0.020	0.430	2.695	1.904	1.904	1.904	1.919	1.914	1.909
-0.005	-0.005	0.000	0.005	0.000	-0.034	0.435	2.686	1.899	1.899	1.899	1.919	1.914	1.909
0.000	-0.015	0.005	0.010	0.000	-0.020	0.425	2.681	1.895	1.895	1.899	1.919	1.914	1.919
-0.010	-0.005	0.010	0.010	0.000	-0.020	0.430	2.666	1.895	1.895	1.895	1.919	1.914	1.914
-0.015	0.000	0.000	0.010	0.000	-0.024	0.420	2.651	1.890	1.890	1.890	1.914	1.914	1.909
0.005	-0.005	0.005	0.010	0.000	0.005	0.430	2.793	1.909	1.895	1.895	1.914	1.914	1.919
-0.005	0.010	0.000	0.000	-0.005	0.005	0.425	2.651	1.899	1.899	1.895	1.909	1.904	1.914
0.010	0.000	0.005	0.000	0.005	-0.010	0.430	2.739	1.909	1.899	1.895	1.914	1.909	1.914
0.005	-0.015	0.000	0.000	0.000	-0.010	0.425	2.686	1.904	1.899	1.895	1.909	1.909	1.909
0.000	-0.005	0.005	-0.010	0.010	-0.010	0.430	2.676	1.914	1.904	1.899	1.914	1.914	1.909
0.010	-0.005	0.000	-0.015	0.010	0.010	0.430	2.676	1.909	1.904	1.899	1.914	1.909	1.919
0.010	0.005	0.005	-0.005	0.010	0.015	0.435	2.739	1.914	1.914	1.904	1.919	1.914	1.919
0.000	0.020	0.005	0.005	0.010	0.015	0.425	2.686	1.914	1.924	1.909	1.924	1.919	1.919
0.005	0.024	0.005	0.005	0.005	0.015	0.430	2.637	1.909	1.919	1.909	1.929	1.919	1.919
0.010	0.010	0.000	0.005	0.005	0.020	0.420	2.729	1.914	1.909	1.909	1.929	1.919	1.919
0.015	0.015	0.005	0.005	-0.005	0.005	0.430	2.661	1.909	1.909	1.909	1.929	1.914	1.914
0.010	0.005	-0.005	0.005	0.005	-0.005	0.430	2.729	1.909	1.904	1.909	1.929	1.919	1.909
0.005	-0.015	0.005	0.005	0.010	0.010	0.430	2.642	1.904	1.899	1.904	1.924	1.919	1.919
0.000	-0.015	0.005	0.000	0.000	0.010	0.430	2.734	1.904	1.899	1.904	1.924	1.919	1.919
0.005	0.000	0.000	-0.005	-0.005	0.005	0.435	2.656	1.899	1.899	1.899	1.919	1.914	1.914
0.005	-0.005	0.005	0.000	-0.010	0.005	0.420	2.710	1.904	1.899	1.899	1.919	1.914	1.914
0.005	-0.005	0.005	0.005	-0.005	0.000	0.430	2.705	1.899	1.899	1.899	1.919	1.914	1.914
-0.005	0.005	-0.005	0.000	-0.005	-0.005	0.435	2.700	1.899	1.899	1.895	1.914	1.909	1.914
0.010	-0.010	0.000	0.005	-0.005	0.015	0.435	2.705	1.904	1.895	1.895	1.914	1.914	1.914
0.010	-0.005	0.000	0.005	0.000	0.020	0.425	2.700	1.904	1.899	1.895	1.914	1.914	1.919
0.000	-0.005	-0.005	0.000	0.005	0.010	0.425	2.715	1.904	1.899	1.899	1.919	1.914	1.914
-0.010	-0.005	0.005	0.000	0.000	-0.020	0.425	2.695	1.909	1.904	1.899	1.919	1.914	1.909
-0.005	-0.005	0.000	-0.005	0.000	0.000	0.425	2.695	1.909	1.904	1.899	1.919	1.914	1.914
0.005	0.024	0.000	0.000	-0.005	0.005	0.420	2.676	1.909	1.914	1.904	1.919	1.914	1.914
0.010	0.015	0.000	0.005	-0.005	-0.015	0.420	2.686	1.914	1.909	1.909	1.924	1.914	1.914
-0.010	0.005	0.005	0.005	0.005	-0.005	0.430	2.690	1.909	1.904	1.904	1.929	1.919	1.919
-0.010	0.005	0.000	0.000	0.005	-0.005	0.420	2.686	1.904	1.909	1.904	1.924	1.924	1.919
0.010	0.010	0.005	0.005	0.015	0.005	0.430	2.686	1.909	1.909	1.904	1.924	1.924	1.924
0.000	0.005	0.000	0.000	0.010	0.000	0.425	2.695	1.904	1.904	1.904	1.924	1.919	1.919
0.010	0.010	0.000	0.000	0.005	-0.010	0.425	2.681	1.904	1.909	1.904	1.924	1.919	1.919
-0.010	-0.005	0.005	0.000	0.005	0.005	0.430	2.700	1.899	1.895	1.899	1.919	1.914	1.919
-0.005	-0.005	0.000	0.000	0.000	-0.005	0.430	2.686	1.899	1.890	1.895	1.914	1.914	1.914
0.005	0.000	0.005	0.005	0.005	0.000	0.425	2.695	1.904	1.899	1.899	1.919	1.914	1.914
-0.005	0.005	-0.005	0.005	0.010	-0.010	0.430	2.695	1.899	1.899	1.895	1.914	1.909	1.909
0.000	0.015	0.000	0.005	0.010	-0.020	0.430	2.690	1.899	1.899	1.899	1.914	1.914	1.909
-0.020	0.010	0.000	0.000	0.005	0.005	0.430	2.695	1.895	1.899	1.895	1.914	1.909	1.914
-0.010	0.000	0.005	0.005	0.005	0.005	0.425	2.690	1.899	1.895	1.895	1.914	1.909	1.914
-0.015	-0.010	0.000	0.000	0.000	0.005	0.430	2.695	1.899	1.890	1.895	1.914	1.909	1.914
0.005	0.010	0.000	0.000	0.010	0.015	0.420	2.656	1.909	1.904	1.899	1.914	1.914	1.919
0.000	-0.005	0.000	0.005	0.010	0.024	0.435	2.666	1.904	1.904	1.899	1.914	1.909	1.919
-0.005	0.005	0.000	0.000	0.000	0.005	0.425	2.798	1.919	1.909	1.899	1.919	1.909	1.909
0.020	0.010	-0.005	0.000	0.000	0.029	0.430	2.666	1.919	1.914	1.904	1.919	1.914	1.919
0.024	0.005	0.000	0.000	-0.005	0.029	0.430	2.729	1.924	1.914	1.909	1.919	1.914	1.919
0.020	0.000	0.000	0.005	-0.010	0.005	0.425	2.690	1.919	1.914	1.904	1.919	1.914	1.909
0.029	-0.005	0.010	0.005	-0.010	0.005	0.425	2.646	1.909	1.909	1.909	1.924	1.909	1.914
0.029	0.010	0.000	0.000	-0.015	0.010	0.430	2.681	1.904	1.909	1.909	1.924	1.914	1.909
0.020	-0.005	0.005	0.000	-0.020	0.000	0.425	2.720	1.899	1.904	1.904	1.919	1.914	1.909
0.024	-0.005	-0.005	-0.005	-0.010	-0.010	0.425	2.686	1.899	1.904	1.899	1.919	1.914	1.909
0.000	-0.010	0.000	-0.005	0.000	0.000	0.425	2.651	1.890	1.895	1.899	1.924	1.914	1.914
0.000	0.010	0.000	0.000	0.000	0.010	0.430	2.739	1.895	1.895	1.899	1.919	1.914	1.914
0.000	0.005	0.000	0.005	0.005	-0.005	0.425	2.617	1.895	1.895	1.895	1.919	1.919	1.914
-0.010	0.010	0.000	0.005	0.010	0.005	0.425	2.661	1.895	1.895	1.895	1.919	1.919	1.914
-0.010	-0.010	0.010	0.005	0.010	0.000	0.425	2.646	1.895	1.890	1.895	1.919	1.914	1.914
-0.024	-0.010	0.005	0.005	0.010	-0.015	0.430	2.739	1.890	1.890	1.890	1.914	1.914	1.909
-0.024	-0.005	0.000	0.010	0.015	-0.015	0.435	2.651	1.890	1.895	1.890	1.914	1.914	1.914
-0.010	-0.005	0.000	0.005	0.015	-0.010	0.430	2.705	1.904	1.895	1.890	1.914	1.914	1.914
-0.010	0.000	0.005	0.005	0.015	-0.039	0.430	2.705	1.909	1.904	1.899	1.914	1.914	1.909
-0.005	0.010	0.000	0.005	0.015	0.000	0.420	2.690	1.909	1.909	1.899	1.919	1.914	1.924
0.015	0.005	0.000	0.005	0.010	0.010	0.435	2.705	1.919	1.909	1.904	1.919	1.909	1.919
0.005	-0.005	-0.005	0.005	0.005	0.000	0.420	2.676	1.909	1.909	1.904	1.919	1.909	1.914
0.000	0.000	-0.005	0.005	0.000	-0.005	0.425	2.700	1.909	1.909	1.904	1.914	1.909	1.909
0.005	0.010	0.005	0.000	0.000	0.005	0.430	2.690	1.909	1.909	1.904	1.919	1.909	1.914
0.010	-0.005	0.010	0.000	0.000	-0.005	0.430	2.686	1.904	1.904	1.904	1.919	1.914	1.909
0.005	0.010	0.000	0.000	0.000	0.000	0.430	2.710	1.904	1.904	1.899	1.919	1.914	1.914
0.010	0.000	0.000	0.000	0.000	0.005	0.425	2.700	1.904	1.904	1.904	1.919	1.914	1.914
-0.005	0.000	0.000	0.000	0.000	0.015	0.425	2.686	1.899	1.899	1.899	1.919	1.914	1.919
-0.010	0.000	0.000	0.000	-0.005	0.029	0.430	2.690	1.895	1.895	1.895	1.914	1.909	1.919
-0.005	0.010	0.000	0.000	0.000	0.024	0.430	2.681	1.895	1.895	1.895	1.914	1.909	1.914
0.010	0.010	0.000	0.000	-0.005	0.020	0.430	2.690	1.904	1.904	1.899	1.914	1.909	1.909
0.015	0.000	0.000	-0.005	-0.015	0.010	0.430	2.676	1.904	1.899	1.895	1.914	1.904	1.909
0.005	0.015	0.000	0.000	0.005	0.000	0.425	2.710	1.909	1.904	1.899	1.914	1.914	1.904
0.010	0.010	0.000	0.000	0.010	-0.015	0.435	2.681	1.899	1.899	1.899	1.919	1.914	1.904
0.000	-0.005	0.000	0.000	0.024	-0.015	0.425	2.690	1.899	1.899	1.899	1.919	1.919	1.914
0.015	0.000	0.000	0.000	0.020	0.000	0.430	2.700	1.914	1.904	1.899	1.919	1.919	1.914
0.005	0.005	0.000	0.005	0.000	-0.029	0.425	2.705	1.909	1.909	1.904	1.924	1.914	1.909
0.000	0.000	0.000	0.000	-0.005	0.005	0.420	2.705	1.909	1.904	1.904	1.919	1.914	1.919
-0.005	0.000	0.000	0.005	-0.005	0.010	0.425	2.695	1.904	1.904	1.904	1.924	1.914	1.919
0.000	0.005	0.000	0.005	0.000	-0.005	0.425	2.695	1.914	1.909	1.904	1.924	1.914	1.914
-0.010	0.000	0.005	0.005	0.005	0.020	0.425	2.651	1.904	1.904	1.904	1.924	1.919	1.924
-0.005	0.000	0.005	0.015	-0.005	0.005	0.430	2.651	1.890	1.899	1.899	1.919	1.914	1.914
-0.005	0.010	-0.005	0.010	0.000	-0.005	0.425	2.803	1.909	1.904	1.899	1.919	1.914	1.914
-0.005	0.000	-0.005	0.000	0.000	0.000	0.425	2.651	1.899	1.899	1.895	1.914	1.909	1.914
-0.005	0.015	0.000	0.000	0.000	0.015	0.420	2.729	1.904	1.899	1.899	1.914	1.909	1.914
0.005	0.010	0.000	0.000	0.010	0.005	0.430	2.676	1.904	1.904	1.899	1.919	1.914	1.909
-0.005	0.005	0.000	0.000	0.015	-0.010	0.425	2.656	1.895	1.895	1.899	1.914	1.914	1.909
-0.005	-0.024	0.000	0.000	0.010	0.015	0.425	2.676	1.890	1.890	1.890	1.909	1.909	1.914
0.000	-0.020	0.000	0.000	-0.005	0.010	0.430	2.632	1.890	1.890	1.890	1.914	1.909	1.909
0.005	-0.005	0.005	-0.005	-0.015	0.000	0.425	2.681	1.895	1.899	1.895	1.909	1.904	1.909
0.000	-0.005	0.005	0.000	-0.015	0.005	0.430	2.651	1.895	1.895	1.895	1.914	1.909	1.909
0.000	0.005	0.005	0.005	-0.005	-0.005	0.435	2.656	1.895	1.899	1.895	1.914	1.914	1.909
0.005	0.005	0.005	0.000	0.005	0.010	0.420	2.739	1.904	1.899	1.899	1.914	1.919	1.919
0.005	0.005	0.000	0.000	0.010	-0.005	0.425	2.637	1.909	1.904	1.899	1.914	1.919	1.914
0.005	0.005	0.000	0.005	0.005	0.010	0.425	2.739	1.914	1.909	1.899	1.919	1.914	1.919
0.005	0.015	0.005	0.000	0.000	-0.020	0.425	2.661	1.909	1.914	1.904	1.919	1.914	1.909
-0.005	0.010	0.000	0.000	-0.015	-0.010	0.430	2.671	1.904	1.909	1.904	1.919	1.909	1.909
0.000	0.015	0.005	0.005	-0.034	-0.005	0.430	2.686	1.899	1.904	1.904	1.919	1.904	1.904
0.000	0.005	0.000	0.005	-0.049	-0.005	0.430	2.671	1.899	1.895	1.899	1.914	1.904	1.909
0.005	-0.005	0.000	0.000	-0.039	-0.005	0.420	2.686	1.899	1.895	1.895	1.914	1.909	1.904
0.000	0.000	0.000	0.005	0.015	-0.010	0.435	2.686	1.899	1.895	1.895	1.919	1.924	1.914
-0.005	0.010	0.000	0.005	0.054	0.024	0.420	2.690	1.899	1.899	1.895	1.914	1.929	1.924
0.000	0.005	-0.005	0.000	0.059	-0.005	0.420	2.695	1.899	1.895	1.895	1.914	1.924	1.919
0.005	0.005	0.000	0.005	0.049	0.015	0.435	2.690	1.904	1.899	1.895	1.914	1.914	1.919
0.005	0.005	0.005	0.000	0.039	0.005	0.430	2.710	1.909	1.895	1.895	1.914	1.909	1.919
0.005	0.000	0.000	0.000	0.029	0.000	0.420	2.686	1.909	1.899	1.895	1.914	1.904	1.914
0.015	-0.010	0.005	0.000	0.010	-0.005	0.430	2.690	1.909	1.899	1.895	1.914	1.909	1.909
-0.005	-0.020	0.000	0.000	-0.005	-0.005	0.430	2.695	1.904	1.899	1.895	1.914	1.904	1.904
0.000	-0.020	0.000	0.005	-0.015	-0.024	0.425	2.690	1.904	1.904	1.899	1.914	1.904	1.904
0.005	-0.010	-0.005	0.005	-0.010	-0.010	0.425	2.686	1.904	1.904	1.899	1.914	1.904	1.909
-0.005	0.005	0.000	0.000	-0.020	-0.039	0.435	2.690	1.904	1.909	1.904	1.919	1.904	1.899
0.000	0.015	-0.005	-0.005	-0.005	-0.020	0.425	2.686	1.904	1.909	1.904	1.919	1.909	1.909
-0.005	0.015	0.000	0.005	-0.005	0.005	0.430	2.690	1.904	1.909	1.904	1.924	1.914	1.919
-0.005	0.010	0.000	0.000	-0.005	-0.010	0.425	2.690	1.904	1.904	1.904	1.919	1.914	1.909
0.005	0.000	0.000	0.000	0.000	0.015	0.425	2.700	1.904	1.899	1.904	1.919	1.919	1.924
0.000	0.000	0.000	0.000	0.010	0.020	0.425	2.700	1.904	1.899	1.899	1.919	1.919	1.919
0.005	0.000	0.005	0.000	0.010	0.010	0.425	2.705	1.904	1.899	1.899	1.919	1.919	1.914
0.005	-0.005	0.005	0.000	0.010	-0.005	0.430	2.710	1.904	1.899	1.899	1.914	1.914	1.909
0.005	-0.015	0.000	-0.005	0.000	0.044	0.430	2.705	1.899	1.895	1.895	1.914	1.909	1.924
0.005	-0.010	0.000	0.000	0.005	0.034	0.430	2.700	1.904	1.899	1.895	1.914	1.914	1.914
-0.005	0.005	0.000	0.000	0.020	-0.015	0.425	2.661	1.895	1.899	1.895	1.914	1.914	1.904
0.005	0.010	0.000	0.000	0.010	0.015	0.425	2.769	1.899	1.899	1.895	1.914	1.914	1.914
0.000	-0.015	0.005	0.000	0.000	0.020	0.425	2.803	1.909	1.899	1.895	1.914	1.909	1.914
-0.005	-0.024	0.000	0.005	0.000	0.024	0.425	2.656	1.899	1.899	1.895	1.914	1.909	1.914
0.000	-0.005	0.005	0.000	-0.049	-0.010	0.425	2.681	1.914	1.904	1.899	1.914	1.895	1.899
0.000	0.000	0.000	0.000	-0.103	0.015	0.425	2.700	1.914	1.909	1.904	1.919	1.890	1.899
0.005	0.005	0.000	0.005	-0.083	0.000	0.420	2.627	1.904	1.909	1.904	1.919	1.899	1.899
0.005	0.005	0.000	0.005	-0.039	-0.005	0.435	2.690	1.899	1.904	1.904	1.924	1.919	1.899
-0.010	-0.005	0.005	0.005	0.010	-0.020	0.425	2.661	1.895	1.899	1.904	1.924	1.929	1.909
0.000	0.000	0.000	0.005	0.024	0.015	0.430	2.690	1.899	1.899	1.904	1.924	1.934	1.924
0.000	-0.005	0.000	0.005	0.034	0.000	0.425	2.725	1.899	1.899	1.899	1.919	1.929	1.924
0.000	0.005	0.005	0.000	0.049	-0.005	0.430	2.729	1.904	1.899	1.899	1.919	1.924	1.924
0.005	0.010	0.000	0.005	0.024	-0.005	0.425	2.642	1.899	1.899	1.899	1.919	1.914	1.919
0.000	-0.010	0.000	0.000	0.029	-0.015	0.435	2.642	1.895	1.890	1.890	1.914	1.919	1.914
0.010	0.005	0.005	0.005	0.049	-0.044	0.425	2.646	1.890	1.895	1.895	1.919	1.924	1.914
-0.005	0.000	0.000	0.000	0.083	0.000	0.420	2.729	1.895	1.890	1.890	1.914	1.924	1.924
0.000	0.015	0.000	0.000	0.034	0.000	0.425	2.656	1.895	1.895	1.895	1.909	1.904	1.919
0.005	0.005	0.000	0.005	0.000	0.005	0.425	2.690	1.895	1.895	1.895	1.909	1.899	1.914
0.010	0.010	0.000	0.000	-0.005	0.024	0.420	2.715	1.909	1.899	1.895	1.909	1.899	1.914
0.000	0.000	0.005	-0.005	-0.010	0.029	0.425	2.686	1.904	1.895	1.899	1.909	1.904	1.914
0.000	0.000	0.000	0.000	0.010	-0.010	0.420	2.700	1.899	1.899	1.895	1.909	1.909	1.899
0.010	0.005	0.000	0.000	0.015	0.000	0.430	2.695	1.909	1.904	1.899	1.919	1.909	1.909
-0.005	0.020	0.005	0.000	0.010	0.015	0.430	2.705	1.904	1.904	1.899	1.914	1.914	1.914
0.010	0.020	-0.005	0.000	0.000	0.000	0.430	2.710	1.909	1.909	1.904	1.919	1.909	1.909
0.015	0.005	0.000	0.005	0.005	-0.005	0.425	2.681	1.904	1.904	1.904	1.919	1.914	1.909
-0.005	0.000	0.000	0.005	0.005	-0.015	0.420	2.705	1.904	1.899	1.904	1.919	1.914	1.904
-0.005	0.005	0.000	0.000	0.015	-0.015	0.420	2.700	1.904	1.904	1.904	1.919	1.914	1.909
-0.005	0.000	0.000	0.010	0.000	-0.005	0.425	2.681	1.899	1.899	1.904	1.919	1.909	1.909
0.000	-0.010	0.000	0.000	-0.034	-0.020	0.425	2.686	1.895	1.895	1.895	1.914	1.899	1.904
0.005	-0.005	0.000	0.005	-0.044	-0.024	0.430	2.690	1.899	1.899	1.895	1.914	1.904	1.895
0.005	0.000	0.000	0.000	-0.029	-0.024	0.435	2.681	1.895	1.895	1.895	1.914	1.904	1.899
-0.010	0.000	-0.005	0.000	-0.005	-0.034	0.420	2.710	1.895	1.895	1.890	1.914	1.914	1.899
0.005	-0.005	0.005	0.000	-0.005	-0.039	0.425	2.676	1.895	1.890	1.895	1.909	1.909	1.904
0.010	0.000	0.000	0.010	-0.005	-0.005	0.430	2.715	1.899	1.890	1.890	1.914	1.909	1.914
0.005	0.000	0.005	0.005	-0.039	0.024	0.435	2.695	1.899	1.899	1.895	1.909	1.904	1.919
0.000	-0.005	0.005	0.005	-0.034	0.029	0.420	2.715	1.899	1.895	1.895	1.909	1.904	1.919
0.005	0.000	0.005	0.010	-0.024	0.054	0.430	2.695	1.904	1.899	1.895	1.914	1.914	1.919
0.015	0.000	0.005	0.000	-0.015	0.073	0.430	2.700	1.909	1.904	1.895	1.914	1.914	1.929
0.005	0.020	0.005	0.005	-0.010	0.049	0.435	2.695	1.909	1.909	1.904	1.919	1.914	1.919
0.015	0.015	0.000	0.000	-0.020	0.029	0.425	2.695	1.909	1.909	1.904	1.919	1.909	1.909
0.010	0.005	0.005	0.000	-0.024	0.020	0.430	2.666	1.904	1.909	1.904	1.919	1.914	1.909
0.005	0.010	0.005	0.005	-0.005	0.005	0.430	2.671	1.904	1.904	1.904	1.924	1.919	1.909
0.000	0.000	0.005	0.005	0.034	0.020	0.430	2.803	1.909	1.904	1.904	1.919	1.929	1.919
0.005	-0.005	0.005	0.000	0.039	0.000	0.425	2.661	1.904	1.904	1.899	1.919	1.924	1.914
0.000	-0.005	0.000	-0.005	0.034	-0.039	0.435	2.734	1.909	1.899	1.899	1.919	1.919	1.904
0.000	-0.015	0.000	0.000	0.039	-0.015	0.430	2.681	1.904	1.895	1.899	1.914	1.919	1.919
0.005	-0.005	0.000	-0.005	0.039	-0.005	0.430	2.637	1.895	1.895	1.899	1.919	1.919	1.914
-0.015	-0.010	0.000	-0.005	0.034	-0.005	0.425	2.700	1.895	1.890	1.895	1.914	1.914	1.914
-0.015	-0.005	0.000	0.000	0.020	0.000	0.425	2.642	1.890	1.890	1.895	1.914	1.909	1.914
-0.024	-0.005	-0.005	0.005	0.024	-0.010	0.430	2.686	1.890	1.890	1.890	1.909	1.904	1.909
0.000	-0.010	0.000	0.005	0.020	-0.024	0.425	2.661	1.899	1.890	1.890	1.909	1.904	1.904
0.010	0.000	0.005	0.000	0.020	-0.015	0.430	2.744	1.914	1.899	1.895	1.909	1.904	1.904
0.010	0.005	-0.005	-0.005	0.015	-0.005	0.425	2.642	1.904	1.899	1.890	1.914	1.909	1.909
0.000	0.000	0.005	0.005	0.015	-0.020	0.430	2.632	1.904	1.899	1.899	1.914	1.909	1.909
0.000	-0.005	-0.005	0.005	0.005	0.000	0.430	2.627	1.899	1.899	1.899	1.914	1.909	1.914
0.005	0.000	0.000	0.000	-0.005	-0.024	0.425	2.725	1.909	1.899	1.899	1.914	1.904	1.899
0.005	0.000	-0.005	0.000	-0.044	0.010	0.430	2.656	1.904	1.899	1.899	1.914	1.895	1.909
0.010	0.005	0.005	0.005	-0.054	0.010	0.420	2.686	1.909	1.904	1.904	1.919	1.904	1.909
0.015	0.000	0.010	0.000	-0.024	0.005	0.415	2.710	1.909	1.909	1.904	1.919	1.914	1.909
0.029	0.000	0.005	0.005	-0.010	0.005	0.425	2.690	1.909	1.904	1.899	1.919	1.919	1.914
0.015	0.000	0.000	0.005	-0.015	0.005	0.420	2.710	1.904	1.904	1.899	1.919	1.914	1.914
0.000	0.005	0.000	0.000	-0.015	0.000	0.425	2.700	1.899	1.899	1.899	1.919	1.914	1.909
-0.005	-0.005	0.010	0.000	-0.015	0.000	0.425	2.715	1.904	1.899	1.899	1.919	1.914	1.909
-0.005	0.005	0.000	0.005	-0.015	0.000	0.425	2.690	1.899	1.899	1.895	1.919	1.909	1.909
-0.010	0.010	-0.005	0.000	-0.024	0.000	0.420	2.681	1.890	1.895	1.890	1.914	1.909	1.909
-0.005	0.000	-0.005	0.005	-0.005	0.010	0.425	2.705	1.895	1.895	1.895	1.909	1.914	1.914
-0.010	0.005	0.000	0.005	0.020	-0.005	0.415	2.676	1.890	1.895	1.890	1.909	1.919	1.914
-0.005	-0.005	0.000	0.005	0.039	0.020	0.425	2.686	1.895	1.890	1.890	1.914	1.919	1.924
0.005	0.000	0.000	-0.005	0.024	0.015	0.425	2.700	1.904	1.899	1.895	1.909	1.914	1.919
0.015	0.000	0.005	0.010	0.015	0.005	0.430	2.700	1.909	1.899	1.895	1.914	1.909	1.914
0.020	0.000	-0.005	0.000	-0.005	-0.015	0.425	2.705	1.909	1.904	1.895	1.914	1.904	1.909
0.010	0.000	0.005	0.000	-0.005	-0.020	0.430	2.705	1.909	1.904	1.899	1.914	1.904	1.904
0.020	0.010	0.005	0.000	0.010	-0.005	0.425	2.710	1.914	1.909	1.904	1.919	1.914	1.909
0.015	0.010	0.000	0.000	0.034	-0.005	0.435	2.671	1.904	1.909	1.909	1.919	1.924	1.919
0.005	0.000	0.000	0.005	0.020	0.000	0.430	2.705	1.909	1.909	1.909	1.924	1.914	1.914
0.000	0.005	0.000	0.000	0.005	0.005	0.430	2.690	1.904	1.904	1.904	1.924	1.914	1.919
0.000	0.000	0.005	0.000	-0.015	0.020	0.425	2.705	1.904	1.904	1.904	1.919	1.909	1.919
-0.005	0.000	0.000	-0.005	-0.020	0.015	0.425	2.705	1.904	1.904	1.899	1.919	1.909	1.909
-0.005	0.000	0.000	0.005	-0.015	0.010	0.420	2.690	1.899	1.899	1.899	1.919	1.909	1.914
-0.010	0.000	0.000	0.000	-0.024	0.005	0.425	2.700	1.895	1.895	1.899	1.919	1.909	1.909
-0.020	0.010	0.000	0.000	-0.020	-0.005	0.430	2.642	1.890	1.895	1.895	1.914	1.909	1.904
-0.010	0.000	0.000	0.000	-0.005	-0.020	0.425	2.793	1.890	1.890	1.890	1.914	1.909	1.904
0.000	0.005	0.000	0.000	-0.020	-0.015	0.435	2.793	1.904	1.895	1.895	1.914	1.904	1.904
-0.005	0.000	0.000	0.005	-0.005	-0.010	0.425	2.661	1.899	1.895	1.895	1.914	1.909	1.909
0.010	0.000	0.000	0.005	0.039	-0.024	0.430	2.744	1.909	1.899	1.895	1.914	1.919	1.904
0.010	0.000	0.000	0.000	0.010	-0.020	0.430	2.686	1.909	1.904	1.895	1.909	1.909	1.909
0.005	0.000	0.005	0.000	-0.024	-0.029	0.420	2.651	1.899	1.904	1.899	1.914	1.904	1.904
0.000	-0.010	0.005	0.000	0.005	-0.024	0.425	2.671	1.904	1.899	1.899	1.914	1.914	1.909
-0.015	0.000	0.000	0.005	0.088	-0.015	0.435	2.739	1.895	1.899	1.899	1.919	1.943	1.924
0.000	0.005	0.000	0.005	0.146	0.005	0.420	2.686	1.909	1.904	1.899	1.924	1.948	1.938
-0.005	0.005	-0.005	0.000	0.117	-0.010	0.430	2.749	1.909	1.904	1.899	1.924	1.934	1.934
0.000	0.005	0.000	0.000	0.034	0.029	0.425	2.744	1.919	1.904	1.904	1.919	1.904	1.934
0.000	0.005	0.000	0.000	-0.015	0.029	0.430	2.646	1.914	1.909	1.904	1.919	1.895	1.924
-0.010	0.000	0.005	0.000	-0.029	0.059	0.420	2.676	1.909	1.909	1.904	1.919	1.899	1.924
-0.010	0.010	0.000	0.000	-0.029	0.054	0.430	2.632	1.895	1.904	1.899	1.919	1.899	1.909
-0.005	-0.005	-0.005	0.005	-0.039	0.044	0.420	2.627	1.895	1.899	1.899	1.919	1.904	1.909
-0.010	-0.005	-0.005	0.005	-0.059	0.029	0.435	2.651	1.890	1.899	1.899	1.914	1.899	1.904
-0.015	0.000	-0.005	0.010	-0.049	0.020	0.420	2.695	1.895	1.895	1.895	1.919	1.904	1.899
-0.010	0.005	0.005	0.005	-0.039	0.039	0.420	2.695	1.895	1.895	1.895	1.914	1.909	1.904
-0.010	0.000	0.000	0.010	-0.015	0.029	0.430	2.676	1.890	1.895	1.895	1.914	1.914	1.909
0.000	0.005	0.005	0.005	0.005	0.015	0.425	2.705	1.899	1.895	1.890	1.914	1.914	1.904
0.000	0.005	0.005	0.010	0.024	0.000	0.430	2.695	1.909	1.899	1.895	1.914	1.919	1.909
0.000	0.005	0.010	0.010	0.010	-0.005	0.430	2.710	1.909	1.904	1.899	1.914	1.909	1.909
0.010	0.010	0.000	0.010	-0.020	-0.024	0.430	2.690	1.909	1.904	1.899	1.914	1.904	1.904
0.015	0.005	0.000	0.010	-0.020	-0.024	0.430	2.700	1.909	1.899	1.895	1.914	1.909	1.904
0.024	0.000	0.000	0.000	0.024	-0.020	0.430	2.705	1.914	1.904	1.899	1.919	1.924	1.909
0.020	0.005	0.000	0.005	0.039	-0.020	0.425	2.681	1.909	1.909	1.904	1.919	1.924	1.914
0.020	-0.005	0.000	0.000	-0.010	0.000	0.425	2.690	1.909	1.909	1.904	1.919	1.909	1.919
0.020	-0.010	0.000	0.000	-0.005	-0.020	0.420	2.710	1.909	1.904	1.904	1.924	1.909	1.909
0.010	-0.010	0.005	0.005	0.024	-0.005	0.425	2.671	1.904	1.904	1.904	1.924	1.924	1.919
-0.015	0.000	0.000	0.000	0.020	0.015	0.415	2.705	1.895	1.904	1.904	1.924	1.919	1.924
-0.034	0.010	0.005	0.005	0.000	0.020	0.430	2.705	1.895	1.904	1.899	1.919	1.914	1.919
-0.015	-0.005	-0.005	0.005	-0.015	0.015	0.420	2.705	1.904	1.899	1.895	1.914	1.909	1.914
-0.010	-0.010	0.000	0.000	-0.044	0.020	0.425	2.676	1.895	1.895	1.895	1.909	1.899	1.909
0.005	-0.005	-0.005	0.005	-0.044	-0.005	0.420	2.700	1.904	1.895	1.895	1.914	1.899	1.899
-0.005	-0.005	0.000	0.005	-0.005	0.024	0.430	2.705	1.895	1.895	1.895	1.914	1.914	1.909
0.015	0.000	0.005	0.000	0.034	0.015	0.430	2.710	1.904	1.899	1.895	1.914	1.924	1.914
0.024	-0.005	0.000	0.005	0.039	-0.034	0.430	2.705	1.909	1.904	1.895	1.909	1.919	1.904
0.029	-0.005	0.000	0.000	0.029	-0.005	0.425	2.690	1.909	1.899	1.899	1.909	1.914	1.914
0.034	0.015	-0.005	0.000	0.029	0.000	0.430	2.690	1.909	1.909	1.899	1.914	1.914	1.914
0.029	0.015	0.000	-0.005	0.034	0.015	0.425	2.681	1.904	1.909	1.904	1.919	1.914	1.919
0.034	0.015	0.005	0.000	0.015	0.020	0.430	2.681	1.904	1.909	1.904	1.919	1.909	1.919
0.024	0.015	0.005	-0.005	-0.005	0.020	0.425	2.798	1.914	1.909	1.904	1.924	1.904	1.919
0.015	0.010	0.000	0.000	-0.005	0.020	0.425	2.661	1.909	1.909	1.909	1.924	1.914	1.914
0.010	0.010	0.000	0.000	-0.005	0.015	0.425	2.739	1.914	1.914	1.909	1.924	1.914	1.914
0.005	0.005	0.000	-0.005	0.005	0.020	0.425	2.690	1.909	1.909	1.909	1.924	1.914	1.914
-0.005	0.015	0.000	0.000	-0.005	-0.005	0.425	2.651	1.904	1.909	1.909	1.929	1.914	1.909
-0.005	0.000	0.000	0.005	-0.020	-0.010	0.430	2.695	1.899	1.899	1.904	1.924	1.909	1.909
-0.029	0.000	0.005	0.000	-0.024	-0.029	0.425	2.671	1.890	1.899	1.899	1.924	1.914	1.904
-0.024	0.005	0.010	0.005	-0.015	-0.029	0.430	2.690	1.895	1.895	1.899	1.924	1.914	1.904
-0.020	0.000	0.005	0.000	-0.010	-0.005	0.430	2.651	1.895	1.890	1.895	1.919	1.919	1.914
-0.024	-0.024	0.000	0.005	-0.010	-0.010	0.425	2.734	1.899	1.885	1.890	1.909	1.914	1.909
-0.020	-0.015	0.000	0.000	-0.015	-0.015	0.430	2.651	1.895	1.890	1.890	1.909	1.909	1.909
-0.020	-0.015	0.000	0.005	-0.024	-0.020	0.420	2.734	1.904	1.890	1.885	1.909	1.904	1.909
-0.010	0.005	0.000	0.005	-0.029	-0.015	0.425	2.632	1.899	1.895	1.890	1.909	1.904	1.909
-0.005	0.005	-0.005	0.000	-0.039	-0.015	0.420	2.754	1.909	1.899	1.895	1.909	1.899	1.904
-0.005	0.020	-0.005	0.005	-0.039	-0.015	0.430	2.656	1.904	1.909	1.899	1.914	1.904	1.909
0.000	0.005	0.005	0.005	-0.029	0.015	0.420	2.710	1.909	1.904	1.904	1.914	1.909	1.914
0.020	-0.005	0.005	0.000	-0.020	0.005	0.435	2.710	1.914	1.904	1.904	1.919	1.914	1.909
0.000	0.015	0.010	0.005	0.000	-0.010	0.420	2.705	1.909	1.914	1.904	1.924	1.924	1.914
-0.005	0.010	0.000	0.005	0.020	-0.020	0.435	2.705	1.904	1.909	1.904	1.924	1.929	1.914
-0.020	-0.005	0.000	0.005	0.020	-0.029	0.425	2.676	1.899	1.904	1.899	1.924	1.924	1.914
-0.020	0.005	-0.005	-0.005	0.015	-0.063	0.425	2.690	1.904	1.909	1.904	1.919	1.919	1.909
-0.015	0.000	0.000	0.000	0.034	-0.024	0.425	2.705	1.899	1.899	1.904	1.919	1.924	1.924
-0.015	-0.005	0.000	0.000	0.034	0.000	0.425	2.686	1.904	1.899	1.904	1.919	1.919	1.929
0.000	-0.005	0.005	0.000	0.034	0.010	0.430	2.705	1.904	1.899	1.899	1.919	1.919	1.929
0.015	-0.010	-0.005	0.000	0.034	0.059	0.420	2.676	1.909	1.904	1.899	1.914	1.919	1.938
0.015	0.000	0.000	0.000	0.010	0.059	0.430	2.681	1.904	1.904	1.899	1.914	1.909	1.929
0.024	0.010	0.000	-0.005	0.005	0.044	0.420	2.695	1.904	1.904	1.899	1.914	1.904	1.924
0.015	0.000	0.000	0.000	-0.005	0.068	0.430	2.681	1.899	1.899	1.899	1.914	1.904	1.919
0.005	0.005	0.000	0.000	-0.024	0.029	0.425	2.700	1.904	1.904	1.899	1.914	1.899	1.909
0.015	0.010	-0.005	0.000	-0.015	0.020	0.425	2.681	1.904	1.904	1.899	1.919	1.904	1.899
0.005	0.010	0.000	0.000	0.015	-0.020	0.430	2.686	1.899	1.904	1.904	1.919	1.919	1.899
0.005	0.010	0.000	0.005	0.034	-0.024	0.420	2.686	1.895	1.904	1.899	1.919	1.919	1.904
0.000	0.000	0.000	0.000	0.039	-0.044	0.435	2.690	1.899	1.899	1.904	1.919	1.919	1.904
0.010	0.015	0.000	0.005	0.049	-0.015	0.425	2.690	1.904	1.904	1.904	1.924	1.924	1.919
0.005	0.015	0.005	0.000	0.020	-0.005	0.425	2.715	1.914	1.909	1.904	1.924	1.914	1.919
0.015	-0.005	0.000	0.000	-0.015	0.005	0.430	2.710	1.914	1.899	1.899	1.919	1.909	1.919
0.000	-0.015	0.005	0.000	-0.015	0.039	0.430	2.695	1.909	1.899	1.899	1.919	1.909	1.924
0.000	-0.005	0.005	0.000	-0.015	0.024	0.425	2.705	1.909	1.909	1.904	1.924	1.909	1.914
0.005	-0.005	0.010	0.005	-0.034	0.000	0.415	2.671	1.899	1.904	1.904	1.919	1.909	1.909
-0.005	0.015	0.005	0.005	-0.029	-0.005	0.430	2.798	1.899	1.909	1.899	1.919	1.909	1.904
0.000	0.010	0.000	0.005	-0.020	-0.020	0.430	2.793	1.909	1.904	1.899	1.919	1.909	1.899
-0.010	0.000	0.000	0.005	-0.015	-0.034	0.430	2.661	1.899	1.899	1.899	1.919	1.914	1.904
-0.005	0.005	0.000	0.010	0.005	-0.020	0.420	2.656	1.904	1.899	1.895	1.919	1.919	1.909
-0.005	0.015	0.000	0.005	0.010	-0.015	0.430	2.686	1.899	1.899	1.899	1.914	1.914	1.914
0.010	0.010	0.000	0.000	0.015	-0.005	0.425	2.642	1.895	1.895	1.899	1.914	1.919	1.919
0.010	0.010	0.005	0.005	0.010	0.000	0.425	2.686	1.899	1.899	1.899	1.914	1.914	1.914
0.000	0.015	0.005	0.005	-0.015	0.029	0.425	2.720	1.904	1.899	1.895	1.914	1.909	1.924
0.010	0.000	0.000	0.000	0.000	0.020	0.430	2.710	1.909	1.899	1.899	1.914	1.914	1.919
0.000	0.005	0.000	-0.005	0.034	0.034	0.425	2.661	1.904	1.899	1.899	1.914	1.924	1.929
0.005	0.005	0.000	-0.005	0.049	0.044	0.425	2.744	1.919	1.904	1.899	1.919	1.924	1.924
0.005	0.000	0.000	0.005	0.049	-0.010	0.430	2.720	1.919	1.909	1.904	1.919	1.924	1.914
0.000	-0.010	-0.005	0.000	0.049	0.010	0.425	2.651	1.909	1.904	1.904	1.924	1.924	1.919
-0.005	-0.005	0.005	0.005	-0.005	-0.005	0.425	2.651	1.904	1.904	1.904	1.924	1.904	1.914
-0.005	-0.010	0.000	0.005	-0.059	0.010	0.425	2.739	1.909	1.904	1.904	1.919	1.895	1.914
-0.005	0.000	0.005	0.000	-0.034	0.015	0.425	2.656	1.904	1.909	1.909	1.924	1.909	1.914
-0.005	0.000	0.005	-0.005	-0.024	0.020	0.425	2.695	1.904	1.909	1.904	1.919	1.909	1.909
0.010	0.010	0.010	0.000	-0.029	0.015	0.430	2.690	1.909	1.909	1.904	1.919	1.909	1.909
0.010	0.000	-0.005	0.000	-0.039	-0.005	0.420	2.705	1.904	1.904	1.904	1.924	1.909	1.904
0.010	-0.005	-0.005	0.005	-0.005	0.005	0.435	2.705	1.904	1.899	1.899	1.919	1.919	1.909
0.015	-0.005	-0.005	0.005	0.015	-0.010	0.415	2.700	1.904	1.899	1.899	1.919	1.919	1.909
0.005	-0.005	0.000	0.000	0.015	-0.029	0.430	2.700	1.904	1.899	1.899	1.919	1.919	1.909
-0.005	-0.005	0.005	0.005	0.044	-0.039	0.420	2.686	1.899	1.899	1.899	1.919	1.924	1.909
-0.015	-0.005	0.000	0.000	0.063	-0.015	0.435	2.705	1.895	1.899	1.899	1.919	1.929	1.924
-0.015	0.005	0.005	0.000	0.107	-0.044	0.425	2.710	1.904	1.899	1.899	1.919	1.934	1.919
-0.024	0.015	0.000	0.000	0.073	-0.020	0.425	2.681	1.904	1.899	1.899	1.919	1.924	1.924
-0.005	0.010	0.005	0.000	0.029	-0.005	0.425	2.681	1.909	1.899	1.904	1.919	1.909	1.929
0.000	0.005	0.005	0.005	-0.024	0.005	0.425	2.710	1.914	1.904	1.899	1.919	1.895	1.919
0.020	-0.010	0.005	0.000	-0.059	0.005	0.430	2.715	1.924	1.909	1.899	1.919	1.890	1.909
0.024	-0.005	0.005	0.000	-0.039	0.010	0.420	2.695	1.919	1.914	1.904	1.919	1.909	1.914
0.034	0.000	0.005	0.000	-0.044	0.020	0.430	2.715	1.919	1.914	1.909	1.924	1.904	1.914
0.039	-0.010	-0.005	0.000	-0.044	0.005	0.420	2.690	1.914	1.914	1.904	1.924	1.909	1.909
0.020	-0.010	0.000	0.000	-0.039	0.020	0.430	2.690	1.909	1.909	1.909	1.924	1.914	1.914
0.015	-0.015	0.000	0.000	-0.039	-0.005	0.425	2.695	1.904	1.904	1.909	1.924	1.914	1.909
0.010	-0.010	0.000	0.000	-0.044	0.010	0.425	2.686	1.899	1.904	1.904	1.919	1.909	1.909
0.000	-0.005	0.005	0.005	-0.029	0.020	0.425	2.700	1.899	1.904	1.904	1.924	1.919	1.914
-0.005	0.010	0.000	0.005	-0.015	-0.020	0.425	2.700	1.895	1.904	1.899	1.919	1.919	1.909
0.000	0.005	0.000	0.000	0.015	0.015	0.430	2.695	1.899	1.899	1.899	1.919	1.929	1.919
-0.015	0.005	0.000	0.005	0.044	0.005	0.425	2.700	1.899	1.899	1.899	1.919	1.929	1.919
-0.020	0.000	0.005	0.000	0.083	0.029	0.425	2.651	1.890	1.895	1.899	1.919	1.938	1.938
-0.024	0.005	0.010	0.000	0.132	0.024	0.430	2.651	1.890	1.895	1.899	1.919	1.943	1.938
-0.024	0.015	0.005	0.000	0.078	0.010	0.425	2.798	1.909	1.904	1.899	1.914	1.919	1.929
-0.029	0.005	0.005	0.005	0.015	0.000	0.430	2.661	1.909	1.899	1.899	1.914	1.899	1.924
-0.020	0.015	0.005	0.000	-0.010	0.010	0.420	2.749	1.919	1.909	1.899	1.919	1.899	1.914
0.005	0.000	0.010	0.000	0.010	0.015	0.420	2.690	1.924	1.909	1.904	1.919	1.909	1.919
0.010	-0.005	0.000	0.005	-0.010	0.015	0.430	2.632	1.914	1.914	1.909	1.919	1.909	1.914
0.005	-0.010	0.005	0.005	-0.034	0.015	0.425	2.671	1.909	1.914	1.909	1.924	1.904	1.914
0.005	0.000	0.005	0.005	-0.049	0.000	0.425	2.627	1.904	1.909	1.904	1.924	1.904	1.904
0.015	0.005	-0.005	0.005	-0.029	-0.020	0.425	2.686	1.904	1.909	1.904	1.924	1.914	1.904
0.005	0.000	-0.005	0.000	-0.005	0.000	0.425	2.622	1.890	1.904	1.904	1.924	1.924	1.914
0.005	0.000	0.000	0.000	0.020	-0.010	0.430	2.646	1.890	1.899	1.899	1.924	1.924	1.914
0.000	-0.010	0.000	0.005	0.005	0.005	0.425	2.744	1.895	1.895	1.899	1.919	1.919	1.919
-0.010	0.000	0.000	-0.005	0.000	0.000	0.420	2.754	1.904	1.895	1.895	1.914	1.914	1.914
0.005	0.005	0.000	0.000	0.005	-0.010	0.430	2.651	1.899	1.899	1.895	1.919	1.914	1.909
0.015	0.005	-0.005	0.000	0.000	0.005	0.425	2.759	1.909	1.895	1.890	1.914	1.914	1.914
0.000	-0.005	0.000	0.005	-0.010	0.005	0.425	2.661	1.904	1.899	1.895	1.914	1.909	1.914
-0.005	0.005	-0.005	0.005	0.000	-0.029	0.425	2.681	1.899	1.899	1.895	1.914	1.909	1.904
0.005	0.010	0.000	0.010	-0.010	-0.005	0.425	2.686	1.899	1.899	1.895	1.914	1.904	1.909
0.000	0.005	0.005	0.010	0.000	0.020	0.425	2.686	1.899	1.899	1.899	1.914	1.914	1.919
0.010	-0.005	0.005	0.010	0.015	0.000	0.425	2.681	1.904	1.899	1.899	1.919	1.919	1.914
0.000	-0.015	0.005	0.010	0.000	0.015	0.430	2.676	1.904	1.904	1.904	1.919	1.914	1.919
0.005	-0.010	0.000	0.005	-0.005	0.015	0.430	2.705	1.909	1.899	1.899	1.919	1.914	1.919
-0.005	0.005	0.000	0.005	-0.010	0.000	0.415	2.710	1.909	1.904	1.899	1.919	1.909	1.914
0.005	0.010	0.000	0.005	-0.005	0.000	0.425	2.700	1.914	1.909	1.904	1.919	1.914	1.914
0.005	0.020	0.000	0.005	0.010	-0.010	0.420	2.695	1.914	1.914	1.909	1.919	1.919	1.914
0.000	0.005	0.005	0.000	0.000	0.000	0.425	2.705	1.914	1.909	1.909	1.919	1.914	1.914
-0.005	-0.010	0.010	0.000	0.000	0.005	0.420	2.686	1.904	1.904	1.904	1.919	1.914	1.914
0.005	0.000	0.000	-0.005	0.000	-0.005	0.430	2.700	1.904	1.904	1.904	1.919	1.909	1.914
-0.010	0.000	0.000	-0.005	-0.005	0.010	0.430	2.705	1.904	1.899	1.899	1.919	1.909	1.914
-0.020	0.005	0.005	0.000	-0.010	-0.005	0.435	2.705	1.904	1.899	1.899	1.919	1.909	1.904
-0.010	0.005	0.000	0.000	-0.010	0.005	0.425	2.705	1.909	1.899	1.899	1.919	1.909	1.909
0.005	0.020	0.000	0.005	-0.005	0.000	0.430	2.710	1.909	1.904	1.899	1.919	1.909	1.909
0.000	0.015	-0.005	0.005	0.005	-0.015	0.425	2.695	1.904	1.904	1.899	1.919	1.914	1.904
0.005	0.000	0.000	0.005	-0.005	0.010	0.430	2.705	1.909	1.904	1.899	1.919	1.914	1.914
0.005	-0.005	0.005	0.000	-0.005	0.000	0.430	2.695	1.904	1.899	1.899	1.914	1.914	1.914
0.005	-0.005	0.005	-0.005	-0.005	0.005	0.425	2.695	1.909	1.904	1.904	1.919	1.909	1.914
0.005	0.000	0.010	0.000	-0.020	-0.005	0.430	2.700	1.909	1.909	1.904	1.919	1.909	1.909
-0.005	-0.005	0.005	0.000	-0.015	-0.005	0.430	2.690	1.904	1.904	1.904	1.919	1.909	1.914
0.000	-0.005	0.000	0.000	-0.005	0.020	0.420	2.700	1.909	1.899	1.904	1.924	1.919	1.924
-0.005	0.000	0.000	0.000	0.005	0.010	0.425	2.671	1.899	1.904	1.904	1.919	1.924	1.924
0.005	-0.005	0.000	0.000	0.015	-0.015	0.420	2.778	1.904	1.904	1.904	1.919	1.919	1.914
0.005	0.000	0.010	0.000	0.049	0.005	0.425	2.803	1.919	1.904	1.904	1.924	1.929	1.924
-0.010	0.000	0.005	0.000	0.044	-0.010	0.425	2.661	1.909	1.904	1.904	1.924	1.924	1.924
-0.005	-0.005	0.000	0.005	0.029	-0.010	0.425	2.739	1.909	1.904	1.904	1.919	1.919	1.924
0.015	0.000	0.000	0.000	0.049	-0.005	0.430	2.681	1.914	1.909	1.904	1.924	1.924	1.924
0.029	0.005	0.000	0.005	0.063	0.000	0.420	2.661	1.909	1.909	1.904	1.924	1.924	1.924
0.010	0.010	0.005	0.005	0.049	-0.015	0.430	2.671	1.904	1.904	1.899	1.919	1.914	1.914
-0.010	-0.005	0.005	0.010	0.015	0.000	0.420	2.661	1.885	1.899	1.904	1.919	1.909	1.919
-0.020	0.005	-0.005	0.015	-0.010	-0.005	0.420	2.666	1.890	1.895	1.895	1.919	1.899	1.909
-0.024	-0.005	0.005	0.005	-0.029	-0.005	0.425	2.637	1.885	1.890	1.895	1.914	1.899	1.904
-0.024	-0.005	0.005	0.010	-0.024	0.015	0.435	2.744	1.895	1.890	1.890	1.914	1.904	1.914
-0.029	0.000	0.000	0.005	-0.005	0.015	0.425	2.661	1.899	1.890	1.890	1.914	1.909	1.909
-0.015	-0.005	0.000	0.000	-0.029	0.010	0.420	2.734	1.904	1.895	1.890	1.909	1.904	1.914
0.000	0.005	0.000	-0.005	-0.034	0.005	0.425	2.637	1.909	1.904	1.895	1.909	1.904	1.909
0.000	0.015	0.000	-0.005	-0.034	0.005	0.435	2.744	1.914	1.909	1.899	1.914	1.904	1.904
-0.005	0.000	0.000	0.005	-0.024	-0.015	0.420	2.656	1.909	1.904	1.899	1.919	1.909	1.904
0.005	0.010	0.005	0.005	-0.010	-0.015	0.435	2.695	1.909	1.909	1.904	1.919	1.914	1.909
0.015	-0.005	0.005	0.000	-0.005	-0.005	0.420	2.705	1.914	1.904	1.904	1.919	1.914	1.914
0.044	-0.005	0.005	0.005	-0.044	0.000	0.439	2.695	1.919	1.909	1.904	1.924	1.909	1.914
0.039	-0.010	0.000	0.005	-0.059	0.010	0.430	2.705	1.914	1.909	1.904	1.919	1.904	1.914
0.034	-0.005	0.000	0.000	-0.044	0.000	0.425	2.690	1.909	1.909	1.899	1.919	1.909	1.914
0.039	0.005	0.000	0.005	-0.034	0.034	0.425	2.700	1.909	1.909	1.904	1.919	1.919	1.924
0.049	0.005	0.005	0.005	-0.020	0.034	0.425	2.686	1.904	1.909	1.909	1.924	1.919	1.919
0.029	-0.005	0.005	0.005	0.039	0.059	0.425	2.705	1.899	1.904	1.899	1.919	1.938	1.929
0.034	0.005	0.010	0.010	0.132	0.059	0.425	2.705	1.904	1.904	1.904	1.924	1.953	1.943
0.020	0.010	0.005	0.000	0.103	0.039	0.420	2.705	1.904	1.904	1.899	1.924	1.934	1.934
-0.015	0.010	0.000	0.000	0.063	0.029	0.430	2.681	1.895	1.899	1.899	1.914	1.914	1.924
-0.005	0.005	0.000	0.005	0.034	-0.005	0.430	2.681	1.895	1.895	1.895	1.919	1.909	1.909
-0.034	0.000	-0.005	0.005	0.039	-0.020	0.430	2.705	1.895	1.895	1.899	1.919	1.909	1.904
-0.044	-0.005	0.005	0.000	0.005	-0.029	0.430	2.710	1.895	1.895	1.899	1.914	1.904	1.904
-0.034	-0.005	0.005	0.005	0.015	-0.034	0.430	2.705	1.904	1.899	1.899	1.919	1.909	1.904
-0.039	-0.010	0.010	-0.005	0.034	-0.044	0.430	2.710	1.904	1.899	1.899	1.919	1.914	1.904
-0.034	0.024	0.005	0.000	0.093	-0.063	0.415	2.686	1.904	1.909	1.899	1.919	1.934	1.909
-0.015	0.024	-0.005	0.000	0.049	-0.034	0.425	2.695	1.914	1.914	1.899	1.919	1.914	1.924
0.000	0.020	-0.005	0.005	-0.015	-0.005	0.420	2.700	1.919	1.909	1.904	1.919	1.899	1.924
0.010	0.005	0.005	0.000	-0.054	0.000	0.425	2.690	1.914	1.904	1.904	1.919	1.895	1.909
0.010	0.005	0.005	0.000	-0.063	-0.005	0.420	2.705	1.914	1.909	1.904	1.919	1.895	1.904
0.020	0.000	0.010	0.000	-0.059	0.000	0.420	2.686	1.909	1.904	1.904	1.919	1.899	1.909
0.005	0.005	0.005	0.000	-0.039	0.020	0.430	2.700	1.904	1.904	1.904	1.919	1.909	1.909
0.020	0.010	0.000	0.000	-0.054	0.015	0.430	2.651	1.895	1.899	1.899	1.919	1.904	1.909
0.015	0.000	0.000	0.005	-0.063	0.005	0.420	2.793	1.895	1.895	1.895	1.914	1.904	1.904
0.015	0.000	-0.005	0.005	-0.063	-0.015	0.430	2.783	1.904	1.895	1.895	1.914	1.904	1.899
-0.005	-0.005	-0.005	0.010	-0.034	0.015	0.425	2.661	1.895	1.895	1.895	1.914	1.914	1.909
0.000	-0.005	0.005	0.005	0.000	0.000	0.425	2.739	1.904	1.895	1.899	1.919	1.924	1.909
0.000	-0.005	0.010	0.000	0.005	-0.010	0.420	2.690	1.904	1.899	1.899	1.919	1.924	1.909
0.005	0.000	0.000	0.000	0.000	-0.020	0.430	2.651	1.904	1.904	1.899	1.919	1.919	1.909
0.010	-0.010	-0.005	0.005	-0.034	-0.029	0.420	2.690	1.904	1.899	1.895	1.914	1.909	1.909
0.010	0.000	0.000	0.005	0.063	0.010	0.420	2.656	1.914	1.909	1.904	1.924	1.943	1.934
0.005	0.010	-0.005	0.000	0.088	0.034	0.425	2.681	1.914	1.909	1.904	1.924	1.938	1.943
0.005	0.010	0.000	0.005	0.068	0.039	0.425	2.642	1.909	1.914	1.904	1.924	1.934	1.943
-0.005	-0.005	0.000	0.005	0.054	0.093	0.435	2.749	1.919	1.909	1.904	1.924	1.924	1.948
-0.015	-0.010	0.000	0.005	0.010	0.083	0.425	2.739	1.919	1.909	1.904	1.919	1.909	1.934
-0.015	0.000	0.000	0.005	-0.005	0.044	0.425	2.656	1.909	1.904	1.904	1.924	1.909	1.914
-0.015	-0.015	0.000	0.005	-0.020	0.015	0.420	2.627	1.899	1.899	1.904	1.919	1.904	1.904
-0.015	-0.005	0.010	0.000	0.000	-0.010	0.430	2.749	1.909	1.904	1.904	1.919	1.914	1.899
-0.020	0.010	0.005	-0.005	0.005	-0.044	0.430	2.661	1.899	1.904	1.904	1.919	1.909	1.890
-0.005	0.010	0.005	0.000	-0.024	-0.034	0.425	2.695	1.904	1.899	1.899	1.919	1.904	1.899
0.005	0.000	0.000	0.000	-0.010	-0.039	0.420	2.686	1.904	1.899	1.895	1.914	1.909	1.899
0.015	-0.010	0.005	0.000	0.005	-0.024	0.425	2.681	1.899	1.895	1.895	1.914	1.914	1.909
0.000	-0.005	0.000	0.000	0.005	-0.010	0.430	2.710	1.904	1.899	1.895	1.914	1.914	1.914
-0.005	0.000	0.000	-0.005	0.005	-0.010	0.430	2.710	1.904	1.899	1.895	1.919	1.914	1.914
0.000	0.024	0.000	0.000	0.010	-0.015	0.430	2.705	1.909	1.909	1.904	1.914	1.914	1.914
0.005	-0.005	0.000	0.000	0.000	-0.005	0.430	2.710	1.914	1.899	1.899	1.919	1.914	1.914
0.015	-0.010	0.000	0.000	0.010	0.000	0.425	2.690	1.914	1.904	1.899	1.919	1.914	1.914
0.000	-0.005	0.000	0.000	0.000	0.000	0.425	2.695	1.909	1.904	1.904	1.924	1.914	1.919
0.010	0.015	-0.005	0.005	-0.015	0.015	0.415	2.705	1.914	1.914	1.909	1.924	1.914	1.919
0.005	0.015	0.005	0.000	-0.034	0.020	0.425	2.715	1.914	1.919	1.909	1.924	1.914	1.919
0.005	0.010	0.000	0.005	-0.005	-0.005	0.425	2.686	1.914	1.914	1.909	1.924	1.919	1.909
0.000	0.005	0.000	0.005	0.034	0.029	0.425	2.700	1.909	1.909	1.909	1.929	1.934	1.929
-0.005	0.010	0.010	-0.005	0.039	0.039	0.430	2.690	1.909	1.909	1.909	1.924	1.929	1.929
-0.010	0.000	0.000	0.000	0.029	0.034	0.430	2.690	1.904	1.904	1.904	1.929	1.924	1.929
0.000	0.000	0.000	0.000	0.034	0.029	0.430	2.695	1.909	1.904	1.904	1.924	1.919	1.924
-0.005	0.000	0.000	0.000	0.024	0.000	0.420	2.695	1.904	1.899	1.899	1.924	1.914	1.914
0.005	-0.010	0.000	0.000	0.005	-0.010	0.430	2.710	1.909	1.899	1.899	1.919	1.909	1.909
0.005	-0.034	0.000	0.005	-0.010	-0.015	0.430	2.690	1.899	1.890	1.895	1.914	1.904	1.904
0.005	-0.029	0.000	0.005	-0.015	-0.020	0.435	2.700	1.904	1.895	1.895	1.914	1.904	1.909
-0.005	-0.010	0.000	0.000	-0.024	-0.015	0.425	2.700	1.904	1.899	1.895	1.914	1.899	1.904
0.000	0.000	0.005	-0.005	-0.024	-0.015	0.420	2.686	1.909	1.904	1.899	1.909	1.909	1.909
-0.005	0.000	0.000	0.000	-0.024	-0.015	0.415	2.690	1.904	1.904	1.899	1.914	1.904	1.909
0.005	0.000	0.000	0.000	-0.029	-0.024	0.425	2.651	1.899	1.909	1.899	1.919	1.909	1.904
0.000	0.005	0.000	0.000	-0.029	-0.005	0.425	2.788	1.914	1.909	1.904	1.919	1.909	1.914
-0.005	0.005	0.000	0.005	-0.034	-0.005	0.430	2.798	1.924	1.909	1.904	1.924	1.914	1.914
-0.010	0.005	0.000	0.005	-0.039	-0.010	0.425	2.666	1.914	1.914	1.909	1.924	1.909	1.909
0.005	0.010	0.000	0.005	-0.034	-0.024	0.425	2.729	1.914	1.914	1.909	1.924	1.919	1.909
0.000	0.000	0.000	0.010	-0.020	0.010	0.420	2.686	1.914	1.909	1.909	1.929	1.924	1.924
0.000	0.005	0.010	0.005	-0.020	0.005	0.430	2.676	1.909	1.909	1.909	1.929	1.924	1.924
0.000	0.010	-0.005	0.000	-0.029	0.005	0.420	2.681	1.904	1.909	1.909	1.924	1.919	1.924
-0.005	0.010	0.000	0.005	-0.010	0.015	0.425	2.632	1.890	1.904	1.904	1.924	1.924	1.924
-0.005	0.000	0.000	0.005	0.015	0.005	0.420	2.700	1.899	1.899	1.904	1.929	1.929	1.924
-0.020	0.000	0.000	0.000	0.044	0.005	0.425	2.749	1.899	1.890	1.895	1.924	1.934	1.929
-0.020	-0.005	0.005	0.000	0.073	0.000	0.420	2.754	1.904	1.895	1.895	1.919	1.938	1.924
-0.020	0.005	0.000	0.000	0.103	0.000	0.430	2.729	1.914	1.904	1.895	1.914	1.934	1.934
0.000	0.010	0.005	-0.005	0.083	-0.015	0.420	2.739	1.909	1.904	1.899	1.914	1.924	1.924
0.005	0.000	0.000	0.000	0.034	-0.015	0.425	2.637	1.904	1.904	1.899	1.914	1.909	1.914
0.020	0.015	0.000	0.005	0.044	-0.005	0.420	2.642	1.909	1.909	1.904	1.919	1.914	1.924
0.024	0.000	0.000	0.000	0.020	-0.024	0.430	2.651	1.904	1.904	1.904	1.914	1.904	1.909
0.015	-0.015	0.005	0.000	0.020	0.010	0.425	2.681	1.899	1.899	1.904	1.919	1.914	1.924
0.015	-0.015	0.000	0.005	0.010	0.020	0.420	2.686	1.904	1.904	1.904	1.919	1.909	1.924
0.005	0.005	0.000	0.000	0.005	0.020	0.430	2.690	1.904	1.909	1.904	1.924	1.914	1.924
0.000	0.005	-0.005	0.000	0.000	0.015	0.420	2.705	1.909	1.909	1.904	1.924	1.914	1.914
-0.010	0.010	-0.005	0.005	-0.010	-0.005	0.430	2.686	1.904	1.909	1.904	1.924	1.909	1.914
0.000	0.015	0.000	0.005	-0.010	-0.005	0.420	2.705	1.909	1.909	1.909	1.924	1.914	1.909
0.005	0.010	0.000	0.000	-0.005	-0.005	0.425	2.695	1.909	1.904	1.904	1.924	1.914	1.909
0.005	0.005	0.000	-0.005	-0.005	-0.015	0.425	2.705	1.909	1.904	1.904	1.919	1.914	1.904
0.015	0.005	-0.005	0.000	-0.010	0.005	0.425	2.710	1.914	1.904	1.899	1.919	1.914	1.914
0.020	-0.010	0.005	0.000	-0.005	0.015	0.425	2.710	1.909	1.899	1.904	1.919	1.914	1.919
0.020	-0.005	0.005	0.000	-0.005	0.034	0.430	2.710	1.909	1.904	1.904	1.919	1.914	1.919
0.024	0.000	0.005	-0.005	-0.005	0.034	0.415	2.690	1.909	1.904	1.899	1.919	1.909	1.914
0.015	0.020	0.000	-0.005	-0.029	0.044	0.430	2.700	1.909	1.909	1.904	1.919	1.909	1.919
0.010	0.005	0.000	0.000	-0.039	0.039	0.420	2.681	1.904	1.904	1.899	1.919	1.904	1.914
0.005	-0.010	0.005	0.000	-0.044	0.049	0.430	2.686	1.899	1.899	1.899	1.919	1.909	1.919
-0.005	-0.010	0.005	0.000	-0.029	0.049	0.420	2.700	1.899	1.899	1.899	1.919	1.914	1.914
-0.015	-0.015	0.000	0.005	-0.020	0.029	0.435	2.705	1.899	1.899	1.899	1.919	1.919	1.909
-0.015	0.000	0.005	0.005	-0.029	0.010	0.415	2.676	1.904	1.904	1.904	1.919	1.914	1.904
-0.024	0.005	0.005	0.005	-0.044	-0.044	0.430	2.681	1.899	1.904	1.904	1.919	1.909	1.890
-0.020	0.000	0.000	0.000	-0.039	-0.024	0.420	2.686	1.904	1.904	1.904	1.919	1.914	1.904
-0.015	0.015	0.005	0.005	-0.029	-0.020	0.430	2.705	1.904	1.904	1.904	1.924	1.919	1.909
0.000	0.024	0.015	0.005	-0.005	-0.015	0.420	2.690	1.909	1.909	1.909	1.924	1.924	1.914
0.020	0.015	0.010	0.000	0.000	-0.024	0.430	2.690	1.914	1.909	1.904	1.919	1.924	1.914
0.010	0.010	0.000	0.000	0.024	-0.029	0.425	2.661	1.904	1.904	1.904	1.924	1.929	1.919
-0.005	-0.005	-0.005	0.005	0.005	-0.020	0.425	2.803	1.914	1.899	1.899	1.924	1.919	1.919
-0.020	-0.005	-0.005	0.000	0.020	-0.024	0.425	2.788	1.914	1.904	1.899	1.919	1.924	1.919
-0.034	-0.005	-0.005	0.000	0.049	-0.034	0.425	2.651	1.899	1.899	1.899	1.919	1.929	1.919
-0.029	-0.010	0.000	0.000	0.073	-0.020	0.420	2.739	1.909	1.899	1.899	1.914	1.929	1.924
-0.020	-0.005	0.005	0.000	0.073	0.015	0.420	2.686	1.904	1.904	1.899	1.914	1.924	1.934
-0.010	-0.015	-0.005	0.005	0.078	0.015	0.420	2.642	1.904	1.899	1.899	1.919	1.924	1.929
-0.005	-0.029	0.000	-0.005	0.078	0.005	0.425	2.686	1.909	1.899	1.899	1.914	1.919	1.929
0.015	-0.005	0.005	0.000	0.049	0.010	0.425	2.656	1.919	1.909	1.904	1.914	1.909	1.919
0.015	0.005	0.010	0.005	0.010	0.015	0.420	2.705	1.924	1.919	1.904	1.919	1.899	1.919
0.005	0.010	0.005	0.000	-0.015	0.044	0.430	2.734	1.909	1.914	1.909	1.924	1.904	1.919
0.015	0.005	0.000	-0.005	-0.024	0.049	0.425	2.734	1.914	1.914	1.909	1.924	1.904	1.914
0.010	-0.005	0.005	0.000	-0.020	0.029	0.425	2.744	1.919	1.909	1.909	1.924	1.909	1.909
0.010	0.010	-0.005	-0.005	-0.034	0.015	0.415	2.627	1.909	1.914	1.909	1.924	1.909	1.904
0.015	-0.005	0.000	0.000	-0.020	-0.020	0.425	2.642	1.899	1.904	1.909	1.929	1.914	1.899
0.010	0.024	0.000	0.000	-0.015	-0.044	0.420	2.749	1.909	1.909	1.909	1.929	1.914	1.899
0.005	0.015	-0.005	0.000	-0.029	-0.010	0.425	2.661	1.904	1.904	1.909	1.929	1.914	1.909
0.010	0.010	0.000	0.005	-0.063	-0.010	0.425	2.690	1.899	1.904	1.904	1.929	1.909	1.909
0.005	0.005	0.005	0.000	-0.093	-0.020	0.425	2.686	1.890	1.895	1.899	1.924	1.904	1.904
0.000	0.010	-0.005	0.005	-0.034	0.000	0.430	2.686	1.895	1.895	1.899	1.924	1.924	1.919
0.000	0.010	0.000	0.005	-0.020	0.005	0.425	2.705	1.899	1.895	1.899	1.919	1.924	1.919
0.010	0.005	0.000	0.005	-0.010	0.010	0.425	2.690	1.904	1.895	1.895	1.914	1.924	1.924
0.005	0.015	0.000	0.005	0.000	0.020	0.425	2.700	1.899	1.895	1.895	1.919	1.924	1.924
0.005	0.010	0.005	0.005	0.029	-0.005	0.420	2.705	1.904	1.895	1.895	1.914	1.929	1.919
0.005	0.000	0.000	0.005	0.059	0.000	0.430	2.681	1.899	1.895	1.895	1.914	1.929	1.924
-0.005	0.000	0.000	0.005	0.054	-0.005	0.425	2.705	1.904	1.895	1.895	1.914	1.924	1.924
-0.010	-0.005	-0.005	0.000	0.049	-0.029	0.425	2.690	1.904	1.895	1.895	1.914	1.919	1.914
0.005	-0.015	0.005	0.000	0.034	0.000	0.425	2.710	1.914	1.899	1.899	1.914	1.914	1.924
0.000	-0.020	0.005	0.000	0.020	0.005	0.430	2.695	1.909	1.904	1.899	1.919	1.909	1.919
-0.010	-0.015	0.010	0.005	-0.005	0.020	0.425	2.710	1.909	1.904	1.904	1.919	1.909	1.919
-0.010	-0.005	0.005	0.005	-0.020	0.029	0.420	2.686	1.909	1.909	1.904	1.919	1.904	1.919
-0.010	0.005	0.005	0.005	-0.020	0.024	0.425	2.705	1.909	1.914	1.904	1.919	1.909	1.914
-0.010	0.005	0.005	0.000	0.005	0.034	0.415	2.710	1.909	1.909	1.904	1.919	1.919	1.914
-0.010	-0.005	-0.005	0.000	0.010	0.039	0.420	2.686	1.904	1.904	1.909	1.919	1.919	1.924
-0.005	0.010	0.000	0.000	0.015	0.010	0.420	2.686	1.904	1.909	1.904	1.924	1.919	1.909
0.005	0.005	0.000	0.000	0.029	0.000	0.430	2.690	1.909	1.904	1.904	1.924	1.924	1.909
0.015	0.010	0.000	0.005	0.034	-0.039	0.420	2.700	1.909	1.909	1.904	1.924	1.919	1.899
0.020	0.010	0.005	0.005	-0.010	-0.034	0.430	2.700	1.909	1.909	1.899	1.919	1.904	1.904
0.010	0.010	-0.005	0.005	-0.005	0.000	0.420	2.690	1.899	1.904	1.899	1.919	1.909	1.909
0.015	-0.005	0.005	0.005	-0.034	-0.005	0.430	2.686	1.899	1.899	1.899	1.914	1.904	1.909
0.015	0.000	0.000	0.000	-0.059	-0.020	0.425	2.681	1.899	1.899	1.899	1.914	1.895	1.895
0.024	-0.005	0.000	0.005	-0.068	-0.039	0.425	2.798	1.914	1.899	1.895	1.914	1.899	1.890
0.020	0.005	-0.005	0.000	-0.059	-0.005	0.425	2.808	1.924	1.904	1.899	1.914	1.909	1.909
0.000	-0.010	0.005	0.000	-0.015	0.005	0.425	2.666	1.914	1.904	1.904	1.924	1.924	1.914
0.005	-0.005	0.000	0.000	-0.010	0.005	0.420	2.744	1.914	1.909	1.904	1.924	1.924	1.914
-0.005	0.015	0.000	0.000	-0.015	0.010	0.415	2.695	1.914	1.919	1.909	1.924	1.919	1.924
0.000	0.005	0.000	0.000	0.005	0.000	0.420	2.651	1.904	1.914	1.909	1.924	1.929	1.919
0.000	0.000	0.000	-0.005	0.093	0.000	0.430	2.686	1.904	1.914	1.909	1.929	1.953	1.934
0.010	0.015	0.000	-0.005	0.103	0.020	0.425	2.637	1.904	1.909	1.914	1.929	1.943	1.938
0.000	0.005	0.005	-0.005	0.034	0.015	0.425	2.681	1.904	1.904	1.909	1.929	1.919	1.934
0.005	0.000	0.005	-0.005	0.005	-0.005	0.425	2.642	1.895	1.899	1.904	1.924	1.914	1.919
-0.010	-0.005	-0.005	0.000	0.034	-0.020	0.425	2.729	1.895	1.899	1.899	1.924	1.924	1.919
-0.010	-0.005	0.000	0.000	0.063	-0.005	0.430	2.642	1.895	1.895	1.899	1.924	1.929	1.924
-0.015	-0.005	-0.005	0.005	0.098	0.005	0.420	2.646	1.899	1.895	1.895	1.919	1.934	1.929
-0.020	0.005	-0.005	0.005	0.122	-0.020	0.420	2.642	1.890	1.895	1.895	1.919	1.934	1.929
-0.044	0.010	0.005	0.005	0.103	0.010	0.430	2.646	1.895	1.895	1.895	1.914	1.919	1.929
-0.029	0.010	0.000	0.005	0.039	0.005	0.430	2.656	1.904	1.899	1.895	1.914	1.899	1.919
-0.020	0.005	0.000	0.010	-0.020	-0.020	0.425	2.671	1.899	1.899	1.895	1.914	1.885	1.899
-0.010	0.005	0.000	0.010	-0.044	0.000	0.435	2.690	1.904	1.899	1.895	1.914	1.885	1.904
0.010	-0.005	0.005	0.010	-0.063	-0.005	0.425	2.710	1.909	1.899	1.899	1.909	1.890	1.899
0.020	0.005	0.000	0.005	-0.068	0.000	0.435	2.710	1.919	1.909	1.899	1.909	1.890	1.899
0.024	0.010	0.005	0.005	-0.083	0.000	0.430	2.695	1.919	1.914	1.904	1.914	1.895	1.895
0.029	0.000	0.000	0.010	-0.078	0.000	0.435	2.700	1.914	1.909	1.904	1.924	1.899	1.895
0.039	0.000	0.005	0.005	-0.063	0.005	0.425	2.700	1.914	1.914	1.909	1.924	1.914	1.904
0.034	-0.005	-0.005	0.005	-0.044	0.000	0.430	2.686	1.909	1.909	1.909	1.924	1.919	1.909
0.034	0.015	-0.005	0.000	-0.029	-0.020	0.420	2.681	1.904	1.914	1.909	1.924	1.924	1.909
0.024	-0.005	0.000	0.000	-0.010	0.000	0.420	2.690	1.904	1.909	1.909	1.924	1.929	1.919
0.010	0.000	0.000	0.000	-0.020	-0.029	0.415	2.700	1.899	1.904	1.904	1.924	1.919	1.909
0.005	0.005	0.005	0.005	-0.020	0.010	0.420	2.686	1.895	1.899	1.904	1.924	1.924	1.929
-0.015	0.005	0.005	0.010	0.010	0.015	0.430	2.705	1.895	1.895	1.904	1.924	1.929	1.929
-0.024	-0.015	0.010	0.000	0.049	0.015	0.430	2.695	1.895	1.890	1.899	1.919	1.934	1.929
-0.015	-0.024	0.010	0.000	0.063	0.015	0.430	2.715	1.899	1.890	1.895	1.919	1.929	1.924
-0.020	-0.020	0.005	-0.005	0.054	0.005	0.430	2.695	1.899	1.890	1.890	1.914	1.919	1.929
-0.024	-0.010	0.000	0.000	0.029	0.020	0.425	2.686	1.899	1.899	1.890	1.909	1.914	1.919
-0.015	-0.005	0.000	0.000	0.020	0.005	0.425	2.695	1.909	1.899	1.890	1.909	1.904	1.914
-0.015	-0.005	0.005	0.000	0.015	0.005	0.430	2.690	1.909	1.904	1.895	1.914	1.909	1.914
0.005	0.010	0.000	0.005	-0.024	-0.005	0.425	2.681	1.909	1.909	1.899	1.914	1.899	1.909
0.000	0.010	-0.005	0.000	-0.005	-0.010	0.430	2.705	1.909	1.909	1.899	1.919	1.909	1.909
-0.010	0.024	0.000	-0.005	0.000	-0.005	0.420	2.690	1.909	1.914	1.904	1.919	1.909	1.909
-0.005	0.020	-0.005	-0.005	0.000	-0.005	0.425	2.695	1.909	1.909	1.904	1.919	1.914	1.914
-0.010	0.000	-0.005	0.000	0.000	0.010	0.420	2.646	1.904	1.909	1.904	1.924	1.914	1.914
-0.005	0.015	0.000	0.000	0.000	0.010	0.425	2.651	1.899	1.904	1.909	1.924	1.914	1.914
0.000	-0.005	0.000	0.000	0.000	0.010	0.425	2.803	1.914	1.904	1.904	1.924	1.919	1.914
0.005	0.005	0.005	0.005	-0.010	0.000	0.430	2.661	1.909	1.909	1.904	1.924	1.914	1.914
0.000	0.000	0.005	0.010	-0.024	-0.020	0.420	2.651	1.904	1.899	1.904	1.924	1.914	1.909
0.005	-0.005	0.000	0.005	-0.024	0.029	0.425	2.686	1.899	1.899	1.899	1.919	1.909	1.919
0.005	0.000	0.000	0.005	-0.020	0.005	0.415	2.646	1.904	1.899	1.895	1.919	1.914	1.914
0.000	0.000	0.000	0.005	-0.024	0.005	0.435	2.676	1.899	1.904	1.899	1.914	1.909	1.909
0.000	-0.005	0.000	0.005	-0.034	-0.005	0.430	2.666	1.890	1.895	1.895	1.914	1.909	1.904
0.010	0.005	-0.005	0.000	-0.034	0.000	0.430	2.700	1.895	1.895	1.895	1.914	1.909	1.909
0.005	0.015	0.000	0.005	-0.020	-0.005	0.420	2.749	1.904	1.904	1.895	1.914	1.914	1.909
0.010	0.010	-0.005	0.005	-0.015	0.000	0.430	2.666	1.909	1.904	1.899	1.914	1.909	1.914
0.010	0.015	0.005	-0.005	0.005	-0.005	0.425	2.656	1.909	1.904	1.899	1.914	1.919	1.914
0.005	-0.005	0.005	-0.005	0.029	0.000	0.420	2.646	1.904	1.904	1.899	1.919	1.924	1.914
0.010	0.005	0.015	-0.005	0.024	0.000	0.425	2.744	1.914	1.904	1.904	1.919	1.919	1.919
0.000	-0.010	0.005	-0.005	0.020	-0.010	0.420	2.734	1.914	1.904	1.904	1.919	1.919	1.914
0.010	0.010	0.000	0.000	0.029	-0.010	0.430	2.676	1.919	1.914	1.909	1.924	1.919	1.914
0.015	0.000	0.000	0.000	0.029	0.010	0.415	2.700	1.914	1.909	1.909	1.924	1.919	1.929
0.000	0.000	0.000	0.010	0.034	0.020	0.430	2.686	1.909	1.909	1.909	1.929	1.929	1.929
-0.005	-0.015	0.005	0.005	0.010	0.015	0.420	2.690	1.904	1.899	1.904	1.924	1.914	1.924
-0.015	-0.020	0.005	0.010	-0.015	0.010	0.425	2.681	1.899	1.904	1.904	1.919	1.909	1.919
-0.005	0.020	0.005	0.015	0.010	0.000	0.415	2.686	1.904	1.909	1.904	1.924	1.919	1.914
-0.010	0.039	0.005	0.010	0.044	-0.005	0.420	2.710	1.904	1.914	1.904	1.924	1.929	1.919
0.000	0.039	0.000	0.020	0.024	-0.010	0.430	2.676	1.909	1.909	1.904	1.924	1.919	1.914
0.010	0.024	0.005	0.010	-0.015	-0.039	0.430	2.700	1.909	1.904	1.904	1.919	1.904	1.904
0.005	0.034	0.000	0.010	-0.010	-0.029	0.415	2.681	1.904	1.904	1.904	1.919	1.909	1.904
0.000	0.000	0.000	-0.005	0.010	0.020	0.425	2.705	1.899	1.890	1.899	1.914	1.919	1.924
0.005	-0.029	0.005	-0.005	0.024	0.005	0.425	2.700	1.899	1.885	1.895	1.914	1.919	1.919
0.000	-0.015	0.005	0.000	0.010	0.015	0.430	2.686	1.904	1.895	1.895	1.914	1.909	1.919
0.029	-0.015	0.005	-0.005	-0.024	0.010	0.420	2.710	1.919	1.904	1.895	1.914	1.904	1.914
0.020	-0.010	0.000	-0.005	-0.020	0.000	0.425	2.690	1.909	1.909	1.895	1.914	1.909	1.909
0.010	-0.010	0.000	-0.005	-0.020	0.005	0.420	2.686	1.904	1.904	1.899	1.919	1.909	1.909
-0.015	0.000	-0.005	0.000	-0.024	-0.005	0.430	2.690	1.899	1.909	1.899	1.919	1.909	1.909
-0.024	0.000	0.000	0.000	-0.015	0.034	0.430	2.700	1.899	1.909	1.904	1.919	1.919	1.919
-0.020	-0.005	0.005	0.005	-0.020	0.039	0.430	2.681	1.904	1.904	1.904	1.924	1.919	1.924
-0.015	0.000	-0.005	0.005	-0.039	0.063	0.420	2.705	1.904	1.904	1.904	1.919	1.909	1.929
-0.005	-0.010	0.000	0.000	-0.034	0.059	0.420	2.695	1.909	1.904	1.899	1.919	1.914	1.919
0.000	-0.005	0.000	0.000	0.000	0.044	0.425	2.705	1.914	1.904	1.899	1.924	1.924	1.919
0.000	-0.010	0.000	0.005	0.020	0.005	0.425	2.690	1.909	1.904	1.904	1.919	1.924	1.909
0.005	-0.010	-0.005	0.005	0.059	-0.010	0.425	2.690	1.909	1.904	1.899	1.919	1.934	1.914
0.010	-0.010	0.005	0.005	0.063	-0.005	0.420	2.676	1.904	1.904	1.899	1.919	1.929	1.914
0.000	0.000	0.000	0.000	0.083	-0.010	0.420	2.798	1.914	1.909	1.899	1.919	1.929	1.914
0.010	0.059	0.000	0.000	0.112	-0.029	0.420	2.788	1.924	1.929	1.909	1.919	1.929	1.919
0.015	0.039	0.000	-0.005	0.122	-0.034	0.425	2.661	1.914	1.919	1.909	1.924	1.929	1.919
0.015	-0.010	-0.005	0.000	0.073	-0.049	0.425	2.739	1.914	1.904	1.904	1.919	1.909	1.909
0.015	-0.015	-0.005	0.000	0.029	-0.044	0.430	2.690	1.914	1.904	1.904	1.919	1.899	1.909
0.015	-0.029	0.005	0.000	0.039	-0.044	0.425	2.646	1.904	1.899	1.904	1.924	1.909	1.909
0.000	-0.020	0.005	0.005	0.029	0.000	0.430	2.690	1.904	1.909	1.904	1.924	1.909	1.924
0.005	-0.015	0.000	0.000	-0.010	-0.015	0.430	2.725	1.909	1.909	1.904	1.924	1.904	1.909
0.005	0.015	0.010	0.005	-0.054	0.005	0.430	2.705	1.909	1.914	1.914	1.924	1.899	1.919
0.010	0.015	0.000	0.005	-0.054	0.005	0.420	2.637	1.904	1.914	1.909	1.924	1.904	1.909
-0.005	0.010	-0.005	0.005	-0.088	0.000	0.435	2.729	1.904	1.909	1.909	1.924	1.899	1.904
0.000	0.005	0.005	0.010	-0.078	0.000	0.420	2.632	1.899	1.904	1.909	1.929	1.909	1.909
-0.005	0.010	0.000	0.005	-0.078	0.010	0.430	2.642	1.899	1.904	1.904	1.929	1.914	1.914
0.000	0.010	0.000	0.000	-0.059	0.015	0.430	2.744	1.909	1.904	1.904	1.924	1.919	1.914
0.000	0.005	0.000	0.005	-0.020	0.010	0.425	2.627	1.909	1.899	1.899	1.924	1.929	1.919
0.015	-0.005	0.000	0.010	-0.015	0.000	0.420	2.656	1.909	1.899	1.899	1.924	1.929	1.919
0.005	0.005	0.000	0.015	-0.024	0.000	0.430	2.700	1.899	1.904	1.899	1.919	1.919	1.919
-0.005	0.005	0.000	0.010	-0.039	-0.010	0.430	2.686	1.895	1.895	1.899	1.919	1.914	1.909
0.000	0.010	0.005	0.000	-0.015	0.000	0.420	2.690	1.899	1.899	1.899	1.919	1.919	1.919
-0.010	0.010	0.005	-0.005	-0.005	0.000	0.425	2.705	1.899	1.904	1.899	1.914	1.919	1.919
0.000	0.015	0.000	0.000	0.015	0.000	0.425	2.686	1.904	1.899	1.895	1.919	1.924	1.924
0.005	0.010	0.000	0.000	0.049	-0.015	0.430	2.705	1.909	1.899	1.899	1.919	1.929	1.919
0.010	0.000	0.005	0.005	0.020	-0.010	0.435	2.705	1.909	1.904	1.899	1.919	1.919	1.924
0.000	-0.020	0.005	0.005	0.015	-0.015	0.435	2.686	1.909	1.899	1.899	1.919	1.919	1.924
0.015	-0.010	-0.005	0.000	0.010	-0.020	0.415	2.705	1.914	1.904	1.904	1.919	1.914	1.919
0.010	-0.015	0.000	0.000	0.010	-0.015	0.420	2.700	1.909	1.904	1.904	1.919	1.914	1.924
0.000	-0.015	-0.005	-0.005	0.029	0.020	0.425	2.705	1.914	1.904	1.904	1.919	1.924	1.934
-0.024	-0.024	0.000	-0.005	0.068	0.015	0.435	2.690	1.904	1.904	1.904	1.924	1.934	1.929
-0.054	0.010	0.000	-0.005	0.049	0.044	0.420	2.700	1.899	1.909	1.904	1.924	1.924	1.934
-0.034	0.039	0.005	-0.005	0.005	0.049	0.420	2.710	1.909	1.914	1.904	1.919	1.909	1.929
-0.015	0.005	0.005	0.000	-0.005	0.078	0.425	2.690	1.909	1.909	1.904	1.919	1.909	1.934
0.000	-0.005	0.000	0.000	-0.015	0.063	0.435	2.686	1.909	1.904	1.904	1.919	1.909	1.919
0.005	0.010	-0.005	0.000	-0.010	0.039	0.430	2.700	1.914	1.909	1.904	1.919	1.909	1.904
0.024	0.000	0.000	0.000	-0.020	0.000	0.420	2.686	1.914	1.904	1.904	1.919	1.904	1.895
0.059	-0.005	0.000	0.010	-0.024	-0.015	0.420	2.695	1.914	1.904	1.904	1.919	1.904	1.895
0.039	0.005	0.000	0.005	-0.029	-0.005	0.420	2.690	1.909	1.909	1.899	1.919	1.909	1.895
0.054	0.005	0.005	0.015	-0.010	-0.005	0.420	2.710	1.919	1.914	1.909	1.924	1.914	1.904
0.039	0.000	-0.005	0.010	-0.005	-0.005	0.430	2.695	1.904	1.909	1.904	1.919	1.919	1.909
0.044	-0.005	0.005	0.000	-0.010	-0.005	0.425	2.695	1.909	1.909	1.904	1.924	1.919	1.914
0.015	0.000	-0.005	0.005	0.005	-0.020	0.425	2.676	1.899	1.904	1.904	1.924	1.919	1.914
0.010	0.010	0.005	0.005	0.020	-0.010	0.425	2.793	1.914	1.909	1.909	1.924	1.929	1.919
0.005	0.020	0.005	0.000	0.024	-0.010	0.430	2.798	1.919	1.914	1.914	1.929	1.929	1.924
-0.010	0.005	0.010	0.000	0.010	-0.024	0.425	2.656	1.909	1.914	1.909	1.929	1.924	1.914
-0.020	-0.005	-0.005	0.000	0.000	-0.034	0.425	2.739	1.909	1.904	1.909	1.924	1.924	1.914
-0.015	-0.005	0.000	0.000	0.000	-0.010	0.420	2.686	1.914	1.909	1.904	1.929	1.924	1.924
-0.015	-0.005	0.000	-0.005	0.015	-0.010	0.425	2.681	1.899	1.904	1.909	1.924	1.924	1.924
-0.005	0.005	0.005	0.000	0.010	-0.005	0.425	2.681	1.909	1.909	1.904	1.924	1.924	1.924
-0.020	0.005	0.005	0.000	-0.005	-0.010	0.425	2.725	1.899	1.904	1.904	1.924	1.914	1.919
-0.015	0.010	0.000	-0.005	0.005	-0.010	0.425	2.676	1.904	1.904	1.904	1.919	1.919	1.919
-0.015	0.010	0.000	0.005	0.000	-0.010	0.425	2.646	1.899	1.899	1.904	1.924	1.919	1.919
-0.005	0.015	-0.005	-0.005	0.020	-0.015	0.425	2.734	1.909	1.904	1.899	1.919	1.919	1.914
-0.010	-0.005	0.010	0.000	0.044	-0.005	0.425	2.739	1.909	1.899	1.899	1.919	1.924	1.919
-0.005	0.000	0.005	-0.005	0.034	0.005	0.430	2.651	1.914	1.899	1.899	1.919	1.919	1.929
0.005	-0.005	0.005	0.000	0.034	0.020	0.425	2.725	1.919	1.904	1.899	1.919	1.919	1.924
0.000	0.000	0.005	0.000	0.015	0.015	0.430	2.754	1.924	1.909	1.899	1.919	1.909	1.919
-0.005	-0.005	-0.005	0.005	-0.005	0.010	0.425	2.651	1.914	1.909	1.904	1.919	1.909	1.919
0.000	0.000	0.000	0.005	-0.015	-0.024	0.430	2.700	1.914	1.914	1.909	1.919	1.904	1.904
0.000	0.015	-0.005	0.000	-0.020	-0.039	0.420	2.686	1.914	1.914	1.909	1.924	1.909	1.904
0.000	0.010	0.000	0.005	-0.015	-0.024	0.430	2.710	1.914	1.914	1.914	1.924	1.914	1.909
-0.005	0.005	0.000	0.005	-0.015	-0.015	0.425	2.710	1.914	1.909	1.909	1.929	1.919	1.914
0.000	0.000	0.000	0.000	-0.005	-0.010	0.430	2.686	1.909	1.909	1.909	1.929	1.919	1.919
0.000	0.005	0.005	0.000	-0.020	0.000	0.425	2.705	1.909	1.909	1.909	1.929	1.924	1.924
0.010	0.024	0.005	-0.005	-0.020	0.029	0.425	2.700	1.914	1.914	1.909	1.929	1.924	1.929
-0.010	0.000	0.005	0.000	-0.024	0.054	0.430	2.695	1.909	1.904	1.909	1.929	1.919	1.934
0.000	0.005	0.005	0.000	-0.034	0.068	0.425	2.690	1.909	1.904	1.909	1.924	1.914	1.934
0.000	0.020	0.000	0.000	-0.039	0.049	0.425	2.710	1.909	1.904	1.904	1.919	1.914	1.919
-0.005	0.000	0.000	0.000	-0.039	0.059	0.430	2.705	1.909	1.904	1.899	1.919	1.914	1.919
0.000	0.000	0.000	0.000	-0.054	0.073	0.420	2.700	1.909	1.904	1.899	1.919	1.909	1.924
0.000	-0.010	0.000	0.000	-0.039	0.039	0.425	2.671	1.899	1.899	1.899	1.919	1.914	1.909
0.005	-0.020	0.000	0.000	-0.034	0.015	0.425	2.705	1.904	1.899	1.899	1.919	1.914	1.904
0.005	-0.010	0.000	0.000	-0.029	0.020	0.425	2.695	1.904	1.899	1.899	1.919	1.914	1.909
0.005	-0.015	0.000	0.000	-0.029	-0.015	0.435	2.695	1.909	1.899	1.899	1.919	1.914	1.904
-0.005	-0.034	-0.005	0.005	-0.010	-0.029	0.420	2.695	1.904	1.899	1.899	1.919	1.919	1.904
0.005	-0.020	0.000	0.010	-0.005	-0.044	0.435	2.686	1.909	1.909	1.904	1.924	1.924	1.909
0.000	0.010	0.000	0.015	0.029	-0.054	0.420	2.705	1.909	1.914	1.904	1.924	1.934	1.914
0.005	0.010	0.005	0.010	0.068	-0.039	0.435	2.695	1.914	1.914	1.909	1.929	1.938	1.924
0.000	0.010	0.000	0.000	0.098	-0.020	0.420	2.705	1.914	1.914	1.909	1.929	1.943	1.934
0.000	0.054	0.005	0.000	0.112	-0.005	0.435	2.700	1.914	1.924	1.914	1.929	1.943	1.943
-0.005	0.029	-0.005	0.000	0.127	-0.005	0.425	2.700	1.914	1.914	1.914	1.929	1.943	1.943
0.005	0.015	-0.005	0.005	0.146	-0.039	0.430	2.651	1.909	1.909	1.909	1.929	1.938	1.934
0.015	-0.005	0.005	-0.005	0.107	-0.049	0.430	2.808	1.924	1.899	1.904	1.924	1.924	1.929
0.000	-0.029	0.000	-0.005	0.063	-0.024	0.430	2.783	1.919	1.899	1.904	1.919	1.909	1.929
0.000	-0.034	0.010	-0.005	0.059	-0.044	0.425	2.666	1.909	1.904	1.899	1.919	1.909	1.914
-0.005	-0.010	0.010	-0.005	0.015	0.000	0.430	2.749	1.909	1.909	1.904	1.919	1.899	1.924
-0.020	-0.010	0.005	-0.005	-0.024	-0.015	0.425	2.686	1.909	1.904	1.904	1.919	1.890	1.909
-0.015	0.005	0.000	0.000	-0.068	0.024	0.435	2.759	1.919	1.914	1.899	1.919	1.885	1.909
-0.005	0.020	0.000	0.005	-0.088	0.015	0.425	2.700	1.914	1.914	1.904	1.924	1.890	1.904
-0.010	0.024	-0.005	0.010	-0.083	0.049	0.430	2.734	1.914	1.919	1.909	1.924	1.899	1.909
-0.005	0.020	0.000	0.005	-0.063	0.039	0.425	2.710	1.919	1.919	1.909	1.924	1.909	1.909
0.010	0.049	0.000	0.010	-0.034	0.049	0.430	2.627	1.909	1.924	1.919	1.934	1.929	1.919
0.000	0.044	0.000	0.010	-0.020	0.044	0.430	2.754	1.919	1.919	1.919	1.934	1.929	1.919
0.015	0.010	0.000	0.010	-0.010	0.054	0.430	2.734	1.924	1.909	1.914	1.934	1.934	1.929
0.010	0.010	0.000	0.005	-0.010	0.049	0.430	2.656	1.914	1.914	1.914	1.934	1.934	1.934
0.015	0.000	0.000	0.000	-0.015	0.029	0.425	2.734	1.919	1.909	1.909	1.934	1.929	1.924
0.005	-0.005	0.005	0.000	-0.020	0.005	0.430	2.656	1.914	1.909	1.914	1.929	1.929	1.914
0.005	0.000	0.010	0.000	-0.020	-0.020	0.425	2.661	1.904	1.909	1.914	1.929	1.924	1.914
0.015	-0.010	0.005	-0.005	-0.005	-0.034	0.430	2.671	1.904	1.904	1.904	1.929	1.924	1.909
0.005	-0.010	0.000	0.000	-0.015	-0.020	0.430	2.676	1.895	1.899	1.904	1.924	1.924	1.919
-0.010	-0.010	0.000	0.000	-0.010	-0.034	0.425	2.671	1.895	1.895	1.899	1.924	1.924	1.919
0.000	-0.010	-0.005	0.000	-0.020	-0.039	0.430	2.700	1.904	1.895	1.895	1.914	1.914	1.914
0.005	-0.005	0.000	-0.005	0.005	-0.015	0.430	2.690	1.899	1.895	1.895	1.919	1.924	1.924
0.005	-0.005	0.000	-0.005	0.020	-0.039	0.425	2.705	1.899	1.899	1.895	1.919	1.924	1.914
0.000	-0.010	-0.010	-0.005	0.039	-0.005	0.430	2.686	1.904	1.895	1.890	1.914	1.929	1.929
-0.010	-0.010	0.000	0.000	0.039	-0.015	0.420	2.705	1.904	1.895	1.895	1.914	1.919	1.924
-0.010	-0.010	0.005	0.000	0.029	-0.029	0.435	2.705	1.904	1.899	1.899	1.914	1.914	1.919
0.005	-0.005	0.000	-0.005	0.029	-0.034	0.420	2.705	1.909	1.904	1.899	1.914	1.914	1.914
0.000	-0.010	0.005	0.000	0.015	-0.039	0.435	2.705	1.914	1.904	1.904	1.919	1.909	1.919
-0.005	-0.005	0.000	0.005	0.010	-0.015	0.420	2.715	1.919	1.909	1.904	1.919	1.914	1.919
-0.005	-0.015	0.000	-0.005	-0.020	-0.005	0.430	2.686	1.909	1.909	1.904	1.919	1.904	1.919
0.000	0.000	-0.005	0.000	-0.024	0.020	0.425	2.705	1.914	1.914	1.904	1.924	1.909	1.919
-0.015	-0.005	0.000	0.000	-0.034	0.024	0.430	2.690	1.909	1.909	1.909	1.924	1.909	1.919
-0.020	-0.005	0.000	-0.005	-0.044	0.020	0.425	2.695	1.909	1.909	1.909	1.924	1.909	1.919
-0.024	0.000	0.005	0.000	-0.059	0.020	0.425	2.695	1.904	1.909	1.909	1.924	1.909	1.914
-0.020	0.010	0.000	0.000	-0.063	0.029	0.430	2.690	1.909	1.909	1.904	1.929	1.909	1.914
0.015	0.010	0.000	0.000	-0.063	0.034	0.425	2.710	1.914	1.909	1.904	1.924	1.914	1.914
0.015	0.024	0.000	0.000	-0.039	0.054	0.430	2.686	1.914	1.914	1.909	1.924	1.924	1.919
0.029	0.029	0.010	0.010	-0.039	0.054	0.425	2.710	1.919	1.914	1.909	1.924	1.919	1.919
0.039	0.010	0.000	0.005	-0.024	0.029	0.430	2.686	1.909	1.904	1.904	1.924	1.924	1.914
0.034	-0.010	0.000	0.015	-0.020	0.005	0.425	2.690	1.904	1.899	1.904	1.924	1.919	1.909
0.029	-0.005	0.000	0.015	-0.020	-0.005	0.430	2.666	1.899	1.899	1.899	1.924	1.919	1.909
0.005	0.005	0.005	0.010	0.005	-0.039	0.425	2.803	1.909	1.899	1.899	1.919	1.929	1.904
0.005	0.005	0.000	0.005	0.024	-0.059	0.425	2.798	1.919	1.909	1.904	1.924	1.929	1.914
0.005	0.005	0.000	0.005	0.054	-0.054	0.425	2.661	1.909	1.904	1.904	1.924	1.934	1.924
0.005	-0.010	0.005	0.000	0.117	-0.039	0.435	2.744	1.919	1.909	1.904	1.924	1.953	1.934
0.005	0.000	0.005	-0.005	0.181	-0.029	0.425	2.690	1.919	1.914	1.914	1.929	1.958	1.948
0.000	0.005	0.000	-0.005	0.215	-0.010	0.425	2.739	1.909	1.914	1.914	1.929	1.963	1.958
0.005	0.020	0.005	-0.010	0.249	0.015	0.430	2.686	1.914	1.919	1.914	1.934	1.963	1.968
0.005	0.010	0.005	0.000	0.239	0.029	0.435	2.754	1.924	1.919	1.914	1.934	1.948	1.968
-0.005	-0.020	0.005	0.005	0.146	0.034	0.425	2.686	1.924	1.909	1.909	1.929	1.919	1.953
0.005	0.000	0.000	0.000	0.039	0.029	0.430	2.729	1.929	1.919	1.909	1.924	1.890	1.929
-0.005	0.005	0.000	-0.005	-0.015	0.000	0.430	2.729	1.924	1.919	1.909	1.924	1.880	1.904
-0.010	-0.005	0.000	-0.005	-0.059	0.024	0.430	2.754	1.924	1.914	1.909	1.924	1.880	1.904
-0.015	-0.010	0.000	0.000	-0.093	0.000	0.425	2.632	1.909	1.914	1.909	1.924	1.885	1.890
-0.005	-0.005	0.000	0.000	-0.098	0.010	0.420	2.734	1.909	1.909	1.904	1.924	1.890	1.890
0.000	0.000	-0.005	0.005	-0.107	-0.015	0.430	2.627	1.899	1.909	1.904	1.924	1.895	1.890
0.005	-0.015	0.000	0.005	-0.093	-0.005	0.425	2.651	1.890	1.899	1.904	1.924	1.904	1.895
0.000	-0.005	0.010	0.005	-0.088	0.000	0.435	2.700	1.899	1.899	1.904	1.924	1.914	1.899
-0.015	0.010	0.005	0.000	-0.068	0.000	0.425	2.690	1.899	1.899	1.904	1.924	1.919	1.904
-0.005	0.034	0.005	0.010	-0.068	-0.005	0.430	2.690	1.904	1.914	1.909	1.924	1.919	1.909
0.005	0.059	0.005	0.010	-0.059	0.000	0.420	2.705	1.909	1.919	1.914	1.929	1.924	1.914
0.005	0.039	0.000	0.010	-0.044	0.005	0.425	2.686	1.904	1.909	1.909	1.929	1.929	1.924
0.010	0.024	0.000	0.000	-0.039	-0.005	0.420	2.705	1.909	1.904	1.909	1.929	1.929	1.919
-0.015	-0.005	0.000	0.000	-0.024	-0.015	0.425	2.715	1.909	1.899	1.904	1.929	1.929	1.924
-0.010	-0.015	-0.005	0.000	-0.029	0.000	0.425	2.715	1.909	1.899	1.904	1.924	1.929	1.929
0.005	-0.020	0.000	0.000	-0.029	0.005	0.430	2.695	1.914	1.899	1.904	1.924	1.924	1.929
-0.005	-0.015	0.005	0.005	-0.020	-0.005	0.425	2.681	1.909	1.899	1.904	1.924	1.924	1.929
-0.005	-0.005	0.010	0.005	-0.005	-0.020	0.425	2.710	1.914	1.909	1.904	1.924	1.929	1.919
-0.010	-0.005	0.005	-0.005	-0.020	-0.029	0.415	2.695	1.909	1.909	1.904	1.919	1.919	1.919
0.005	0.000	0.005	0.000	0.000	-0.034	0.430	2.695	1.909	1.904	1.899	1.919	1.924	1.914
0.010	-0.005	0.010	0.000	0.000	0.005	0.425	2.686	1.909	1.909	1.899	1.919	1.919	1.929
0.015	-0.005	0.000	0.005	0.005	0.010	0.430	2.686	1.909	1.909	1.899	1.919	1.919	1.924
0.005	0.005	0.005	0.005	0.010	0.015	0.420	2.705	1.909	1.909	1.899	1.919	1.924	1.924
0.020	0.000	-0.005	0.000	0.029	0.029	0.420	2.686	1.904	1.909	1.904	1.919	1.924	1.934
0.010	0.005	0.005	0.005	0.015	0.024	0.420	2.710	1.904	1.904	1.904	1.924	1.919	1.929
0.005	0.000	-0.005	0.000	0.015	0.015	0.420	2.710	1.909	1.909	1.904	1.919	1.919	1.924
0.000	-0.015	0.005	0.005	0.005	0.049	0.415	2.700	1.909	1.904	1.904	1.919	1.919	1.929
0.005	-0.005	0.000	0.000	0.010	0.020	0.425	2.705	1.914	1.909	1.904	1.924	1.914	1.924
0.005	0.005	0.000	0.000	0.000	0.039	0.420	2.705	1.914	1.914	1.909	1.929	1.919	1.924
-0.005	0.000	0.000	0.000	0.015	-0.010	0.420	2.695	1.909	1.909	1.909	1.924	1.919	1.909
-0.005	-0.010	0.005	0.000	0.010	0.000	0.425	2.671	1.909	1.909	1.909	1.924	1.924	1.919
-0.005	-0.015	0.000	0.000	0.015	-0.005	0.420	2.798	1.919	1.909	1.909	1.924	1.919	1.919
0.005	-0.020	0.000	0.000	0.005	-0.039	0.430	2.808	1.929	1.909	1.904	1.924	1.914	1.909
0.000	0.000	0.005	0.000	-0.005	-0.020	0.420	2.656	1.914	1.919	1.909	1.929	1.919	1.919
0.005	0.000	0.000	0.000	-0.010	-0.034	0.435	2.744	1.924	1.914	1.909	1.924	1.914	1.909
0.005	0.020	0.005	0.000	-0.005	0.005	0.425	2.686	1.914	1.924	1.914	1.929	1.919	1.924
0.005	0.029	0.000	0.000	-0.005	0.000	0.425	2.637	1.904	1.919	1.914	1.929	1.919	1.919
0.010	-0.020	0.005	0.005	-0.005	0.000	0.430	2.676	1.899	1.899	1.909	1.929	1.924	1.919
-0.005	-0.015	0.000	0.000	0.015	0.000	0.430	2.744	1.904	1.899	1.904	1.924	1.924	1.919
0.000	0.000	0.005	0.000	0.015	0.000	0.430	2.686	1.909	1.904	1.904	1.929	1.924	1.919
-0.010	0.000	0.005	-0.005	0.024	-0.005	0.425	2.729	1.909	1.904	1.904	1.924	1.924	1.919
-0.010	0.010	0.000	0.005	0.024	-0.020	0.430	2.622	1.904	1.909	1.904	1.924	1.929	1.919
-0.010	0.010	-0.005	0.005	0.024	-0.034	0.420	2.627	1.895	1.904	1.904	1.924	1.924	1.914
0.000	0.029	0.000	0.010	0.020	-0.005	0.425	2.637	1.899	1.909	1.909	1.929	1.924	1.924
-0.005	0.015	0.000	0.005	0.005	-0.010	0.435	2.734	1.904	1.904	1.909	1.929	1.919	1.924
0.005	0.000	0.005	0.010	-0.010	-0.024	0.420	2.744	1.914	1.904	1.904	1.924	1.919	1.919
0.005	0.005	0.000	0.005	-0.010	0.005	0.430	2.661	1.909	1.904	1.909	1.929	1.919	1.924
0.000	0.010	0.000	0.005	-0.015	0.034	0.420	2.710	1.909	1.909	1.904	1.924	1.919	1.934
-0.005	0.010	0.000	0.000	-0.010	0.083	0.420	2.690	1.914	1.909	1.909	1.924	1.924	1.943
0.005	0.029	0.005	0.000	-0.005	0.088	0.425	2.686	1.914	1.919	1.909	1.924	1.919	1.938
0.005	0.024	0.000	0.000	-0.005	0.054	0.420	2.700	1.909	1.914	1.909	1.924	1.924	1.924
0.005	-0.005	0.010	0.005	-0.005	0.029	0.425	2.710	1.909	1.904	1.904	1.924	1.919	1.914
0.005	0.000	0.010	0.000	-0.049	0.024	0.425	2.715	1.914	1.904	1.904	1.924	1.904	1.909
-0.005	-0.005	0.005	0.000	-0.044	-0.005	0.430	2.695	1.909	1.904	1.899	1.919	1.909	1.904
-0.005	-0.020	0.000	0.000	-0.005	-0.010	0.425	2.686	1.899	1.895	1.899	1.919	1.919	1.904
-0.020	-0.010	-0.005	0.005	0.005	-0.010	0.425	2.686	1.895	1.895	1.895	1.919	1.919	1.909
-0.020	0.000	0.000	0.005	0.029	-0.020	0.420	2.700	1.899	1.904	1.899	1.919	1.924	1.909
-0.010	0.010	0.000	0.005	0.044	-0.039	0.430	2.700	1.904	1.904	1.899	1.914	1.924	1.909
-0.015	0.020	0.005	0.000	0.063	-0.039	0.425	2.690	1.904	1.904	1.904	1.919	1.929	1.919
-0.005	0.000	0.000	0.005	0.078	-0.015	0.430	2.705	1.909	1.904	1.904	1.919	1.929	1.929
0.010	0.005	0.000	0.000	0.068	-0.024	0.420	2.681	1.914	1.904	1.904	1.919	1.919	1.929
0.005	0.005	0.005	0.000	0.049	-0.010	0.430	2.690	1.919	1.909	1.904	1.919	1.919	1.924
0.015	-0.010	0.005	0.000	0.024	-0.005	0.420	2.695	1.919	1.909	1.904	1.919	1.909	1.924
0.010	0.000	0.000	0.005	-0.034	-0.029	0.430	2.700	1.919	1.914	1.909	1.924	1.899	1.914
0.015	-0.020	0.005	0.000	-0.088	-0.015	0.425	2.690	1.914	1.909	1.904	1.919	1.885	1.904
0.015	-0.015	0.000	-0.005	-0.132	-0.029	0.425	2.705	1.914	1.914	1.909	1.919	1.880	1.895
0.015	-0.005	0.000	0.000	-0.117	-0.015	0.425	2.686	1.914	1.914	1.909	1.924	1.899	1.899
0.015	0.024	0.000	0.000	0.020	-0.010	0.430	2.710	1.914	1.924	1.909	1.929	1.943	1.914
0.020	0.034	0.000	0.010	0.098	0.010	0.430	2.686	1.904	1.919	1.914	1.929	1.958	1.934
0.015	0.024	0.000	0.005	0.068	0.020	0.430	2.695	1.904	1.904	1.909	1.929	1.938	1.934
0.005	0.039	-0.005	0.000	0.020	0.029	0.425	2.646	1.899	1.909	1.909	1.924	1.924	1.934
-0.005	0.049	0.005	0.010	0.010	0.059	0.430	2.749	1.895	1.899	1.904	1.924	1.914	1.934
0.000	-0.010	0.010	0.010	0.015	0.029	0.425	2.798	1.909	1.890	1.904	1.924	1.919	1.924
0.005	-0.005	0.000	0.010	0.010	0.029	0.425	2.666	1.909	1.899	1.899	1.924	1.914	1.919
0.005	0.005	-0.005	0.005	-0.005	0.010	0.420	2.646	1.904	1.899	1.895	1.919	1.909	1.909
0.010	-0.005	-0.010	0.000	0.005	-0.010	0.420	2.686	1.904	1.895	1.895	1.919	1.914	1.909
0.000	-0.029	-0.005	0.000	0.039	-0.005	0.430	2.734	1.909	1.895	1.895	1.919	1.924	1.914
0.010	-0.024	0.000	0.000	0.093	0.000	0.435	2.700	1.914	1.904	1.899	1.919	1.938	1.929
-0.005	-0.015	0.000	0.000	0.088	-0.024	0.430	2.729	1.914	1.909	1.899	1.919	1.929	1.919
0.005	-0.005	0.005	0.000	0.039	-0.015	0.425	2.686	1.919	1.914	1.909	1.919	1.914	1.919
-0.010	-0.005	0.005	0.000	0.029	-0.024	0.425	2.729	1.914	1.914	1.909	1.924	1.914	1.919
-0.005	-0.010	0.005	0.000	0.029	-0.005	0.415	2.725	1.914	1.909	1.909	1.919	1.914	1.924
-0.010	-0.015	0.010	0.000	-0.005	0.000	0.430	2.637	1.904	1.909	1.909	1.924	1.904	1.914
-0.010	-0.005	0.005	0.000	-0.034	0.010	0.425	2.646	1.895	1.909	1.904	1.924	1.899	1.914
-0.034	-0.010	0.000	0.005	-0.068	-0.010	0.430	2.637	1.885	1.899	1.904	1.924	1.895	1.899
-0.039	0.010	0.000	0.000	-0.073	-0.029	0.425	2.749	1.885	1.899	1.899	1.919	1.899	1.899
0.000	0.010	-0.005	0.000	-0.044	-0.024	0.435	2.666	1.899	1.899	1.895	1.919	1.909	1.899
