-0.005	0.005	0.000	0.000	0.005	-0.029	0.435	2.686	2.178	1.982	1.934	1.890	1.890	1.890
0.000	0.000	0.000	0.000	0.010	-0.044	0.444	2.710	2.104	2.017	1.953	1.909	1.890	1.885
0.005	0.010	0.000	0.000	0.005	-0.034	0.435	2.720	2.061	2.036	1.978	1.934	1.904	1.890
0.000	0.000	0.005	0.000	0.000	-0.054	0.439	2.676	2.017	2.026	1.987	1.953	1.914	1.890
0.000	0.005	0.005	0.005	0.000	-0.049	0.439	2.690	1.982	2.017	2.002	1.973	1.929	1.904
0.005	0.005	-0.005	0.000	-0.005	-0.024	0.435	2.705	1.963	2.002	1.997	1.987	1.943	1.924
0.005	-0.010	0.005	-0.005	0.000	0.005	0.435	2.705	1.953	1.982	1.997	1.992	1.958	1.938
-0.005	-0.005	0.005	0.010	0.000	0.005	0.439	2.681	1.938	1.973	1.992	2.002	1.968	1.948
-0.005	-0.010	0.000	0.005	0.000	-0.005	0.430	2.690	1.934	1.963	1.982	2.002	1.978	1.958
-0.005	0.000	0.005	0.015	0.000	0.039	0.444	2.690	1.934	1.953	1.973	2.002	1.982	1.973
-0.005	0.010	0.000	0.005	0.000	0.044	0.435	2.681	1.929	1.953	1.968	1.992	1.987	1.978
0.000	0.005	-0.005	0.000	0.010	0.015	0.435	2.700	1.929	1.938	1.958	1.987	1.987	1.973
0.000	0.005	0.000	0.005	0.005	0.039	0.435	2.686	1.929	1.938	1.953	1.982	1.982	1.982
0.005	0.005	0.000	0.005	0.000	0.054	0.439	2.739	1.929	1.934	1.943	1.978	1.978	1.982
0.010	0.005	0.000	0.005	0.000	0.039	0.435	2.651	1.924	1.924	1.938	1.968	1.973	1.973
-0.005	0.005	0.000	0.000	0.005	0.039	0.435	2.671	1.919	1.924	1.934	1.968	1.973	1.973
0.000	0.010	0.000	0.000	0.010	0.020	0.430	2.759	1.929	1.924	1.929	1.958	1.968	1.968
-0.005	0.005	0.000	0.000	0.010	0.005	0.439	2.642	1.919	1.919	1.924	1.953	1.963	1.968
0.000	0.010	0.005	0.005	0.010	0.005	0.435	2.759	1.934	1.929	1.929	1.953	1.963	1.963
0.005	-0.005	0.005	0.000	0.010	0.034	0.435	2.734	1.934	1.924	1.929	1.948	1.958	1.968
0.005	-0.005	0.010	0.005	0.000	0.034	0.435	2.754	1.924	1.929	1.929	1.948	1.953	1.963
0.000	0.000	0.005	0.000	0.000	0.010	0.439	2.715	1.934	1.929	1.929	1.948	1.953	1.953
0.000	-0.010	0.000	-0.005	-0.010	-0.020	0.435	2.744	1.938	1.929	1.929	1.948	1.948	1.938
0.010	0.005	0.000	0.000	-0.005	-0.039	0.435	2.690	1.934	1.934	1.929	1.948	1.948	1.943
0.010	0.005	0.000	0.005	0.010	-0.049	0.435	2.671	1.929	1.934	1.934	1.953	1.953	1.938
-0.005	0.005	0.000	0.005	0.005	-0.039	0.439	2.690	1.924	1.929	1.929	1.948	1.948	1.948
0.010	0.000	0.000	0.000	0.010	-0.044	0.435	2.720	1.929	1.924	1.929	1.948	1.948	1.948
0.000	0.005	0.000	0.000	-0.005	-0.034	0.439	2.661	1.924	1.924	1.929	1.948	1.938	1.948
0.005	-0.005	0.005	0.005	-0.029	-0.024	0.439	2.739	1.929	1.924	1.924	1.943	1.934	1.943
0.005	0.005	0.005	0.005	0.000	-0.020	0.435	2.705	1.924	1.924	1.924	1.943	1.943	1.943
-0.005	0.000	0.000	0.000	0.005	-0.020	0.439	2.700	1.919	1.919	1.924	1.938	1.943	1.943
0.000	0.005	-0.005	0.005	-0.015	-0.005	0.435	2.705	1.924	1.919	1.919	1.938	1.934	1.943
0.005	0.005	0.005	0.000	-0.010	-0.005	0.430	2.686	1.914	1.914	1.919	1.938	1.938	1.938
0.005	0.000	0.000	0.005	0.015	0.010	0.435	2.686	1.914	1.919	1.914	1.934	1.943	1.948
-0.005	0.010	0.000	0.000	0.029	0.005	0.439	2.690	1.914	1.919	1.914	1.934	1.938	1.943
0.000	0.005	0.005	0.000	0.020	0.034	0.439	2.695	1.924	1.914	1.914	1.938	1.938	1.948
0.000	0.010	0.005	0.005	0.020	0.029	0.444	2.695	1.919	1.919	1.919	1.938	1.938	1.943
0.005	0.000	0.000	0.005	0.034	-0.005	0.439	2.690	1.924	1.924	1.919	1.938	1.938	1.938
0.005	0.000	0.000	0.005	0.034	-0.005	0.439	2.690	1.924	1.919	1.919	1.938	1.938	1.938
0.010	0.000	0.005	0.000	0.024	0.020	0.439	2.705	1.924	1.924	1.919	1.938	1.934	1.938
0.005	-0.005	0.005	0.000	0.000	0.010	0.444	2.681	1.924	1.924	1.924	1.938	1.929	1.938
0.005	0.000	0.000	0.005	-0.005	0.044	0.435	2.690	1.919	1.924	1.919	1.938	1.929	1.948
0.000	0.000	0.000	0.010	0.000	0.054	0.444	2.681	1.924	1.919	1.924	1.938	1.934	1.938
0.000	-0.005	0.000	0.000	-0.005	0.024	0.430	2.681	1.919	1.924	1.919	1.938	1.934	1.929
0.015	0.000	0.005	0.005	-0.010	0.010	0.435	2.686	1.919	1.919	1.919	1.938	1.929	1.924
0.010	0.005	0.000	0.000	0.000	-0.005	0.430	2.695	1.914	1.919	1.914	1.934	1.934	1.924
0.010	0.010	0.005	0.005	-0.005	-0.034	0.435	2.695	1.909	1.914	1.914	1.934	1.929	1.914
0.000	0.020	0.010	0.015	-0.005	-0.020	0.439	2.705	1.909	1.914	1.914	1.934	1.929	1.914
0.000	0.010	-0.005	0.005	0.005	-0.015	0.439	2.690	1.899	1.909	1.909	1.929	1.934	1.924
0.005	0.000	0.000	0.000	0.000	0.024	0.439	2.681	1.904	1.904	1.904	1.929	1.924	1.934
0.010	0.005	0.000	-0.005	0.000	0.044	0.439	2.690	1.909	1.904	1.909	1.924	1.924	1.938
0.005	-0.005	0.005	0.005	0.000	0.054	0.439	2.695	1.909	1.904	1.904	1.924	1.929	1.934
-0.005	0.000	0.000	0.005	-0.005	0.024	0.435	2.686	1.909	1.909	1.904	1.929	1.924	1.924
0.015	0.000	0.000	0.000	0.000	-0.010	0.435	2.734	1.919	1.909	1.904	1.924	1.919	1.914
0.005	0.005	0.000	0.000	-0.005	-0.049	0.430	2.651	1.909	1.909	1.909	1.924	1.919	1.909
-0.005	0.000	0.000	0.000	0.005	-0.049	0.439	2.661	1.904	1.909	1.909	1.924	1.919	1.914
0.000	-0.005	0.000	0.000	0.005	-0.078	0.439	2.773	1.914	1.909	1.909	1.929	1.924	1.904
0.005	-0.005	0.005	0.000	-0.005	-0.044	0.430	2.651	1.909	1.909	1.909	1.929	1.924	1.919
0.005	0.000	0.000	0.000	0.005	-0.063	0.430	2.651	1.904	1.909	1.909	1.929	1.924	1.919
0.005	0.000	0.005	0.000	0.005	-0.063	0.439	2.734	1.909	1.909	1.909	1.929	1.924	1.914
0.000	-0.005	0.000	0.000	-0.005	-0.020	0.439	2.759	1.919	1.909	1.909	1.929	1.924	1.934
-0.005	0.010	0.000	0.005	-0.005	0.005	0.439	2.710	1.919	1.909	1.909	1.924	1.924	1.934
0.000	-0.005	-0.005	0.000	0.010	0.034	0.439	2.734	1.919	1.909	1.909	1.929	1.924	1.938
0.000	-0.005	0.000	0.000	0.000	0.054	0.439	2.690	1.914	1.909	1.904	1.924	1.924	1.938
0.000	0.010	0.000	0.005	0.000	0.068	0.435	2.642	1.904	1.909	1.904	1.924	1.919	1.934
-0.010	0.000	-0.005	0.005	0.000	0.093	0.439	2.700	1.909	1.909	1.904	1.924	1.919	1.938
0.005	0.000	0.005	0.000	-0.005	0.073	0.435	2.656	1.914	1.904	1.904	1.919	1.914	1.924
0.005	0.010	0.000	0.000	0.000	0.044	0.439	2.666	1.909	1.909	1.904	1.924	1.919	1.914
0.000	-0.010	0.005	0.005	0.000	0.000	0.430	2.739	1.914	1.904	1.904	1.924	1.919	1.904
0.015	0.000	0.000	0.000	0.010	0.015	0.444	2.700	1.914	1.909	1.909	1.924	1.919	1.914
0.000	0.005	0.000	0.000	0.005	-0.024	0.430	2.710	1.909	1.909	1.909	1.924	1.919	1.904
0.005	0.000	0.005	0.000	0.005	-0.005	0.435	2.710	1.909	1.909	1.909	1.929	1.919	1.914
0.005	0.005	0.000	0.000	-0.005	-0.015	0.430	2.686	1.909	1.909	1.909	1.924	1.919	1.914
-0.005	0.005	0.005	0.000	0.000	-0.020	0.439	2.700	1.904	1.909	1.909	1.929	1.919	1.914
-0.005	-0.005	0.005	0.000	0.005	-0.020	0.439	2.695	1.904	1.904	1.909	1.929	1.919	1.914
0.015	0.005	0.010	0.000	0.000	-0.029	0.439	2.695	1.909	1.904	1.909	1.929	1.924	1.914
0.005	0.000	0.000	0.005	0.005	-0.005	0.435	2.686	1.899	1.909	1.909	1.929	1.924	1.924
-0.010	-0.005	0.000	0.000	0.000	0.029	0.430	2.686	1.899	1.899	1.904	1.929	1.924	1.934
0.000	0.005	0.005	0.005	0.000	0.034	0.435	2.710	1.904	1.904	1.899	1.929	1.924	1.924
-0.005	0.005	0.005	0.000	0.010	0.015	0.439	2.705	1.904	1.899	1.904	1.924	1.919	1.924
0.000	-0.005	0.000	0.000	0.010	0.010	0.439	2.686	1.899	1.899	1.895	1.919	1.919	1.924
0.000	0.010	0.000	0.000	0.015	0.000	0.435	2.705	1.895	1.899	1.895	1.914	1.914	1.914
0.005	0.010	0.010	0.005	0.010	-0.020	0.439	2.700	1.899	1.899	1.895	1.914	1.914	1.904
0.000	0.010	0.000	0.005	0.005	-0.029	0.439	2.705	1.899	1.899	1.895	1.919	1.909	1.904
0.005	-0.005	0.000	0.000	0.005	-0.039	0.439	2.695	1.899	1.895	1.895	1.914	1.909	1.904
0.010	0.000	0.000	0.005	0.005	-0.034	0.439	2.715	1.904	1.895	1.895	1.914	1.909	1.899
0.005	-0.005	0.005	0.000	-0.005	-0.044	0.430	2.676	1.899	1.895	1.895	1.914	1.909	1.904
0.000	0.005	0.000	-0.005	0.000	-0.020	0.430	2.700	1.904	1.899	1.899	1.914	1.909	1.914
0.005	0.000	0.010	0.000	0.000	-0.015	0.430	2.695	1.909	1.899	1.899	1.919	1.914	1.914
0.005	0.000	0.005	0.005	0.000	-0.005	0.430	2.695	1.904	1.904	1.899	1.919	1.914	1.914
0.005	0.005	0.010	0.005	0.005	0.020	0.435	2.686	1.904	1.909	1.904	1.919	1.919	1.924
0.010	0.005	0.005	0.005	0.000	0.034	0.435	2.695	1.904	1.904	1.904	1.919	1.919	1.929
-0.005	0.005	-0.005	0.000	0.000	0.029	0.435	2.681	1.899	1.904	1.899	1.919	1.914	1.924
-0.005	0.000	0.000	0.000	0.000	0.059	0.435	2.734	1.904	1.899	1.899	1.919	1.914	1.929
-0.005	-0.005	0.000	0.000	0.005	0.029	0.439	2.646	1.899	1.899	1.899	1.919	1.914	1.919
0.005	0.010	0.005	0.000	0.010	-0.005	0.430	2.651	1.895	1.899	1.895	1.914	1.914	1.904
-0.015	0.000	0.010	-0.005	0.010	0.020	0.439	2.769	1.904	1.895	1.895	1.914	1.914	1.914
-0.005	0.005	0.000	0.000	0.010	0.020	0.435	2.627	1.890	1.895	1.895	1.914	1.909	1.909
0.000	-0.010	0.005	0.005	0.010	-0.020	0.435	2.739	1.895	1.885	1.890	1.914	1.909	1.899
-0.010	-0.015	0.005	0.000	0.010	-0.005	0.435	2.725	1.895	1.885	1.890	1.909	1.909	1.904
-0.005	-0.010	0.000	0.005	0.020	-0.015	0.439	2.729	1.899	1.890	1.890	1.909	1.909	1.904
-0.005	0.010	0.005	0.005	0.015	-0.020	0.439	2.725	1.909	1.899	1.895	1.909	1.909	1.899
-0.005	0.000	0.005	0.000	0.000	-0.010	0.439	2.729	1.904	1.899	1.895	1.909	1.904	1.909
0.010	0.010	0.000	0.005	-0.005	-0.005	0.435	2.671	1.904	1.899	1.895	1.909	1.904	1.904
0.010	0.000	0.000	0.005	0.000	0.000	0.439	2.744	1.909	1.904	1.895	1.914	1.909	1.904
0.005	0.010	0.000	0.005	-0.005	-0.010	0.430	2.710	1.909	1.909	1.899	1.914	1.909	1.909
0.005	0.000	0.000	0.005	-0.005	-0.005	0.435	2.729	1.904	1.904	1.899	1.914	1.909	1.909
0.000	0.005	0.000	0.005	0.000	-0.005	0.430	2.676	1.899	1.904	1.904	1.914	1.909	1.914
-0.005	0.005	0.000	0.000	0.000	0.005	0.439	2.754	1.909	1.904	1.904	1.919	1.914	1.914
0.005	0.005	-0.005	0.000	0.000	-0.005	0.435	2.695	1.909	1.904	1.899	1.919	1.909	1.909
0.010	0.005	0.005	0.005	-0.005	0.015	0.435	2.690	1.904	1.904	1.904	1.919	1.914	1.914
0.010	0.010	0.000	0.000	0.000	0.024	0.435	2.705	1.899	1.899	1.904	1.919	1.914	1.919
0.000	0.010	0.000	0.000	-0.005	0.010	0.435	2.700	1.895	1.899	1.899	1.919	1.914	1.909
0.005	0.010	-0.005	0.000	0.000	0.024	0.430	2.690	1.899	1.895	1.899	1.914	1.909	1.914
0.000	0.000	0.000	0.000	0.000	0.039	0.439	2.705	1.899	1.895	1.895	1.914	1.909	1.914
0.010	0.000	0.000	0.000	0.000	0.034	0.430	2.690	1.899	1.895	1.890	1.914	1.909	1.909
0.000	0.015	0.000	0.000	-0.005	0.005	0.435	2.695	1.895	1.895	1.895	1.914	1.904	1.904
0.015	0.010	0.005	0.005	0.000	0.029	0.439	2.695	1.895	1.895	1.895	1.914	1.904	1.909
0.000	0.000	0.000	0.000	0.000	0.005	0.430	2.690	1.895	1.895	1.890	1.914	1.909	1.904
0.000	0.010	0.005	0.005	0.005	-0.015	0.435	2.710	1.899	1.895	1.895	1.914	1.909	1.899
0.010	0.010	0.005	0.005	0.010	-0.020	0.435	2.695	1.904	1.899	1.895	1.914	1.909	1.904
0.000	0.010	0.005	-0.005	0.000	-0.029	0.435	2.715	1.895	1.895	1.895	1.914	1.909	1.899
0.005	0.010	0.000	0.000	0.010	-0.010	0.435	2.695	1.904	1.899	1.895	1.914	1.909	1.909
0.000	0.000	0.000	0.000	0.000	0.000	0.439	2.695	1.904	1.899	1.895	1.914	1.909	1.909
-0.005	0.005	0.005	0.000	0.000	0.005	0.430	2.695	1.899	1.899	1.895	1.914	1.909	1.914
0.000	-0.005	0.000	0.005	0.000	0.034	0.439	2.700	1.899	1.899	1.895	1.914	1.914	1.919
0.005	-0.010	0.000	0.010	-0.005	0.020	0.430	2.700	1.904	1.895	1.895	1.914	1.909	1.914
-0.005	0.000	0.000	0.000	0.000	0.010	0.439	2.695	1.899	1.899	1.899	1.914	1.914	1.909
0.005	0.005	0.005	0.005	0.010	0.005	0.425	2.705	1.899	1.899	1.895	1.914	1.909	1.909
0.000	0.005	0.005	0.000	0.024	0.000	0.444	2.686	1.895	1.895	1.895	1.909	1.914	1.904
0.005	-0.005	0.000	0.000	0.005	-0.010	0.435	2.700	1.899	1.895	1.890	1.909	1.909	1.904
0.000	0.005	0.005	0.000	0.000	-0.005	0.444	2.690	1.895	1.890	1.890	1.909	1.904	1.899
0.000	0.010	0.005	0.000	0.000	0.000	0.435	2.622	1.885	1.890	1.890	1.909	1.904	1.899
0.010	0.005	0.000	-0.005	-0.005	-0.005	0.439	2.739	1.890	1.885	1.890	1.904	1.899	1.899
0.010	-0.005	0.005	0.000	-0.005	0.024	0.435	2.666	1.885	1.885	1.890	1.909	1.904	1.909
-0.005	-0.005	0.005	0.000	0.000	0.024	0.435	2.671	1.885	1.885	1.890	1.909	1.904	1.904
0.000	0.000	0.005	0.000	0.000	0.029	0.435	2.773	1.899	1.890	1.885	1.909	1.904	1.904
0.000	-0.005	0.000	0.000	0.005	0.024	0.435	2.632	1.895	1.895	1.885	1.909	1.909	1.909
0.000	0.000	0.005	0.000	-0.005	0.000	0.430	2.666	1.904	1.895	1.890	1.904	1.904	1.899
0.000	0.000	0.000	-0.005	0.000	-0.005	0.430	2.739	1.904	1.899	1.890	1.909	1.904	1.899
0.005	0.005	0.005	0.000	-0.005	-0.024	0.435	2.759	1.914	1.904	1.895	1.914	1.909	1.895
0.000	-0.015	0.005	0.000	0.000	-0.020	0.430	2.700	1.909	1.899	1.895	1.914	1.909	1.899
0.005	0.000	0.000	-0.005	0.005	-0.010	0.430	2.725	1.909	1.899	1.899	1.909	1.909	1.904
0.015	-0.005	0.000	0.005	0.005	0.000	0.430	2.661	1.895	1.899	1.895	1.914	1.909	1.909
0.000	-0.005	0.000	0.005	0.000	0.000	0.435	2.715	1.895	1.899	1.899	1.914	1.909	1.909
-0.005	0.000	0.005	0.000	0.000	0.000	0.425	2.695	1.890	1.895	1.895	1.914	1.904	1.909
-0.005	0.029	0.005	0.005	0.005	0.000	0.435	2.651	1.885	1.899	1.895	1.914	1.909	1.904
-0.005	0.015	0.000	0.000	0.005	0.005	0.435	2.661	1.880	1.890	1.895	1.909	1.904	1.909
0.005	0.005	0.010	0.005	0.005	0.015	0.435	2.646	1.880	1.885	1.890	1.909	1.904	1.909
0.005	0.000	0.005	0.005	0.005	-0.010	0.430	2.700	1.885	1.885	1.885	1.909	1.904	1.899
0.005	0.020	0.000	0.005	0.000	-0.024	0.439	2.690	1.885	1.890	1.885	1.904	1.904	1.895
0.010	-0.005	0.010	0.005	-0.005	-0.010	0.430	2.705	1.890	1.880	1.885	1.904	1.899	1.899
0.020	0.000	0.000	0.005	0.000	0.015	0.439	2.686	1.890	1.885	1.885	1.904	1.904	1.909
0.000	-0.010	0.005	-0.005	0.000	0.020	0.430	2.705	1.890	1.885	1.885	1.904	1.904	1.909
0.000	-0.005	0.005	0.000	-0.005	0.024	0.444	2.705	1.895	1.890	1.885	1.904	1.899	1.904
0.005	0.000	0.000	0.005	0.000	0.015	0.435	2.695	1.899	1.895	1.890	1.904	1.904	1.904
0.000	0.005	0.005	0.000	0.000	0.000	0.439	2.700	1.895	1.895	1.890	1.904	1.904	1.904
0.005	0.005	0.000	0.005	0.010	0.010	0.430	2.690	1.899	1.895	1.890	1.909	1.904	1.904
0.010	-0.010	0.005	0.005	0.010	0.000	0.439	2.695	1.904	1.895	1.890	1.909	1.909	1.904
-0.005	0.010	0.000	0.005	0.010	-0.024	0.430	2.710	1.899	1.899	1.895	1.909	1.904	1.899
-0.010	0.015	0.000	0.000	0.010	0.010	0.444	2.690	1.890	1.895	1.895	1.904	1.904	1.904
0.000	0.010	0.000	0.000	0.015	-0.005	0.430	2.705	1.899	1.895	1.890	1.909	1.904	1.899
0.005	0.010	0.000	0.000	0.015	0.020	0.439	2.705	1.895	1.890	1.890	1.909	1.904	1.909
-0.005	0.010	0.000	0.005	0.010	0.024	0.430	2.710	1.895	1.890	1.890	1.909	1.904	1.899
-0.010	0.010	0.005	0.000	0.005	-0.005	0.439	2.690	1.890	1.890	1.890	1.904	1.904	1.899
0.000	0.005	-0.005	0.000	0.015	-0.005	0.430	2.705	1.895	1.885	1.885	1.904	1.899	1.899
-0.005	0.005	0.000	0.005	0.005	-0.015	0.435	2.700	1.895	1.890	1.885	1.904	1.899	1.895
-0.005	0.010	0.000	0.000	0.000	0.000	0.435	2.690	1.895	1.890	1.890	1.904	1.895	1.899
0.005	0.005	0.000	0.000	-0.005	0.000	0.435	2.690	1.899	1.890	1.890	1.904	1.899	1.899
0.005	0.005	0.005	0.000	-0.005	0.000	0.439	2.700	1.899	1.895	1.890	1.909	1.899	1.899
0.005	-0.010	0.005	0.000	-0.005	0.005	0.430	2.720	1.904	1.890	1.890	1.909	1.899	1.899
0.000	-0.005	0.005	0.000	-0.005	0.000	0.439	2.705	1.899	1.895	1.890	1.909	1.899	1.899
-0.005	-0.005	0.005	0.005	-0.010	0.000	0.439	2.651	1.895	1.895	1.890	1.909	1.904	1.904
-0.005	-0.005	0.000	0.000	-0.005	-0.015	0.439	2.769	1.899	1.895	1.895	1.909	1.904	1.899
-0.005	-0.005	0.005	0.005	-0.005	0.000	0.439	2.651	1.890	1.890	1.895	1.909	1.904	1.904
0.000	0.005	0.005	0.000	-0.005	0.000	0.435	2.661	1.895	1.895	1.895	1.909	1.909	1.904
-0.010	-0.005	0.005	0.000	0.005	0.000	0.430	2.803	1.904	1.895	1.895	1.909	1.909	1.904
-0.005	-0.005	0.005	0.000	0.005	-0.005	0.439	2.646	1.890	1.895	1.890	1.909	1.909	1.909
0.000	0.000	0.005	0.000	0.000	-0.020	0.435	2.744	1.895	1.895	1.890	1.909	1.904	1.899
0.000	0.005	-0.005	0.000	0.005	-0.020	0.435	2.725	1.899	1.895	1.890	1.909	1.904	1.904
-0.005	0.010	0.005	0.000	0.005	0.010	0.439	2.651	1.890	1.890	1.890	1.909	1.904	1.909
0.005	0.000	0.005	0.000	0.005	0.015	0.439	2.705	1.890	1.885	1.890	1.904	1.904	1.909
0.005	0.000	0.000	0.000	0.005	0.000	0.435	2.739	1.895	1.885	1.885	1.904	1.899	1.899
0.010	0.010	0.000	0.005	0.000	-0.005	0.439	2.681	1.890	1.890	1.890	1.904	1.899	1.899
0.010	0.000	0.000	0.000	0.000	0.015	0.425	2.729	1.895	1.890	1.885	1.904	1.899	1.904
0.010	0.010	0.005	0.005	0.000	0.015	0.444	2.671	1.895	1.890	1.890	1.904	1.904	1.904
0.000	-0.005	0.000	0.005	0.000	0.010	0.444	2.749	1.899	1.890	1.885	1.904	1.899	1.904
0.015	0.005	0.010	0.000	0.005	-0.005	0.444	2.798	1.914	1.895	1.895	1.909	1.899	1.904
0.010	-0.010	0.000	0.005	-0.005	-0.005	0.435	2.637	1.899	1.899	1.895	1.909	1.899	1.904
0.005	-0.005	0.000	0.005	0.000	0.000	0.444	2.710	1.904	1.899	1.890	1.909	1.904	1.899
0.010	0.000	0.000	0.000	-0.005	-0.010	0.439	2.700	1.904	1.904	1.899	1.909	1.904	1.899
0.005	-0.005	0.000	0.005	0.000	-0.010	0.439	2.695	1.899	1.904	1.899	1.914	1.904	1.904
0.005	-0.005	0.005	0.000	0.000	-0.029	0.435	2.686	1.895	1.895	1.895	1.914	1.909	1.899
0.000	-0.005	0.005	0.000	0.010	-0.005	0.439	2.686	1.890	1.895	1.895	1.909	1.909	1.904
0.000	0.020	0.000	-0.005	0.010	-0.015	0.435	2.700	1.895	1.899	1.895	1.909	1.904	1.904
-0.005	0.010	0.000	-0.005	0.010	-0.005	0.435	2.695	1.895	1.895	1.895	1.909	1.904	1.904
0.000	0.010	0.000	0.005	0.000	-0.010	0.435	2.705	1.890	1.890	1.890	1.909	1.904	1.899
0.000	0.005	0.000	0.005	0.010	-0.005	0.435	2.681	1.890	1.885	1.890	1.909	1.904	1.904
-0.010	0.010	0.000	0.010	0.005	0.020	0.430	2.700	1.885	1.880	1.890	1.909	1.904	1.909
0.005	0.015	0.010	0.005	0.005	0.034	0.435	2.690	1.890	1.885	1.885	1.904	1.904	1.914
0.000	0.000	0.005	0.000	0.000	0.073	0.435	2.700	1.890	1.880	1.885	1.904	1.904	1.919
0.000	0.005	0.000	0.000	-0.005	0.068	0.439	2.671	1.885	1.890	1.885	1.899	1.899	1.909
0.005	0.010	0.000	0.000	0.000	0.068	0.430	2.690	1.895	1.890	1.885	1.909	1.899	1.904
0.005	0.005	0.005	0.005	-0.005	0.044	0.430	2.715	1.899	1.890	1.885	1.909	1.899	1.899
0.005	0.005	-0.005	0.005	0.000	0.010	0.435	2.686	1.890	1.890	1.885	1.904	1.899	1.895
0.000	0.000	0.000	-0.005	0.000	-0.020	0.435	2.695	1.895	1.890	1.890	1.904	1.904	1.885
0.010	0.000	0.010	-0.005	-0.005	-0.034	0.435	2.705	1.899	1.890	1.890	1.904	1.899	1.890
0.000	0.010	0.000	0.000	0.000	-0.020	0.439	2.676	1.895	1.895	1.890	1.909	1.904	1.895
0.005	0.000	-0.005	0.000	0.005	0.005	0.439	2.695	1.895	1.890	1.890	1.909	1.904	1.904
-0.005	0.010	0.000	0.000	0.005	0.000	0.430	2.695	1.890	1.890	1.890	1.909	1.904	1.899
0.000	0.000	0.000	0.005	0.000	0.000	0.435	2.686	1.890	1.890	1.890	1.909	1.904	1.899
-0.010	0.005	0.000	0.000	0.010	-0.020	0.435	2.695	1.885	1.890	1.890	1.909	1.904	1.899
0.000	0.000	0.000	0.000	0.010	-0.005	0.435	2.671	1.885	1.885	1.885	1.904	1.904	1.904
-0.005	-0.005	0.005	0.005	0.010	-0.010	0.430	2.739	1.890	1.885	1.880	1.904	1.899	1.899
-0.005	-0.005	0.000	0.000	0.015	-0.029	0.435	2.656	1.880	1.880	1.880	1.899	1.899	1.895
-0.005	-0.005	0.000	0.000	0.010	-0.039	0.430	2.661	1.880	1.880	1.880	1.895	1.890	1.890
0.005	0.005	0.005	0.000	0.005	-0.039	0.435	2.778	1.895	1.885	1.880	1.899	1.895	1.890
0.000	0.020	0.005	0.010	-0.005	-0.063	0.439	2.651	1.880	1.890	1.880	1.899	1.895	1.885
0.010	0.015	0.000	0.005	0.000	-0.054	0.444	2.661	1.880	1.880	1.885	1.899	1.890	1.885
0.005	0.010	0.005	0.005	0.005	-0.039	0.430	2.749	1.890	1.885	1.885	1.904	1.895	1.899
0.000	0.000	0.000	0.000	0.000	-0.005	0.435	2.739	1.895	1.885	1.880	1.899	1.895	1.904
0.005	0.000	0.005	0.005	0.005	0.029	0.435	2.710	1.899	1.885	1.885	1.904	1.899	1.909
0.015	0.000	0.000	0.005	0.000	0.103	0.439	2.739	1.904	1.895	1.890	1.904	1.904	1.929
0.010	-0.005	0.000	0.005	0.000	0.137	0.430	2.676	1.899	1.895	1.890	1.904	1.904	1.934
0.010	0.005	0.005	0.005	-0.005	0.142	0.439	2.729	1.909	1.899	1.895	1.904	1.899	1.924
0.000	-0.005	0.005	0.005	0.005	0.122	0.430	2.715	1.904	1.899	1.895	1.909	1.904	1.909
-0.005	-0.005	0.000	0.010	-0.005	0.068	0.435	2.651	1.895	1.895	1.895	1.909	1.899	1.895
0.005	-0.005	0.000	0.015	0.005	0.005	0.430	2.651	1.885	1.895	1.895	1.909	1.899	1.880
-0.005	0.005	0.000	0.005	0.005	-0.015	0.444	2.651	1.880	1.890	1.890	1.909	1.899	1.880
-0.010	0.005	0.005	0.005	0.005	-0.049	0.435	2.715	1.885	1.885	1.890	1.909	1.899	1.875
0.005	0.000	0.000	0.005	0.005	-0.044	0.430	2.676	1.880	1.880	1.885	1.904	1.899	1.885
0.000	0.010	0.005	0.005	0.005	-0.049	0.430	2.695	1.880	1.880	1.880	1.904	1.895	1.885
0.005	-0.005	0.005	0.000	0.005	-0.049	0.435	2.690	1.880	1.875	1.880	1.899	1.895	1.885
0.010	0.000	0.000	0.000	0.000	-0.054	0.430	2.690	1.880	1.880	1.880	1.895	1.895	1.890
0.000	0.005	0.000	0.005	0.000	-0.073	0.435	2.686	1.880	1.875	1.880	1.899	1.895	1.885
0.005	0.000	0.000	-0.005	-0.005	-0.024	0.435	2.695	1.880	1.875	1.880	1.899	1.895	1.899
0.010	-0.005	0.000	0.000	-0.005	-0.024	0.425	2.690	1.880	1.880	1.875	1.899	1.895	1.895
0.005	-0.005	0.005	0.005	0.000	0.005	0.435	2.681	1.880	1.875	1.880	1.899	1.895	1.909
-0.005	0.000	0.000	0.000	0.005	0.005	0.435	2.690	1.890	1.885	1.880	1.899	1.899	1.909
0.005	0.005	0.000	0.000	0.000	0.049	0.430	2.705	1.890	1.885	1.880	1.899	1.899	1.914
0.010	0.000	0.010	0.000	0.005	0.044	0.435	2.695	1.895	1.890	1.885	1.904	1.899	1.909
0.000	0.000	0.000	0.005	0.010	0.044	0.444	2.700	1.895	1.890	1.885	1.904	1.904	1.909
0.005	0.005	0.000	0.000	0.005	0.034	0.430	2.686	1.890	1.890	1.885	1.904	1.899	1.904
0.000	0.010	0.005	0.005	0.005	0.010	0.430	2.695	1.890	1.890	1.890	1.904	1.899	1.895
0.010	0.000	0.005	0.000	-0.005	-0.020	0.430	2.686	1.890	1.890	1.885	1.899	1.895	1.885
0.000	-0.005	0.000	0.000	0.005	-0.005	0.439	2.700	1.885	1.885	1.885	1.904	1.895	1.890
0.000	0.000	0.005	0.005	0.000	-0.020	0.435	2.705	1.890	1.885	1.880	1.904	1.895	1.885
-0.005	-0.005	0.000	0.005	0.010	-0.010	0.430	2.681	1.880	1.880	1.880	1.899	1.899	1.890
0.005	0.000	0.000	0.000	0.005	-0.005	0.430	2.690	1.880	1.880	1.880	1.899	1.895	1.890
0.005	0.000	0.000	0.005	0.000	-0.010	0.439	2.686	1.885	1.880	1.880	1.899	1.895	1.895
0.005	0.005	0.005	0.000	0.000	0.010	0.435	2.690	1.885	1.885	1.875	1.899	1.890	1.895
0.015	0.000	0.005	0.000	0.005	-0.005	0.444	2.695	1.885	1.880	1.880	1.895	1.890	1.890
0.000	0.010	0.005	0.000	-0.005	0.029	0.430	2.695	1.885	1.880	1.880	1.899	1.890	1.895
0.000	0.000	0.005	0.000	-0.005	0.024	0.439	2.744	1.895	1.885	1.880	1.899	1.895	1.895
-0.005	-0.005	0.000	0.005	-0.005	0.010	0.435	2.661	1.885	1.885	1.880	1.899	1.895	1.895
0.010	0.010	0.005	0.000	-0.005	0.000	0.439	2.666	1.890	1.885	1.885	1.899	1.895	1.890
-0.005	0.010	0.005	0.000	0.000	-0.015	0.435	2.773	1.895	1.890	1.885	1.904	1.899	1.890
-0.005	0.005	0.005	0.005	0.000	-0.010	0.435	2.651	1.885	1.885	1.885	1.904	1.899	1.895
-0.005	0.000	0.005	0.000	0.000	-0.010	0.435	2.666	1.885	1.885	1.890	1.904	1.899	1.895
-0.005	-0.005	0.000	0.000	-0.005	-0.010	0.439	2.729	1.890	1.885	1.885	1.904	1.899	1.895
0.000	0.000	0.005	0.000	0.010	0.000	0.430	2.754	1.899	1.890	1.885	1.904	1.904	1.899
-0.005	0.000	0.005	0.000	0.010	-0.020	0.435	2.700	1.890	1.885	1.885	1.899	1.899	1.895
-0.005	0.000	0.005	0.000	0.005	0.015	0.435	2.651	1.885	1.890	1.885	1.904	1.899	1.899
0.005	0.005	0.000	0.005	0.005	0.015	0.430	2.681	1.880	1.885	1.885	1.904	1.899	1.899
0.005	-0.005	0.005	0.005	0.010	0.015	0.435	2.729	1.880	1.880	1.880	1.904	1.895	1.895
0.000	-0.005	0.000	0.005	0.010	0.015	0.430	2.705	1.885	1.880	1.875	1.899	1.899	1.899
0.000	-0.005	0.000	0.005	0.000	0.015	0.435	2.759	1.885	1.880	1.880	1.899	1.895	1.895
0.000	0.000	0.000	0.000	0.000	-0.010	0.430	2.676	1.875	1.880	1.880	1.895	1.890	1.885
0.005	0.000	0.000	0.000	0.000	0.005	0.439	2.661	1.885	1.880	1.880	1.895	1.890	1.890
0.000	0.000	0.005	0.005	0.005	0.010	0.435	2.705	1.885	1.885	1.880	1.899	1.895	1.895
0.000	0.005	0.000	0.000	-0.005	0.000	0.439	2.690	1.885	1.885	1.880	1.899	1.895	1.890
0.015	0.005	0.000	0.000	-0.010	0.005	0.435	2.705	1.890	1.890	1.885	1.904	1.895	1.895
0.010	0.005	0.005	0.005	0.000	0.000	0.430	2.690	1.890	1.890	1.885	1.904	1.895	1.895
0.005	-0.005	0.005	0.005	0.010	0.000	0.435	2.681	1.890	1.885	1.885	1.904	1.899	1.895
-0.005	-0.005	0.000	0.000	0.005	-0.034	0.439	2.705	1.895	1.890	1.890	1.904	1.895	1.885
0.000	-0.005	0.000	0.005	0.000	-0.015	0.430	2.695	1.895	1.885	1.885	1.904	1.899	1.895
0.000	0.000	0.000	0.000	0.005	-0.039	0.439	2.686	1.885	1.885	1.880	1.904	1.899	1.885
0.005	0.000	0.005	0.005	0.005	-0.034	0.439	2.686	1.890	1.885	1.885	1.904	1.899	1.895
0.000	-0.005	0.005	0.005	0.000	-0.024	0.439	2.705	1.885	1.880	1.880	1.899	1.895	1.899
0.005	0.015	0.000	0.005	0.005	0.000	0.435	2.705	1.890	1.885	1.880	1.899	1.899	1.899
0.000	0.005	0.000	0.005	0.005	0.000	0.444	2.700	1.885	1.885	1.880	1.899	1.899	1.899
-0.010	0.000	0.000	0.005	0.005	0.029	0.435	2.705	1.880	1.880	1.880	1.899	1.895	1.904
-0.005	0.000	0.005	0.000	0.005	0.039	0.439	2.695	1.880	1.880	1.875	1.895	1.895	1.899
0.005	0.005	0.000	0.005	0.005	0.024	0.430	2.710	1.890	1.885	1.880	1.899	1.895	1.895
0.005	0.000	0.005	0.005	0.005	0.049	0.435	2.700	1.890	1.880	1.880	1.895	1.895	1.899
0.005	0.005	0.005	0.000	0.005	0.039	0.435	2.710	1.890	1.885	1.880	1.895	1.895	1.895
0.000	0.000	0.000	0.005	-0.005	0.029	0.439	2.695	1.890	1.885	1.885	1.899	1.895	1.895
0.010	-0.005	0.005	0.005	0.000	0.029	0.430	2.690	1.890	1.890	1.885	1.899	1.895	1.895
0.000	-0.005	0.000	0.000	0.000	0.024	0.430	2.686	1.885	1.885	1.885	1.899	1.895	1.895
0.005	-0.005	0.000	0.000	-0.005	0.024	0.430	2.690	1.890	1.885	1.885	1.904	1.895	1.895
0.015	-0.010	0.005	0.000	0.005	-0.005	0.435	2.700	1.895	1.890	1.885	1.904	1.895	1.885
0.005	-0.005	0.000	0.005	0.000	-0.005	0.430	2.695	1.890	1.890	1.885	1.904	1.899	1.890
0.000	0.005	0.000	0.000	0.005	0.000	0.435	2.686	1.890	1.890	1.890	1.904	1.899	1.895
0.005	0.005	0.005	-0.005	0.005	-0.010	0.439	2.739	1.895	1.890	1.885	1.904	1.895	1.890
-0.005	0.005	0.000	-0.005	0.005	-0.020	0.439	2.690	1.885	1.885	1.885	1.904	1.899	1.890
-0.005	0.005	0.005	0.000	0.005	-0.034	0.435	2.666	1.880	1.885	1.880	1.904	1.895	1.885
-0.015	0.010	0.005	0.005	0.010	-0.029	0.435	2.778	1.890	1.885	1.885	1.904	1.899	1.895
0.000	0.005	0.005	0.000	0.010	-0.039	0.435	2.739	1.875	1.880	1.880	1.899	1.895	1.885
-0.005	-0.005	0.000	0.000	0.005	-0.024	0.435	2.749	1.885	1.875	1.880	1.899	1.895	1.890
0.005	0.005	0.000	-0.005	0.000	-0.024	0.439	2.754	1.895	1.880	1.880	1.899	1.895	1.890
0.000	0.005	0.005	-0.005	-0.005	-0.020	0.430	2.739	1.890	1.880	1.880	1.899	1.890	1.895
0.005	0.000	0.005	0.005	0.005	0.010	0.439	2.705	1.895	1.885	1.880	1.899	1.895	1.899
0.005	0.000	0.000	0.000	-0.005	0.034	0.435	2.642	1.885	1.885	1.880	1.899	1.895	1.909
0.010	0.020	0.000	0.000	0.000	0.059	0.435	2.666	1.885	1.890	1.885	1.899	1.899	1.909
0.005	0.010	-0.005	0.005	0.000	0.039	0.435	2.754	1.899	1.890	1.890	1.904	1.899	1.904
0.000	0.000	0.000	0.000	-0.005	0.063	0.444	2.705	1.895	1.885	1.885	1.904	1.895	1.904
0.005	-0.005	0.005	-0.005	0.000	0.024	0.435	2.759	1.899	1.890	1.890	1.904	1.895	1.895
-0.005	0.000	0.000	0.000	0.000	0.020	0.435	2.666	1.895	1.895	1.890	1.904	1.899	1.895
0.000	0.005	0.000	0.005	0.000	0.000	0.435	2.661	1.885	1.895	1.890	1.904	1.899	1.890
0.000	0.015	0.005	0.000	0.005	-0.005	0.435	2.695	1.885	1.890	1.890	1.904	1.899	1.895
0.000	0.000	0.000	0.000	0.010	0.010	0.439	2.681	1.885	1.890	1.890	1.909	1.904	1.899
-0.005	0.005	0.005	0.005	0.005	0.000	0.435	2.700	1.880	1.885	1.885	1.904	1.899	1.895
0.005	0.005	0.005	0.005	0.005	-0.020	0.435	2.700	1.885	1.880	1.885	1.904	1.899	1.890
0.000	0.000	0.005	0.000	0.005	-0.015	0.439	2.700	1.885	1.875	1.880	1.904	1.899	1.895
0.000	0.000	0.005	0.000	0.000	-0.029	0.435	2.710	1.885	1.880	1.875	1.899	1.895	1.885
-0.005	0.010	0.005	0.000	0.010	-0.049	0.439	2.690	1.880	1.880	1.875	1.899	1.895	1.880
0.000	0.000	0.000	0.000	0.010	-0.044	0.435	2.686	1.880	1.875	1.875	1.899	1.895	1.890
-0.005	0.000	0.000	0.000	0.010	-0.015	0.439	2.690	1.880	1.875	1.875	1.895	1.890	1.899
0.005	0.000	0.000	0.005	0.005	0.000	0.430	2.695	1.890	1.875	1.880	1.899	1.895	1.899
0.000	0.000	0.000	0.005	0.000	0.039	0.435	2.720	1.885	1.880	1.875	1.895	1.895	1.909
0.010	-0.005	0.000	0.005	0.000	0.054	0.439	2.695	1.895	1.885	1.880	1.899	1.895	1.909
0.005	0.005	0.005	0.005	0.000	0.054	0.435	2.715	1.899	1.890	1.885	1.899	1.895	1.904
0.005	0.000	0.005	0.000	-0.005	0.039	0.439	2.705	1.904	1.895	1.885	1.904	1.895	1.899
-0.005	0.000	0.000	0.005	-0.005	0.029	0.430	2.700	1.895	1.895	1.890	1.904	1.899	1.899
0.000	0.005	0.000	0.005	-0.005	0.005	0.444	2.690	1.895	1.895	1.890	1.904	1.895	1.890
0.000	0.010	0.000	-0.005	0.000	-0.010	0.430	2.700	1.895	1.895	1.890	1.904	1.899	1.885
-0.005	0.005	0.005	-0.005	0.005	-0.020	0.439	2.681	1.890	1.890	1.890	1.904	1.895	1.890
0.005	0.005	0.005	0.000	0.005	-0.015	0.430	2.695	1.890	1.890	1.890	1.904	1.899	1.890
-0.005	0.000	0.005	0.000	0.005	-0.005	0.435	2.695	1.890	1.885	1.885	1.904	1.899	1.899
0.000	0.010	0.005	0.000	0.005	0.029	0.430	2.676	1.885	1.885	1.885	1.904	1.899	1.904
-0.005	0.015	0.005	0.000	0.005	0.034	0.439	2.710	1.890	1.885	1.885	1.904	1.899	1.904
0.000	0.015	0.000	0.005	0.005	0.024	0.425	2.695	1.890	1.890	1.880	1.904	1.895	1.895
0.005	0.000	0.005	0.000	-0.005	0.039	0.444	2.622	1.875	1.880	1.880	1.899	1.895	1.899
-0.005	0.005	0.005	0.000	0.005	0.020	0.430	2.739	1.880	1.880	1.880	1.899	1.895	1.895
0.000	0.015	0.000	0.000	0.000	0.005	0.439	2.651	1.880	1.880	1.880	1.899	1.890	1.885
0.000	-0.005	0.000	0.000	-0.005	-0.024	0.435	2.666	1.880	1.875	1.880	1.899	1.890	1.880
0.000	0.000	0.005	0.000	0.000	-0.029	0.444	2.783	1.890	1.880	1.880	1.895	1.895	1.880
0.000	-0.010	0.000	0.005	0.000	-0.029	0.435	2.646	1.885	1.885	1.880	1.899	1.895	1.890
0.000	-0.010	0.005	0.000	0.000	-0.044	0.439	2.744	1.890	1.885	1.885	1.899	1.899	1.880
-0.005	0.000	0.000	0.005	0.000	-0.039	0.439	2.739	1.895	1.885	1.880	1.904	1.895	1.890
0.000	-0.010	0.005	0.000	-0.005	-0.044	0.439	2.739	1.899	1.890	1.885	1.904	1.899	1.890
0.000	-0.010	0.005	0.000	0.005	-0.063	0.435	2.700	1.895	1.890	1.885	1.904	1.904	1.890
0.015	0.000	0.005	0.000	0.005	-0.024	0.435	2.642	1.890	1.895	1.885	1.904	1.899	1.904
0.015	0.005	0.005	0.005	0.010	-0.015	0.435	2.690	1.890	1.890	1.890	1.904	1.899	1.899
-0.005	0.005	0.005	0.005	0.010	-0.029	0.439	2.729	1.875	1.885	1.885	1.904	1.899	1.899
-0.010	0.000	0.000	0.005	0.000	0.005	0.435	2.700	1.880	1.880	1.880	1.899	1.899	1.904
0.005	-0.005	0.000	0.000	-0.005	0.054	0.439	2.715	1.885	1.880	1.880	1.899	1.899	1.914
-0.010	0.000	0.005	0.005	0.005	0.073	0.430	2.661	1.875	1.880	1.880	1.899	1.895	1.914
-0.005	0.005	-0.005	0.000	0.000	0.049	0.435	2.749	1.885	1.880	1.880	1.899	1.895	1.904
-0.005	0.010	0.000	0.000	0.005	0.078	0.439	2.705	1.890	1.880	1.880	1.899	1.890	1.904
0.010	0.005	0.000	-0.005	0.005	0.068	0.430	2.686	1.890	1.880	1.875	1.895	1.890	1.899
0.000	0.005	0.005	0.005	-0.005	0.020	0.439	2.715	1.890	1.880	1.880	1.899	1.890	1.885
0.000	0.005	0.005	0.000	0.000	-0.005	0.430	2.705	1.890	1.885	1.880	1.895	1.890	1.875
0.005	0.000	0.010	0.005	-0.005	-0.015	0.435	2.690	1.890	1.885	1.880	1.899	1.890	1.880
0.005	0.000	0.000	0.000	-0.005	-0.044	0.435	2.681	1.885	1.890	1.885	1.899	1.895	1.875
0.005	-0.005	0.000	0.000	-0.005	-0.039	0.435	2.686	1.885	1.885	1.880	1.899	1.895	1.880
0.005	-0.005	0.005	0.005	-0.005	-0.059	0.435	2.705	1.890	1.890	1.885	1.904	1.895	1.880
0.000	0.005	0.000	0.005	0.000	-0.039	0.439	2.681	1.890	1.890	1.885	1.904	1.899	1.890
0.000	-0.005	0.000	0.000	0.000	-0.054	0.430	2.681	1.885	1.885	1.885	1.904	1.899	1.885
0.000	0.005	0.000	0.005	0.005	0.010	0.439	2.710	1.885	1.885	1.880	1.899	1.899	1.909
0.010	0.005	0.000	0.005	0.005	0.034	0.430	2.686	1.885	1.885	1.885	1.904	1.899	1.909
0.000	-0.005	0.005	0.000	0.000	0.044	0.444	2.705	1.890	1.885	1.885	1.899	1.899	1.909
0.000	-0.005	0.005	0.005	0.005	0.044	0.430	2.700	1.890	1.880	1.880	1.904	1.899	1.909
0.005	-0.010	0.010	0.000	0.000	0.049	0.439	2.700	1.885	1.880	1.880	1.899	1.895	1.904
0.010	0.010	0.005	0.005	0.005	0.020	0.430	2.686	1.885	1.885	1.880	1.899	1.895	1.895
0.005	-0.010	0.005	0.005	0.000	0.015	0.439	2.695	1.885	1.875	1.875	1.895	1.890	1.890
0.005	-0.020	0.005	0.000	0.005	-0.015	0.430	2.686	1.885	1.875	1.875	1.895	1.890	1.885
-0.010	-0.005	0.000	0.005	0.000	-0.020	0.439	2.700	1.880	1.880	1.875	1.895	1.890	1.885
0.010	-0.005	0.005	0.010	0.000	-0.044	0.435	2.690	1.885	1.880	1.880	1.895	1.890	1.875
0.005	0.010	0.000	0.005	0.005	-0.034	0.439	2.686	1.885	1.885	1.880	1.895	1.895	1.885
0.010	0.010	0.005	0.005	-0.010	-0.054	0.430	2.710	1.890	1.885	1.880	1.895	1.890	1.880
0.005	0.015	0.005	0.005	0.000	0.000	0.439	2.695	1.890	1.890	1.885	1.899	1.895	1.899
0.000	0.000	0.000	0.005	-0.005	0.005	0.435	2.622	1.875	1.880	1.880	1.899	1.895	1.899
0.005	0.000	0.000	0.000	0.000	0.034	0.435	2.744	1.890	1.885	1.880	1.899	1.899	1.909
0.005	0.010	0.005	0.000	0.005	0.024	0.435	2.671	1.890	1.890	1.885	1.904	1.899	1.899
0.005	0.005	0.000	0.005	0.000	0.010	0.439	2.671	1.885	1.885	1.885	1.899	1.895	1.895
-0.005	0.010	0.000	0.000	0.000	0.024	0.430	2.783	1.895	1.890	1.885	1.904	1.899	1.904
0.000	0.010	0.000	0.005	0.005	0.034	0.435	2.734	1.885	1.885	1.885	1.899	1.899	1.904
-0.005	0.005	0.000	0.005	0.005	0.024	0.439	2.666	1.880	1.885	1.885	1.904	1.899	1.899
-0.005	0.010	0.000	0.000	0.000	0.010	0.439	2.739	1.890	1.880	1.880	1.899	1.890	1.890
0.000	0.010	0.005	0.005	0.005	-0.005	0.430	2.720	1.895	1.880	1.880	1.899	1.890	1.885
-0.010	0.000	0.000	0.000	0.005	-0.010	0.435	2.710	1.890	1.880	1.875	1.899	1.895	1.885
0.010	0.010	0.005	0.005	0.000	-0.024	0.435	2.642	1.885	1.880	1.875	1.895	1.890	1.880
-0.010	-0.005	0.005	0.000	0.000	-0.015	0.444	2.676	1.875	1.875	1.880	1.895	1.890	1.890
0.000	-0.010	0.000	0.000	0.000	-0.005	0.430	2.754	1.885	1.875	1.875	1.895	1.890	1.890
0.005	0.000	0.000	0.010	0.005	-0.005	0.444	2.695	1.890	1.880	1.880	1.895	1.895	1.890
0.005	-0.005	0.005	0.010	0.000	0.015	0.439	2.642	1.880	1.880	1.880	1.899	1.890	1.895
0.005	-0.005	0.005	0.000	0.000	0.034	0.435	2.671	1.880	1.885	1.880	1.895	1.890	1.904
-0.005	0.000	0.000	0.000	0.000	0.000	0.435	2.734	1.890	1.885	1.880	1.895	1.895	1.895
0.000	0.000	0.000	0.000	0.000	0.034	0.439	2.710	1.895	1.890	1.880	1.899	1.899	1.904
0.005	0.000	0.005	-0.005	0.010	0.010	0.435	2.681	1.890	1.890	1.885	1.899	1.895	1.895
0.005	0.005	0.005	0.000	0.005	0.000	0.435	2.700	1.890	1.890	1.885	1.904	1.895	1.890
0.005	0.010	0.000	0.000	0.000	-0.020	0.439	2.681	1.890	1.895	1.885	1.904	1.895	1.890
0.000	0.015	0.000	0.000	0.000	0.000	0.435	2.690	1.885	1.890	1.885	1.899	1.895	1.895
0.010	0.020	0.000	0.000	0.005	-0.020	0.439	2.686	1.885	1.885	1.885	1.904	1.895	1.885
0.000	0.020	0.000	-0.005	0.005	0.010	0.430	2.695	1.885	1.885	1.885	1.904	1.899	1.895
0.000	0.005	0.005	0.000	0.000	-0.005	0.435	2.715	1.885	1.880	1.880	1.904	1.895	1.890
0.000	-0.005	0.005	0.005	0.005	0.015	0.430	2.656	1.880	1.880	1.875	1.899	1.895	1.899
0.000	0.005	0.000	0.005	0.010	0.015	0.435	2.705	1.880	1.875	1.875	1.895	1.895	1.895
0.005	0.000	0.000	-0.005	0.000	0.010	0.430	2.705	1.885	1.875	1.875	1.895	1.890	1.895
0.000	0.000	0.005	-0.005	-0.005	0.015	0.439	2.695	1.880	1.875	1.875	1.895	1.890	1.890
0.000	0.000	0.000	-0.005	0.000	0.010	0.430	2.700	1.880	1.875	1.875	1.890	1.890	1.890
0.000	-0.005	0.000	-0.005	0.005	0.005	0.435	2.695	1.890	1.880	1.875	1.890	1.890	1.890
0.005	-0.005	0.000	-0.005	0.000	-0.015	0.425	2.700	1.890	1.885	1.880	1.895	1.890	1.885
0.010	-0.005	0.005	-0.005	-0.005	-0.024	0.435	2.686	1.895	1.885	1.885	1.899	1.890	1.885
0.005	-0.005	0.005	0.010	0.000	-0.029	0.430	2.695	1.890	1.885	1.880	1.899	1.895	1.880
0.005	-0.005	0.005	0.010	0.000	-0.039	0.439	2.695	1.890	1.890	1.885	1.904	1.895	1.890
0.000	-0.005	0.000	0.010	0.005	-0.054	0.435	2.695	1.890	1.885	1.885	1.904	1.899	1.890
0.005	-0.005	0.000	0.015	-0.005	-0.039	0.444	2.681	1.890	1.890	1.885	1.904	1.899	1.890
0.005	-0.005	0.000	0.010	0.005	-0.034	0.430	2.686	1.885	1.885	1.885	1.904	1.899	1.895
-0.005	0.000	0.005	0.010	0.005	-0.005	0.430	2.710	1.890	1.885	1.885	1.904	1.899	1.904
0.000	-0.005	0.005	0.005	0.005	-0.010	0.430	2.690	1.885	1.885	1.880	1.899	1.899	1.899
0.000	0.000	0.005	0.000	0.005	0.029	0.430	2.700	1.885	1.885	1.880	1.899	1.899	1.909
0.000	0.000	0.000	0.000	0.010	0.098	0.435	2.778	1.890	1.880	1.880	1.895	1.899	1.924
0.005	0.005	0.005	-0.005	0.005	0.127	0.430	2.646	1.890	1.890	1.880	1.899	1.895	1.919
-0.005	-0.005	0.005	-0.005	0.000	0.088	0.435	2.651	1.880	1.880	1.880	1.895	1.895	1.904
0.010	-0.015	0.005	0.000	0.005	0.073	0.439	2.788	1.895	1.880	1.875	1.895	1.890	1.890
0.005	-0.015	0.000	0.000	-0.005	0.063	0.435	2.646	1.885	1.880	1.880	1.895	1.890	1.890
0.005	0.015	0.005	0.000	0.005	0.034	0.435	2.661	1.880	1.890	1.880	1.895	1.890	1.880
0.005	0.005	0.000	0.000	-0.010	-0.010	0.435	2.739	1.890	1.885	1.885	1.899	1.890	1.870
0.005	0.010	0.010	0.010	0.000	-0.010	0.430	2.661	1.885	1.885	1.885	1.904	1.890	1.880
-0.005	0.010	0.005	0.000	0.000	-0.020	0.435	2.734	1.890	1.890	1.885	1.904	1.895	1.880
0.000	0.005	0.005	0.000	0.000	-0.024	0.430	2.651	1.880	1.885	1.885	1.904	1.899	1.885
-0.005	0.015	0.005	0.005	0.000	-0.015	0.435	2.686	1.875	1.885	1.885	1.904	1.899	1.890
0.010	0.005	0.010	0.000	0.005	-0.029	0.430	2.642	1.890	1.885	1.890	1.904	1.899	1.890
0.005	-0.005	0.005	0.005	0.010	-0.049	0.439	2.681	1.885	1.880	1.885	1.904	1.899	1.890
-0.005	0.000	0.000	0.005	0.005	-0.049	0.430	2.710	1.880	1.880	1.885	1.904	1.899	1.890
0.005	-0.010	0.005	0.000	0.010	-0.049	0.435	2.676	1.880	1.875	1.880	1.899	1.899	1.890
0.000	-0.005	0.010	0.000	0.010	-0.059	0.430	2.651	1.875	1.875	1.875	1.899	1.895	1.890
0.000	0.000	0.000	0.005	0.015	-0.054	0.439	2.700	1.880	1.880	1.875	1.899	1.895	1.890
0.000	0.005	0.005	0.005	0.005	-0.073	0.439	2.710	1.880	1.875	1.875	1.895	1.895	1.890
0.000	0.005	0.005	0.000	0.005	-0.005	0.444	2.700	1.880	1.875	1.875	1.895	1.890	1.904
0.000	0.010	0.005	0.000	0.005	0.020	0.430	2.690	1.880	1.875	1.875	1.895	1.890	1.904
0.000	0.000	0.005	0.000	-0.005	0.054	0.435	2.700	1.885	1.875	1.875	1.895	1.890	1.909
-0.005	0.000	-0.005	0.000	0.000	0.059	0.435	2.686	1.885	1.880	1.875	1.890	1.890	1.904
0.015	0.010	-0.005	0.005	0.000	0.063	0.444	2.686	1.890	1.880	1.875	1.890	1.890	1.904
-0.005	0.000	0.000	0.000	0.000	0.059	0.435	2.700	1.885	1.880	1.880	1.895	1.890	1.899
0.000	0.005	0.000	0.000	-0.005	0.049	0.439	2.686	1.895	1.885	1.880	1.895	1.890	1.895
0.005	0.010	0.005	0.005	0.000	0.034	0.439	2.686	1.890	1.890	1.885	1.899	1.890	1.890
0.005	0.000	0.000	0.000	0.000	0.024	0.439	2.695	1.890	1.885	1.885	1.899	1.890	1.885
-0.005	0.005	0.000	0.010	0.005	0.015	0.435	2.686	1.885	1.885	1.885	1.904	1.895	1.885
0.000	-0.005	0.005	0.010	0.005	0.010	0.439	2.676	1.885	1.885	1.885	1.899	1.899	1.890
-0.005	-0.005	0.005	0.010	0.005	-0.005	0.439	2.705	1.885	1.880	1.885	1.904	1.895	1.885
0.010	-0.010	-0.005	0.015	0.010	-0.005	0.430	2.705	1.890	1.880	1.885	1.904	1.899	1.890
0.010	0.005	0.005	0.005	0.000	-0.010	0.439	2.695	1.885	1.890	1.885	1.899	1.895	1.885
0.005	0.010	0.005	0.010	0.005	-0.015	0.439	2.695	1.880	1.885	1.885	1.899	1.895	1.890
0.005	0.000	0.000	-0.005	0.010	-0.024	0.435	2.686	1.880	1.880	1.880	1.899	1.895	1.890
-0.005	-0.005	0.005	-0.005	0.005	-0.015	0.430	2.700	1.880	1.875	1.880	1.895	1.890	1.885
0.000	0.005	0.005	-0.005	0.000	-0.029	0.430	2.671	1.875	1.880	1.880	1.895	1.890	1.890
0.005	0.000	0.005	0.000	0.005	-0.015	0.430	2.686	1.880	1.875	1.875	1.895	1.890	1.890
0.005	0.000	0.005	0.000	0.005	-0.020	0.435	2.690	1.880	1.875	1.875	1.895	1.890	1.890
0.000	-0.005	0.005	0.000	0.005	-0.020	0.430	2.700	1.885	1.875	1.875	1.895	1.890	1.885
0.005	0.000	0.000	0.005	0.000	-0.044	0.439	2.676	1.880	1.880	1.875	1.895	1.890	1.880
0.010	0.005	-0.005	0.000	0.005	-0.029	0.430	2.744	1.885	1.880	1.875	1.895	1.890	1.890
0.005	0.010	0.000	-0.005	0.005	-0.054	0.439	2.661	1.885	1.880	1.875	1.895	1.890	1.880
0.000	0.005	0.005	0.000	-0.005	-0.020	0.435	2.666	1.885	1.880	1.880	1.899	1.890	1.895
0.005	-0.005	-0.005	0.000	-0.005	-0.020	0.444	2.778	1.890	1.885	1.880	1.895	1.890	1.895
0.005	0.005	-0.005	0.005	-0.005	-0.005	0.435	2.686	1.885	1.885	1.880	1.899	1.895	1.899
0.005	0.000	-0.005	0.005	-0.005	0.024	0.439	2.666	1.880	1.885	1.880	1.904	1.899	1.904
0.000	-0.010	0.000	0.005	0.005	0.039	0.435	2.739	1.890	1.880	1.880	1.899	1.899	1.904
-0.005	-0.015	0.000	0.005	0.005	0.054	0.430	2.739	1.895	1.880	1.880	1.899	1.899	1.909
-0.005	0.000	0.005	0.005	0.000	0.044	0.439	2.700	1.890	1.885	1.885	1.895	1.895	1.899
0.000	0.015	0.005	0.000	0.005	0.010	0.439	2.642	1.885	1.890	1.880	1.895	1.890	1.885
-0.005	0.010	0.000	0.000	0.010	0.044	0.435	2.666	1.880	1.880	1.880	1.895	1.895	1.899
-0.010	0.005	0.000	0.000	0.005	0.034	0.435	2.734	1.885	1.880	1.880	1.899	1.890	1.895
-0.005	0.010	0.005	0.000	0.005	0.000	0.435	2.700	1.885	1.880	1.880	1.895	1.890	1.880
0.000	0.010	0.005	0.005	0.000	0.024	0.439	2.754	1.890	1.880	1.880	1.899	1.890	1.885
0.010	-0.010	0.000	0.005	0.000	0.000	0.435	2.666	1.885	1.875	1.875	1.895	1.890	1.885
0.000	-0.005	-0.005	0.005	0.000	0.020	0.439	2.646	1.880	1.880	1.875	1.895	1.890	1.890
0.000	-0.010	0.005	0.005	0.000	0.024	0.430	2.710	1.880	1.875	1.880	1.895	1.890	1.890
0.000	0.000	0.005	0.005	0.000	0.020	0.430	2.690	1.885	1.880	1.880	1.895	1.895	1.890
0.000	-0.010	0.000	0.005	0.005	0.024	0.435	2.700	1.885	1.880	1.880	1.899	1.895	1.895
0.000	0.000	0.005	0.005	0.000	0.005	0.435	2.710	1.890	1.890	1.880	1.899	1.895	1.890
-0.005	0.024	0.000	0.005	0.000	-0.005	0.439	2.700	1.890	1.895	1.885	1.899	1.895	1.890
0.000	0.020	0.005	0.000	0.000	-0.010	0.430	2.715	1.895	1.890	1.885	1.904	1.895	1.890
0.000	0.005	0.000	0.000	0.005	-0.010	0.430	2.695	1.890	1.885	1.885	1.904	1.899	1.890
0.005	0.005	0.005	0.010	0.005	-0.010	0.435	2.690	1.885	1.885	1.885	1.904	1.899	1.895
0.000	0.000	0.000	0.005	0.005	-0.039	0.425	2.681	1.880	1.880	1.885	1.904	1.895	1.890
-0.005	0.005	0.000	0.005	0.010	-0.005	0.435	2.700	1.880	1.880	1.880	1.899	1.895	1.895
-0.005	0.000	0.005	0.000	0.000	-0.010	0.430	2.710	1.885	1.880	1.880	1.899	1.895	1.895
0.000	0.010	0.000	0.005	0.005	-0.015	0.425	2.676	1.875	1.880	1.875	1.895	1.895	1.890
-0.005	0.000	0.000	0.005	0.010	-0.010	0.435	2.710	1.880	1.875	1.875	1.895	1.895	1.890
-0.015	-0.005	0.005	0.000	0.005	-0.010	0.435	2.710	1.880	1.875	1.875	1.895	1.890	1.890
0.000	-0.005	0.005	0.000	0.000	-0.015	0.435	2.690	1.885	1.875	1.875	1.895	1.890	1.890
0.005	-0.005	0.000	0.005	0.000	-0.039	0.430	2.690	1.885	1.880	1.875	1.895	1.885	1.885
0.000	-0.005	0.005	0.000	0.000	-0.015	0.435	2.715	1.885	1.875	1.875	1.895	1.890	1.885
0.015	-0.005	0.005	0.005	-0.005	0.005	0.435	2.705	1.890	1.885	1.880	1.895	1.890	1.895
0.005	-0.015	0.000	0.005	0.000	0.015	0.444	2.710	1.885	1.880	1.880	1.899	1.890	1.895
0.000	-0.005	0.000	0.000	-0.005	0.020	0.435	2.690	1.885	1.885	1.880	1.899	1.895	1.895
0.010	0.000	0.000	0.000	-0.005	0.020	0.435	2.686	1.890	1.890	1.885	1.899	1.895	1.899
0.000	-0.005	0.000	0.000	-0.005	0.068	0.435	2.700	1.890	1.890	1.885	1.899	1.899	1.914
0.015	0.000	-0.005	0.005	0.000	0.068	0.430	2.690	1.890	1.890	1.885	1.899	1.899	1.909
0.005	0.029	0.000	0.005	0.000	0.029	0.435	2.681	1.885	1.895	1.890	1.904	1.895	1.895
0.005	0.020	0.000	-0.005	0.000	-0.010	0.439	2.749	1.895	1.890	1.890	1.904	1.895	1.885
0.000	0.005	0.005	-0.005	0.005	-0.005	0.430	2.700	1.880	1.880	1.880	1.899	1.895	1.885
0.010	0.000	0.000	0.000	0.000	-0.020	0.444	2.656	1.880	1.880	1.880	1.899	1.895	1.885
0.000	0.005	0.000	-0.005	0.000	-0.020	0.430	2.783	1.890	1.880	1.880	1.899	1.895	1.885
0.010	0.010	0.000	-0.005	0.010	-0.044	0.435	2.729	1.880	1.880	1.880	1.899	1.895	1.880
-0.005	0.005	0.000	0.000	0.000	-0.029	0.430	2.656	1.870	1.875	1.880	1.895	1.890	1.885
-0.005	-0.005	0.005	-0.005	0.000	-0.015	0.439	2.744	1.880	1.875	1.880	1.895	1.890	1.890
-0.005	0.000	0.005	-0.005	0.000	0.000	0.439	2.734	1.885	1.875	1.875	1.895	1.890	1.895
0.000	0.005	0.000	0.000	0.000	0.005	0.439	2.700	1.890	1.885	1.875	1.895	1.895	1.895
0.000	0.000	0.000	0.000	-0.005	0.005	0.435	2.642	1.880	1.880	1.875	1.895	1.890	1.895
0.005	-0.005	0.005	0.000	0.000	0.024	0.435	2.666	1.880	1.880	1.880	1.895	1.895	1.899
0.005	0.005	0.000	0.000	-0.010	0.000	0.439	2.739	1.890	1.885	1.880	1.899	1.890	1.890
-0.010	0.010	0.005	0.000	0.000	0.029	0.439	2.705	1.890	1.885	1.885	1.899	1.895	1.899
0.000	0.005	0.000	0.000	0.000	0.020	0.435	2.720	1.895	1.885	1.885	1.899	1.895	1.899
0.000	0.000	0.000	-0.005	-0.005	0.010	0.430	2.661	1.890	1.885	1.885	1.899	1.895	1.895
-0.005	0.000	0.005	0.000	0.000	0.005	0.439	2.646	1.880	1.880	1.885	1.904	1.895	1.890
-0.010	0.005	0.005	0.000	0.000	-0.005	0.439	2.705	1.890	1.885	1.890	1.904	1.899	1.895
0.000	0.005	0.000	-0.005	-0.005	-0.005	0.430	2.690	1.890	1.885	1.885	1.904	1.899	1.895
0.000	0.005	0.000	-0.005	0.005	-0.010	0.439	2.710	1.885	1.880	1.880	1.904	1.899	1.895
0.005	0.005	0.000	0.005	0.010	-0.010	0.435	2.690	1.885	1.880	1.880	1.899	1.895	1.890
0.015	0.000	0.005	0.010	0.005	0.000	0.435	2.695	1.890	1.880	1.880	1.904	1.899	1.895
0.000	-0.005	0.005	0.015	0.010	-0.005	0.439	2.690	1.880	1.875	1.875	1.899	1.895	1.890
0.000	0.005	0.000	0.005	0.005	-0.020	0.435	2.690	1.880	1.875	1.875	1.895	1.895	1.890
-0.010	-0.005	0.000	0.005	0.005	-0.010	0.439	2.686	1.875	1.870	1.875	1.895	1.890	1.890
0.010	0.005	0.000	0.010	0.005	0.005	0.430	2.686	1.885	1.880	1.875	1.895	1.895	1.895
0.000	0.000	0.000	0.015	0.015	0.005	0.444	2.686	1.880	1.875	1.875	1.895	1.895	1.895
-0.005	0.000	0.005	0.005	0.015	0.010	0.430	2.710	1.885	1.880	1.880	1.895	1.895	1.895
0.010	0.000	0.000	0.010	0.020	0.005	0.439	2.686	1.885	1.885	1.880	1.895	1.895	1.895
0.010	-0.010	0.000	0.010	0.024	-0.015	0.430	2.700	1.890	1.880	1.880	1.899	1.899	1.890
0.005	-0.015	0.000	0.005	0.020	0.010	0.435	2.705	1.890	1.885	1.880	1.899	1.899	1.899
0.010	-0.005	0.005	0.005	0.020	-0.005	0.430	2.715	1.895	1.890	1.885	1.899	1.895	1.895
0.005	0.005	0.000	0.005	0.015	0.010	0.439	2.690	1.890	1.890	1.885	1.899	1.895	1.899
0.005	0.000	0.000	0.005	0.024	-0.005	0.435	2.705	1.890	1.890	1.885	1.899	1.895	1.890
0.005	0.005	0.000	0.005	0.015	0.015	0.439	2.690	1.890	1.890	1.890	1.899	1.895	1.899
-0.005	-0.005	0.005	0.005	0.015	0.034	0.435	2.686	1.885	1.885	1.885	1.904	1.899	1.904
0.005	-0.005	0.005	0.000	0.010	0.044	0.435	2.690	1.890	1.885	1.885	1.899	1.895	1.904
0.005	0.000	0.000	0.010	0.010	0.034	0.435	2.681	1.885	1.885	1.880	1.899	1.895	1.899
0.010	0.000	0.005	0.010	0.015	0.029	0.430	2.676	1.885	1.880	1.885	1.899	1.895	1.895
0.005	0.000	0.000	0.010	0.005	0.029	0.439	2.686	1.880	1.880	1.880	1.895	1.890	1.895
0.000	-0.005	0.000	0.005	0.005	0.029	0.435	2.627	1.870	1.875	1.875	1.895	1.890	1.890
0.010	0.000	0.005	-0.005	0.005	0.020	0.430	2.754	1.880	1.875	1.875	1.895	1.890	1.890
0.005	0.000	0.005	0.005	0.000	0.005	0.435	2.798	1.895	1.880	1.875	1.895	1.885	1.880
0.005	0.000	0.000	0.005	0.000	0.005	0.435	2.666	1.890	1.885	1.875	1.895	1.890	1.880
0.005	0.010	-0.005	0.010	-0.005	-0.005	0.439	2.793	1.895	1.885	1.880	1.895	1.890	1.885
0.005	0.010	0.000	0.010	-0.015	-0.005	0.439	2.739	1.899	1.890	1.885	1.899	1.890	1.885
0.010	0.005	0.005	0.000	-0.010	-0.015	0.435	2.754	1.899	1.895	1.885	1.895	1.890	1.885
0.005	0.005	0.000	0.000	-0.005	-0.024	0.435	2.734	1.899	1.895	1.890	1.899	1.895	1.885
-0.010	0.005	0.000	-0.005	-0.005	-0.010	0.435	2.637	1.904	1.895	1.895	1.904	1.895	1.895
0.000	-0.005	0.000	0.000	-0.005	-0.010	0.435	2.715	1.904	1.899	1.895	1.909	1.899	1.895
-0.005	-0.005	0.000	0.000	-0.015	-0.024	0.430	2.632	1.885	1.895	1.895	1.909	1.899	1.890
0.000	-0.005	0.000	0.000	-0.015	0.000	0.439	2.695	1.890	1.890	1.890	1.909	1.899	1.895
-0.010	0.005	0.005	-0.005	-0.010	0.015	0.430	2.749	1.890	1.890	1.890	1.904	1.899	1.899
0.000	0.010	0.000	0.000	-0.010	0.015	0.439	2.700	1.890	1.890	1.890	1.909	1.899	1.899
0.000	-0.005	0.000	-0.005	-0.010	0.034	0.435	2.632	1.890	1.885	1.885	1.904	1.899	1.904
0.000	-0.005	0.005	0.000	-0.010	0.029	0.439	2.656	1.885	1.885	1.885	1.904	1.899	1.899
-0.005	-0.010	0.000	0.005	-0.010	0.015	0.435	2.651	1.875	1.875	1.880	1.904	1.899	1.895
0.000	0.015	0.000	0.005	-0.010	0.005	0.444	2.705	1.885	1.885	1.880	1.904	1.899	1.890
0.000	0.010	0.005	-0.005	-0.010	-0.015	0.439	2.695	1.880	1.880	1.880	1.899	1.895	1.885
0.000	-0.005	0.005	0.000	-0.005	-0.015	0.439	2.705	1.880	1.875	1.880	1.899	1.895	1.890
-0.005	-0.005	0.005	0.000	-0.010	-0.034	0.430	2.695	1.885	1.880	1.880	1.899	1.895	1.885
0.005	0.000	0.005	0.005	0.000	-0.020	0.444	2.700	1.890	1.885	1.880	1.899	1.899	1.895
0.000	0.000	0.005	0.000	-0.005	-0.015	0.425	2.705	1.890	1.885	1.880	1.899	1.895	1.899
0.000	0.010	0.010	0.005	0.000	-0.015	0.444	2.690	1.890	1.885	1.885	1.899	1.899	1.895
0.010	0.000	0.005	-0.005	-0.005	-0.010	0.430	2.700	1.895	1.890	1.885	1.899	1.899	1.895
0.010	0.000	-0.005	0.005	-0.010	0.000	0.439	2.681	1.895	1.890	1.885	1.904	1.899	1.904
-0.005	-0.005	0.005	0.000	0.000	0.029	0.435	2.690	1.885	1.890	1.885	1.904	1.899	1.904
0.000	-0.005	0.005	-0.005	0.005	0.024	0.444	2.700	1.890	1.885	1.885	1.904	1.899	1.904
-0.005	-0.005	0.000	-0.005	0.005	0.029	0.430	2.690	1.885	1.890	1.885	1.904	1.899	1.904
0.000	0.010	0.000	0.005	0.005	-0.005	0.444	2.700	1.890	1.890	1.880	1.899	1.899	1.890
-0.015	0.000	0.000	0.000	0.005	0.015	0.435	2.686	1.885	1.885	1.885	1.899	1.899	1.895
0.000	0.015	0.000	0.005	0.010	-0.010	0.444	2.710	1.885	1.885	1.880	1.899	1.899	1.895
0.000	-0.005	0.000	0.005	0.010	-0.015	0.430	2.695	1.880	1.875	1.880	1.899	1.895	1.890
0.000	0.000	-0.005	0.005	0.005	-0.010	0.435	2.710	1.890	1.880	1.880	1.899	1.895	1.890
0.000	0.005	0.000	0.005	0.005	-0.005	0.435	2.700	1.885	1.880	1.880	1.895	1.895	1.890
0.000	0.010	-0.005	0.000	0.005	-0.005	0.444	2.700	1.885	1.885	1.880	1.895	1.895	1.890
0.005	0.000	0.005	0.000	0.000	-0.020	0.435	2.686	1.885	1.880	1.880	1.899	1.890	1.890
0.015	0.005	0.005	-0.005	0.005	0.005	0.435	2.686	1.885	1.885	1.885	1.899	1.895	1.895
0.010	0.000	0.000	0.000	0.000	-0.020	0.435	2.705	1.890	1.890	1.885	1.899	1.895	1.890
-0.005	0.000	0.000	0.000	0.000	0.000	0.430	2.695	1.885	1.885	1.885	1.899	1.890	1.895
0.005	0.010	0.000	0.000	0.000	0.020	0.439	2.632	1.885	1.885	1.885	1.904	1.895	1.895
0.005	0.000	0.000	0.000	0.000	0.020	0.435	2.744	1.895	1.890	1.885	1.904	1.899	1.904
0.000	-0.005	0.000	0.000	0.000	0.005	0.439	2.793	1.885	1.885	1.885	1.899	1.899	1.895
0.000	0.000	0.005	-0.005	0.000	0.000	0.430	2.661	1.885	1.885	1.885	1.904	1.899	1.895
0.005	0.000	0.005	0.000	0.005	0.005	0.444	2.778	1.895	1.890	1.890	1.904	1.899	1.899
-0.010	-0.005	0.005	0.000	0.010	-0.005	0.439	2.734	1.890	1.885	1.885	1.899	1.899	1.895
-0.005	0.005	0.000	0.005	0.005	-0.005	0.439	2.661	1.890	1.890	1.885	1.904	1.899	1.899
-0.005	0.005	0.000	0.005	0.015	-0.029	0.430	2.744	1.895	1.885	1.880	1.904	1.899	1.890
-0.005	0.000	0.005	0.005	0.010	0.000	0.439	2.734	1.895	1.885	1.880	1.899	1.899	1.895
-0.005	0.000	0.005	0.005	0.005	-0.005	0.439	2.710	1.895	1.885	1.880	1.899	1.895	1.895
-0.005	0.005	0.000	0.005	0.010	-0.005	0.435	2.642	1.880	1.885	1.880	1.899	1.895	1.890
0.000	0.000	0.005	0.005	0.010	0.000	0.435	2.686	1.885	1.885	1.880	1.899	1.895	1.895
0.000	0.000	-0.005	0.005	0.000	-0.005	0.435	2.749	1.890	1.885	1.880	1.899	1.895	1.895
0.010	0.005	0.005	0.010	-0.005	0.000	0.430	2.695	1.890	1.885	1.885	1.899	1.895	1.895
0.015	-0.005	0.000	0.005	0.000	0.010	0.435	2.725	1.890	1.885	1.885	1.899	1.895	1.895
0.005	0.000	0.005	0.000	0.000	0.010	0.430	2.661	1.890	1.885	1.880	1.904	1.895	1.895
0.000	-0.005	0.005	0.000	-0.005	0.005	0.435	2.695	1.885	1.885	1.885	1.904	1.899	1.895
0.010	0.000	0.005	0.000	-0.005	0.000	0.435	2.700	1.890	1.890	1.885	1.899	1.899	1.895
0.005	0.010	0.005	0.005	0.000	-0.010	0.439	2.695	1.890	1.890	1.890	1.904	1.899	1.890
0.010	0.010	0.005	0.005	0.005	-0.010	0.435	2.705	1.895	1.890	1.890	1.909	1.899	1.899
0.005	-0.005	0.005	0.005	0.005	-0.015	0.435	2.705	1.890	1.885	1.890	1.909	1.899	1.895
0.000	0.005	0.005	0.005	0.000	0.015	0.430	2.695	1.890	1.890	1.885	1.904	1.904	1.899
0.000	0.000	0.005	0.000	0.000	0.034	0.430	2.705	1.890	1.885	1.885	1.904	1.904	1.909
-0.005	0.000	-0.005	0.005	0.010	0.039	0.425	2.686	1.885	1.885	1.885	1.904	1.904	1.909
-0.005	0.005	0.005	0.000	0.010	0.034	0.439	2.710	1.890	1.885	1.880	1.899	1.899	1.899
-0.005	0.015	0.000	0.005	0.010	0.024	0.435	2.686	1.885	1.885	1.880	1.899	1.899	1.895
0.000	0.000	0.000	0.005	0.005	0.000	0.439	2.690	1.885	1.880	1.880	1.899	1.895	1.890
0.005	0.000	0.005	0.000	0.000	0.010	0.435	2.705	1.890	1.880	1.880	1.899	1.890	1.890
-0.005	0.005	0.005	0.005	0.000	-0.010	0.430	2.690	1.885	1.885	1.880	1.899	1.895	1.885
0.005	0.000	0.000	0.000	-0.005	-0.005	0.435	2.700	1.885	1.885	1.880	1.895	1.890	1.890
0.005	0.005	0.000	0.000	0.000	-0.024	0.439	2.710	1.895	1.885	1.880	1.899	1.890	1.880
0.010	-0.010	0.000	0.000	0.000	0.005	0.439	2.700	1.890	1.885	1.885	1.899	1.895	1.895
0.015	0.000	0.000	0.000	0.000	-0.010	0.425	2.690	1.890	1.890	1.885	1.899	1.895	1.890
0.005	-0.005	0.005	-0.010	-0.005	-0.039	0.430	2.705	1.895	1.885	1.885	1.904	1.895	1.885
0.015	-0.015	0.005	-0.005	-0.005	-0.024	0.430	2.700	1.895	1.890	1.885	1.899	1.895	1.895
0.005	-0.010	0.000	0.000	0.005	-0.024	0.444	2.695	1.890	1.885	1.885	1.904	1.899	1.895
0.000	-0.005	0.000	0.000	0.005	-0.020	0.435	2.700	1.890	1.885	1.885	1.909	1.899	1.895
0.000	0.015	0.000	0.005	0.005	-0.005	0.435	2.695	1.890	1.895	1.890	1.909	1.904	1.904
0.005	0.015	0.005	0.010	0.005	0.020	0.439	2.681	1.890	1.895	1.890	1.909	1.904	1.909
0.000	0.005	0.000	0.005	0.010	0.029	0.435	2.690	1.885	1.885	1.885	1.904	1.904	1.909
0.005	0.000	0.000	0.005	0.010	0.044	0.435	2.676	1.885	1.880	1.885	1.904	1.899	1.909
0.000	0.005	0.000	0.000	0.005	0.034	0.435	2.749	1.885	1.880	1.880	1.899	1.899	1.899
-0.005	0.000	0.000	0.000	0.005	0.029	0.435	2.788	1.895	1.885	1.880	1.895	1.895	1.895
0.005	0.000	0.005	0.000	0.000	0.024	0.435	2.661	1.890	1.880	1.880	1.899	1.895	1.899
0.010	-0.005	0.000	0.005	0.005	0.000	0.435	2.783	1.899	1.885	1.880	1.899	1.895	1.885
0.005	0.005	0.005	0.005	0.005	0.015	0.435	2.729	1.895	1.885	1.880	1.899	1.895	1.895
-0.010	0.005	0.000	0.000	0.005	0.000	0.425	2.661	1.885	1.885	1.880	1.899	1.895	1.890
0.005	-0.010	0.000	0.005	0.005	0.000	0.435	2.627	1.904	1.890	1.885	1.899	1.895	1.890
0.000	-0.015	0.000	0.000	-0.005	-0.005	0.444	2.651	1.895	1.890	1.885	1.904	1.895	1.890
0.000	-0.005	-0.005	0.005	-0.005	-0.015	0.439	2.720	1.890	1.890	1.885	1.904	1.899	1.890
0.000	0.000	0.005	0.005	0.005	0.000	0.439	2.754	1.899	1.899	1.890	1.904	1.904	1.899
0.005	0.020	0.010	0.005	-0.005	-0.005	0.435	2.671	1.899	1.899	1.895	1.909	1.899	1.899
0.005	0.015	0.010	0.005	0.005	0.000	0.435	2.661	1.890	1.899	1.899	1.909	1.904	1.899
0.000	0.005	0.000	0.005	0.000	0.005	0.444	2.695	1.890	1.895	1.895	1.909	1.904	1.904
0.005	0.015	0.005	-0.005	0.000	0.015	0.439	2.637	1.880	1.890	1.895	1.909	1.904	1.904
-0.005	0.005	0.005	0.005	0.005	-0.005	0.435	2.676	1.880	1.885	1.890	1.909	1.904	1.899
-0.005	-0.005	0.000	0.000	0.005	0.005	0.435	2.749	1.890	1.880	1.885	1.909	1.904	1.899
0.005	0.005	0.000	-0.005	0.010	-0.005	0.430	2.700	1.890	1.885	1.885	1.904	1.899	1.899
0.000	-0.005	0.000	0.005	0.005	0.000	0.435	2.690	1.885	1.880	1.880	1.904	1.899	1.895
-0.005	0.005	0.000	0.000	0.000	-0.015	0.435	2.710	1.885	1.885	1.880	1.904	1.899	1.899
0.005	0.000	-0.005	0.005	0.005	-0.005	0.435	2.695	1.885	1.880	1.875	1.899	1.899	1.899
-0.005	0.000	-0.005	0.000	0.005	-0.010	0.439	2.710	1.890	1.880	1.880	1.895	1.895	1.895
0.000	-0.005	0.000	0.005	0.005	-0.015	0.439	2.681	1.885	1.880	1.880	1.899	1.895	1.890
-0.010	-0.005	0.000	0.010	0.000	-0.010	0.435	2.686	1.880	1.880	1.880	1.899	1.895	1.895
0.000	0.010	0.010	0.005	0.005	-0.010	0.435	2.695	1.890	1.885	1.880	1.899	1.895	1.895
-0.005	0.005	0.005	0.005	-0.005	-0.015	0.435	2.686	1.885	1.885	1.885	1.904	1.895	1.895
0.000	0.005	0.005	0.000	0.000	-0.005	0.444	2.710	1.895	1.885	1.885	1.899	1.895	1.895
0.005	-0.010	0.005	-0.005	0.000	0.005	0.439	2.720	1.895	1.885	1.885	1.899	1.899	1.899
0.005	-0.020	0.005	0.000	-0.005	0.000	0.444	2.686	1.890	1.890	1.885	1.904	1.899	1.899
-0.005	0.000	0.000	0.000	0.000	0.020	0.430	2.690	1.895	1.890	1.885	1.904	1.899	1.904
-0.005	0.015	-0.005	0.000	0.000	0.029	0.439	2.690	1.895	1.895	1.890	1.904	1.899	1.904
0.005	0.010	-0.005	0.005	0.000	0.024	0.435	2.695	1.895	1.890	1.885	1.904	1.899	1.899
0.005	0.000	0.005	0.010	0.005	0.015	0.444	2.681	1.885	1.890	1.890	1.904	1.899	1.899
0.000	0.000	-0.005	0.000	0.010	0.020	0.430	2.700	1.890	1.885	1.885	1.904	1.899	1.899
-0.005	0.005	0.000	0.010	0.010	-0.020	0.435	2.686	1.885	1.885	1.885	1.904	1.899	1.890
0.015	0.005	0.000	0.000	0.000	0.005	0.430	2.681	1.885	1.885	1.880	1.899	1.895	1.895
0.010	0.005	0.005	-0.005	0.005	0.015	0.439	2.686	1.885	1.880	1.880	1.895	1.895	1.895
0.005	0.010	0.000	0.000	0.005	0.024	0.435	2.686	1.880	1.880	1.880	1.899	1.895	1.899
0.010	0.005	0.000	0.000	0.005	0.034	0.439	2.705	1.885	1.880	1.880	1.899	1.895	1.899
0.010	-0.005	0.005	0.010	0.000	0.015	0.439	2.700	1.890	1.880	1.880	1.899	1.895	1.885
0.015	0.000	0.000	0.005	-0.005	0.015	0.439	2.715	1.895	1.885	1.880	1.899	1.895	1.890
0.005	0.005	-0.005	0.015	-0.005	-0.010	0.435	2.778	1.890	1.885	1.880	1.904	1.895	1.890
0.015	0.005	-0.005	0.005	-0.005	-0.029	0.435	2.646	1.895	1.885	1.885	1.899	1.895	1.885
0.005	0.000	0.005	0.000	-0.005	-0.049	0.435	2.666	1.890	1.890	1.885	1.899	1.895	1.880
0.015	0.000	-0.005	0.000	-0.005	-0.015	0.439	2.803	1.904	1.890	1.885	1.904	1.899	1.899
0.005	0.005	0.005	0.000	0.000	-0.039	0.439	2.642	1.890	1.890	1.890	1.904	1.899	1.890
0.010	0.005	0.005	0.005	0.000	-0.044	0.430	2.656	1.885	1.890	1.890	1.904	1.899	1.890
0.005	-0.010	0.000	0.005	0.000	-0.063	0.439	2.734	1.890	1.885	1.885	1.909	1.899	1.890
0.005	-0.005	-0.005	0.000	0.000	-0.020	0.430	2.651	1.885	1.890	1.885	1.904	1.899	1.904
-0.005	0.005	0.000	0.000	0.005	0.000	0.435	2.720	1.885	1.890	1.885	1.904	1.899	1.909
0.000	0.000	0.000	-0.005	0.000	0.029	0.430	2.739	1.890	1.885	1.885	1.904	1.899	1.909
0.000	0.005	-0.005	0.000	0.000	0.049	0.439	2.686	1.885	1.885	1.885	1.899	1.895	1.914
-0.015	0.005	0.000	-0.005	0.005	0.063	0.439	2.642	1.880	1.880	1.880	1.899	1.899	1.914
-0.015	0.005	0.000	-0.005	0.005	0.073	0.430	2.686	1.880	1.875	1.880	1.899	1.895	1.909
-0.010	0.005	0.005	0.000	0.010	0.054	0.430	2.671	1.880	1.875	1.880	1.899	1.895	1.895
0.000	0.000	0.000	0.000	0.000	0.049	0.430	2.651	1.875	1.875	1.875	1.895	1.890	1.895
0.000	0.005	0.005	0.000	-0.005	0.039	0.439	2.642	1.875	1.875	1.875	1.895	1.890	1.890
0.000	0.010	0.005	-0.005	-0.005	0.034	0.439	2.710	1.880	1.880	1.880	1.899	1.890	1.890
0.000	0.005	0.005	0.000	-0.005	0.020	0.430	2.715	1.885	1.875	1.880	1.899	1.895	1.885
-0.015	0.010	0.000	0.010	0.005	0.010	0.435	2.705	1.885	1.885	1.880	1.899	1.895	1.890
-0.005	0.005	0.000	0.005	-0.005	-0.005	0.435	2.681	1.885	1.880	1.880	1.899	1.895	1.885
0.005	0.010	0.005	0.005	0.000	-0.034	0.439	2.700	1.895	1.885	1.880	1.899	1.895	1.880
0.005	0.010	0.000	0.000	0.005	-0.020	0.439	2.705	1.895	1.890	1.885	1.899	1.899	1.890
-0.010	0.005	0.000	0.000	0.005	-0.015	0.435	2.690	1.885	1.885	1.885	1.899	1.899	1.895
0.005	0.000	0.000	0.000	0.000	-0.015	0.430	2.681	1.890	1.885	1.880	1.899	1.895	1.895
0.010	0.000	0.000	0.000	0.005	-0.020	0.435	2.690	1.890	1.885	1.880	1.899	1.895	1.890
0.010	0.000	0.005	0.000	0.005	-0.020	0.435	2.705	1.890	1.885	1.885	1.899	1.895	1.890
0.005	0.000	0.000	0.000	0.010	-0.020	0.444	2.700	1.890	1.885	1.880	1.899	1.895	1.890
0.010	0.000	0.000	0.000	0.010	-0.049	0.435	2.690	1.885	1.880	1.875	1.899	1.895	1.885
0.015	0.000	0.005	0.005	0.010	-0.024	0.439	2.681	1.885	1.880	1.880	1.895	1.890	1.890
0.005	-0.005	0.000	0.005	0.005	-0.020	0.435	2.700	1.880	1.880	1.875	1.895	1.890	1.890
-0.005	-0.005	0.005	0.005	0.005	-0.010	0.439	2.710	1.875	1.875	1.875	1.895	1.890	1.890
-0.015	0.005	0.000	0.005	0.005	0.000	0.435	2.681	1.880	1.880	1.875	1.895	1.895	1.895
-0.024	0.000	0.005	0.005	0.000	0.015	0.435	2.705	1.880	1.880	1.875	1.895	1.890	1.899
-0.015	0.000	0.005	0.000	-0.005	0.005	0.430	2.690	1.885	1.880	1.875	1.895	1.890	1.895
-0.024	0.010	0.005	0.000	-0.005	0.024	0.435	2.690	1.885	1.885	1.875	1.895	1.890	1.895
-0.029	0.000	-0.005	-0.005	-0.005	0.039	0.430	2.681	1.880	1.880	1.875	1.895	1.895	1.899
-0.020	0.000	-0.010	0.000	-0.005	0.034	0.430	2.695	1.890	1.880	1.875	1.895	1.895	1.895
-0.005	0.000	-0.010	0.000	0.000	0.034	0.435	2.695	1.899	1.885	1.880	1.899	1.895	1.895
0.010	0.010	-0.010	0.005	0.005	0.024	0.435	2.690	1.899	1.895	1.885	1.899	1.895	1.895
0.020	0.005	-0.005	0.010	0.000	-0.015	0.439	2.686	1.890	1.890	1.885	1.899	1.895	1.880
0.034	0.015	0.000	0.000	0.005	-0.005	0.435	2.749	1.899	1.899	1.890	1.899	1.895	1.885
0.049	-0.005	0.010	0.005	0.000	-0.029	0.439	2.803	1.890	1.890	1.890	1.904	1.895	1.885
0.063	0.000	0.005	0.000	0.000	-0.049	0.435	2.661	1.885	1.890	1.885	1.904	1.895	1.875
0.059	-0.005	0.024	0.000	0.010	-0.034	0.444	2.778	1.890	1.885	1.890	1.904	1.895	1.890
0.039	0.010	0.020	0.005	0.000	0.000	0.435	2.744	1.890	1.890	1.890	1.904	1.899	1.899
0.024	0.000	0.024	0.000	0.005	0.010	0.439	2.666	1.880	1.880	1.885	1.904	1.899	1.899
0.015	0.000	0.024	0.005	0.005	0.015	0.435	2.734	1.880	1.880	1.885	1.904	1.895	1.895
-0.005	-0.005	0.010	0.000	0.005	0.020	0.439	2.729	1.875	1.880	1.875	1.899	1.895	1.899
-0.015	-0.005	0.010	0.000	0.000	0.039	0.435	2.695	1.880	1.875	1.875	1.895	1.895	1.904
-0.024	0.000	0.005	-0.005	0.000	0.020	0.439	2.646	1.875	1.880	1.875	1.895	1.895	1.899
-0.020	0.005	0.005	0.005	0.000	0.000	0.435	2.700	1.880	1.880	1.875	1.895	1.895	1.890
-0.034	0.000	0.000	0.000	0.000	0.000	0.444	2.729	1.885	1.880	1.875	1.895	1.895	1.895
-0.015	-0.005	-0.005	0.005	0.000	-0.005	0.430	2.695	1.890	1.875	1.875	1.895	1.895	1.890
-0.010	-0.010	-0.005	0.000	0.000	-0.010	0.439	2.651	1.885	1.880	1.880	1.895	1.895	1.890
-0.010	0.005	0.000	0.000	0.005	0.000	0.444	2.666	1.885	1.890	1.880	1.899	1.895	1.895
-0.005	0.000	-0.005	0.000	-0.005	0.000	0.435	2.656	1.880	1.880	1.880	1.895	1.895	1.890
-0.010	-0.005	0.000	0.005	0.000	0.000	0.435	2.715	1.885	1.880	1.880	1.899	1.895	1.890
0.005	-0.005	-0.005	0.000	0.000	0.024	0.439	2.686	1.885	1.885	1.880	1.899	1.895	1.899
-0.005	0.005	-0.015	0.005	0.000	0.000	0.435	2.710	1.885	1.885	1.875	1.895	1.895	1.890
0.000	0.000	-0.010	0.005	0.000	0.034	0.439	2.676	1.885	1.885	1.880	1.895	1.895	1.899
-0.020	0.005	-0.005	0.005	0.000	0.000	0.430	2.686	1.880	1.880	1.880	1.895	1.890	1.885
-0.010	0.010	-0.005	0.005	0.000	0.020	0.439	2.695	1.880	1.880	1.880	1.895	1.890	1.895
-0.010	0.005	-0.005	0.005	0.000	0.010	0.430	2.681	1.880	1.875	1.875	1.895	1.890	1.890
-0.005	0.020	0.000	0.015	0.005	-0.010	0.435	2.681	1.880	1.880	1.880	1.895	1.890	1.880
0.000	0.005	0.000	0.015	0.000	-0.034	0.435	2.681	1.880	1.875	1.875	1.895	1.890	1.880
0.005	0.005	0.005	0.010	0.000	-0.024	0.430	2.695	1.885	1.880	1.880	1.895	1.890	1.880
0.015	0.010	0.010	0.005	0.000	-0.029	0.439	2.715	1.890	1.880	1.880	1.895	1.890	1.885
0.000	0.000	0.020	-0.005	0.005	-0.029	0.439	2.690	1.885	1.880	1.880	1.899	1.895	1.885
0.000	0.000	0.015	-0.005	0.000	-0.020	0.430	2.695	1.885	1.880	1.880	1.895	1.895	1.890
0.005	-0.010	0.005	-0.005	0.005	-0.020	0.435	2.705	1.890	1.875	1.880	1.899	1.890	1.890
0.000	0.000	0.010	0.000	-0.005	0.005	0.435	2.705	1.890	1.880	1.880	1.899	1.899	1.899
-0.005	0.000	0.005	0.020	0.005	0.024	0.435	2.690	1.885	1.885	1.880	1.904	1.899	1.899
0.005	0.005	0.005	0.024	0.000	0.034	0.435	2.710	1.890	1.890	1.885	1.904	1.899	1.904
0.000	-0.005	0.005	0.015	-0.005	0.034	0.435	2.695	1.890	1.885	1.885	1.904	1.899	1.904
0.005	-0.005	0.000	0.005	0.000	0.024	0.439	2.705	1.890	1.885	1.880	1.899	1.895	1.899
0.000	0.000	-0.005	0.005	0.000	0.020	0.435	2.686	1.885	1.890	1.880	1.895	1.895	1.895
0.010	0.000	-0.005	0.000	0.000	0.029	0.439	2.681	1.885	1.885	1.875	1.895	1.895	1.895
0.010	0.015	0.000	0.000	0.000	0.029	0.430	2.695	1.890	1.885	1.880	1.895	1.890	1.895
0.000	0.005	-0.005	0.000	0.000	-0.010	0.439	2.695	1.880	1.880	1.880	1.895	1.890	1.880
0.000	0.005	0.000	0.005	0.000	0.000	0.435	2.622	1.875	1.875	1.880	1.895	1.890	1.885
0.000	0.005	-0.005	0.005	0.010	0.005	0.439	2.764	1.880	1.875	1.875	1.895	1.890	1.885
0.005	0.005	-0.005	0.000	0.005	0.000	0.430	2.793	1.890	1.880	1.875	1.895	1.890	1.885
0.000	0.015	0.000	0.005	0.000	0.005	0.439	2.671	1.885	1.885	1.880	1.899	1.890	1.890
0.005	0.005	-0.005	-0.005	-0.010	0.000	0.430	2.788	1.895	1.885	1.880	1.895	1.890	1.890
0.005	0.005	0.000	-0.005	-0.005	0.005	0.435	2.739	1.899	1.890	1.880	1.895	1.890	1.890
0.005	0.000	-0.005	-0.005	0.000	-0.020	0.430	2.754	1.904	1.895	1.885	1.899	1.890	1.885
0.005	-0.005	0.000	-0.005	0.000	0.005	0.435	2.749	1.904	1.895	1.890	1.904	1.895	1.895
0.010	-0.005	0.005	0.000	0.000	0.010	0.430	2.744	1.904	1.895	1.890	1.909	1.899	1.895
0.005	0.000	0.005	0.000	0.005	-0.020	0.439	2.700	1.899	1.899	1.895	1.909	1.899	1.890
0.000	-0.005	0.010	0.000	0.000	0.005	0.435	2.656	1.885	1.895	1.895	1.909	1.904	1.899
0.005	0.005	0.005	0.000	0.010	-0.005	0.435	2.690	1.885	1.895	1.890	1.909	1.904	1.895
0.005	-0.005	0.000	0.000	0.005	-0.010	0.435	2.739	1.890	1.890	1.890	1.909	1.904	1.895
0.005	0.000	0.005	-0.005	0.005	-0.005	0.430	2.705	1.885	1.885	1.890	1.904	1.904	1.899
0.000	0.005	0.000	0.000	0.010	-0.015	0.435	2.661	1.880	1.885	1.885	1.904	1.899	1.895
-0.005	0.005	0.000	-0.005	0.015	-0.005	0.435	2.671	1.880	1.880	1.885	1.904	1.904	1.899
-0.005	-0.005	0.005	0.000	0.000	-0.005	0.435	2.637	1.880	1.875	1.880	1.899	1.895	1.895
-0.005	0.005	0.000	-0.005	-0.005	-0.024	0.435	2.715	1.880	1.880	1.880	1.899	1.895	1.890
0.000	0.000	0.000	-0.005	-0.005	0.015	0.439	2.681	1.880	1.875	1.875	1.895	1.895	1.899
0.010	-0.005	-0.005	-0.005	0.000	0.015	0.430	2.705	1.890	1.885	1.880	1.899	1.895	1.899
0.005	0.000	0.000	-0.005	0.005	0.020	0.430	2.686	1.885	1.880	1.880	1.899	1.895	1.899
0.000	-0.005	0.005	0.000	0.005	0.024	0.435	2.695	1.890	1.880	1.880	1.899	1.895	1.899
0.005	-0.015	0.005	-0.005	0.005	0.005	0.439	2.700	1.890	1.880	1.880	1.899	1.895	1.890
0.010	-0.010	0.005	-0.005	0.005	0.005	0.430	2.690	1.890	1.885	1.885	1.899	1.899	1.895
0.005	0.005	0.000	-0.005	0.005	-0.024	0.444	2.705	1.895	1.890	1.885	1.899	1.895	1.890
0.000	0.020	0.005	0.005	0.005	-0.020	0.430	2.681	1.885	1.890	1.885	1.904	1.895	1.895
0.010	0.015	0.005	0.005	0.005	-0.005	0.439	2.705	1.890	1.890	1.890	1.909	1.899	1.899
0.005	0.000	0.000	0.000	0.005	-0.005	0.435	2.705	1.895	1.890	1.890	1.909	1.904	1.899
0.000	0.000	0.005	0.000	0.010	-0.005	0.444	2.690	1.885	1.885	1.885	1.904	1.899	1.895
0.000	-0.005	0.005	0.005	0.005	0.005	0.435	2.700	1.890	1.885	1.885	1.904	1.899	1.899
0.000	0.000	0.000	0.000	0.005	0.010	0.439	2.681	1.880	1.885	1.880	1.899	1.895	1.899
0.000	-0.005	0.000	-0.005	-0.005	0.010	0.430	2.700	1.880	1.880	1.880	1.899	1.895	1.895
0.005	0.010	0.000	0.000	0.000	-0.015	0.439	2.690	1.885	1.885	1.880	1.899	1.890	1.885
-0.005	0.010	0.000	0.005	0.010	0.000	0.430	2.700	1.880	1.875	1.875	1.895	1.895	1.895
-0.005	0.015	0.000	0.005	0.000	0.015	0.439	2.700	1.890	1.885	1.880	1.895	1.895	1.895
0.005	0.000	0.000	0.005	-0.005	0.005	0.425	2.686	1.885	1.875	1.875	1.895	1.890	1.890
0.005	0.005	0.000	0.000	-0.005	0.034	0.444	2.690	1.885	1.880	1.880	1.895	1.895	1.899
0.000	0.000	0.000	-0.005	0.000	0.039	0.430	2.690	1.890	1.880	1.880	1.899	1.895	1.899
-0.005	0.000	0.000	0.005	0.000	0.024	0.439	2.715	1.895	1.885	1.880	1.899	1.895	1.890
-0.005	0.010	-0.005	0.000	0.005	0.000	0.430	2.695	1.895	1.890	1.885	1.899	1.895	1.890
0.005	0.000	0.005	0.010	-0.005	-0.005	0.439	2.651	1.890	1.890	1.885	1.899	1.895	1.890
0.000	-0.005	0.000	0.010	0.000	-0.010	0.435	2.759	1.895	1.885	1.885	1.899	1.895	1.890
0.010	0.010	0.005	0.010	-0.005	-0.005	0.439	2.788	1.904	1.895	1.890	1.904	1.899	1.895
-0.005	-0.015	0.005	0.005	0.000	-0.005	0.435	2.656	1.895	1.890	1.890	1.904	1.899	1.890
-0.005	-0.010	0.000	0.005	-0.005	0.005	0.435	2.793	1.899	1.890	1.885	1.904	1.899	1.899
0.000	-0.010	0.005	0.005	0.010	0.005	0.439	2.734	1.904	1.895	1.890	1.904	1.899	1.899
0.000	0.005	0.000	0.005	0.000	-0.005	0.439	2.646	1.890	1.895	1.890	1.904	1.899	1.895
-0.005	0.020	0.000	0.005	0.015	0.000	0.435	2.637	1.880	1.890	1.890	1.904	1.904	1.899
0.005	0.010	0.000	0.005	0.010	0.000	0.430	2.642	1.875	1.880	1.885	1.904	1.899	1.899
0.000	0.000	0.000	0.005	0.005	-0.020	0.435	2.720	1.880	1.875	1.880	1.899	1.899	1.895
-0.005	0.010	-0.005	0.000	0.000	0.010	0.435	2.720	1.880	1.875	1.880	1.899	1.895	1.895
0.010	0.005	0.005	0.005	0.005	0.010	0.439	2.671	1.885	1.880	1.880	1.899	1.899	1.899
0.005	0.000	0.000	0.005	0.005	0.000	0.435	2.642	1.880	1.880	1.880	1.899	1.895	1.895
0.000	0.005	-0.005	0.000	0.005	0.000	0.439	2.695	1.875	1.875	1.875	1.895	1.895	1.890
0.005	-0.005	0.000	0.000	0.005	-0.020	0.430	2.734	1.870	1.875	1.880	1.899	1.895	1.890
0.000	0.005	0.000	0.000	0.000	-0.015	0.439	2.666	1.870	1.875	1.880	1.899	1.895	1.890
0.010	0.000	-0.005	0.005	-0.005	0.000	0.430	2.632	1.875	1.875	1.870	1.899	1.895	1.895
0.005	0.000	0.005	0.005	0.000	-0.015	0.435	2.700	1.875	1.875	1.880	1.899	1.895	1.895
0.000	0.010	0.005	0.000	0.005	-0.015	0.435	2.700	1.885	1.880	1.875	1.899	1.895	1.895
0.005	-0.010	-0.005	-0.005	0.000	-0.015	0.439	2.700	1.885	1.875	1.875	1.895	1.895	1.890
-0.010	0.000	-0.005	0.005	0.000	-0.020	0.430	2.681	1.880	1.880	1.875	1.895	1.895	1.895
0.000	0.005	-0.005	0.000	0.005	-0.015	0.439	2.700	1.885	1.880	1.875	1.895	1.895	1.895
0.000	0.000	0.000	0.000	0.010	0.000	0.430	2.690	1.885	1.880	1.880	1.895	1.895	1.895
0.000	0.000	0.000	0.005	0.000	0.000	0.435	2.681	1.885	1.880	1.875	1.895	1.890	1.890
0.010	-0.005	0.000	0.015	0.010	-0.005	0.439	2.695	1.880	1.880	1.880	1.895	1.890	1.895
0.000	-0.005	0.005	0.010	0.005	0.005	0.435	2.686	1.880	1.875	1.875	1.895	1.885	1.890
0.010	0.005	0.005	0.010	0.005	0.015	0.435	2.700	1.880	1.880	1.875	1.890	1.885	1.890
-0.005	0.005	0.005	0.010	0.005	0.010	0.439	2.690	1.875	1.875	1.875	1.890	1.885	1.890
-0.005	0.000	0.010	-0.005	0.005	0.020	0.435	2.690	1.880	1.875	1.875	1.890	1.885	1.890
0.005	0.000	0.010	-0.005	0.000	0.020	0.439	2.695	1.885	1.875	1.875	1.885	1.885	1.890
0.005	0.000	0.005	-0.005	0.005	0.010	0.444	2.705	1.885	1.880	1.875	1.890	1.885	1.890
0.005	0.010	0.000	0.000	-0.005	0.020	0.439	2.700	1.885	1.880	1.875	1.895	1.890	1.885
0.005	-0.005	-0.005	0.005	0.000	0.015	0.439	2.686	1.890	1.880	1.875	1.895	1.890	1.890
0.005	0.010	0.005	0.000	0.000	0.010	0.439	2.705	1.890	1.885	1.880	1.895	1.890	1.890
0.000	0.000	0.005	-0.005	-0.010	0.015	0.435	2.700	1.890	1.890	1.885	1.895	1.890	1.890
0.000	0.010	0.005	0.000	-0.005	0.010	0.430	2.695	1.890	1.890	1.885	1.899	1.895	1.890
-0.005	-0.005	0.000	-0.005	-0.005	0.000	0.430	2.695	1.890	1.880	1.880	1.899	1.895	1.885
0.000	0.000	0.000	0.005	0.000	0.010	0.435	2.690	1.895	1.885	1.885	1.899	1.895	1.890
-0.005	-0.010	0.000	0.000	0.000	0.005	0.435	2.676	1.890	1.885	1.885	1.899	1.895	1.890
0.005	-0.005	0.000	0.000	0.000	-0.015	0.430	2.690	1.885	1.885	1.880	1.899	1.895	1.890
0.000	0.000	-0.005	0.000	0.010	0.024	0.430	2.686	1.885	1.880	1.880	1.899	1.895	1.895
-0.005	-0.010	0.000	0.010	0.005	0.010	0.435	2.749	1.885	1.880	1.875	1.899	1.895	1.890
-0.005	-0.005	-0.005	0.010	0.010	0.010	0.435	2.788	1.895	1.885	1.880	1.899	1.895	1.895
0.000	0.000	-0.005	0.005	0.000	0.005	0.430	2.656	1.885	1.885	1.880	1.895	1.890	1.890
0.010	0.000	0.000	0.010	0.005	0.010	0.439	2.788	1.895	1.885	1.880	1.895	1.890	1.885
0.000	-0.005	0.000	0.010	0.000	0.010	0.435	2.734	1.895	1.885	1.880	1.899	1.890	1.890
-0.005	0.005	0.000	0.005	0.005	0.010	0.435	2.666	1.890	1.885	1.885	1.899	1.895	1.890
0.000	0.010	0.000	0.000	0.005	-0.020	0.425	2.637	1.885	1.890	1.885	1.899	1.890	1.890
0.005	0.005	0.000	0.000	0.000	0.005	0.439	2.759	1.890	1.885	1.885	1.899	1.895	1.890
0.010	-0.015	0.005	-0.005	0.000	0.010	0.435	2.720	1.895	1.885	1.885	1.899	1.895	1.895
0.010	-0.005	0.005	0.005	0.005	-0.010	0.439	2.734	1.895	1.890	1.890	1.904	1.899	1.890
0.000	-0.005	0.000	0.000	0.005	0.000	0.430	2.690	1.890	1.890	1.890	1.904	1.899	1.895
0.010	0.010	0.000	-0.005	0.000	-0.015	0.435	2.754	1.895	1.895	1.890	1.904	1.895	1.890
0.000	0.010	0.005	0.005	0.005	0.005	0.439	2.705	1.890	1.890	1.890	1.909	1.899	1.899
0.010	0.000	0.005	0.005	0.005	-0.015	0.439	2.710	1.885	1.890	1.890	1.909	1.904	1.895
0.010	0.015	0.000	0.000	0.005	0.000	0.435	2.651	1.880	1.885	1.890	1.904	1.904	1.899
-0.005	0.000	0.000	0.000	0.000	-0.005	0.435	2.632	1.875	1.875	1.880	1.899	1.899	1.895
-0.005	0.000	0.005	0.000	0.005	-0.015	0.430	2.705	1.875	1.880	1.885	1.904	1.899	1.890
0.005	0.010	0.005	-0.005	0.000	-0.010	0.439	2.690	1.875	1.875	1.875	1.895	1.899	1.895
0.000	0.000	0.000	-0.005	0.000	-0.029	0.435	2.705	1.875	1.875	1.875	1.895	1.890	1.885
0.000	0.029	0.005	0.000	0.005	0.000	0.435	2.690	1.880	1.880	1.875	1.895	1.895	1.895
-0.005	0.005	0.000	-0.005	0.005	0.000	0.439	2.690	1.875	1.875	1.875	1.895	1.890	1.895
-0.005	0.005	0.000	-0.005	0.005	0.029	0.439	2.710	1.875	1.870	1.870	1.895	1.890	1.904
-0.005	0.005	0.000	-0.005	0.000	0.020	0.439	2.695	1.890	1.875	1.875	1.895	1.890	1.899
-0.005	0.010	0.005	-0.005	0.005	0.024	0.435	2.700	1.890	1.880	1.875	1.895	1.890	1.895
0.000	0.005	0.005	0.000	0.000	0.039	0.439	2.690	1.895	1.880	1.875	1.895	1.890	1.899
0.005	0.000	0.000	0.000	0.000	0.029	0.444	2.686	1.890	1.885	1.880	1.895	1.890	1.895
0.005	0.010	0.000	0.005	-0.005	-0.020	0.439	2.681	1.890	1.890	1.880	1.899	1.890	1.885
0.005	0.010	0.005	0.010	0.005	0.000	0.435	2.690	1.890	1.890	1.885	1.899	1.895	1.890
-0.005	0.000	0.005	0.000	0.005	-0.015	0.444	2.710	1.895	1.885	1.885	1.899	1.895	1.885
-0.005	-0.005	0.010	0.005	0.005	-0.015	0.444	2.686	1.885	1.885	1.885	1.899	1.895	1.890
0.005	0.010	0.005	0.000	0.005	-0.015	0.439	2.700	1.890	1.890	1.880	1.899	1.895	1.890
0.000	0.000	0.005	-0.005	0.000	-0.015	0.439	2.686	1.885	1.885	1.885	1.899	1.895	1.890
0.000	-0.005	0.005	-0.010	0.010	-0.005	0.439	2.710	1.890	1.880	1.885	1.899	1.895	1.890
-0.005	0.000	0.010	-0.005	0.005	-0.020	0.430	2.690	1.880	1.880	1.880	1.895	1.895	1.890
0.005	0.005	-0.005	-0.010	0.010	-0.029	0.444	2.695	1.880	1.880	1.880	1.895	1.890	1.885
0.005	0.015	0.000	0.005	0.000	0.005	0.439	2.681	1.875	1.875	1.875	1.899	1.890	1.895
0.005	-0.005	0.000	0.010	0.000	0.010	0.439	2.681	1.875	1.875	1.875	1.895	1.890	1.895
0.010	0.000	0.000	0.010	0.005	0.054	0.435	2.690	1.880	1.880	1.875	1.899	1.895	1.909
0.005	0.000	0.000	0.010	0.005	0.063	0.435	2.700	1.885	1.875	1.875	1.895	1.890	1.904
-0.005	0.005	0.005	0.015	0.000	0.073	0.435	2.690	1.885	1.880	1.875	1.899	1.890	1.904
0.015	-0.005	0.005	0.010	-0.005	0.049	0.439	2.739	1.890	1.880	1.875	1.895	1.890	1.895
0.000	-0.005	0.000	0.010	-0.005	-0.005	0.435	2.793	1.904	1.885	1.880	1.895	1.890	1.880
0.005	0.000	0.005	0.000	0.000	-0.010	0.444	2.671	1.899	1.890	1.880	1.895	1.890	1.880
0.010	-0.005	0.000	-0.005	-0.005	-0.020	0.430	2.788	1.904	1.890	1.890	1.899	1.890	1.885
0.005	-0.005	-0.005	-0.005	0.000	-0.015	0.430	2.632	1.890	1.895	1.890	1.899	1.895	1.885
-0.005	0.000	0.000	-0.010	0.000	-0.020	0.435	2.759	1.895	1.895	1.890	1.899	1.895	1.885
0.005	0.005	-0.005	-0.010	0.005	-0.044	0.439	2.749	1.904	1.895	1.890	1.904	1.895	1.885
0.000	0.000	0.005	-0.005	0.010	-0.024	0.430	2.744	1.899	1.895	1.890	1.904	1.899	1.890
0.000	0.005	0.000	0.000	0.005	-0.010	0.430	2.695	1.890	1.895	1.895	1.909	1.899	1.895
0.010	0.010	0.000	0.010	0.005	-0.015	0.430	2.637	1.885	1.890	1.890	1.909	1.899	1.890
-0.005	0.010	0.000	0.010	0.005	0.005	0.435	2.671	1.875	1.885	1.885	1.904	1.899	1.899
-0.005	-0.005	0.005	0.010	0.005	0.000	0.439	2.725	1.880	1.875	1.885	1.904	1.899	1.899
0.000	-0.005	0.000	0.010	-0.005	0.000	0.430	2.686	1.875	1.875	1.880	1.899	1.895	1.895
0.000	-0.015	0.005	0.000	0.000	0.000	0.435	2.642	1.890	1.875	1.880	1.899	1.895	1.895
-0.005	-0.005	0.000	0.005	0.000	-0.015	0.430	2.666	1.890	1.880	1.875	1.899	1.895	1.890
-0.005	0.005	0.010	0.020	0.005	0.015	0.439	2.729	1.890	1.885	1.885	1.904	1.899	1.904
0.000	0.005	0.005	0.020	0.000	0.020	0.430	2.705	1.890	1.885	1.880	1.904	1.899	1.904
0.000	0.010	0.000	0.024	0.005	0.024	0.435	2.705	1.895	1.890	1.885	1.909	1.899	1.904
0.000	0.015	-0.005	0.029	0.000	0.010	0.430	2.710	1.899	1.895	1.885	1.904	1.899	1.899
0.000	0.000	0.000	0.034	0.000	-0.005	0.439	2.700	1.895	1.895	1.890	1.909	1.899	1.895
0.000	0.010	0.000	0.034	-0.005	-0.005	0.430	2.681	1.895	1.895	1.890	1.909	1.899	1.895
-0.010	0.010	0.000	0.039	0.000	-0.020	0.425	2.710	1.890	1.890	1.890	1.914	1.909	1.895
0.005	0.005	0.000	0.029	0.000	-0.010	0.435	2.686	1.890	1.890	1.890	1.909	1.904	1.899
-0.005	0.015	0.000	0.024	0.000	0.000	0.435	2.690	1.885	1.895	1.890	1.904	1.904	1.904
-0.010	0.015	0.000	0.005	0.005	-0.020	0.435	2.690	1.890	1.890	1.890	1.904	1.899	1.899
0.005	0.005	0.000	-0.010	0.005	0.020	0.444	2.700	1.885	1.885	1.885	1.899	1.899	1.909
0.000	-0.010	0.005	-0.015	0.005	0.010	0.430	2.690	1.890	1.880	1.885	1.895	1.899	1.904
-0.010	-0.005	0.000	-0.015	0.010	-0.005	0.444	2.690	1.885	1.875	1.875	1.895	1.895	1.895
-0.005	-0.005	0.000	-0.015	0.005	0.010	0.439	2.700	1.890	1.880	1.880	1.895	1.890	1.899
0.000	-0.005	0.005	-0.010	0.000	-0.015	0.435	2.710	1.890	1.880	1.875	1.895	1.890	1.885
0.010	-0.005	0.000	-0.010	0.000	0.015	0.435	2.690	1.885	1.880	1.880	1.895	1.895	1.895
0.005	0.010	0.000	-0.015	0.000	-0.005	0.439	2.681	1.885	1.885	1.880	1.895	1.890	1.890
0.005	0.005	0.000	-0.015	0.000	0.005	0.435	2.700	1.890	1.885	1.880	1.895	1.890	1.890
0.000	0.005	0.005	-0.015	0.000	0.010	0.444	2.681	1.885	1.885	1.885	1.899	1.890	1.890
0.015	-0.005	0.005	-0.015	0.000	0.000	0.435	2.700	1.890	1.880	1.885	1.899	1.890	1.885
0.005	0.000	0.015	-0.015	0.000	0.005	0.435	2.700	1.890	1.890	1.885	1.904	1.895	1.890
0.005	0.005	0.005	-0.010	0.000	-0.015	0.439	2.695	1.890	1.890	1.885	1.904	1.899	1.885
0.005	-0.005	0.005	-0.010	0.000	0.015	0.430	2.700	1.890	1.885	1.890	1.904	1.899	1.899
0.005	0.000	0.005	-0.010	0.005	0.015	0.435	2.690	1.890	1.890	1.885	1.904	1.899	1.899
0.005	0.005	0.005	-0.005	0.005	0.005	0.439	2.710	1.890	1.895	1.885	1.904	1.899	1.895
0.000	0.000	0.000	-0.005	0.005	-0.020	0.435	2.788	1.899	1.890	1.885	1.904	1.899	1.890
0.000	-0.005	0.000	-0.005	0.000	0.000	0.439	2.646	1.885	1.885	1.885	1.904	1.899	1.895
0.005	-0.005	0.000	-0.005	0.000	0.005	0.435	2.656	1.885	1.885	1.880	1.899	1.899	1.895
0.000	0.005	-0.010	0.000	0.000	0.000	0.435	2.798	1.890	1.885	1.885	1.904	1.895	1.899
-0.005	0.005	0.000	0.000	0.005	0.015	0.435	2.749	1.885	1.885	1.880	1.899	1.895	1.899
0.000	0.010	0.005	0.010	0.005	-0.005	0.439	2.671	1.880	1.890	1.880	1.904	1.899	1.895
0.000	0.005	0.000	-0.005	-0.010	0.015	0.435	2.646	1.875	1.880	1.880	1.899	1.895	1.895
0.000	0.005	0.000	0.000	0.000	0.000	0.435	2.671	1.875	1.875	1.880	1.899	1.895	1.895
0.000	0.000	0.005	0.000	0.000	-0.015	0.430	2.700	1.880	1.875	1.875	1.899	1.895	1.885
-0.010	0.010	0.000	0.000	-0.005	-0.024	0.435	2.759	1.890	1.880	1.875	1.899	1.890	1.885
0.000	0.010	0.000	0.000	-0.005	-0.010	0.439	2.661	1.890	1.880	1.880	1.899	1.895	1.890
0.010	0.015	0.000	0.005	-0.005	-0.020	0.430	2.725	1.899	1.890	1.880	1.899	1.899	1.895
0.005	0.005	0.005	0.000	0.005	-0.024	0.439	2.676	1.890	1.885	1.880	1.899	1.899	1.895
-0.005	0.000	0.000	0.005	0.000	-0.044	0.435	2.725	1.895	1.885	1.880	1.899	1.895	1.890
0.005	-0.010	0.000	0.005	-0.005	-0.068	0.435	2.681	1.895	1.885	1.885	1.904	1.895	1.885
0.000	0.000	0.000	0.010	0.005	-0.039	0.430	2.661	1.885	1.890	1.885	1.904	1.899	1.899
0.005	0.005	0.000	0.015	0.000	0.024	0.439	2.695	1.885	1.885	1.885	1.904	1.904	1.914
0.005	-0.015	0.005	0.015	0.005	0.063	0.435	2.710	1.890	1.880	1.885	1.904	1.904	1.924
0.000	0.000	0.000	0.005	0.000	0.073	0.439	2.715	1.890	1.885	1.885	1.899	1.904	1.924
-0.015	0.000	0.005	0.000	0.015	0.112	0.439	2.690	1.885	1.885	1.880	1.899	1.899	1.919
-0.005	0.005	-0.005	0.000	0.005	0.093	0.435	2.686	1.885	1.885	1.880	1.899	1.895	1.909
-0.005	0.000	0.000	0.000	0.005	0.049	0.435	2.705	1.890	1.880	1.880	1.895	1.890	1.890
-0.010	-0.005	0.005	0.005	0.005	0.010	0.439	2.686	1.885	1.880	1.875	1.895	1.890	1.880
0.000	0.005	0.010	-0.005	0.000	-0.029	0.435	2.695	1.890	1.885	1.880	1.895	1.890	1.875
0.000	0.010	0.005	-0.005	0.000	-0.005	0.444	2.681	1.885	1.885	1.880	1.895	1.890	1.880
-0.005	0.000	0.005	-0.005	0.005	-0.010	0.435	2.705	1.885	1.885	1.880	1.895	1.890	1.885
0.000	0.000	0.005	-0.005	0.000	-0.020	0.444	2.681	1.885	1.880	1.880	1.899	1.890	1.880
0.005	-0.005	0.000	0.005	0.000	-0.005	0.430	2.690	1.885	1.880	1.880	1.899	1.890	1.890
-0.005	-0.010	-0.005	0.010	0.000	-0.010	0.439	2.690	1.890	1.885	1.880	1.904	1.895	1.890
0.005	0.000	0.000	0.010	0.000	-0.015	0.430	2.700	1.890	1.880	1.880	1.899	1.895	1.890
0.005	0.010	0.005	-0.020	0.000	-0.020	0.439	2.715	1.895	1.890	1.885	1.895	1.895	1.890
0.005	0.005	0.000	-0.024	0.000	0.000	0.430	2.686	1.890	1.890	1.885	1.895	1.895	1.895
0.000	0.005	0.000	-0.020	-0.005	-0.010	0.439	2.700	1.890	1.885	1.885	1.895	1.890	1.890
0.010	0.005	0.000	-0.015	0.005	-0.010	0.435	2.676	1.890	1.885	1.885	1.904	1.895	1.890
0.000	0.000	0.000	-0.010	0.005	-0.015	0.435	2.695	1.885	1.885	1.890	1.904	1.899	1.890
0.000	-0.005	0.000	0.010	0.010	-0.034	0.435	2.681	1.880	1.880	1.885	1.909	1.899	1.890
0.005	0.005	0.000	0.029	0.000	-0.005	0.435	2.676	1.880	1.880	1.885	1.909	1.899	1.899
0.005	0.000	0.000	0.034	0.005	-0.024	0.439	2.676	1.880	1.875	1.880	1.904	1.899	1.890
0.005	0.000	0.000	0.029	0.005	0.000	0.435	2.690	1.885	1.880	1.880	1.904	1.899	1.899
0.000	0.010	0.000	0.020	0.005	0.005	0.435	2.622	1.870	1.875	1.875	1.895	1.895	1.899
0.000	0.015	-0.005	0.024	0.005	-0.005	0.435	2.739	1.880	1.880	1.875	1.895	1.895	1.895
-0.005	0.015	0.000	0.020	0.005	-0.020	0.435	2.793	1.895	1.880	1.875	1.895	1.895	1.890
0.010	0.000	0.005	0.015	-0.005	0.000	0.435	2.666	1.895	1.880	1.875	1.895	1.890	1.895
0.010	0.005	0.005	0.015	-0.005	-0.005	0.435	2.793	1.899	1.885	1.880	1.895	1.890	1.890
0.000	0.005	0.000	0.024	-0.005	0.015	0.430	2.729	1.899	1.890	1.885	1.904	1.895	1.899
-0.005	0.015	0.000	0.029	0.000	0.015	0.439	2.666	1.899	1.895	1.890	1.904	1.899	1.899
-0.005	0.005	0.000	0.015	0.000	0.005	0.430	2.646	1.890	1.890	1.885	1.899	1.899	1.899
0.005	0.005	0.005	0.010	0.000	0.005	0.444	2.666	1.890	1.890	1.890	1.899	1.899	1.895
0.000	-0.010	0.000	0.010	-0.005	-0.005	0.435	2.725	1.895	1.890	1.890	1.904	1.899	1.895
0.000	-0.005	0.005	0.015	0.005	0.010	0.435	2.739	1.899	1.890	1.885	1.904	1.899	1.895
0.005	-0.005	0.000	0.005	0.000	0.010	0.430	2.686	1.895	1.890	1.885	1.904	1.899	1.899
0.000	-0.005	0.005	0.000	-0.005	0.005	0.439	2.671	1.885	1.890	1.885	1.904	1.895	1.895
0.000	0.000	0.000	0.005	-0.005	0.005	0.435	2.686	1.880	1.885	1.880	1.899	1.895	1.895
0.010	-0.010	-0.005	0.015	0.005	0.005	0.435	2.739	1.880	1.880	1.880	1.899	1.895	1.895
0.005	0.005	0.000	0.020	0.005	0.005	0.439	2.666	1.880	1.885	1.880	1.899	1.899	1.895
0.010	-0.005	0.005	0.005	0.010	0.000	0.439	2.725	1.885	1.875	1.880	1.899	1.895	1.890
0.005	-0.005	0.000	0.015	-0.005	0.000	0.430	2.705	1.880	1.875	1.880	1.899	1.895	1.895
0.000	0.000	0.005	0.010	0.000	0.000	0.439	2.715	1.885	1.880	1.880	1.895	1.895	1.890
0.000	-0.005	0.005	0.005	0.000	0.005	0.430	2.700	1.885	1.880	1.880	1.895	1.890	1.895
0.010	0.000	0.005	0.010	0.005	0.005	0.439	2.686	1.890	1.880	1.875	1.895	1.890	1.890
0.005	0.005	0.010	0.000	0.000	-0.024	0.430	2.690	1.885	1.885	1.880	1.895	1.890	1.885
0.005	0.005	0.010	0.000	0.000	0.000	0.435	2.705	1.885	1.885	1.885	1.899	1.895	1.895
0.005	0.000	0.005	0.000	-0.005	0.005	0.435	2.676	1.885	1.885	1.885	1.899	1.895	1.895
0.000	-0.010	0.000	-0.005	0.000	0.005	0.439	2.690	1.885	1.885	1.880	1.899	1.895	1.895
0.005	0.000	0.000	-0.010	0.000	-0.020	0.439	2.681	1.885	1.890	1.885	1.899	1.895	1.890
0.005	-0.005	0.000	-0.015	0.010	0.015	0.430	2.695	1.890	1.885	1.885	1.899	1.899	1.899
0.005	-0.005	0.000	-0.015	0.015	0.010	0.439	2.686	1.890	1.885	1.885	1.899	1.899	1.899
-0.005	-0.005	-0.005	-0.020	0.010	-0.020	0.435	2.681	1.890	1.885	1.880	1.899	1.895	1.890
0.000	0.005	0.000	-0.015	0.015	0.015	0.435	2.681	1.885	1.885	1.885	1.899	1.895	1.899
0.005	-0.005	0.010	-0.015	0.005	-0.005	0.435	2.695	1.890	1.880	1.885	1.899	1.890	1.890
-0.005	0.005	0.005	-0.020	0.000	0.020	0.439	2.705	1.885	1.885	1.880	1.899	1.890	1.899
0.005	0.010	0.005	-0.015	-0.005	0.015	0.430	2.690	1.885	1.885	1.885	1.899	1.890	1.895
0.005	0.000	0.005	-0.015	0.005	0.020	0.439	2.686	1.880	1.880	1.875	1.899	1.890	1.890
0.000	0.010	0.000	-0.015	-0.005	0.044	0.435	2.705	1.885	1.880	1.880	1.895	1.890	1.895
-0.005	-0.005	0.000	-0.015	-0.015	0.039	0.435	2.700	1.880	1.875	1.875	1.895	1.890	1.895
0.000	0.005	0.000	-0.005	-0.015	0.034	0.430	2.690	1.885	1.880	1.880	1.899	1.885	1.890
0.005	0.005	-0.005	-0.005	-0.005	0.015	0.444	2.690	1.890	1.880	1.880	1.899	1.895	1.885
0.000	0.000	-0.005	-0.010	0.005	-0.015	0.430	2.705	1.885	1.880	1.880	1.899	1.895	1.885
0.000	0.000	0.000	-0.005	0.015	0.005	0.435	2.686	1.890	1.880	1.880	1.899	1.899	1.890
-0.005	-0.005	0.000	-0.005	0.010	0.000	0.439	2.632	1.880	1.880	1.885	1.904	1.899	1.895
0.000	0.005	0.000	0.000	-0.005	0.000	0.439	2.754	1.890	1.885	1.885	1.904	1.895	1.890
0.005	0.010	-0.005	0.000	-0.015	-0.005	0.435	2.793	1.899	1.890	1.885	1.904	1.895	1.895
0.010	-0.005	0.000	0.000	-0.010	-0.010	0.439	2.656	1.895	1.890	1.890	1.904	1.899	1.895
-0.005	0.000	0.000	-0.005	0.000	-0.044	0.435	2.788	1.899	1.885	1.890	1.904	1.899	1.885
0.000	-0.005	0.000	0.005	0.005	-0.029	0.439	2.637	1.890	1.885	1.885	1.904	1.899	1.895
0.000	0.000	0.000	0.005	0.010	-0.054	0.435	2.666	1.899	1.890	1.885	1.904	1.899	1.885
-0.005	0.005	0.005	0.005	0.005	-0.049	0.435	2.642	1.890	1.890	1.890	1.904	1.899	1.890
0.005	0.005	0.000	0.005	0.015	-0.049	0.439	2.642	1.880	1.885	1.885	1.904	1.899	1.890
0.005	0.000	0.000	0.005	0.020	-0.054	0.439	2.725	1.885	1.880	1.885	1.899	1.895	1.890
0.005	-0.015	0.005	0.000	0.000	-0.044	0.435	2.725	1.890	1.875	1.880	1.899	1.890	1.895
0.000	-0.015	0.000	0.005	0.000	0.015	0.435	2.666	1.885	1.875	1.875	1.899	1.895	1.909
0.015	0.000	-0.005	0.000	0.000	0.034	0.435	2.739	1.895	1.885	1.880	1.895	1.895	1.914
0.010	0.010	0.000	0.005	0.000	0.068	0.444	2.686	1.890	1.885	1.885	1.899	1.895	1.914
0.020	0.015	0.005	0.010	0.000	0.117	0.439	2.656	1.890	1.895	1.885	1.904	1.899	1.924
0.000	0.005	0.005	0.015	0.000	0.132	0.430	2.690	1.890	1.890	1.885	1.904	1.904	1.924
0.005	0.010	0.005	0.010	0.000	0.132	0.439	2.651	1.890	1.890	1.890	1.904	1.904	1.919
0.000	0.010	0.000	0.010	0.005	0.068	0.439	2.705	1.890	1.890	1.890	1.909	1.899	1.895
0.000	0.000	0.005	0.010	0.005	0.020	0.435	2.705	1.890	1.890	1.890	1.904	1.899	1.885
-0.005	-0.005	0.005	0.010	0.000	0.000	0.435	2.700	1.885	1.890	1.890	1.904	1.899	1.885
0.000	0.010	0.000	0.010	0.005	-0.029	0.444	2.686	1.885	1.890	1.890	1.909	1.899	1.880
0.000	0.005	0.000	0.005	0.005	-0.034	0.435	2.710	1.890	1.890	1.890	1.909	1.899	1.885
0.010	0.000	0.010	0.010	0.015	-0.039	0.439	2.690	1.885	1.885	1.885	1.904	1.904	1.885
0.005	-0.005	0.005	0.005	0.010	-0.049	0.430	2.676	1.880	1.880	1.885	1.904	1.899	1.885
-0.010	0.015	0.010	0.000	0.010	-0.044	0.430	2.700	1.880	1.885	1.885	1.904	1.895	1.890
0.000	0.015	0.005	0.000	0.005	-0.044	0.430	2.690	1.885	1.880	1.880	1.899	1.895	1.890
0.000	0.005	0.015	0.000	0.005	-0.010	0.444	2.695	1.880	1.875	1.880	1.895	1.895	1.895
-0.005	0.010	0.005	0.005	0.005	0.000	0.430	2.695	1.880	1.875	1.875	1.895	1.890	1.899
0.000	-0.005	0.010	0.010	0.000	-0.015	0.435	2.686	1.880	1.875	1.875	1.895	1.890	1.895
0.000	0.005	0.005	0.010	0.000	-0.005	0.439	2.700	1.885	1.875	1.875	1.895	1.895	1.895
0.010	0.005	0.010	0.010	0.005	-0.005	0.444	2.695	1.890	1.880	1.875	1.899	1.895	1.895
0.005	0.010	0.005	0.000	0.000	-0.015	0.430	2.705	1.895	1.885	1.880	1.895	1.890	1.890
0.010	0.010	0.005	0.000	0.005	-0.010	0.435	2.695	1.895	1.885	1.880	1.895	1.895	1.895
0.005	0.005	0.000	0.005	0.000	-0.015	0.430	2.681	1.890	1.885	1.880	1.895	1.895	1.890
0.010	-0.010	-0.005	0.000	0.000	-0.015	0.439	2.705	1.890	1.880	1.880	1.899	1.895	1.895
0.010	-0.005	-0.005	0.005	0.005	-0.020	0.430	2.690	1.890	1.885	1.885	1.899	1.895	1.890
0.000	0.005	-0.005	0.010	0.010	0.005	0.430	2.690	1.885	1.890	1.885	1.899	1.899	1.899
0.000	0.000	-0.005	0.000	0.010	-0.010	0.435	2.686	1.890	1.885	1.885	1.899	1.899	1.899
0.005	0.010	-0.005	0.005	0.010	0.000	0.439	2.690	1.890	1.890	1.885	1.904	1.899	1.899
0.000	0.000	0.005	0.000	0.005	0.000	0.439	2.700	1.885	1.885	1.885	1.899	1.895	1.895
0.005	-0.005	-0.005	0.000	-0.015	0.000	0.439	2.690	1.885	1.880	1.880	1.899	1.890	1.890
0.000	0.000	0.000	0.000	0.000	-0.015	0.435	2.749	1.890	1.885	1.885	1.899	1.895	1.890
-0.005	0.000	-0.005	0.000	0.000	0.005	0.435	2.793	1.895	1.880	1.880	1.899	1.890	1.895
0.000	0.005	0.005	0.005	0.000	0.039	0.435	2.656	1.885	1.880	1.880	1.895	1.890	1.899
0.005	-0.005	-0.005	0.000	0.000	0.044	0.430	2.798	1.895	1.880	1.880	1.895	1.890	1.899
0.010	0.000	-0.005	0.000	-0.010	0.020	0.435	2.651	1.885	1.885	1.880	1.895	1.885	1.890
0.000	-0.005	0.005	0.005	-0.010	0.039	0.444	2.656	1.880	1.885	1.880	1.899	1.890	1.895
0.000	0.000	-0.005	0.000	-0.005	0.020	0.430	2.656	1.880	1.885	1.880	1.899	1.895	1.890
0.005	0.005	-0.005	0.005	0.000	0.005	0.430	2.739	1.885	1.885	1.885	1.899	1.895	1.890
0.005	0.000	0.000	0.000	-0.005	-0.015	0.435	2.710	1.890	1.885	1.885	1.899	1.895	1.885
0.000	0.000	0.005	0.000	0.005	-0.034	0.430	2.734	1.895	1.890	1.890	1.904	1.899	1.885
0.000	0.000	0.005	0.000	0.000	0.010	0.439	2.681	1.890	1.890	1.890	1.904	1.899	1.895
0.005	-0.005	0.005	0.000	0.005	0.015	0.435	2.651	1.885	1.885	1.885	1.904	1.899	1.899
-0.005	0.000	0.005	0.005	0.000	0.000	0.439	2.690	1.880	1.885	1.890	1.909	1.899	1.899
0.010	0.005	0.005	0.000	0.010	0.024	0.430	2.744	1.895	1.890	1.890	1.904	1.899	1.904
0.000	0.005	0.015	0.000	0.015	0.000	0.430	2.661	1.885	1.885	1.885	1.904	1.899	1.899
-0.005	-0.010	0.000	0.000	0.010	0.029	0.439	2.651	1.875	1.880	1.880	1.904	1.899	1.904
-0.005	0.000	0.000	0.000	0.005	0.010	0.430	2.686	1.875	1.875	1.880	1.899	1.895	1.895
0.005	0.000	0.005	0.000	0.010	-0.010	0.439	2.695	1.885	1.875	1.880	1.899	1.895	1.890
-0.005	-0.015	-0.005	0.000	0.005	-0.029	0.439	2.705	1.880	1.875	1.875	1.895	1.890	1.885
0.000	0.005	0.005	0.000	0.005	-0.015	0.435	2.695	1.880	1.875	1.875	1.895	1.890	1.890
0.005	-0.005	0.000	0.000	0.000	-0.039	0.444	2.695	1.880	1.875	1.875	1.895	1.890	1.880
0.005	-0.005	0.000	0.010	0.005	-0.054	0.439	2.681	1.880	1.875	1.875	1.895	1.890	1.880
0.005	0.000	0.000	0.005	0.000	-0.010	0.439	2.686	1.880	1.880	1.875	1.895	1.890	1.895
0.015	0.005	0.015	0.000	-0.010	-0.015	0.439	2.695	1.885	1.885	1.880	1.895	1.890	1.890
0.000	0.005	0.010	0.005	-0.005	0.015	0.439	2.686	1.885	1.885	1.880	1.899	1.890	1.899
0.005	0.005	0.005	0.000	0.000	0.000	0.430	2.710	1.885	1.885	1.885	1.899	1.890	1.895
0.005	0.020	0.010	0.000	0.000	0.049	0.435	2.690	1.895	1.890	1.885	1.899	1.895	1.909
0.000	0.010	0.005	0.005	0.000	0.054	0.430	2.690	1.890	1.890	1.885	1.904	1.899	1.909
0.005	-0.005	-0.005	0.000	0.005	0.054	0.430	2.700	1.890	1.885	1.885	1.899	1.899	1.909
0.010	0.010	0.000	0.005	0.010	0.034	0.430	2.710	1.895	1.890	1.885	1.899	1.895	1.899
0.000	0.005	-0.005	0.010	0.005	0.010	0.439	2.705	1.890	1.890	1.885	1.904	1.895	1.890
-0.010	-0.005	-0.005	0.005	0.015	-0.024	0.430	2.695	1.890	1.885	1.880	1.899	1.899	1.880
-0.005	0.005	0.000	-0.005	0.005	-0.005	0.430	2.676	1.885	1.885	1.880	1.899	1.895	1.890
0.005	0.010	0.000	0.000	0.010	-0.029	0.430	2.700	1.885	1.880	1.880	1.899	1.890	1.885
0.000	0.010	-0.005	0.000	0.020	0.000	0.430	2.690	1.880	1.880	1.880	1.899	1.895	1.890
-0.005	0.015	-0.005	0.005	0.015	-0.015	0.430	2.676	1.875	1.880	1.875	1.895	1.895	1.890
0.000	-0.005	-0.010	0.000	0.015	-0.015	0.435	2.686	1.875	1.875	1.875	1.895	1.890	1.890
-0.005	0.010	-0.005	0.005	0.000	-0.020	0.444	2.710	1.885	1.880	1.875	1.895	1.890	1.890
0.010	0.005	-0.005	0.005	0.010	-0.015	0.439	2.690	1.885	1.880	1.875	1.890	1.890	1.890
0.005	0.010	0.000	0.000	0.000	-0.005	0.435	2.676	1.885	1.880	1.880	1.895	1.890	1.890
0.000	0.000	-0.005	0.000	0.000	-0.010	0.435	2.759	1.890	1.880	1.880	1.895	1.890	1.890
0.000	0.000	0.005	0.000	-0.005	-0.029	0.439	2.803	1.904	1.890	1.885	1.899	1.890	1.885
0.005	-0.005	0.005	0.005	-0.024	0.015	0.430	2.661	1.899	1.890	1.885	1.899	1.885	1.895
0.005	0.000	0.005	0.000	-0.044	0.034	0.439	2.798	1.904	1.895	1.885	1.899	1.885	1.895
0.015	-0.010	0.005	0.005	-0.054	0.039	0.430	2.754	1.914	1.895	1.890	1.904	1.885	1.895
0.000	0.000	0.010	0.005	-0.020	0.054	0.435	2.651	1.895	1.899	1.895	1.909	1.899	1.899
-0.005	0.005	0.005	0.000	-0.010	0.049	0.430	2.637	1.885	1.895	1.890	1.909	1.904	1.904
0.000	0.005	0.000	0.000	-0.005	0.024	0.444	2.651	1.885	1.890	1.890	1.904	1.899	1.895
0.005	0.005	0.000	0.005	-0.010	0.000	0.439	2.710	1.885	1.890	1.890	1.904	1.899	1.890
0.005	-0.005	0.000	0.000	-0.005	-0.005	0.435	2.739	1.890	1.885	1.890	1.909	1.899	1.890
0.005	-0.005	0.005	0.010	-0.010	-0.015	0.435	2.666	1.880	1.880	1.885	1.904	1.899	1.890
-0.005	0.000	0.005	0.005	0.015	-0.024	0.439	2.744	1.875	1.880	1.880	1.904	1.904	1.890
0.000	-0.005	0.000	0.005	0.020	-0.005	0.435	2.705	1.875	1.875	1.880	1.904	1.904	1.899
0.000	-0.005	0.010	0.005	0.010	-0.005	0.439	2.710	1.870	1.875	1.875	1.899	1.899	1.895
0.010	-0.005	0.000	0.005	0.015	-0.010	0.439	2.666	1.875	1.880	1.875	1.899	1.899	1.895
0.010	0.005	0.000	0.000	0.015	-0.005	0.435	2.632	1.870	1.875	1.875	1.895	1.895	1.895
0.005	0.010	0.005	-0.005	0.024	-0.005	0.444	2.710	1.880	1.875	1.875	1.895	1.899	1.899
0.000	0.015	0.005	-0.005	0.034	-0.005	0.439	2.710	1.890	1.880	1.875	1.895	1.899	1.899
0.005	0.005	0.005	0.005	0.024	-0.005	0.439	2.710	1.890	1.880	1.880	1.895	1.895	1.899
0.005	0.000	-0.005	0.000	0.005	-0.010	0.435	2.705	1.890	1.885	1.880	1.895	1.890	1.895
0.000	0.010	0.000	0.000	-0.020	-0.020	0.439	2.715	1.895	1.890	1.880	1.899	1.885	1.890
0.010	0.005	0.000	0.010	-0.020	-0.029	0.439	2.700	1.895	1.890	1.885	1.899	1.890	1.885
0.005	0.015	-0.005	0.005	-0.015	0.010	0.435	2.686	1.895	1.890	1.885	1.904	1.895	1.895
0.005	0.000	0.000	0.005	0.010	0.010	0.435	2.686	1.885	1.885	1.885	1.904	1.899	1.899
0.005	-0.005	0.005	0.000	0.020	0.015	0.439	2.686	1.890	1.885	1.885	1.904	1.904	1.899
0.005	-0.005	0.000	-0.005	0.005	0.010	0.430	2.681	1.875	1.880	1.880	1.895	1.895	1.895
-0.005	-0.010	0.005	-0.005	0.010	0.020	0.435	2.686	1.880	1.875	1.880	1.899	1.895	1.895
-0.005	-0.010	0.005	0.000	0.005	0.020	0.439	2.676	1.880	1.875	1.880	1.895	1.895	1.895
-0.005	-0.005	0.000	0.000	-0.005	0.010	0.439	2.700	1.875	1.880	1.880	1.895	1.885	1.895
0.000	0.000	0.005	0.010	-0.005	0.020	0.435	2.710	1.885	1.880	1.875	1.899	1.890	1.885
0.000	0.000	0.000	0.015	0.005	0.005	0.435	2.700	1.880	1.875	1.875	1.895	1.890	1.885
-0.005	0.000	0.000	0.010	0.010	0.005	0.430	2.686	1.885	1.880	1.880	1.895	1.895	1.890
0.005	0.000	0.005	0.000	0.039	-0.005	0.435	2.695	1.890	1.875	1.875	1.895	1.904	1.890
0.010	0.005	0.000	0.000	0.054	-0.010	0.430	2.681	1.885	1.885	1.880	1.895	1.899	1.895
0.015	0.000	0.000	0.000	0.015	-0.010	0.439	2.700	1.890	1.880	1.880	1.895	1.890	1.890
0.000	0.000	0.000	0.005	-0.044	-0.005	0.430	2.690	1.885	1.885	1.880	1.899	1.875	1.890
0.000	0.000	0.000	0.000	-0.054	0.000	0.435	2.686	1.885	1.885	1.880	1.899	1.880	1.890
0.010	0.005	-0.010	0.005	-0.039	-0.020	0.430	2.690	1.890	1.885	1.880	1.899	1.885	1.880
0.010	0.015	-0.010	0.000	-0.005	0.005	0.430	2.695	1.890	1.890	1.885	1.899	1.899	1.895
0.005	0.005	0.000	0.005	0.010	-0.015	0.430	2.686	1.885	1.890	1.885	1.904	1.904	1.890
0.000	0.000	0.000	0.000	-0.005	0.000	0.435	2.754	1.890	1.885	1.885	1.904	1.895	1.895
-0.005	0.000	0.010	0.000	-0.020	-0.024	0.435	2.798	1.895	1.885	1.885	1.899	1.890	1.885
-0.020	-0.005	0.015	-0.005	-0.015	0.005	0.439	2.661	1.880	1.885	1.885	1.899	1.895	1.895
-0.010	0.010	0.015	-0.010	-0.024	0.005	0.430	2.788	1.895	1.885	1.885	1.899	1.890	1.895
-0.005	0.020	0.000	-0.010	-0.029	0.000	0.439	2.749	1.895	1.885	1.880	1.899	1.890	1.890
-0.010	-0.005	-0.010	-0.005	-0.024	0.000	0.435	2.661	1.899	1.885	1.875	1.895	1.885	1.885
-0.015	-0.010	-0.010	-0.005	-0.020	-0.024	0.444	2.725	1.890	1.880	1.875	1.895	1.890	1.880
-0.005	-0.020	-0.005	-0.005	-0.005	-0.015	0.435	2.642	1.880	1.880	1.880	1.895	1.895	1.890
0.000	-0.015	0.005	-0.005	0.024	-0.010	0.435	2.700	1.885	1.885	1.885	1.899	1.904	1.890
0.005	-0.005	0.015	0.005	0.044	-0.015	0.430	2.656	1.885	1.890	1.890	1.904	1.904	1.895
0.010	0.000	0.020	0.005	0.039	-0.020	0.430	2.690	1.885	1.890	1.890	1.904	1.904	1.904
0.020	0.005	0.024	0.000	0.039	0.029	0.435	2.729	1.895	1.895	1.890	1.904	1.904	1.914
0.024	0.005	0.015	0.000	0.024	0.034	0.435	2.700	1.899	1.895	1.895	1.909	1.904	1.914
0.029	0.010	0.020	0.000	0.044	0.059	0.435	2.661	1.899	1.899	1.895	1.909	1.914	1.914
0.039	0.005	0.015	0.005	0.049	0.034	0.439	2.681	1.904	1.899	1.895	1.914	1.909	1.909
0.034	0.015	0.005	0.005	0.029	0.005	0.435	2.749	1.904	1.899	1.895	1.914	1.904	1.899
0.034	0.024	0.000	0.010	0.024	-0.010	0.435	2.695	1.895	1.899	1.890	1.909	1.904	1.895
0.010	0.020	-0.005	0.015	0.034	-0.015	0.435	2.705	1.890	1.895	1.890	1.909	1.904	1.895
-0.010	0.034	-0.005	0.015	0.029	-0.010	0.435	2.705	1.885	1.895	1.890	1.909	1.904	1.899
0.000	0.010	-0.010	0.005	0.015	0.005	0.435	2.700	1.885	1.880	1.885	1.904	1.899	1.899
-0.010	-0.005	-0.005	0.005	0.005	0.005	0.435	2.700	1.875	1.875	1.880	1.899	1.895	1.899
-0.029	-0.020	-0.005	0.005	0.015	0.015	0.435	2.700	1.875	1.870	1.875	1.899	1.895	1.899
-0.029	-0.005	-0.005	0.000	0.005	0.015	0.439	2.681	1.880	1.875	1.875	1.895	1.895	1.899
-0.010	-0.010	-0.005	0.000	0.005	0.000	0.435	2.681	1.880	1.875	1.875	1.895	1.890	1.890
-0.010	-0.010	-0.005	0.005	0.015	0.000	0.435	2.681	1.880	1.875	1.875	1.895	1.895	1.890
-0.005	-0.005	0.000	0.010	0.000	0.015	0.435	2.700	1.880	1.875	1.875	1.895	1.890	1.895
0.000	0.000	-0.005	0.010	-0.010	0.015	0.439	2.690	1.890	1.885	1.875	1.895	1.890	1.890
0.000	0.000	-0.029	0.010	-0.015	0.020	0.435	2.686	1.890	1.885	1.870	1.895	1.885	1.895
0.024	0.000	-0.024	0.005	-0.010	0.020	0.439	2.700	1.895	1.885	1.875	1.895	1.890	1.890
0.029	0.005	-0.015	0.005	-0.005	0.010	0.439	2.686	1.895	1.890	1.885	1.899	1.890	1.885
0.020	0.000	-0.005	0.005	-0.010	0.015	0.435	2.700	1.890	1.895	1.890	1.899	1.895	1.890
0.020	-0.005	0.000	0.000	-0.010	0.005	0.435	2.686	1.890	1.890	1.890	1.899	1.895	1.890
0.015	-0.005	0.005	-0.005	-0.005	0.020	0.435	2.681	1.890	1.890	1.895	1.904	1.895	1.895
0.010	-0.005	0.024	0.000	-0.005	-0.010	0.435	2.695	1.885	1.885	1.895	1.904	1.895	1.885
-0.005	-0.010	0.024	-0.005	-0.010	0.020	0.439	2.700	1.880	1.880	1.890	1.904	1.899	1.899
-0.005	0.005	0.029	-0.005	-0.005	0.010	0.430	2.676	1.880	1.880	1.890	1.904	1.895	1.890
0.000	-0.005	0.029	0.000	-0.015	-0.005	0.435	2.681	1.880	1.880	1.885	1.904	1.890	1.885
-0.020	-0.020	0.015	0.000	-0.020	-0.015	0.444	2.690	1.870	1.870	1.875	1.904	1.895	1.885
-0.034	-0.024	0.000	0.005	-0.010	-0.034	0.430	2.700	1.865	1.865	1.870	1.899	1.895	1.880
-0.049	-0.010	-0.010	0.005	0.015	-0.020	0.439	2.646	1.865	1.870	1.860	1.890	1.899	1.890
-0.049	-0.020	-0.020	0.005	0.015	-0.029	0.435	2.803	1.880	1.870	1.860	1.890	1.895	1.890
-0.034	-0.005	-0.034	0.005	0.000	-0.024	0.435	2.646	1.875	1.875	1.865	1.885	1.885	1.890
-0.020	0.020	-0.024	0.010	-0.005	-0.020	0.435	2.666	1.880	1.885	1.870	1.885	1.885	1.890
-0.005	0.054	-0.005	0.015	-0.010	-0.015	0.439	2.798	1.899	1.899	1.885	1.895	1.885	1.890
0.010	0.073	0.010	0.005	-0.015	-0.005	0.435	2.749	1.909	1.909	1.895	1.895	1.885	1.890
0.020	0.063	0.029	0.000	-0.015	0.020	0.435	2.671	1.909	1.899	1.899	1.904	1.890	1.895
0.034	0.034	0.024	0.005	-0.005	0.015	0.435	2.651	1.899	1.899	1.899	1.909	1.899	1.899
0.039	0.010	0.029	0.010	-0.005	0.015	0.435	2.661	1.895	1.890	1.899	1.909	1.899	1.899
0.049	-0.010	0.024	0.005	-0.005	0.010	0.435	2.710	1.895	1.890	1.895	1.914	1.904	1.895
0.049	-0.024	0.024	0.000	-0.005	0.000	0.435	2.749	1.904	1.885	1.890	1.909	1.904	1.899
0.049	-0.020	0.015	0.000	-0.010	0.000	0.430	2.681	1.895	1.890	1.885	1.909	1.904	1.899
0.044	-0.010	0.010	0.005	-0.015	0.000	0.435	2.734	1.895	1.890	1.880	1.904	1.899	1.899
0.029	-0.005	0.005	-0.005	-0.015	0.000	0.435	2.695	1.885	1.890	1.880	1.899	1.899	1.899
0.015	-0.020	0.000	-0.005	-0.005	0.010	0.435	2.754	1.885	1.880	1.880	1.899	1.899	1.899
0.000	-0.024	-0.010	-0.005	0.000	0.000	0.430	2.671	1.875	1.875	1.880	1.899	1.899	1.895
0.000	-0.005	-0.005	0.000	-0.005	0.005	0.430	2.729	1.880	1.880	1.880	1.895	1.895	1.895
0.000	0.000	-0.010	0.000	0.005	0.015	0.435	2.700	1.880	1.880	1.880	1.899	1.899	1.899
0.000	0.010	-0.010	0.000	0.000	0.029	0.435	2.686	1.880	1.880	1.880	1.895	1.890	1.899
-0.010	0.005	-0.005	-0.005	-0.010	0.024	0.430	2.710	1.880	1.880	1.880	1.895	1.890	1.895
0.005	0.000	-0.005	-0.005	0.000	-0.005	0.435	2.700	1.890	1.880	1.880	1.895	1.890	1.890
0.015	0.000	-0.005	-0.005	0.020	0.005	0.439	2.710	1.895	1.885	1.880	1.899	1.899	1.890
0.000	-0.005	-0.005	-0.005	0.005	-0.010	0.430	2.715	1.890	1.885	1.885	1.899	1.895	1.890
-0.015	0.000	0.000	-0.005	0.005	0.005	0.444	2.695	1.885	1.885	1.885	1.899	1.899	1.895
-0.020	0.010	0.000	0.000	0.010	-0.015	0.435	2.705	1.885	1.890	1.885	1.899	1.899	1.890
-0.020	-0.005	0.000	0.000	-0.005	0.010	0.430	2.690	1.885	1.885	1.885	1.904	1.895	1.899
-0.005	-0.020	-0.010	0.000	0.015	0.044	0.439	2.686	1.895	1.885	1.885	1.904	1.904	1.914
-0.010	-0.010	-0.005	0.000	0.020	0.039	0.430	2.686	1.890	1.890	1.885	1.904	1.904	1.904
0.000	-0.015	0.000	0.000	0.029	0.020	0.435	2.690	1.890	1.885	1.885	1.904	1.904	1.899
0.015	-0.005	0.000	-0.005	0.034	-0.029	0.435	2.681	1.895	1.890	1.885	1.904	1.899	1.885
0.000	-0.005	0.005	-0.005	0.034	-0.010	0.430	2.700	1.885	1.885	1.885	1.904	1.904	1.895
0.005	-0.005	0.005	0.000	0.034	-0.039	0.439	2.705	1.885	1.885	1.885	1.904	1.899	1.885
-0.039	-0.005	0.005	0.000	0.044	-0.010	0.430	2.695	1.870	1.880	1.885	1.899	1.899	1.899
-0.054	0.005	0.000	0.005	0.039	-0.020	0.439	2.705	1.870	1.875	1.875	1.899	1.895	1.895
-0.083	0.005	-0.039	-0.005	-0.005	-0.024	0.430	2.695	1.870	1.870	1.865	1.890	1.880	1.885
-0.088	0.000	-0.054	0.005	-0.015	-0.049	0.439	2.705	1.870	1.870	1.860	1.885	1.880	1.875
-0.107	0.024	-0.044	0.000	-0.010	-0.024	0.435	2.700	1.875	1.870	1.870	1.890	1.880	1.885
-0.088	0.029	-0.015	0.000	-0.010	-0.029	0.430	2.690	1.880	1.875	1.875	1.890	1.885	1.885
-0.068	0.034	0.015	0.005	-0.015	-0.015	0.439	2.686	1.890	1.885	1.885	1.899	1.885	1.890
-0.034	0.029	0.044	0.010	-0.044	-0.034	0.430	2.705	1.899	1.890	1.895	1.899	1.880	1.880
0.024	0.029	0.063	0.015	-0.073	-0.005	0.435	2.651	1.909	1.899	1.899	1.909	1.880	1.885
0.083	0.015	0.063	0.010	-0.073	0.005	0.430	2.754	1.924	1.904	1.904	1.909	1.890	1.895
0.127	0.015	0.049	0.010	-0.044	0.020	0.435	2.783	1.938	1.909	1.899	1.914	1.904	1.899
0.166	0.015	0.015	0.005	-0.054	0.044	0.435	2.661	1.934	1.914	1.895	1.909	1.899	1.904
0.176	0.020	0.005	0.005	-0.083	0.049	0.430	2.793	1.934	1.924	1.899	1.914	1.895	1.904
0.146	0.029	-0.024	0.005	-0.088	0.073	0.430	2.637	1.919	1.924	1.895	1.909	1.895	1.904
0.127	0.020	-0.029	0.010	-0.059	0.059	0.435	2.646	1.895	1.909	1.899	1.909	1.904	1.904
0.103	-0.005	-0.015	0.010	-0.068	0.107	0.439	2.734	1.890	1.895	1.899	1.914	1.904	1.914
0.083	-0.029	0.010	0.005	-0.020	0.073	0.444	2.642	1.870	1.880	1.904	1.914	1.919	1.909
0.044	-0.024	0.020	0.000	0.073	0.029	0.430	2.690	1.865	1.875	1.895	1.914	1.938	1.909
0.029	-0.029	0.034	-0.005	0.112	-0.005	0.435	2.637	1.860	1.870	1.890	1.909	1.943	1.904
0.010	-0.020	0.044	0.000	0.229	-0.049	0.430	2.671	1.860	1.865	1.885	1.914	1.958	1.909
-0.015	-0.020	0.039	0.005	0.186	-0.044	0.435	2.637	1.855	1.865	1.875	1.909	1.934	1.919
-0.029	-0.034	0.024	0.000	0.083	-0.044	0.439	2.681	1.860	1.860	1.870	1.895	1.895	1.909
-0.029	-0.034	0.010	-0.005	0.024	-0.034	0.439	2.666	1.870	1.860	1.865	1.890	1.880	1.904
-0.044	-0.029	-0.015	0.000	0.010	-0.020	0.439	2.686	1.870	1.865	1.855	1.890	1.880	1.895
-0.073	-0.020	-0.034	-0.005	0.015	-0.010	0.435	2.661	1.865	1.865	1.855	1.885	1.880	1.895
-0.078	0.024	-0.044	0.000	0.005	-0.010	0.435	2.700	1.870	1.880	1.865	1.880	1.875	1.890
-0.073	0.044	-0.039	0.010	0.005	-0.015	0.439	2.705	1.885	1.885	1.870	1.885	1.880	1.885
-0.059	0.073	-0.024	0.010	0.010	-0.044	0.439	2.700	1.890	1.895	1.880	1.890	1.880	1.880
-0.054	0.034	-0.005	0.005	-0.029	-0.029	0.439	2.700	1.890	1.885	1.885	1.890	1.870	1.875
-0.039	0.015	0.015	0.005	-0.039	-0.005	0.435	2.690	1.890	1.875	1.885	1.895	1.875	1.885
-0.029	0.005	0.024	-0.005	-0.029	0.005	0.435	2.710	1.895	1.880	1.885	1.895	1.880	1.885
-0.029	0.000	0.024	0.005	0.000	0.020	0.435	2.690	1.895	1.880	1.885	1.895	1.890	1.890
-0.010	0.015	-0.005	0.000	0.010	0.034	0.435	2.695	1.890	1.885	1.875	1.895	1.895	1.899
0.005	0.010	-0.024	-0.005	0.034	0.049	0.435	2.686	1.890	1.880	1.870	1.895	1.899	1.899
-0.005	0.015	-0.020	0.000	0.034	0.034	0.430	2.686	1.885	1.885	1.875	1.895	1.895	1.890
-0.005	-0.005	-0.020	0.000	0.034	0.005	0.430	2.681	1.885	1.880	1.875	1.895	1.890	1.885
-0.005	-0.015	-0.010	0.000	0.010	-0.005	0.439	2.681	1.880	1.875	1.875	1.890	1.880	1.880
-0.005	-0.024	0.000	0.000	0.015	-0.049	0.439	2.710	1.885	1.875	1.875	1.895	1.885	1.870
0.000	-0.024	0.000	0.000	-0.005	-0.034	0.430	2.695	1.885	1.880	1.875	1.895	1.880	1.875
0.010	-0.015	0.005	0.000	-0.010	-0.049	0.435	2.700	1.890	1.880	1.880	1.899	1.880	1.875
-0.010	-0.010	0.005	0.000	-0.020	-0.020	0.430	2.695	1.885	1.885	1.880	1.899	1.885	1.880
0.010	-0.010	0.010	0.005	-0.024	-0.020	0.435	2.700	1.890	1.890	1.885	1.899	1.890	1.890
0.005	-0.010	-0.005	0.000	-0.024	-0.010	0.430	2.700	1.885	1.885	1.880	1.899	1.890	1.890
0.005	0.000	0.010	0.000	-0.024	0.039	0.435	2.695	1.890	1.895	1.885	1.904	1.895	1.899
0.010	-0.005	0.000	0.000	-0.015	0.034	0.430	2.700	1.895	1.885	1.885	1.904	1.899	1.899
0.010	-0.005	0.000	0.000	-0.020	0.054	0.435	2.671	1.890	1.890	1.885	1.904	1.899	1.909
0.015	0.000	-0.005	0.000	-0.010	0.039	0.430	2.705	1.890	1.890	1.885	1.904	1.899	1.904
0.010	0.000	0.005	0.000	-0.010	0.078	0.435	2.705	1.890	1.890	1.885	1.899	1.899	1.909
0.005	0.000	-0.005	0.000	-0.010	0.054	0.435	2.666	1.885	1.885	1.885	1.904	1.899	1.899
0.005	0.005	-0.005	0.000	-0.020	0.024	0.435	2.759	1.890	1.885	1.880	1.899	1.890	1.890
0.000	-0.005	0.000	0.000	-0.024	0.034	0.435	2.798	1.895	1.880	1.880	1.899	1.890	1.890
0.005	-0.005	-0.005	0.000	-0.010	0.000	0.435	2.651	1.885	1.885	1.880	1.899	1.895	1.885
0.005	0.000	-0.005	0.000	-0.005	-0.029	0.430	2.788	1.890	1.885	1.880	1.899	1.890	1.875
-0.020	0.000	0.005	0.000	-0.005	-0.024	0.435	2.637	1.875	1.885	1.885	1.899	1.895	1.885
0.000	0.000	0.010	0.005	0.005	-0.039	0.439	2.666	1.880	1.880	1.885	1.899	1.895	1.885
-0.010	0.010	-0.015	0.005	0.000	-0.049	0.435	2.744	1.885	1.885	1.880	1.899	1.895	1.885
0.005	0.010	-0.024	0.005	-0.005	-0.010	0.430	2.754	1.895	1.885	1.875	1.899	1.899	1.899
-0.005	0.005	-0.024	0.005	0.000	-0.005	0.435	2.676	1.885	1.885	1.880	1.899	1.899	1.899
0.010	0.000	-0.024	0.005	0.005	-0.005	0.435	2.627	1.885	1.890	1.885	1.899	1.899	1.899
0.005	0.010	-0.029	0.000	-0.010	-0.010	0.435	2.676	1.885	1.890	1.885	1.899	1.895	1.895
0.010	0.024	-0.010	0.005	-0.020	0.000	0.435	2.729	1.890	1.899	1.895	1.904	1.895	1.895
0.015	0.034	0.020	0.005	-0.020	-0.015	0.435	2.705	1.895	1.899	1.899	1.909	1.899	1.890
0.024	0.020	0.044	0.010	-0.005	-0.015	0.430	2.651	1.885	1.890	1.904	1.914	1.904	1.899
0.024	0.000	0.068	0.015	0.000	-0.005	0.430	2.651	1.880	1.885	1.904	1.919	1.909	1.899
0.024	-0.010	0.059	0.010	0.010	-0.015	0.435	2.651	1.875	1.875	1.890	1.914	1.909	1.899
0.015	-0.005	0.063	0.000	0.020	-0.029	0.430	2.700	1.875	1.875	1.890	1.909	1.909	1.899
0.010	0.005	0.059	0.005	0.024	-0.005	0.430	2.700	1.880	1.880	1.885	1.904	1.904	1.909
0.024	0.015	0.044	0.005	0.000	-0.005	0.439	2.695	1.885	1.880	1.875	1.899	1.899	1.904
0.015	0.005	0.024	0.010	0.000	0.010	0.444	2.705	1.880	1.875	1.870	1.899	1.895	1.904
-0.005	-0.024	0.000	-0.005	-0.010	0.015	0.435	2.690	1.875	1.865	1.860	1.890	1.890	1.899
-0.010	-0.044	-0.010	0.005	0.005	0.020	0.439	2.695	1.875	1.865	1.860	1.885	1.895	1.904
-0.020	-0.039	-0.010	0.010	-0.005	0.024	0.435	2.681	1.880	1.870	1.860	1.885	1.885	1.899
-0.005	-0.024	-0.015	0.005	-0.044	0.020	0.435	2.690	1.885	1.880	1.865	1.885	1.875	1.885
0.005	-0.005	-0.010	0.000	-0.068	0.024	0.430	2.690	1.890	1.890	1.875	1.885	1.875	1.890
0.010	0.034	-0.010	0.000	-0.039	0.024	0.435	2.690	1.890	1.899	1.880	1.890	1.880	1.885
0.005	0.029	-0.005	0.005	-0.029	0.000	0.435	2.695	1.890	1.895	1.885	1.895	1.885	1.875
-0.005	0.024	-0.015	0.000	0.005	0.005	0.435	2.686	1.880	1.890	1.885	1.899	1.899	1.890
0.000	0.010	-0.010	0.000	0.029	-0.034	0.430	2.715	1.890	1.885	1.885	1.899	1.904	1.880
0.005	0.015	-0.010	0.005	0.049	-0.015	0.439	2.705	1.890	1.895	1.890	1.899	1.909	1.895
0.015	0.020	-0.015	-0.005	0.107	-0.024	0.439	2.695	1.890	1.890	1.885	1.899	1.924	1.895
0.005	0.000	-0.024	-0.005	0.142	-0.034	0.444	2.690	1.890	1.880	1.880	1.904	1.924	1.904
0.010	0.005	-0.029	-0.005	0.088	-0.005	0.439	2.705	1.890	1.880	1.875	1.895	1.899	1.904
0.010	0.000	-0.015	-0.005	-0.005	-0.015	0.439	2.666	1.880	1.885	1.880	1.895	1.870	1.895
0.015	-0.005	-0.010	0.000	-0.029	0.015	0.439	2.686	1.885	1.875	1.880	1.895	1.870	1.890
-0.010	-0.005	0.000	-0.005	0.015	0.029	0.439	2.695	1.880	1.875	1.880	1.895	1.890	1.890
0.000	-0.005	0.005	0.000	0.034	0.010	0.430	2.686	1.880	1.875	1.880	1.895	1.895	1.890
0.005	0.010	0.024	0.000	0.034	0.044	0.435	2.700	1.880	1.880	1.885	1.895	1.895	1.899
-0.005	0.010	0.029	0.000	0.005	0.029	0.435	2.690	1.880	1.880	1.885	1.899	1.885	1.890
0.015	0.000	0.024	-0.005	-0.059	0.054	0.435	2.671	1.885	1.880	1.885	1.899	1.870	1.890
0.020	0.000	0.029	0.000	-0.083	0.049	0.439	2.764	1.890	1.880	1.880	1.899	1.870	1.885
0.005	-0.005	0.015	0.000	-0.059	0.034	0.430	2.715	1.899	1.885	1.880	1.899	1.890	1.885
-0.005	-0.010	0.015	0.000	-0.029	0.000	0.439	2.651	1.885	1.885	1.880	1.899	1.895	1.880
-0.010	0.005	0.000	0.005	-0.049	-0.010	0.430	2.788	1.895	1.890	1.880	1.899	1.885	1.880
-0.020	0.010	-0.005	0.005	-0.073	0.000	0.439	2.744	1.899	1.890	1.885	1.899	1.890	1.885
-0.020	0.034	-0.010	0.005	-0.049	0.015	0.430	2.666	1.895	1.895	1.885	1.904	1.899	1.890
-0.015	0.029	-0.010	0.000	0.015	0.010	0.435	2.739	1.899	1.895	1.890	1.909	1.914	1.895
-0.015	0.005	-0.020	0.005	0.049	-0.010	0.435	2.661	1.890	1.890	1.885	1.904	1.919	1.895
-0.015	-0.010	-0.020	0.000	0.020	-0.005	0.439	2.715	1.885	1.880	1.880	1.899	1.904	1.899
-0.010	-0.010	-0.010	0.000	0.015	-0.005	0.435	2.671	1.880	1.880	1.885	1.899	1.904	1.899
0.000	-0.005	0.005	0.000	-0.015	0.010	0.430	2.671	1.880	1.880	1.880	1.899	1.890	1.899
0.005	-0.010	0.005	0.000	-0.073	0.005	0.430	2.651	1.875	1.875	1.880	1.895	1.875	1.890
-0.010	0.000	0.015	-0.005	-0.010	0.015	0.444	2.686	1.875	1.875	1.885	1.899	1.895	1.895
-0.005	0.000	0.015	0.000	0.005	0.039	0.439	2.671	1.875	1.875	1.880	1.899	1.899	1.899
0.010	0.000	0.010	0.000	-0.029	0.039	0.444	2.671	1.875	1.875	1.875	1.895	1.890	1.895
0.015	0.000	0.010	0.000	0.044	0.010	0.435	2.734	1.885	1.880	1.875	1.899	1.909	1.895
0.010	0.000	0.000	0.000	0.117	-0.015	0.439	2.710	1.890	1.880	1.875	1.899	1.924	1.895
0.005	0.000	0.005	0.005	0.195	-0.054	0.435	2.695	1.895	1.885	1.880	1.899	1.938	1.899
0.010	0.010	-0.005	0.000	0.200	-0.024	0.435	2.705	1.895	1.885	1.880	1.899	1.929	1.919
0.010	0.005	0.000	0.005	0.137	-0.029	0.439	2.695	1.890	1.890	1.885	1.899	1.899	1.909
0.010	0.015	0.000	0.000	0.039	0.005	0.439	2.695	1.899	1.895	1.885	1.899	1.875	1.904
0.010	-0.005	0.005	0.000	-0.034	-0.020	0.435	2.695	1.895	1.890	1.885	1.899	1.865	1.885
0.005	0.005	-0.005	0.005	-0.054	-0.034	0.435	2.690	1.890	1.895	1.890	1.899	1.870	1.880
0.005	0.005	-0.005	0.005	-0.015	-0.059	0.439	2.686	1.885	1.885	1.890	1.904	1.880	1.870
0.005	0.000	0.005	0.000	0.000	-0.015	0.444	2.690	1.885	1.885	1.885	1.904	1.890	1.890
0.005	0.000	0.000	0.005	-0.024	-0.020	0.435	2.690	1.885	1.885	1.880	1.899	1.885	1.885
-0.005	-0.005	0.005	0.005	-0.029	0.024	0.435	2.686	1.875	1.880	1.885	1.899	1.890	1.899
0.005	-0.005	0.005	0.000	-0.024	0.020	0.435	2.695	1.880	1.870	1.875	1.899	1.890	1.890
0.005	0.000	0.005	0.005	-0.005	0.010	0.444	2.700	1.880	1.880	1.880	1.899	1.895	1.895
-0.005	0.005	0.000	0.000	0.010	0.005	0.439	2.700	1.880	1.875	1.875	1.895	1.899	1.895
0.000	0.010	0.000	0.000	0.020	-0.020	0.435	2.710	1.890	1.875	1.875	1.895	1.895	1.885
-0.005	0.005	0.000	0.000	0.015	0.000	0.435	2.700	1.885	1.880	1.875	1.895	1.895	1.895
-0.005	0.005	0.005	0.000	-0.010	0.000	0.435	2.695	1.880	1.880	1.880	1.890	1.890	1.890
-0.005	0.005	-0.005	-0.005	-0.020	-0.005	0.439	2.695	1.880	1.880	1.880	1.895	1.885	1.890
-0.005	0.005	0.000	0.000	-0.029	-0.020	0.439	2.705	1.885	1.880	1.875	1.895	1.880	1.880
-0.005	0.000	0.000	0.000	-0.020	-0.005	0.444	2.700	1.890	1.880	1.880	1.899	1.890	1.890
-0.005	-0.005	-0.024	0.005	-0.034	0.005	0.439	2.686	1.880	1.885	1.875	1.899	1.890	1.890
-0.015	0.000	-0.020	0.005	-0.039	-0.005	0.439	2.690	1.885	1.880	1.875	1.895	1.890	1.890
-0.005	-0.010	-0.010	0.005	-0.034	0.010	0.435	2.695	1.890	1.885	1.880	1.899	1.890	1.890
-0.005	-0.005	-0.010	0.005	-0.010	-0.010	0.439	2.676	1.885	1.885	1.880	1.899	1.895	1.890
0.000	-0.005	0.010	0.000	-0.015	0.010	0.439	2.759	1.895	1.890	1.885	1.899	1.899	1.899
-0.005	0.000	0.020	0.000	-0.015	0.015	0.439	2.783	1.899	1.890	1.890	1.904	1.895	1.895
0.005	0.005	0.034	0.005	-0.005	0.024	0.435	2.661	1.890	1.895	1.895	1.904	1.899	1.904
0.010	0.020	0.039	0.005	-0.015	0.015	0.439	2.788	1.899	1.895	1.895	1.904	1.895	1.895
0.029	0.000	0.034	0.005	-0.010	0.044	0.435	2.739	1.904	1.890	1.890	1.909	1.899	1.899
0.029	0.005	0.024	0.005	-0.024	0.010	0.435	2.646	1.890	1.890	1.885	1.904	1.895	1.890
0.044	0.010	0.000	0.000	-0.020	0.024	0.435	2.734	1.890	1.890	1.885	1.899	1.899	1.899
0.039	0.020	-0.010	0.005	-0.010	0.005	0.439	2.759	1.899	1.895	1.880	1.904	1.899	1.895
0.034	0.010	-0.024	0.005	-0.005	0.010	0.439	2.700	1.895	1.890	1.880	1.899	1.904	1.895
0.015	0.005	-0.020	0.005	-0.015	0.000	0.435	2.656	1.880	1.885	1.880	1.899	1.895	1.890
0.015	0.000	-0.010	0.000	-0.024	-0.020	0.439	2.690	1.880	1.885	1.885	1.899	1.895	1.890
0.005	-0.015	-0.010	-0.005	-0.029	-0.034	0.435	2.744	1.885	1.880	1.885	1.899	1.895	1.890
-0.010	-0.020	0.005	0.000	-0.024	-0.010	0.435	2.686	1.885	1.880	1.890	1.904	1.899	1.895
-0.005	-0.005	0.015	-0.005	0.010	-0.005	0.439	2.646	1.880	1.885	1.890	1.904	1.909	1.904
-0.020	0.000	0.020	0.000	0.054	0.005	0.439	2.671	1.880	1.890	1.895	1.909	1.924	1.914
-0.010	0.005	0.020	0.000	0.054	0.005	0.439	2.642	1.880	1.885	1.890	1.909	1.914	1.909
0.000	0.010	0.024	0.000	0.039	-0.005	0.435	2.695	1.885	1.880	1.885	1.909	1.909	1.909
-0.020	-0.015	0.005	0.000	0.024	0.015	0.430	2.705	1.885	1.875	1.875	1.904	1.904	1.909
-0.005	-0.029	-0.015	0.000	0.024	0.005	0.439	2.705	1.890	1.875	1.870	1.899	1.899	1.904
-0.010	-0.005	-0.010	-0.005	0.034	0.005	0.425	2.700	1.885	1.880	1.870	1.895	1.899	1.899
-0.015	0.010	-0.005	0.000	0.024	-0.005	0.444	2.686	1.885	1.885	1.875	1.895	1.895	1.895
0.000	0.029	-0.005	0.000	0.015	-0.010	0.435	2.705	1.895	1.895	1.880	1.895	1.890	1.890
0.029	0.039	-0.005	0.005	0.010	-0.020	0.439	2.681	1.890	1.895	1.885	1.895	1.890	1.890
0.005	0.015	0.005	0.010	0.015	0.005	0.425	2.681	1.875	1.885	1.885	1.899	1.895	1.895
0.010	-0.005	0.020	0.010	0.010	0.010	0.435	2.690	1.880	1.875	1.885	1.899	1.890	1.895
-0.010	0.005	0.015	0.010	0.000	0.010	0.430	2.705	1.880	1.875	1.880	1.899	1.890	1.890
-0.024	0.005	0.015	0.010	0.005	0.010	0.444	2.681	1.875	1.880	1.880	1.899	1.895	1.895
-0.024	0.010	0.010	0.010	0.000	-0.024	0.430	2.690	1.875	1.880	1.875	1.899	1.890	1.880
-0.020	0.005	0.010	0.010	-0.010	-0.010	0.444	2.695	1.885	1.880	1.875	1.899	1.895	1.890
-0.010	-0.005	-0.005	0.005	-0.029	-0.020	0.435	2.705	1.895	1.880	1.875	1.899	1.890	1.885
-0.005	-0.005	-0.005	0.005	-0.039	-0.010	0.439	2.705	1.895	1.885	1.880	1.895	1.890	1.890
0.005	0.010	-0.015	0.000	-0.049	-0.005	0.430	2.686	1.895	1.890	1.880	1.895	1.885	1.890
0.005	0.010	-0.020	0.000	-0.024	0.005	0.449	2.705	1.890	1.890	1.880	1.895	1.895	1.890
0.000	0.010	-0.034	0.000	-0.015	-0.005	0.435	2.686	1.890	1.890	1.880	1.895	1.895	1.890
-0.005	-0.015	-0.063	0.000	-0.024	-0.005	0.439	2.710	1.885	1.875	1.870	1.895	1.890	1.890
0.000	-0.020	-0.044	-0.005	-0.024	0.005	0.435	2.690	1.885	1.880	1.875	1.890	1.890	1.890
0.020	-0.010	-0.020	-0.005	-0.010	-0.010	0.439	2.686	1.890	1.880	1.885	1.895	1.890	1.885
0.024	0.005	0.005	0.005	-0.020	0.020	0.435	2.681	1.885	1.890	1.890	1.899	1.890	1.895
0.020	0.000	0.024	-0.005	-0.005	0.034	0.435	2.686	1.885	1.885	1.890	1.899	1.895	1.899
0.010	0.020	0.049	0.000	0.029	0.054	0.435	2.632	1.870	1.885	1.895	1.904	1.904	1.904
0.015	0.029	0.059	0.000	0.044	0.073	0.435	2.754	1.885	1.885	1.895	1.909	1.909	1.909
0.015	0.024	0.059	0.000	0.034	0.059	0.435	2.744	1.895	1.885	1.890	1.904	1.904	1.904
0.010	0.020	0.049	0.000	0.039	0.039	0.439	2.661	1.885	1.880	1.885	1.904	1.904	1.895
0.015	0.000	0.029	0.005	0.005	0.005	0.439	2.803	1.904	1.880	1.875	1.904	1.895	1.885
0.005	-0.029	0.010	0.000	0.010	-0.015	0.439	2.646	1.895	1.875	1.875	1.899	1.895	1.885
-0.005	-0.044	0.000	0.000	0.039	-0.034	0.435	2.661	1.885	1.875	1.870	1.899	1.904	1.885
0.000	-0.049	-0.015	0.000	0.039	-0.029	0.439	2.744	1.890	1.875	1.870	1.895	1.899	1.890
-0.005	-0.029	-0.015	0.005	0.029	-0.029	0.430	2.656	1.890	1.885	1.875	1.895	1.895	1.890
-0.010	-0.005	-0.015	0.000	0.010	-0.015	0.435	2.720	1.895	1.895	1.880	1.899	1.895	1.899
-0.005	0.010	-0.010	0.000	0.000	-0.005	0.430	2.661	1.890	1.895	1.890	1.895	1.890	1.899
0.000	0.015	-0.005	0.000	-0.005	0.020	0.430	2.676	1.885	1.895	1.885	1.899	1.890	1.899
-0.010	0.024	-0.010	0.000	0.024	0.000	0.435	2.734	1.890	1.895	1.890	1.904	1.899	1.895
0.000	0.020	-0.005	0.005	0.039	0.010	0.430	2.705	1.890	1.890	1.885	1.904	1.904	1.895
0.000	0.010	-0.010	0.000	0.000	0.005	0.439	2.661	1.885	1.885	1.885	1.899	1.890	1.895
0.000	0.010	-0.005	0.000	-0.034	0.005	0.435	2.671	1.880	1.880	1.880	1.899	1.880	1.890
0.000	0.020	-0.029	0.005	-0.024	0.015	0.439	2.749	1.890	1.880	1.875	1.895	1.885	1.890
-0.010	0.015	-0.029	-0.005	-0.015	0.020	0.425	2.705	1.885	1.880	1.875	1.895	1.890	1.890
0.000	0.024	-0.020	0.000	-0.029	0.015	0.444	2.710	1.885	1.880	1.880	1.895	1.885	1.885
-0.005	0.015	-0.005	0.005	-0.049	-0.015	0.430	2.710	1.885	1.880	1.885	1.899	1.880	1.880
0.000	0.010	0.005	0.000	-0.034	-0.020	0.435	2.686	1.885	1.880	1.885	1.899	1.890	1.880
0.000	0.015	0.015	0.000	-0.005	-0.020	0.435	2.695	1.890	1.885	1.885	1.904	1.899	1.885
0.005	0.005	0.015	0.000	-0.010	-0.015	0.444	2.720	1.895	1.885	1.890	1.904	1.899	1.890
0.000	0.005	0.020	0.005	-0.005	-0.010	0.430	2.695	1.895	1.885	1.885	1.904	1.899	1.895
0.005	-0.005	0.024	0.005	-0.005	-0.005	0.439	2.710	1.890	1.885	1.890	1.909	1.899	1.899
0.005	-0.005	0.020	0.010	0.015	0.010	0.435	2.690	1.895	1.885	1.890	1.909	1.909	1.904
0.005	-0.010	0.010	0.005	0.034	0.010	0.444	2.690	1.895	1.890	1.885	1.909	1.914	1.909
0.000	-0.005	0.000	0.005	0.039	0.010	0.430	2.686	1.890	1.890	1.880	1.904	1.909	1.909
0.005	0.010	0.000	0.000	0.029	0.005	0.439	2.695	1.885	1.890	1.885	1.904	1.904	1.904
-0.010	0.010	-0.005	0.000	0.015	-0.010	0.435	2.705	1.885	1.885	1.885	1.904	1.895	1.899
-0.010	0.000	-0.015	0.000	-0.005	-0.020	0.435	2.686	1.880	1.880	1.880	1.899	1.890	1.890
-0.005	0.000	-0.010	0.000	-0.005	-0.020	0.430	2.700	1.885	1.880	1.875	1.899	1.890	1.890
-0.010	-0.005	-0.005	-0.005	-0.005	-0.015	0.444	2.700	1.880	1.875	1.875	1.899	1.890	1.890
-0.020	0.005	0.000	0.000	-0.010	-0.024	0.439	2.715	1.880	1.875	1.875	1.895	1.890	1.890
-0.020	0.000	0.000	0.000	-0.010	-0.010	0.430	2.690	1.880	1.875	1.875	1.895	1.885	1.890
-0.020	0.010	-0.005	0.005	-0.034	0.005	0.439	2.710	1.885	1.880	1.875	1.895	1.880	1.890
-0.029	0.000	-0.005	0.005	-0.020	0.015	0.435	2.686	1.880	1.880	1.875	1.895	1.890	1.895
-0.024	0.005	0.015	0.005	0.049	0.034	0.435	2.690	1.880	1.880	1.880	1.899	1.909	1.904
-0.039	-0.005	0.015	0.005	0.024	0.044	0.435	2.710	1.880	1.880	1.885	1.899	1.899	1.909
-0.020	-0.005	0.029	0.000	-0.024	0.039	0.435	2.700	1.890	1.880	1.885	1.899	1.885	1.899
0.000	-0.005	0.024	0.000	-0.024	0.039	0.430	2.612	1.895	1.890	1.885	1.899	1.890	1.895
0.010	-0.005	0.020	0.000	-0.020	0.010	0.435	2.793	1.909	1.890	1.885	1.899	1.895	1.890
0.044	-0.005	0.010	0.010	0.024	-0.010	0.435	2.651	1.909	1.895	1.885	1.904	1.909	1.890
0.049	0.000	-0.005	0.000	0.073	-0.015	0.435	2.661	1.899	1.899	1.885	1.904	1.919	1.895
0.068	0.000	-0.005	0.000	0.112	-0.010	0.430	2.788	1.909	1.899	1.890	1.904	1.919	1.904
0.078	0.010	-0.010	0.010	0.044	-0.029	0.435	2.739	1.914	1.904	1.890	1.909	1.899	1.895
0.083	-0.005	-0.005	0.005	0.005	-0.005	0.435	2.646	1.899	1.899	1.890	1.904	1.890	1.899
0.098	-0.010	0.000	0.000	-0.029	0.000	0.439	2.749	1.909	1.899	1.890	1.904	1.885	1.895
0.078	-0.015	0.000	-0.005	-0.029	-0.005	0.430	2.759	1.899	1.895	1.895	1.904	1.885	1.890
0.068	-0.015	0.000	-0.005	-0.029	0.000	0.435	2.744	1.899	1.895	1.890	1.904	1.890	1.890
0.044	-0.015	0.010	0.000	-0.015	0.005	0.435	2.744	1.890	1.885	1.890	1.904	1.895	1.890
0.024	-0.015	0.005	0.000	-0.020	0.015	0.435	2.671	1.880	1.885	1.890	1.904	1.895	1.895
0.010	0.000	0.000	0.005	-0.039	-0.005	0.439	2.622	1.870	1.880	1.890	1.904	1.890	1.890
