0.005	0.010	0.000	0.000	0.000	0.010	0.396	2.700	2.402	2.090	2.012	1.943	1.948	1.948
0.000	-0.005	0.000	0.000	0.000	0.010	0.386	2.695	2.285	2.144	2.041	1.973	1.953	1.948
0.010	0.000	0.005	0.000	0.005	-0.005	0.386	2.690	2.192	2.158	2.075	2.007	1.968	1.953
-0.005	0.010	0.005	0.000	-0.010	-0.005	0.381	2.705	2.124	2.153	2.100	2.036	1.982	1.953
-0.005	-0.005	0.000	0.000	-0.005	0.005	0.400	2.695	2.075	2.134	2.109	2.061	2.007	1.978
0.000	0.010	0.005	0.005	0.000	0.020	0.391	2.686	2.046	2.109	2.114	2.080	2.026	1.992
-0.005	0.000	-0.005	0.000	-0.010	0.000	0.396	2.690	2.021	2.090	2.104	2.095	2.041	2.002
0.000	0.010	0.010	0.000	0.000	0.010	0.391	2.695	2.007	2.070	2.095	2.100	2.061	2.017
0.005	0.005	0.000	0.000	0.005	-0.005	0.396	2.710	1.997	2.051	2.085	2.100	2.070	2.031
0.000	0.000	0.000	0.005	-0.005	-0.005	0.391	2.671	1.987	2.031	2.070	2.095	2.075	2.046
0.005	0.005	0.005	0.005	0.000	0.000	0.391	2.695	1.987	2.021	2.056	2.095	2.080	2.056
0.000	0.000	-0.005	0.010	0.000	-0.005	0.381	2.690	1.982	2.007	2.041	2.090	2.080	2.061
0.000	-0.005	0.005	0.015	0.005	-0.020	0.391	2.754	1.987	2.002	2.031	2.075	2.075	2.061
-0.010	0.005	0.000	0.005	0.005	0.005	0.381	2.666	1.982	1.997	2.021	2.065	2.070	2.065
0.000	0.000	0.000	0.005	0.000	0.000	0.386	2.788	1.992	1.992	2.012	2.051	2.065	2.065
-0.005	-0.005	0.005	0.000	0.000	0.000	0.386	2.656	1.982	1.987	2.002	2.041	2.056	2.061
0.000	0.015	0.010	0.005	0.005	0.000	0.391	2.671	1.978	1.992	1.997	2.036	2.051	2.056
0.010	0.010	0.000	0.000	-0.005	-0.024	0.386	2.676	1.978	1.987	1.997	2.026	2.041	2.046
0.010	0.015	-0.005	0.000	0.000	0.010	0.391	2.646	1.973	1.987	1.992	2.021	2.036	2.051
0.005	0.015	0.005	0.000	0.010	0.024	0.386	2.690	1.982	1.982	1.992	2.017	2.031	2.051
0.000	0.000	0.000	0.000	0.000	-0.010	0.386	2.729	1.982	1.982	1.987	2.017	2.021	2.036
0.005	-0.005	0.000	0.000	0.000	0.015	0.386	2.651	1.982	1.982	1.987	2.012	2.021	2.041
0.010	0.010	0.005	0.000	0.000	0.010	0.396	2.734	1.992	1.987	1.987	2.012	2.017	2.031
0.010	0.000	0.000	0.005	0.005	0.000	0.391	2.734	1.987	1.982	1.987	2.012	2.017	2.026
-0.005	0.005	0.005	0.000	0.000	0.010	0.391	2.739	1.992	1.987	1.987	2.007	2.012	2.026
0.000	-0.005	0.000	0.005	0.005	0.015	0.391	2.646	1.978	1.982	1.987	2.007	2.012	2.021
0.000	0.005	0.005	0.005	0.005	0.010	0.386	2.739	1.987	1.987	1.987	2.007	2.007	2.017
0.000	-0.010	0.005	0.005	0.005	0.015	0.391	2.666	1.982	1.982	1.982	2.012	2.007	2.017
0.005	-0.005	-0.005	0.005	0.010	0.005	0.391	2.666	1.973	1.978	1.978	2.002	2.007	2.012
-0.005	0.000	-0.005	0.005	0.000	0.005	0.396	2.686	1.968	1.973	1.973	2.002	2.002	2.002
0.000	0.005	0.005	0.005	0.005	0.005	0.391	2.705	1.973	1.978	1.978	1.997	1.997	2.007
-0.010	-0.005	0.000	0.000	0.005	0.010	0.391	2.705	1.968	1.968	1.973	1.997	1.997	2.007
0.005	-0.005	0.000	0.000	0.005	-0.005	0.386	2.695	1.968	1.973	1.973	1.992	1.992	1.997
0.005	0.005	-0.005	0.005	0.005	0.005	0.391	2.681	1.968	1.968	1.968	1.992	1.987	1.992
0.010	0.005	0.005	0.005	0.000	0.000	0.396	2.705	1.968	1.968	1.968	1.992	1.987	1.992
0.005	0.000	0.005	0.005	0.000	-0.005	0.396	2.686	1.968	1.968	1.968	1.987	1.987	1.987
0.000	0.005	0.005	0.000	0.000	-0.010	0.386	2.690	1.963	1.968	1.968	1.987	1.982	1.982
0.000	0.000	0.000	0.000	-0.005	0.005	0.386	2.705	1.968	1.963	1.968	1.987	1.987	1.987
0.015	-0.005	0.000	0.000	-0.005	-0.005	0.386	2.695	1.968	1.968	1.968	1.987	1.987	1.992
0.000	0.000	0.000	-0.005	-0.005	0.000	0.396	2.710	1.968	1.968	1.968	1.987	1.987	1.992
0.005	-0.020	0.000	0.000	-0.005	0.005	0.386	2.710	1.973	1.963	1.963	1.982	1.982	1.987
0.000	-0.015	0.005	0.000	0.000	0.000	0.391	2.690	1.973	1.973	1.968	1.987	1.982	1.987
0.000	-0.010	0.000	0.000	0.000	0.000	0.386	2.686	1.968	1.973	1.968	1.987	1.982	1.987
0.010	-0.005	0.005	0.000	0.005	0.005	0.396	2.681	1.963	1.973	1.968	1.987	1.987	1.987
0.000	0.015	0.000	0.000	0.005	-0.005	0.396	2.695	1.963	1.973	1.968	1.987	1.987	1.982
0.005	0.005	0.005	0.010	0.000	0.010	0.386	2.695	1.963	1.963	1.968	1.987	1.982	1.987
-0.005	0.010	0.000	0.000	0.005	-0.015	0.391	2.700	1.958	1.963	1.963	1.982	1.982	1.978
0.000	0.010	0.000	0.000	0.000	0.010	0.391	2.686	1.958	1.958	1.958	1.982	1.978	1.982
0.000	0.005	0.000	0.000	0.005	-0.005	0.396	2.705	1.953	1.958	1.958	1.978	1.978	1.978
-0.005	0.015	-0.005	0.000	0.005	0.000	0.396	2.690	1.953	1.953	1.953	1.978	1.978	1.978
0.005	0.010	0.000	0.005	0.000	0.005	0.381	2.700	1.953	1.953	1.953	1.978	1.973	1.978
0.005	0.005	0.000	0.005	0.005	0.000	0.391	2.690	1.948	1.948	1.953	1.973	1.973	1.978
-0.005	0.005	0.000	0.005	0.000	-0.015	0.386	2.646	1.953	1.948	1.948	1.973	1.968	1.968
0.000	-0.005	0.000	0.010	0.005	-0.005	0.386	2.651	1.948	1.948	1.948	1.973	1.973	1.973
0.005	-0.005	0.005	0.000	0.005	0.005	0.386	2.788	1.963	1.953	1.953	1.968	1.973	1.978
0.000	0.015	-0.005	0.000	0.005	-0.015	0.386	2.651	1.958	1.963	1.948	1.973	1.973	1.968
0.000	0.005	0.000	0.000	0.000	0.010	0.391	2.739	1.948	1.948	1.953	1.973	1.973	1.978
0.010	0.015	0.000	0.005	0.000	0.015	0.386	2.671	1.948	1.958	1.958	1.978	1.973	1.978
0.005	-0.010	0.000	-0.005	0.000	-0.020	0.391	2.739	1.958	1.953	1.953	1.973	1.973	1.968
-0.005	0.000	0.000	0.000	0.005	0.010	0.386	2.690	1.953	1.948	1.953	1.973	1.973	1.978
0.005	0.005	0.000	0.000	0.000	0.005	0.386	2.715	1.958	1.958	1.953	1.973	1.973	1.973
0.000	0.005	0.000	0.005	0.000	0.020	0.386	2.651	1.948	1.953	1.953	1.973	1.973	1.973
0.000	0.005	0.000	0.005	0.005	0.005	0.396	2.617	1.938	1.948	1.948	1.973	1.968	1.968
-0.010	0.005	0.005	0.005	0.005	0.000	0.386	2.739	1.948	1.948	1.948	1.968	1.968	1.963
-0.005	0.015	0.000	0.000	0.000	0.005	0.386	2.637	1.934	1.943	1.948	1.968	1.963	1.968
0.010	-0.010	0.010	0.010	0.005	0.010	0.386	2.749	1.948	1.934	1.943	1.968	1.963	1.963
-0.005	-0.005	0.005	0.000	0.000	0.005	0.396	2.739	1.948	1.938	1.938	1.963	1.963	1.963
0.000	-0.005	0.000	0.000	0.005	-0.015	0.386	2.749	1.943	1.938	1.934	1.958	1.958	1.953
0.005	0.000	0.000	0.005	0.005	-0.010	0.396	2.656	1.938	1.943	1.938	1.958	1.958	1.953
0.015	-0.010	0.000	0.000	0.000	-0.020	0.386	2.705	1.938	1.934	1.934	1.953	1.953	1.958
0.020	0.000	0.000	0.000	0.000	0.015	0.396	2.705	1.943	1.943	1.934	1.958	1.953	1.968
0.005	0.000	0.000	0.000	0.000	0.010	0.391	2.710	1.948	1.943	1.938	1.958	1.958	1.963
0.005	0.015	0.000	-0.005	0.000	0.005	0.396	2.700	1.948	1.943	1.943	1.958	1.953	1.958
0.005	0.015	0.010	0.000	0.005	0.005	0.391	2.700	1.943	1.948	1.943	1.958	1.958	1.958
0.005	0.020	0.000	0.000	0.000	0.000	0.396	2.681	1.938	1.948	1.943	1.963	1.958	1.958
0.000	0.015	0.000	-0.005	0.005	-0.010	0.386	2.690	1.943	1.943	1.943	1.963	1.958	1.958
0.000	-0.015	0.005	0.000	0.000	0.000	0.386	2.690	1.943	1.934	1.943	1.968	1.963	1.958
-0.005	-0.015	0.005	-0.005	0.005	0.010	0.381	2.700	1.938	1.934	1.938	1.958	1.958	1.963
0.005	-0.005	0.000	0.005	0.010	0.000	0.391	2.690	1.938	1.938	1.938	1.958	1.958	1.958
-0.005	-0.015	0.000	0.000	0.005	0.010	0.391	2.695	1.934	1.934	1.934	1.953	1.953	1.963
0.000	-0.010	0.000	0.000	0.000	0.020	0.386	2.690	1.938	1.934	1.934	1.953	1.948	1.958
0.000	0.005	0.005	0.005	0.010	0.015	0.386	2.686	1.934	1.938	1.934	1.953	1.948	1.953
-0.005	0.000	0.000	0.005	0.000	0.020	0.386	2.710	1.934	1.934	1.934	1.953	1.948	1.948
-0.010	0.000	0.005	0.005	-0.005	0.005	0.386	2.710	1.929	1.934	1.934	1.948	1.948	1.948
0.000	0.000	0.000	0.005	0.000	0.005	0.396	2.686	1.929	1.929	1.929	1.948	1.943	1.948
-0.005	-0.005	0.005	0.005	0.005	0.005	0.396	2.686	1.929	1.929	1.929	1.948	1.948	1.948
0.000	0.000	0.005	0.005	0.005	-0.020	0.381	2.695	1.929	1.929	1.929	1.948	1.943	1.938
0.005	0.005	0.000	0.000	-0.005	0.010	0.386	2.700	1.938	1.934	1.934	1.948	1.943	1.948
0.005	0.015	0.005	0.000	-0.005	-0.015	0.396	2.700	1.934	1.938	1.934	1.948	1.943	1.943
0.005	0.020	0.010	0.005	-0.005	0.015	0.396	2.690	1.938	1.938	1.934	1.953	1.948	1.953
0.000	0.015	0.000	-0.005	0.000	0.015	0.386	2.700	1.938	1.934	1.934	1.948	1.948	1.953
0.005	0.005	0.005	-0.005	0.000	0.015	0.386	2.700	1.934	1.934	1.934	1.948	1.948	1.948
0.005	0.005	-0.005	0.000	0.000	0.010	0.391	2.769	1.943	1.938	1.934	1.953	1.948	1.948
0.000	0.000	0.000	-0.005	0.000	0.005	0.396	2.666	1.934	1.934	1.934	1.953	1.948	1.948
0.005	0.010	0.005	0.005	0.005	-0.010	0.386	2.803	1.948	1.938	1.934	1.953	1.948	1.943
0.000	-0.005	0.000	0.000	0.005	0.000	0.391	2.646	1.934	1.929	1.934	1.953	1.948	1.948
0.010	0.000	0.000	0.000	0.000	0.000	0.386	2.651	1.924	1.929	1.929	1.948	1.943	1.943
0.005	0.000	0.000	0.005	0.000	-0.034	0.400	2.671	1.924	1.929	1.929	1.948	1.943	1.934
0.000	0.000	0.000	0.000	0.005	0.000	0.391	2.749	1.929	1.929	1.924	1.948	1.943	1.943
-0.005	-0.005	0.000	0.005	0.010	0.005	0.391	2.686	1.924	1.919	1.924	1.943	1.943	1.948
0.005	-0.010	-0.005	0.005	0.000	0.000	0.391	2.734	1.929	1.924	1.924	1.943	1.938	1.943
0.000	-0.005	0.005	0.005	0.000	-0.005	0.391	2.671	1.924	1.924	1.924	1.938	1.938	1.938
0.005	0.000	0.010	0.000	0.000	0.015	0.386	2.729	1.929	1.924	1.924	1.943	1.938	1.948
0.005	0.000	0.000	0.000	-0.005	0.020	0.391	2.725	1.934	1.929	1.924	1.938	1.938	1.948
0.010	0.000	0.005	0.000	0.005	0.015	0.391	2.729	1.938	1.934	1.929	1.943	1.938	1.943
0.010	0.000	0.005	0.005	0.000	0.020	0.400	2.739	1.924	1.929	1.929	1.943	1.938	1.943
0.005	0.000	0.005	0.005	0.000	0.020	0.386	2.729	1.929	1.934	1.929	1.948	1.943	1.943
-0.005	0.000	0.000	0.005	0.005	0.000	0.396	2.739	1.924	1.929	1.929	1.948	1.943	1.938
0.000	0.000	0.000	0.000	0.000	-0.015	0.396	2.656	1.919	1.929	1.929	1.948	1.938	1.934
0.000	-0.005	0.000	0.000	0.005	0.010	0.386	2.695	1.919	1.919	1.929	1.948	1.943	1.943
0.005	-0.005	0.000	0.005	0.005	0.000	0.381	2.705	1.924	1.924	1.929	1.948	1.943	1.943
0.000	0.010	0.000	0.005	0.005	0.005	0.386	2.695	1.929	1.924	1.924	1.948	1.943	1.943
-0.010	0.005	0.005	0.010	0.005	-0.010	0.386	2.690	1.919	1.924	1.924	1.943	1.943	1.943
0.000	0.005	-0.005	0.010	0.005	0.000	0.381	2.695	1.919	1.919	1.924	1.938	1.943	1.943
0.000	0.000	0.000	0.005	0.010	0.005	0.391	2.695	1.919	1.919	1.919	1.938	1.938	1.943
0.000	0.005	0.000	0.000	0.005	0.005	0.386	2.705	1.919	1.919	1.919	1.934	1.938	1.938
-0.005	0.010	0.000	0.000	0.000	-0.024	0.386	2.695	1.919	1.919	1.914	1.934	1.929	1.929
0.005	0.000	0.000	0.005	0.005	0.015	0.386	2.705	1.924	1.914	1.914	1.934	1.934	1.943
0.000	0.005	0.005	0.000	0.000	-0.015	0.396	2.690	1.919	1.914	1.914	1.934	1.929	1.934
-0.005	0.000	0.000	-0.005	0.000	-0.005	0.391	2.690	1.919	1.914	1.914	1.934	1.929	1.929
0.000	0.010	0.005	0.000	0.000	-0.005	0.396	2.700	1.924	1.924	1.914	1.934	1.934	1.929
0.000	0.005	0.005	0.005	0.000	0.000	0.396	2.686	1.924	1.924	1.919	1.938	1.929	1.934
0.010	0.010	0.000	0.000	0.005	0.000	0.391	2.705	1.929	1.924	1.919	1.934	1.934	1.934
0.000	-0.015	0.005	0.000	0.000	0.005	0.381	2.700	1.924	1.919	1.919	1.938	1.934	1.938
0.005	-0.015	0.000	0.000	0.000	0.005	0.386	2.686	1.924	1.919	1.919	1.938	1.934	1.938
-0.005	-0.010	0.000	0.000	0.000	0.000	0.386	2.690	1.924	1.924	1.924	1.938	1.938	1.938
0.005	-0.010	0.005	0.005	0.005	0.029	0.396	2.686	1.924	1.919	1.924	1.943	1.934	1.943
0.005	0.000	-0.005	0.000	0.000	0.020	0.391	2.690	1.924	1.924	1.924	1.938	1.938	1.938
0.000	0.020	0.005	0.005	0.000	0.015	0.396	2.676	1.914	1.929	1.924	1.943	1.934	1.934
0.005	0.015	0.000	0.005	0.000	0.005	0.396	2.686	1.919	1.924	1.924	1.943	1.934	1.934
-0.005	0.015	0.005	0.000	0.000	0.010	0.396	2.690	1.914	1.914	1.919	1.938	1.929	1.934
0.005	0.015	0.005	0.000	0.010	0.010	0.396	2.695	1.914	1.919	1.919	1.938	1.934	1.934
-0.005	0.005	0.005	0.000	0.005	0.000	0.396	2.651	1.904	1.909	1.914	1.934	1.934	1.929
0.005	0.005	0.005	0.005	0.000	0.000	0.391	2.661	1.904	1.904	1.909	1.934	1.929	1.924
0.000	0.000	0.010	0.000	0.000	0.000	0.396	2.778	1.914	1.904	1.909	1.929	1.929	1.924
0.010	-0.005	0.000	0.000	0.005	-0.010	0.391	2.651	1.914	1.904	1.904	1.924	1.929	1.924
0.005	0.000	0.000	0.005	0.000	-0.005	0.391	2.642	1.909	1.909	1.904	1.929	1.924	1.929
-0.010	-0.010	0.000	0.005	-0.005	0.000	0.386	2.686	1.909	1.904	1.904	1.929	1.924	1.929
-0.005	0.000	0.000	0.005	-0.005	-0.020	0.386	2.725	1.919	1.914	1.909	1.929	1.924	1.929
0.005	0.015	-0.005	0.005	0.000	-0.005	0.391	2.681	1.919	1.919	1.909	1.929	1.929	1.929
0.010	0.015	0.005	0.000	0.000	0.005	0.391	2.749	1.929	1.919	1.914	1.929	1.929	1.934
0.000	0.015	0.000	0.000	-0.005	0.010	0.381	2.671	1.924	1.919	1.914	1.934	1.929	1.929
0.005	0.000	0.000	0.000	-0.005	0.005	0.386	2.642	1.919	1.919	1.914	1.934	1.929	1.929
0.005	0.000	0.005	0.010	0.000	-0.005	0.386	2.725	1.919	1.919	1.919	1.934	1.929	1.924
0.010	0.000	0.000	0.005	0.005	-0.010	0.381	2.749	1.924	1.914	1.914	1.934	1.934	1.924
0.010	0.005	0.000	-0.005	0.010	0.015	0.386	2.749	1.909	1.919	1.919	1.934	1.929	1.934
0.000	0.000	0.005	0.000	0.005	0.015	0.381	2.642	1.904	1.909	1.914	1.934	1.929	1.929
0.010	-0.005	0.005	0.000	0.005	0.015	0.386	2.749	1.914	1.909	1.914	1.934	1.929	1.929
0.005	0.005	0.010	0.000	0.000	0.024	0.386	2.671	1.909	1.909	1.909	1.929	1.924	1.929
0.005	0.000	0.005	0.005	0.000	0.015	0.396	2.681	1.904	1.904	1.904	1.929	1.924	1.924
0.000	-0.005	0.000	0.000	0.005	0.005	0.386	2.686	1.904	1.904	1.904	1.924	1.924	1.919
0.000	0.005	0.005	0.000	0.005	0.000	0.386	2.686	1.904	1.904	1.904	1.924	1.924	1.919
0.000	0.010	0.005	0.010	0.005	-0.005	0.391	2.710	1.909	1.909	1.904	1.929	1.924	1.919
0.010	-0.005	0.000	0.005	0.000	0.005	0.396	2.705	1.909	1.899	1.904	1.924	1.919	1.919
0.000	-0.015	0.000	0.005	0.000	0.005	0.396	2.695	1.909	1.904	1.904	1.924	1.924	1.924
0.005	-0.015	-0.005	0.005	0.000	-0.010	0.396	2.700	1.914	1.904	1.904	1.924	1.919	1.919
0.005	-0.005	0.010	0.000	0.000	-0.005	0.391	2.695	1.924	1.914	1.904	1.929	1.924	1.919
0.005	-0.005	0.000	0.005	0.005	0.010	0.396	2.700	1.914	1.914	1.909	1.929	1.929	1.929
0.005	0.000	0.005	0.000	0.005	-0.015	0.391	2.700	1.919	1.919	1.909	1.929	1.924	1.924
0.000	0.010	0.000	0.005	0.010	0.010	0.396	2.695	1.914	1.919	1.914	1.934	1.929	1.929
0.000	0.020	0.000	0.010	0.005	0.005	0.391	2.695	1.919	1.919	1.914	1.929	1.929	1.924
0.000	0.015	0.000	0.010	0.000	0.005	0.386	2.695	1.919	1.914	1.914	1.929	1.924	1.924
0.005	0.010	0.005	0.005	0.005	0.000	0.386	2.676	1.909	1.914	1.914	1.929	1.924	1.924
0.000	0.005	0.000	0.000	0.005	-0.005	0.396	2.690	1.909	1.909	1.909	1.924	1.924	1.924
0.005	0.000	-0.005	0.000	0.005	0.005	0.391	2.681	1.909	1.904	1.909	1.924	1.919	1.924
0.000	0.005	0.000	0.000	0.000	0.000	0.396	2.681	1.904	1.904	1.904	1.924	1.919	1.919
0.000	0.010	0.000	0.005	0.010	-0.005	0.386	2.705	1.909	1.904	1.904	1.924	1.919	1.919
-0.005	0.015	0.005	0.005	0.000	0.005	0.386	2.690	1.904	1.904	1.904	1.924	1.919	1.919
0.010	0.000	0.000	0.005	0.000	-0.010	0.386	2.690	1.909	1.904	1.899	1.924	1.919	1.914
-0.005	0.005	0.005	0.000	0.005	0.000	0.386	2.705	1.904	1.904	1.904	1.919	1.919	1.919
0.000	0.005	0.000	0.000	0.000	0.005	0.391	2.695	1.909	1.904	1.904	1.924	1.919	1.914
0.010	0.005	0.000	0.005	-0.005	0.010	0.386	2.695	1.909	1.909	1.904	1.924	1.919	1.919
0.010	0.000	0.000	0.000	0.000	0.010	0.396	2.651	1.919	1.909	1.904	1.924	1.919	1.924
0.010	-0.010	0.005	0.000	-0.005	-0.024	0.386	2.661	1.919	1.909	1.904	1.924	1.919	1.909
-0.005	0.000	-0.005	0.000	0.000	0.010	0.396	2.798	1.919	1.914	1.909	1.924	1.924	1.924
0.000	0.005	0.000	0.005	-0.005	0.005	0.386	2.651	1.914	1.919	1.914	1.929	1.919	1.924
0.005	0.005	0.000	0.000	0.000	0.010	0.396	2.744	1.914	1.914	1.914	1.929	1.924	1.924
-0.005	0.000	0.000	0.000	0.000	0.005	0.386	2.676	1.909	1.909	1.914	1.929	1.924	1.924
0.000	-0.005	0.005	0.005	0.000	0.000	0.396	2.651	1.904	1.904	1.909	1.929	1.924	1.919
0.005	-0.005	0.005	0.000	0.000	0.005	0.381	2.686	1.904	1.909	1.904	1.929	1.924	1.919
-0.005	0.000	0.000	-0.005	0.000	0.000	0.391	2.744	1.904	1.904	1.904	1.924	1.924	1.919
0.005	-0.005	0.005	0.000	0.000	-0.005	0.381	2.671	1.904	1.904	1.904	1.924	1.924	1.919
0.000	0.005	0.005	0.005	0.005	0.000	0.391	2.637	1.895	1.904	1.904	1.919	1.919	1.924
-0.005	0.000	0.010	0.000	0.005	0.000	0.391	2.725	1.904	1.899	1.904	1.919	1.919	1.919
0.000	0.005	0.000	0.000	0.000	0.005	0.396	2.637	1.899	1.899	1.895	1.919	1.914	1.919
0.005	0.000	0.005	0.000	0.005	0.005	0.396	2.661	1.895	1.895	1.899	1.919	1.914	1.919
0.005	-0.005	0.000	0.000	0.000	0.005	0.386	2.744	1.909	1.895	1.899	1.919	1.914	1.914
0.005	0.000	0.000	0.005	0.000	0.005	0.386	2.676	1.904	1.904	1.899	1.919	1.914	1.914
0.005	-0.005	0.000	0.000	-0.005	-0.020	0.396	2.671	1.899	1.904	1.904	1.919	1.914	1.909
0.005	0.010	0.000	0.005	-0.005	-0.015	0.386	2.695	1.904	1.904	1.904	1.924	1.919	1.914
-0.005	0.015	0.000	0.005	0.000	0.024	0.396	2.700	1.904	1.909	1.904	1.919	1.919	1.929
0.000	-0.005	0.005	0.005	0.005	0.015	0.391	2.700	1.914	1.904	1.904	1.924	1.919	1.924
-0.005	0.000	0.005	0.000	0.005	0.020	0.396	2.690	1.914	1.904	1.904	1.924	1.919	1.919
0.005	-0.005	0.000	0.000	0.000	-0.015	0.386	2.681	1.909	1.909	1.904	1.924	1.919	1.909
0.000	0.000	0.000	0.010	0.000	0.015	0.391	2.690	1.909	1.904	1.904	1.924	1.919	1.924
-0.005	0.000	0.000	0.005	0.005	0.015	0.391	2.700	1.909	1.904	1.904	1.924	1.919	1.919
0.000	-0.010	0.000	0.005	0.005	0.010	0.391	2.690	1.909	1.904	1.899	1.924	1.919	1.919
0.000	0.000	0.000	0.005	0.005	0.000	0.396	2.686	1.904	1.904	1.904	1.919	1.919	1.914
-0.005	0.000	0.000	0.000	0.000	0.010	0.396	2.690	1.904	1.904	1.899	1.919	1.914	1.919
0.005	0.000	-0.005	0.005	0.005	0.015	0.396	2.681	1.899	1.899	1.899	1.914	1.914	1.914
0.000	0.005	0.000	0.000	0.005	0.015	0.391	2.690	1.904	1.904	1.899	1.914	1.914	1.914
0.000	0.010	-0.005	-0.005	0.000	0.000	0.386	2.695	1.899	1.899	1.899	1.914	1.909	1.909
0.000	0.000	0.005	0.000	0.010	-0.005	0.381	2.695	1.904	1.899	1.899	1.914	1.914	1.914
0.005	0.000	0.000	0.000	0.000	0.005	0.386	2.686	1.899	1.904	1.899	1.919	1.914	1.914
0.000	0.005	0.000	0.000	0.000	0.000	0.386	2.676	1.899	1.899	1.899	1.914	1.909	1.914
-0.005	0.005	0.005	-0.005	0.005	0.010	0.391	2.690	1.904	1.899	1.904	1.924	1.914	1.919
0.000	0.010	0.005	0.000	0.000	0.005	0.386	2.710	1.909	1.904	1.904	1.919	1.914	1.914
0.005	0.000	0.000	0.005	0.005	0.000	0.396	2.686	1.909	1.909	1.909	1.924	1.919	1.919
0.000	0.000	0.000	0.005	0.005	0.000	0.386	2.690	1.909	1.904	1.904	1.924	1.919	1.914
-0.005	-0.005	0.000	0.000	0.000	-0.010	0.386	2.690	1.909	1.904	1.904	1.924	1.919	1.914
0.000	-0.005	0.005	0.010	0.000	0.010	0.386	2.690	1.904	1.904	1.904	1.924	1.919	1.919
0.000	-0.010	0.005	0.005	0.000	0.005	0.386	2.676	1.899	1.899	1.899	1.919	1.919	1.919
0.005	0.000	0.005	0.005	0.000	0.005	0.386	2.642	1.895	1.904	1.899	1.919	1.914	1.914
0.000	-0.010	0.005	0.005	0.005	0.000	0.396	2.666	1.899	1.895	1.899	1.919	1.914	1.914
0.000	0.000	0.000	0.005	0.005	0.000	0.391	2.778	1.904	1.899	1.895	1.914	1.909	1.914
0.000	0.000	0.000	0.000	0.005	-0.005	0.391	2.651	1.895	1.895	1.895	1.914	1.909	1.909
0.015	0.010	0.000	0.005	0.005	-0.010	0.396	2.744	1.904	1.899	1.895	1.919	1.909	1.904
0.005	0.005	-0.005	0.005	0.000	0.000	0.391	2.676	1.899	1.899	1.895	1.914	1.909	1.914
0.005	0.010	0.005	0.000	0.000	0.000	0.386	2.642	1.904	1.899	1.899	1.914	1.909	1.914
0.015	0.010	0.005	0.000	0.005	0.005	0.396	2.686	1.904	1.899	1.899	1.919	1.909	1.914
0.010	0.015	0.005	0.000	0.000	-0.010	0.386	2.661	1.909	1.904	1.899	1.919	1.909	1.909
0.010	0.005	0.000	0.000	-0.005	-0.010	0.391	2.686	1.909	1.909	1.904	1.919	1.909	1.909
0.005	-0.005	0.000	0.000	-0.005	0.010	0.386	2.734	1.909	1.904	1.899	1.919	1.914	1.919
0.010	0.005	0.000	0.000	-0.005	0.000	0.386	2.739	1.914	1.909	1.904	1.919	1.914	1.914
0.000	0.005	0.000	0.005	-0.005	-0.020	0.386	2.642	1.909	1.914	1.909	1.924	1.914	1.914
-0.005	0.020	0.005	0.000	-0.005	0.005	0.386	2.666	1.899	1.914	1.909	1.924	1.919	1.919
0.005	0.010	0.005	0.005	0.000	0.015	0.391	2.632	1.899	1.909	1.909	1.924	1.919	1.924
0.000	-0.010	0.000	0.000	0.000	0.000	0.386	2.739	1.899	1.899	1.904	1.924	1.919	1.914
0.005	0.000	0.000	0.005	0.000	0.005	0.396	2.656	1.899	1.904	1.904	1.924	1.914	1.914
-0.005	0.000	0.000	0.000	0.000	0.010	0.391	2.671	1.895	1.895	1.899	1.924	1.919	1.924
0.005	0.015	-0.005	0.005	0.005	0.010	0.391	2.700	1.899	1.904	1.899	1.919	1.919	1.919
0.000	0.020	0.005	0.005	0.005	0.010	0.386	2.705	1.899	1.895	1.899	1.919	1.914	1.914
-0.005	0.015	0.000	0.005	0.000	0.000	0.386	2.710	1.899	1.895	1.895	1.914	1.914	1.914
0.000	0.005	0.000	0.000	0.000	0.010	0.391	2.705	1.899	1.890	1.895	1.914	1.914	1.914
-0.005	-0.005	0.000	0.000	0.000	0.005	0.391	2.705	1.899	1.890	1.895	1.909	1.909	1.909
0.015	-0.020	0.005	0.000	0.000	0.010	0.391	2.686	1.904	1.890	1.890	1.909	1.909	1.909
0.005	-0.010	0.005	-0.005	-0.005	-0.010	0.386	2.690	1.904	1.895	1.895	1.909	1.909	1.909
0.000	-0.005	0.005	-0.005	0.000	0.010	0.386	2.705	1.904	1.899	1.895	1.914	1.909	1.914
-0.005	0.010	0.005	-0.005	-0.005	0.005	0.396	2.690	1.909	1.904	1.899	1.919	1.909	1.914
0.005	0.010	0.000	-0.005	0.000	0.000	0.391	2.690	1.909	1.909	1.899	1.919	1.909	1.914
0.000	0.000	0.000	0.000	-0.005	-0.010	0.396	2.686	1.904	1.904	1.899	1.919	1.909	1.909
0.010	0.000	0.000	0.000	0.000	0.000	0.391	2.695	1.904	1.909	1.904	1.919	1.914	1.914
0.010	-0.010	0.005	0.000	0.000	0.005	0.386	2.681	1.899	1.899	1.899	1.919	1.914	1.919
-0.005	0.000	0.005	0.000	0.000	0.005	0.386	2.695	1.899	1.899	1.899	1.924	1.914	1.914
-0.010	-0.005	0.000	0.000	0.000	0.005	0.391	2.710	1.904	1.899	1.899	1.924	1.919	1.914
-0.005	0.005	0.005	0.005	0.000	-0.010	0.381	2.705	1.909	1.904	1.899	1.919	1.914	1.909
0.005	0.015	0.000	0.000	0.005	0.005	0.396	2.690	1.909	1.909	1.895	1.914	1.914	1.909
0.000	0.015	0.005	0.000	0.000	-0.010	0.386	2.705	1.904	1.909	1.899	1.919	1.909	1.909
-0.015	0.010	0.005	0.000	0.005	0.005	0.391	2.690	1.899	1.899	1.899	1.914	1.909	1.914
-0.010	0.005	0.005	0.000	0.005	-0.015	0.391	2.690	1.899	1.899	1.899	1.919	1.914	1.909
-0.005	0.005	-0.005	0.000	0.000	0.005	0.386	2.690	1.899	1.895	1.890	1.914	1.909	1.914
-0.005	0.000	0.005	0.005	0.000	-0.005	0.391	2.690	1.895	1.895	1.895	1.914	1.909	1.904
0.005	0.005	0.005	0.000	0.005	-0.005	0.396	2.651	1.914	1.904	1.899	1.914	1.909	1.909
0.010	-0.010	0.005	0.005	0.000	0.015	0.386	2.661	1.909	1.899	1.895	1.914	1.909	1.909
0.000	0.005	0.000	0.005	0.005	-0.020	0.391	2.803	1.914	1.904	1.899	1.914	1.909	1.904
0.010	-0.010	-0.005	0.010	0.010	0.020	0.391	2.661	1.914	1.904	1.904	1.924	1.919	1.919
0.015	0.005	-0.005	0.010	0.015	0.024	0.381	2.729	1.895	1.909	1.904	1.919	1.919	1.919
0.005	0.000	0.000	0.005	0.024	0.020	0.386	2.681	1.904	1.909	1.904	1.924	1.919	1.919
-0.005	0.005	0.005	0.000	0.024	0.020	0.386	2.749	1.904	1.904	1.904	1.924	1.919	1.924
0.005	-0.005	0.005	0.005	0.029	0.024	0.391	2.690	1.904	1.899	1.904	1.924	1.924	1.924
0.005	0.000	0.000	0.005	0.029	0.024	0.391	2.729	1.904	1.904	1.899	1.919	1.919	1.924
0.005	0.005	-0.005	0.005	0.029	0.015	0.391	2.656	1.904	1.904	1.904	1.924	1.919	1.919
0.000	-0.005	0.005	0.005	0.024	0.010	0.386	2.725	1.895	1.895	1.899	1.919	1.919	1.914
0.000	-0.005	0.005	0.005	0.020	-0.005	0.396	2.725	1.899	1.895	1.899	1.919	1.909	1.909
0.005	0.005	-0.005	0.005	0.010	0.015	0.391	2.725	1.899	1.899	1.895	1.919	1.909	1.914
0.005	0.000	0.005	0.005	0.010	0.005	0.391	2.666	1.899	1.899	1.899	1.914	1.909	1.909
-0.005	-0.005	0.000	0.000	0.010	0.010	0.386	2.734	1.899	1.895	1.890	1.914	1.909	1.914
0.000	0.000	0.000	0.010	0.010	0.024	0.391	2.690	1.899	1.895	1.890	1.914	1.909	1.914
0.000	0.010	-0.005	0.005	0.005	0.024	0.391	2.666	1.895	1.895	1.895	1.914	1.909	1.914
0.005	0.000	-0.005	0.005	0.005	0.020	0.396	2.700	1.895	1.895	1.895	1.909	1.904	1.909
0.010	0.005	0.005	0.005	0.005	0.010	0.386	2.705	1.899	1.895	1.895	1.909	1.909	1.909
0.010	0.005	0.000	0.005	-0.005	0.010	0.391	2.695	1.904	1.899	1.895	1.914	1.909	1.909
0.010	0.000	0.005	0.005	-0.005	0.010	0.381	2.705	1.909	1.899	1.895	1.919	1.909	1.909
0.005	0.000	0.000	0.000	-0.005	0.000	0.391	2.686	1.904	1.899	1.895	1.914	1.909	1.909
0.000	0.005	0.005	0.000	-0.010	0.000	0.396	2.715	1.909	1.899	1.899	1.914	1.909	1.909
0.000	0.000	0.000	-0.005	-0.010	0.010	0.396	2.690	1.909	1.909	1.904	1.919	1.909	1.914
-0.005	0.010	0.000	0.005	-0.010	0.000	0.381	2.700	1.904	1.904	1.904	1.919	1.909	1.909
0.000	0.005	0.000	0.000	-0.010	-0.015	0.386	2.690	1.909	1.904	1.904	1.919	1.914	1.904
0.000	0.005	0.000	0.000	-0.010	-0.010	0.386	2.695	1.899	1.904	1.899	1.919	1.914	1.909
0.005	0.005	0.005	0.000	-0.015	-0.015	0.391	2.686	1.899	1.899	1.899	1.919	1.914	1.909
-0.005	-0.005	0.005	0.000	-0.010	-0.005	0.386	2.710	1.899	1.899	1.899	1.914	1.909	1.909
-0.010	-0.005	0.000	0.000	-0.010	0.005	0.386	2.695	1.899	1.895	1.895	1.914	1.909	1.909
0.000	0.000	0.005	0.000	-0.015	-0.005	0.391	2.705	1.899	1.895	1.895	1.914	1.909	1.904
0.000	0.000	0.005	0.000	-0.010	-0.005	0.391	2.695	1.899	1.895	1.895	1.914	1.909	1.909
0.010	0.000	0.000	0.000	-0.010	-0.005	0.396	2.695	1.904	1.895	1.890	1.909	1.909	1.909
0.005	-0.010	0.000	-0.005	-0.010	-0.010	0.381	2.686	1.899	1.895	1.895	1.909	1.909	1.899
0.005	0.005	0.000	0.000	-0.010	-0.005	0.396	2.681	1.899	1.899	1.895	1.914	1.909	1.909
-0.005	0.000	0.000	0.005	-0.005	-0.010	0.391	2.700	1.899	1.899	1.895	1.914	1.914	1.909
0.000	0.000	0.000	0.000	-0.010	-0.015	0.386	2.681	1.899	1.899	1.895	1.909	1.909	1.909
0.000	0.005	0.005	0.005	-0.005	0.005	0.391	2.690	1.904	1.904	1.899	1.919	1.914	1.914
0.000	0.005	0.000	0.000	0.000	0.005	0.396	2.695	1.899	1.899	1.899	1.919	1.914	1.914
-0.005	0.005	0.000	0.000	-0.005	0.000	0.386	2.700	1.904	1.904	1.899	1.919	1.914	1.914
-0.005	-0.010	0.000	0.000	0.000	0.005	0.391	2.642	1.895	1.895	1.899	1.914	1.914	1.914
0.000	-0.005	0.000	-0.005	0.005	0.000	0.391	2.666	1.899	1.899	1.895	1.919	1.914	1.914
0.000	-0.005	0.005	0.000	0.000	0.005	0.391	2.808	1.909	1.899	1.899	1.919	1.914	1.914
0.005	0.000	0.005	0.000	0.005	0.005	0.386	2.632	1.899	1.899	1.895	1.914	1.914	1.914
0.005	0.005	0.000	0.000	0.000	-0.005	0.391	2.744	1.909	1.904	1.899	1.914	1.914	1.914
0.005	0.010	0.005	0.010	0.005	-0.005	0.391	2.681	1.904	1.904	1.899	1.919	1.909	1.909
-0.005	0.000	0.000	0.000	0.005	-0.039	0.391	2.744	1.904	1.899	1.899	1.909	1.909	1.904
0.005	0.005	0.000	0.000	0.005	0.005	0.386	2.681	1.899	1.895	1.895	1.914	1.909	1.914
0.005	0.005	0.000	0.005	0.005	-0.010	0.391	2.744	1.904	1.899	1.895	1.909	1.909	1.904
0.005	0.010	0.005	0.010	0.005	-0.015	0.396	2.656	1.899	1.899	1.899	1.914	1.909	1.909
0.000	0.010	0.000	0.000	0.000	0.015	0.391	2.642	1.890	1.899	1.895	1.914	1.914	1.914
0.005	-0.005	0.005	0.000	0.000	0.015	0.386	2.734	1.895	1.895	1.895	1.909	1.909	1.909
0.005	0.000	0.000	-0.005	0.000	-0.005	0.386	2.734	1.904	1.899	1.895	1.914	1.909	1.909
0.010	0.005	0.005	0.000	0.000	-0.020	0.386	2.739	1.909	1.904	1.899	1.914	1.909	1.904
0.005	0.005	-0.005	-0.005	0.005	0.010	0.396	2.734	1.909	1.904	1.899	1.919	1.914	1.914
0.000	0.000	0.005	0.005	0.005	0.000	0.391	2.749	1.909	1.904	1.904	1.919	1.914	1.914
-0.005	0.005	0.000	0.015	0.005	-0.005	0.396	2.676	1.904	1.904	1.904	1.924	1.919	1.914
0.000	-0.005	0.005	0.000	0.005	-0.010	0.391	2.686	1.904	1.899	1.899	1.924	1.914	1.909
0.000	-0.005	0.010	0.005	0.010	0.010	0.391	2.705	1.904	1.904	1.899	1.919	1.919	1.919
0.000	0.005	0.000	0.000	0.005	0.005	0.391	2.690	1.904	1.904	1.899	1.919	1.914	1.914
0.000	0.005	0.000	0.000	0.010	-0.020	0.386	2.690	1.899	1.904	1.899	1.919	1.914	1.909
0.000	0.005	0.005	0.000	0.010	0.005	0.386	2.700	1.899	1.899	1.899	1.919	1.914	1.914
0.000	0.000	0.005	0.000	0.000	-0.015	0.381	2.695	1.895	1.899	1.899	1.919	1.914	1.909
0.005	0.000	0.000	0.000	0.000	0.020	0.381	2.686	1.899	1.895	1.895	1.914	1.909	1.919
0.005	-0.005	0.005	0.000	0.005	0.024	0.391	2.700	1.895	1.895	1.895	1.909	1.909	1.914
0.005	-0.005	0.000	0.005	0.000	0.015	0.396	2.686	1.895	1.890	1.895	1.909	1.909	1.909
-0.005	0.000	0.005	0.000	0.000	0.000	0.391	2.690	1.899	1.895	1.890	1.909	1.904	1.904
-0.005	-0.005	0.005	0.000	0.000	0.005	0.391	2.700	1.899	1.895	1.890	1.909	1.909	1.904
0.005	-0.005	0.005	0.000	0.005	-0.015	0.391	2.695	1.904	1.899	1.895	1.909	1.909	1.899
0.000	0.010	0.000	0.005	0.010	0.010	0.396	2.686	1.899	1.904	1.899	1.914	1.909	1.914
0.005	0.005	0.000	0.000	0.000	0.010	0.391	2.690	1.904	1.899	1.899	1.914	1.909	1.914
0.010	0.005	0.000	0.000	0.000	0.005	0.396	2.695	1.909	1.904	1.899	1.914	1.909	1.914
0.005	0.000	0.005	0.000	0.000	0.015	0.386	2.700	1.909	1.904	1.904	1.919	1.914	1.914
0.010	0.000	0.000	0.005	0.000	0.005	0.391	2.686	1.904	1.904	1.904	1.919	1.914	1.909
0.000	0.005	0.000	0.005	0.005	0.010	0.391	2.690	1.904	1.904	1.904	1.924	1.914	1.914
0.000	0.000	0.000	0.005	0.000	0.005	0.386	2.686	1.899	1.904	1.899	1.919	1.914	1.914
0.000	0.005	0.005	0.000	0.000	-0.010	0.391	2.695	1.899	1.899	1.899	1.919	1.914	1.904
0.000	0.000	0.005	0.005	0.005	0.005	0.396	2.690	1.899	1.899	1.899	1.919	1.914	1.914
-0.010	0.010	0.005	0.010	0.010	-0.015	0.391	2.695	1.895	1.899	1.895	1.914	1.914	1.909
0.005	-0.015	-0.005	0.005	0.005	0.000	0.396	2.690	1.895	1.890	1.895	1.914	1.909	1.914
0.000	0.000	0.000	0.005	0.000	-0.015	0.386	2.651	1.890	1.890	1.890	1.909	1.904	1.904
0.005	0.005	0.000	0.000	0.005	0.010	0.391	2.656	1.890	1.895	1.890	1.909	1.909	1.914
-0.005	0.010	0.000	0.000	0.000	0.005	0.386	2.793	1.904	1.899	1.895	1.909	1.904	1.909
0.010	0.010	0.000	0.000	0.000	0.000	0.391	2.651	1.895	1.895	1.895	1.909	1.904	1.909
0.010	0.005	0.005	0.000	0.000	0.010	0.391	2.739	1.904	1.899	1.895	1.909	1.904	1.909
0.000	0.005	0.000	0.000	0.000	0.005	0.396	2.681	1.904	1.895	1.899	1.914	1.904	1.909
-0.005	-0.005	0.005	0.005	0.000	-0.010	0.396	2.656	1.899	1.895	1.895	1.914	1.909	1.909
0.000	0.000	0.005	0.000	0.000	-0.005	0.391	2.700	1.899	1.899	1.899	1.914	1.909	1.904
0.000	-0.010	0.005	0.000	0.000	0.000	0.391	2.661	1.899	1.899	1.895	1.914	1.914	1.914
0.010	-0.005	0.005	0.000	0.000	0.005	0.386	2.666	1.899	1.899	1.895	1.914	1.914	1.914
-0.005	0.010	0.010	0.005	0.000	0.005	0.391	2.637	1.890	1.899	1.899	1.919	1.914	1.914
0.000	0.000	0.000	0.005	0.005	-0.010	0.386	2.729	1.904	1.895	1.895	1.919	1.914	1.909
0.015	0.005	0.000	0.005	0.010	0.010	0.391	2.749	1.909	1.899	1.895	1.919	1.914	1.914
0.000	-0.005	-0.005	0.000	0.005	0.005	0.391	2.637	1.895	1.895	1.895	1.914	1.909	1.909
-0.005	0.010	0.000	0.000	0.010	0.000	0.386	2.651	1.895	1.899	1.895	1.914	1.909	1.914
-0.010	0.000	-0.005	0.000	0.005	0.010	0.386	2.739	1.899	1.890	1.890	1.909	1.904	1.914
-0.005	0.005	0.005	0.005	0.005	0.005	0.391	2.671	1.895	1.895	1.895	1.914	1.904	1.904
-0.010	-0.005	0.000	0.000	0.005	-0.005	0.391	2.695	1.890	1.890	1.890	1.909	1.904	1.904
-0.005	0.010	0.005	0.000	0.000	-0.010	0.396	2.715	1.899	1.895	1.890	1.909	1.904	1.904
0.005	0.005	0.005	0.005	0.000	-0.010	0.386	2.695	1.904	1.895	1.890	1.909	1.904	1.904
0.005	0.000	-0.005	0.005	0.000	0.000	0.391	2.705	1.899	1.899	1.890	1.909	1.904	1.909
0.015	0.010	0.000	0.000	0.000	-0.010	0.386	2.686	1.899	1.895	1.890	1.909	1.904	1.904
-0.005	-0.005	0.005	0.005	0.000	0.015	0.391	2.700	1.899	1.895	1.895	1.914	1.904	1.909
0.005	0.000	0.005	0.000	0.010	0.020	0.386	2.695	1.904	1.899	1.899	1.914	1.909	1.909
0.010	-0.005	0.000	0.000	0.005	0.010	0.386	2.686	1.904	1.899	1.895	1.914	1.909	1.909
0.005	-0.005	0.005	0.005	0.000	0.000	0.391	2.690	1.904	1.895	1.899	1.914	1.909	1.909
0.005	0.005	0.005	0.000	0.000	-0.010	0.396	2.700	1.909	1.904	1.899	1.919	1.909	1.904
0.005	0.000	0.000	0.005	0.005	-0.005	0.396	2.710	1.909	1.904	1.899	1.919	1.914	1.904
-0.005	0.005	0.000	0.005	0.000	-0.005	0.400	2.690	1.895	1.899	1.899	1.914	1.909	1.909
-0.005	0.010	0.000	0.000	0.005	0.010	0.391	2.700	1.899	1.904	1.899	1.914	1.914	1.914
0.005	-0.005	0.000	0.000	0.005	0.005	0.396	2.676	1.899	1.895	1.899	1.914	1.914	1.914
0.005	-0.024	0.000	-0.005	0.005	0.000	0.396	2.686	1.895	1.885	1.890	1.914	1.909	1.904
-0.005	-0.010	0.000	0.005	0.000	-0.005	0.396	2.681	1.895	1.895	1.895	1.909	1.909	1.914
0.005	0.005	0.005	0.000	0.005	0.000	0.386	2.690	1.895	1.899	1.895	1.909	1.909	1.909
-0.005	0.000	0.005	0.000	0.005	-0.005	0.386	2.686	1.885	1.890	1.890	1.909	1.909	1.904
0.015	0.010	0.005	0.005	0.010	0.005	0.396	2.710	1.899	1.895	1.890	1.909	1.904	1.909
0.005	0.015	-0.005	0.000	0.005	-0.010	0.391	2.690	1.895	1.895	1.890	1.909	1.904	1.904
-0.005	0.000	-0.005	0.000	0.000	-0.010	0.391	2.705	1.895	1.890	1.890	1.909	1.904	1.904
0.000	0.010	-0.005	-0.005	0.000	-0.005	0.391	2.695	1.895	1.895	1.890	1.909	1.904	1.904
0.000	0.005	0.005	0.005	0.000	0.010	0.396	2.695	1.899	1.895	1.895	1.914	1.904	1.909
-0.005	0.005	0.000	0.000	0.000	0.010	0.391	2.637	1.890	1.895	1.890	1.909	1.909	1.909
0.000	0.000	0.005	0.000	0.005	0.010	0.391	2.666	1.895	1.895	1.895	1.914	1.909	1.909
0.010	0.000	0.005	0.005	-0.005	0.000	0.381	2.788	1.909	1.904	1.895	1.914	1.909	1.909
0.010	-0.005	0.000	0.005	-0.005	-0.005	0.391	2.646	1.904	1.895	1.895	1.914	1.909	1.909
0.000	-0.020	0.000	0.005	0.000	-0.005	0.386	2.632	1.895	1.895	1.895	1.914	1.909	1.909
0.000	-0.010	0.000	0.000	0.005	-0.005	0.396	2.676	1.890	1.895	1.895	1.914	1.909	1.914
-0.005	-0.005	-0.005	0.000	0.000	0.000	0.381	2.749	1.899	1.895	1.895	1.909	1.904	1.909
0.005	0.005	0.010	0.000	0.005	0.010	0.386	2.686	1.899	1.895	1.895	1.909	1.909	1.904
-0.005	0.005	0.005	0.005	0.005	0.000	0.386	2.642	1.885	1.895	1.895	1.909	1.904	1.909
-0.005	0.010	0.005	0.000	0.000	-0.020	0.396	2.661	1.885	1.895	1.890	1.909	1.904	1.899
-0.005	0.000	0.000	0.000	0.000	0.000	0.386	2.681	1.880	1.890	1.890	1.904	1.904	1.909
0.000	0.010	0.000	0.000	0.005	-0.005	0.396	2.637	1.880	1.885	1.885	1.909	1.904	1.899
0.000	0.010	0.005	-0.005	0.000	-0.010	0.386	2.744	1.890	1.885	1.885	1.904	1.899	1.904
0.000	0.010	0.000	0.000	0.000	0.010	0.386	2.749	1.895	1.885	1.885	1.904	1.899	1.904
0.000	0.005	0.000	0.000	0.000	0.010	0.386	2.744	1.909	1.890	1.885	1.904	1.904	1.904
0.010	0.005	0.000	-0.005	0.000	-0.005	0.396	2.651	1.904	1.895	1.890	1.909	1.899	1.899
0.015	0.005	0.005	0.000	0.000	-0.005	0.386	2.676	1.899	1.895	1.890	1.904	1.904	1.899
0.005	0.005	0.005	0.000	0.005	0.000	0.391	2.705	1.904	1.895	1.895	1.909	1.904	1.904
0.005	0.005	0.005	0.005	0.005	0.010	0.391	2.695	1.904	1.899	1.895	1.909	1.909	1.904
0.000	0.000	0.005	0.005	-0.010	0.000	0.396	2.705	1.904	1.899	1.895	1.909	1.904	1.909
0.005	0.010	-0.005	0.005	0.000	0.000	0.386	2.700	1.899	1.899	1.899	1.909	1.904	1.904
0.005	0.015	0.005	0.000	0.005	0.000	0.391	2.705	1.909	1.909	1.899	1.914	1.909	1.904
0.005	0.015	0.000	0.005	0.000	-0.015	0.396	2.705	1.904	1.904	1.899	1.914	1.909	1.904
-0.005	0.010	0.005	0.005	0.005	-0.024	0.391	2.681	1.895	1.904	1.899	1.914	1.909	1.904
0.000	0.005	0.000	0.005	0.000	0.005	0.391	2.695	1.895	1.895	1.899	1.914	1.909	1.914
-0.005	0.005	0.005	0.000	0.005	0.000	0.386	2.686	1.895	1.890	1.895	1.914	1.909	1.904
0.005	0.000	0.000	0.005	0.010	0.024	0.391	2.681	1.895	1.890	1.890	1.909	1.909	1.914
0.000	-0.015	0.000	0.000	0.000	0.015	0.386	2.686	1.890	1.885	1.890	1.909	1.909	1.909
0.000	-0.010	0.000	0.005	0.000	0.000	0.391	2.700	1.895	1.880	1.885	1.904	1.899	1.899
0.005	-0.015	0.000	0.005	0.005	0.005	0.391	2.695	1.895	1.885	1.885	1.909	1.904	1.904
0.005	-0.010	0.000	0.000	0.000	0.010	0.396	2.690	1.895	1.895	1.890	1.904	1.904	1.904
0.010	0.000	0.005	0.000	0.000	0.005	0.391	2.690	1.899	1.895	1.890	1.904	1.899	1.904
0.005	0.005	0.005	0.000	0.000	0.005	0.396	2.705	1.899	1.895	1.895	1.909	1.904	1.904
0.000	0.005	0.000	0.000	0.005	0.005	0.386	2.705	1.904	1.899	1.895	1.909	1.909	1.909
0.000	0.000	0.000	0.000	0.000	0.000	0.396	2.695	1.904	1.899	1.895	1.909	1.904	1.899
-0.005	0.005	0.005	0.000	0.000	0.000	0.391	2.710	1.899	1.904	1.899	1.914	1.909	1.909
-0.005	0.020	0.000	0.000	0.000	0.000	0.391	2.681	1.904	1.909	1.899	1.914	1.904	1.904
0.005	0.020	0.000	0.005	0.005	-0.010	0.386	2.705	1.909	1.904	1.904	1.919	1.909	1.909
0.005	0.015	0.000	0.000	0.000	-0.010	0.396	2.695	1.899	1.899	1.899	1.919	1.904	1.904
0.000	-0.005	0.000	0.000	0.005	-0.005	0.386	2.705	1.899	1.895	1.899	1.919	1.914	1.909
0.005	-0.005	0.000	0.005	0.000	-0.020	0.396	2.646	1.895	1.895	1.899	1.914	1.909	1.904
-0.010	0.000	0.005	0.005	0.005	0.000	0.391	2.656	1.890	1.890	1.895	1.914	1.909	1.909
0.005	-0.005	0.005	0.005	0.010	0.005	0.391	2.788	1.899	1.890	1.890	1.914	1.909	1.909
0.000	-0.010	0.005	0.000	0.000	-0.010	0.391	2.642	1.890	1.885	1.890	1.909	1.909	1.909
0.005	-0.010	0.000	0.005	0.000	-0.005	0.391	2.749	1.899	1.890	1.890	1.904	1.904	1.904
-0.005	0.000	0.000	-0.005	0.010	0.000	0.386	2.690	1.899	1.895	1.890	1.909	1.904	1.909
0.000	0.005	0.005	0.000	0.010	0.015	0.396	2.754	1.904	1.895	1.890	1.909	1.904	1.909
0.005	0.000	0.000	-0.005	0.000	0.005	0.391	2.686	1.904	1.899	1.890	1.909	1.904	1.904
0.000	-0.005	0.005	0.005	0.000	0.010	0.396	2.744	1.904	1.895	1.895	1.909	1.904	1.904
0.000	-0.010	0.000	0.000	-0.005	0.010	0.386	2.651	1.904	1.899	1.895	1.909	1.909	1.909
0.000	-0.005	0.000	0.005	0.000	0.010	0.391	2.729	1.904	1.904	1.899	1.914	1.904	1.909
0.010	0.005	0.000	0.000	0.000	-0.020	0.391	2.729	1.909	1.909	1.899	1.914	1.909	1.899
0.000	0.000	0.005	0.000	0.000	-0.005	0.391	2.656	1.904	1.904	1.899	1.919	1.909	1.909
0.005	0.000	0.000	0.000	-0.005	-0.005	0.386	2.656	1.904	1.899	1.904	1.919	1.909	1.904
0.005	0.015	0.005	0.005	0.005	0.015	0.391	2.734	1.909	1.904	1.904	1.924	1.914	1.914
0.005	-0.010	0.000	0.005	0.005	-0.015	0.381	2.754	1.895	1.895	1.899	1.919	1.914	1.909
0.000	-0.005	0.000	0.000	0.010	-0.005	0.386	2.671	1.895	1.895	1.895	1.919	1.914	1.909
0.000	0.000	0.005	0.005	0.010	0.005	0.386	2.700	1.895	1.895	1.899	1.919	1.914	1.914
-0.005	0.000	0.000	0.000	0.010	0.010	0.391	2.705	1.899	1.890	1.890	1.914	1.914	1.914
0.005	0.010	-0.005	0.000	0.005	-0.010	0.396	2.690	1.899	1.895	1.890	1.909	1.909	1.909
0.000	0.005	0.005	0.005	0.000	0.010	0.391	2.695	1.895	1.895	1.895	1.909	1.909	1.914
0.010	0.005	0.005	0.000	0.000	0.010	0.396	2.686	1.895	1.895	1.890	1.909	1.904	1.909
0.000	0.000	0.005	0.000	0.010	-0.010	0.386	2.705	1.890	1.890	1.890	1.909	1.904	1.904
0.000	0.000	0.000	-0.005	0.005	0.000	0.386	2.681	1.895	1.890	1.890	1.909	1.904	1.909
0.005	0.000	-0.005	0.000	0.000	0.000	0.386	2.690	1.895	1.890	1.890	1.909	1.899	1.904
0.010	0.010	0.005	0.005	0.000	0.005	0.400	2.695	1.895	1.895	1.895	1.909	1.904	1.909
0.005	0.000	0.000	0.000	0.010	-0.024	0.391	2.705	1.899	1.895	1.895	1.909	1.909	1.899
0.000	0.000	0.000	0.000	0.000	0.005	0.386	2.681	1.904	1.899	1.895	1.909	1.909	1.909
0.005	0.000	0.005	0.000	0.005	0.005	0.381	2.695	1.909	1.899	1.895	1.914	1.909	1.909
-0.005	0.000	0.000	0.000	-0.005	0.000	0.391	2.700	1.904	1.899	1.899	1.914	1.909	1.909
0.000	0.000	0.005	0.000	-0.005	0.005	0.391	2.690	1.904	1.895	1.899	1.914	1.909	1.909
-0.005	0.005	0.005	0.000	0.005	0.010	0.391	2.695	1.904	1.899	1.899	1.919	1.914	1.909
0.000	0.005	-0.005	0.000	0.005	0.005	0.381	2.690	1.904	1.904	1.899	1.919	1.909	1.914
0.000	-0.005	0.000	0.005	-0.005	-0.024	0.391	2.676	1.899	1.895	1.899	1.914	1.909	1.904
-0.005	0.000	0.000	0.010	0.000	-0.010	0.391	2.681	1.895	1.899	1.895	1.914	1.909	1.904
0.000	0.005	0.000	0.005	0.000	0.010	0.396	2.705	1.899	1.899	1.895	1.914	1.914	1.914
0.005	0.010	0.000	0.005	0.000	0.010	0.386	2.681	1.895	1.895	1.895	1.909	1.909	1.909
0.005	-0.015	0.005	0.005	0.005	0.010	0.391	2.705	1.895	1.885	1.895	1.914	1.909	1.904
0.000	-0.015	0.000	0.005	0.005	0.000	0.386	2.700	1.895	1.890	1.890	1.909	1.909	1.909
0.005	0.005	0.005	0.005	0.005	-0.005	0.386	2.695	1.895	1.895	1.890	1.909	1.904	1.904
-0.005	0.005	0.000	0.000	0.005	0.015	0.386	2.656	1.890	1.890	1.890	1.909	1.904	1.909
-0.005	0.015	0.000	0.000	0.000	0.010	0.386	2.661	1.890	1.890	1.890	1.904	1.904	1.909
0.010	0.010	0.000	0.000	0.000	0.000	0.391	2.798	1.904	1.899	1.890	1.909	1.904	1.904
-0.005	0.000	0.000	0.005	0.000	-0.015	0.391	2.651	1.899	1.895	1.890	1.909	1.904	1.899
0.005	0.000	0.000	0.005	0.005	0.010	0.396	2.744	1.909	1.899	1.895	1.909	1.909	1.909
0.000	0.000	0.000	0.000	0.000	0.000	0.391	2.671	1.899	1.904	1.895	1.914	1.909	1.909
0.005	0.000	0.000	-0.005	0.000	0.005	0.391	2.734	1.914	1.904	1.899	1.914	1.909	1.909
0.000	-0.005	0.000	0.000	0.005	0.000	0.391	2.681	1.904	1.904	1.899	1.919	1.909	1.909
0.000	-0.005	0.000	-0.005	0.000	-0.015	0.386	2.754	1.909	1.904	1.899	1.914	1.909	1.904
0.010	0.000	0.000	0.000	0.000	0.005	0.396	2.666	1.904	1.904	1.904	1.919	1.914	1.914
-0.005	-0.005	0.000	0.000	0.005	0.010	0.391	2.729	1.904	1.899	1.899	1.914	1.909	1.914
-0.010	0.000	0.005	0.000	0.005	-0.010	0.386	2.729	1.904	1.899	1.899	1.914	1.909	1.909
0.005	-0.005	0.005	0.000	0.000	0.010	0.391	2.725	1.909	1.899	1.899	1.914	1.909	1.909
0.000	0.015	0.010	0.005	0.000	0.005	0.386	2.769	1.914	1.904	1.899	1.914	1.909	1.904
0.000	-0.010	0.000	0.005	0.005	-0.020	0.386	2.729	1.909	1.899	1.895	1.914	1.909	1.899
0.005	0.000	0.005	0.005	0.000	0.010	0.391	2.759	1.914	1.904	1.899	1.914	1.909	1.914
0.000	-0.005	0.000	0.005	0.000	0.015	0.391	2.661	1.904	1.899	1.895	1.914	1.909	1.909
-0.005	-0.005	-0.005	0.005	0.000	0.000	0.396	2.710	1.904	1.899	1.895	1.914	1.909	1.904
0.005	0.005	0.000	0.000	0.000	0.000	0.391	2.710	1.904	1.909	1.895	1.914	1.914	1.909
-0.010	0.020	0.005	0.000	0.000	0.010	0.386	2.705	1.909	1.914	1.904	1.919	1.914	1.914
0.005	0.020	0.005	0.000	0.000	0.015	0.391	2.715	1.909	1.909	1.909	1.924	1.914	1.914
-0.005	0.015	0.000	0.000	0.000	0.010	0.386	2.686	1.904	1.909	1.904	1.924	1.914	1.914
0.005	0.000	0.000	0.005	0.005	0.005	0.391	2.700	1.914	1.909	1.909	1.929	1.919	1.914
-0.010	0.015	0.000	0.000	0.005	0.000	0.391	2.686	1.904	1.909	1.909	1.924	1.919	1.914
0.000	-0.015	0.000	0.000	0.005	-0.005	0.396	2.681	1.904	1.899	1.904	1.924	1.924	1.919
0.005	0.005	-0.005	0.000	0.000	0.010	0.391	2.705	1.904	1.904	1.904	1.924	1.919	1.919
-0.005	0.015	0.005	-0.005	0.000	-0.005	0.391	2.690	1.899	1.904	1.904	1.924	1.919	1.919
-0.010	0.005	0.000	0.000	0.010	0.010	0.381	2.700	1.899	1.899	1.904	1.919	1.919	1.919
0.000	0.000	0.005	0.005	0.000	0.000	0.381	2.671	1.899	1.899	1.899	1.919	1.914	1.914
0.000	-0.005	0.010	0.000	0.005	0.010	0.386	2.686	1.895	1.895	1.895	1.914	1.914	1.919
0.010	0.000	0.000	0.000	0.000	-0.005	0.386	2.671	1.899	1.895	1.895	1.914	1.914	1.914
0.000	0.000	0.005	0.005	0.000	-0.010	0.391	2.690	1.890	1.890	1.890	1.914	1.909	1.909
-0.005	0.005	0.000	0.000	0.005	0.005	0.396	2.700	1.895	1.895	1.895	1.914	1.914	1.914
0.005	0.000	0.000	0.005	0.005	0.005	0.391	2.686	1.895	1.890	1.890	1.909	1.909	1.914
0.005	0.000	0.000	0.005	0.000	0.005	0.396	2.700	1.899	1.895	1.890	1.909	1.909	1.909
0.005	0.000	-0.005	0.005	0.005	0.005	0.396	2.695	1.904	1.895	1.895	1.909	1.909	1.914
0.005	0.000	0.000	0.010	0.000	0.005	0.396	2.705	1.909	1.904	1.899	1.914	1.909	1.914
0.005	0.000	0.000	0.005	0.000	-0.010	0.391	2.695	1.909	1.904	1.899	1.914	1.909	1.904
-0.005	0.010	0.000	0.000	-0.005	0.000	0.386	2.705	1.909	1.909	1.899	1.919	1.909	1.909
0.010	0.000	0.010	0.005	-0.005	0.005	0.386	2.700	1.909	1.904	1.904	1.919	1.909	1.909
0.005	-0.005	0.000	0.000	0.000	0.005	0.386	2.637	1.904	1.904	1.904	1.919	1.914	1.914
0.000	0.005	0.005	0.000	0.000	0.000	0.391	2.671	1.899	1.904	1.904	1.919	1.909	1.909
-0.005	-0.005	0.000	0.000	0.000	0.000	0.386	2.793	1.914	1.904	1.899	1.919	1.914	1.909
0.000	0.000	0.005	-0.005	0.000	-0.005	0.386	2.637	1.899	1.904	1.899	1.914	1.914	1.914
0.000	-0.005	0.000	0.000	0.010	-0.015	0.381	2.739	1.904	1.895	1.899	1.919	1.909	1.909
-0.005	-0.005	0.005	0.005	0.005	0.005	0.386	2.676	1.899	1.895	1.899	1.914	1.909	1.909
0.000	0.000	0.000	0.005	0.005	0.020	0.386	2.637	1.904	1.899	1.899	1.914	1.914	1.914
0.000	0.005	0.005	-0.005	0.000	0.020	0.391	2.681	1.899	1.895	1.895	1.914	1.909	1.914
0.000	0.005	-0.005	-0.005	0.005	0.010	0.386	2.734	1.904	1.899	1.895	1.909	1.909	1.909
0.000	0.010	0.000	0.000	0.000	0.005	0.396	2.656	1.899	1.899	1.895	1.914	1.904	1.909
0.005	0.005	0.005	0.000	0.000	-0.029	0.391	2.725	1.904	1.895	1.899	1.914	1.909	1.899
-0.005	0.010	0.005	0.000	0.000	0.000	0.386	2.759	1.909	1.899	1.899	1.914	1.909	1.914
0.005	0.005	-0.005	0.000	-0.005	0.015	0.386	2.700	1.904	1.899	1.899	1.914	1.909	1.914
0.000	0.005	0.000	0.000	-0.005	0.000	0.396	2.651	1.899	1.899	1.899	1.919	1.909	1.904
0.000	0.005	0.010	0.000	0.000	0.015	0.391	2.642	1.899	1.904	1.904	1.919	1.919	1.914
0.000	-0.005	0.000	-0.005	0.005	0.010	0.396	2.754	1.909	1.899	1.899	1.919	1.914	1.914
0.010	-0.005	0.000	0.005	0.005	0.010	0.396	2.681	1.904	1.904	1.899	1.919	1.914	1.914
-0.005	0.005	0.000	0.005	0.000	0.005	0.381	2.705	1.909	1.904	1.904	1.924	1.919	1.914
0.000	-0.005	0.010	0.005	0.005	-0.005	0.381	2.700	1.904	1.904	1.904	1.919	1.919	1.909
0.000	-0.005	0.000	0.005	0.000	0.000	0.386	2.700	1.904	1.899	1.899	1.919	1.914	1.914
0.005	-0.005	0.000	0.000	0.000	-0.005	0.386	2.700	1.899	1.899	1.895	1.919	1.914	1.909
-0.005	0.000	0.010	0.000	0.005	0.010	0.386	2.695	1.899	1.899	1.899	1.919	1.914	1.914
0.000	0.000	0.005	0.005	0.000	0.000	0.386	2.695	1.899	1.899	1.895	1.914	1.914	1.909
-0.005	-0.005	0.000	0.005	0.005	-0.005	0.396	2.700	1.895	1.895	1.895	1.914	1.909	1.909
0.005	-0.005	0.005	0.005	0.005	0.005	0.391	2.686	1.904	1.895	1.895	1.914	1.909	1.914
0.000	0.000	0.010	0.005	-0.005	0.005	0.386	2.681	1.895	1.895	1.895	1.914	1.909	1.909
0.005	0.000	0.000	0.005	0.000	0.000	0.391	2.695	1.895	1.895	1.890	1.909	1.909	1.909
-0.005	-0.005	0.000	0.000	0.005	0.000	0.386	2.690	1.895	1.890	1.895	1.909	1.904	1.909
0.005	0.010	0.000	0.000	0.000	0.000	0.386	2.695	1.899	1.895	1.895	1.914	1.909	1.909
0.000	0.024	0.005	0.005	0.000	0.005	0.386	2.710	1.904	1.904	1.895	1.914	1.909	1.909
0.000	0.015	0.000	0.000	-0.005	0.000	0.391	2.705	1.904	1.904	1.899	1.914	1.909	1.909
0.005	-0.005	0.005	0.000	0.000	-0.010	0.391	2.700	1.904	1.899	1.899	1.914	1.909	1.909
0.000	0.010	-0.005	0.000	0.000	0.000	0.391	2.700	1.909	1.904	1.899	1.914	1.914	1.914
-0.010	0.010	0.005	0.000	0.000	-0.005	0.391	2.705	1.909	1.904	1.899	1.919	1.914	1.909
0.010	-0.005	0.000	0.000	0.000	-0.010	0.396	2.681	1.909	1.904	1.899	1.919	1.914	1.909
-0.005	0.000	0.000	0.000	0.005	0.000	0.396	2.695	1.904	1.904	1.899	1.919	1.914	1.914
-0.005	0.000	-0.005	-0.005	0.005	0.000	0.396	2.686	1.904	1.904	1.899	1.919	1.914	1.914
-0.005	0.005	0.000	0.005	0.000	0.000	0.391	2.690	1.904	1.899	1.899	1.919	1.909	1.914
0.005	-0.005	-0.005	0.000	0.005	-0.005	0.391	2.686	1.895	1.895	1.899	1.914	1.909	1.909
0.000	0.005	0.000	0.000	0.005	0.005	0.386	2.700	1.899	1.895	1.895	1.914	1.914	1.914
0.010	0.020	0.005	0.000	0.005	0.000	0.391	2.642	1.895	1.895	1.895	1.914	1.909	1.909
0.000	0.005	0.005	0.000	0.005	0.005	0.386	2.661	1.885	1.890	1.895	1.914	1.909	1.909
0.005	0.005	0.000	0.000	-0.005	0.005	0.391	2.803	1.904	1.890	1.890	1.909	1.904	1.909
0.005	0.000	0.000	0.005	-0.005	0.010	0.391	2.656	1.899	1.895	1.890	1.914	1.909	1.909
0.005	0.000	0.000	0.005	0.005	0.000	0.396	2.739	1.904	1.895	1.890	1.909	1.909	1.904
-0.005	-0.005	0.000	0.000	0.005	0.000	0.391	2.681	1.904	1.899	1.895	1.914	1.909	1.909
-0.005	0.000	0.005	0.000	0.005	-0.005	0.396	2.729	1.904	1.899	1.895	1.914	1.909	1.904
0.000	0.000	0.005	0.000	0.000	0.000	0.391	2.686	1.904	1.904	1.895	1.914	1.914	1.909
-0.005	0.000	0.000	0.000	-0.005	-0.010	0.396	2.764	1.914	1.909	1.899	1.919	1.914	1.909
0.000	0.005	0.000	0.005	0.000	0.010	0.391	2.661	1.909	1.909	1.904	1.919	1.914	1.914
0.000	0.000	0.000	0.005	-0.005	0.005	0.391	2.729	1.914	1.909	1.904	1.924	1.914	1.914
0.010	0.000	-0.005	0.005	0.000	-0.024	0.391	2.739	1.914	1.904	1.904	1.919	1.914	1.909
0.010	0.005	-0.005	0.000	0.000	0.015	0.386	2.646	1.899	1.909	1.904	1.919	1.914	1.919
0.000	0.000	0.000	0.000	0.000	-0.015	0.386	2.637	1.914	1.904	1.904	1.919	1.914	1.909
-0.005	0.000	-0.005	0.005	0.000	0.000	0.391	2.637	1.899	1.904	1.904	1.919	1.914	1.914
0.005	0.005	0.000	0.000	0.005	-0.005	0.386	2.749	1.904	1.899	1.899	1.919	1.914	1.914
0.005	-0.005	0.000	0.000	0.005	0.010	0.386	2.656	1.895	1.899	1.899	1.914	1.914	1.914
0.010	0.000	0.005	0.000	0.005	0.020	0.396	2.695	1.899	1.899	1.899	1.919	1.914	1.914
-0.005	0.005	0.000	0.005	0.000	0.010	0.386	2.705	1.895	1.899	1.895	1.919	1.909	1.914
-0.005	0.005	0.005	0.000	0.000	0.015	0.391	2.705	1.899	1.895	1.895	1.914	1.909	1.914
0.005	0.000	0.000	0.000	0.000	-0.010	0.391	2.695	1.899	1.895	1.895	1.914	1.909	1.904
0.005	0.000	0.005	0.005	0.000	-0.005	0.396	2.700	1.899	1.895	1.895	1.914	1.909	1.909
0.005	-0.005	0.000	0.005	0.000	-0.010	0.391	2.710	1.909	1.895	1.895	1.919	1.909	1.909
-0.010	0.000	0.005	0.005	0.000	-0.020	0.396	2.720	1.909	1.904	1.899	1.919	1.914	1.909
0.005	-0.005	0.000	0.005	-0.005	0.000	0.386	2.671	1.909	1.904	1.895	1.919	1.914	1.909
0.000	0.000	0.000	0.000	0.000	0.015	0.391	2.695	1.904	1.904	1.899	1.919	1.914	1.919
0.000	0.000	0.000	0.000	0.005	0.010	0.391	2.700	1.909	1.904	1.904	1.919	1.914	1.919
0.005	0.010	0.000	0.005	0.000	0.000	0.396	2.690	1.909	1.909	1.904	1.919	1.914	1.914
0.005	0.000	0.000	0.000	0.005	0.000	0.381	2.695	1.909	1.904	1.904	1.924	1.919	1.919
0.000	-0.005	0.005	0.000	0.000	0.010	0.386	2.710	1.904	1.904	1.904	1.919	1.914	1.914
0.005	0.000	0.000	0.000	0.005	-0.020	0.386	2.686	1.904	1.904	1.904	1.919	1.914	1.909
0.000	0.000	0.005	0.000	0.005	0.005	0.386	2.695	1.904	1.904	1.899	1.919	1.914	1.914
-0.005	0.020	0.005	0.000	0.005	-0.020	0.391	2.695	1.899	1.904	1.904	1.919	1.914	1.909
0.000	0.020	0.000	0.000	0.005	0.000	0.400	2.700	1.899	1.899	1.899	1.919	1.914	1.914
0.005	0.000	0.000	-0.005	0.000	-0.020	0.386	2.700	1.899	1.895	1.895	1.914	1.909	1.909
0.000	0.010	-0.005	0.000	0.005	0.020	0.386	2.690	1.899	1.895	1.895	1.914	1.914	1.919
0.000	0.010	0.000	-0.005	0.005	-0.005	0.391	2.676	1.899	1.895	1.895	1.914	1.909	1.909
0.000	0.000	0.000	0.000	0.010	0.015	0.386	2.700	1.899	1.899	1.895	1.914	1.909	1.914
0.005	0.010	0.000	0.000	0.000	-0.010	0.391	2.705	1.904	1.895	1.895	1.914	1.909	1.904
0.010	0.005	0.005	0.005	0.000	-0.010	0.396	2.690	1.904	1.899	1.899	1.914	1.909	1.909
0.005	0.005	0.000	0.000	0.000	0.015	0.386	2.642	1.899	1.899	1.899	1.914	1.914	1.914
0.010	-0.005	0.005	0.000	0.000	0.015	0.396	2.656	1.899	1.899	1.899	1.919	1.914	1.914
0.005	-0.005	0.005	0.000	0.000	0.010	0.386	2.803	1.909	1.899	1.899	1.919	1.914	1.914
0.000	0.000	0.000	-0.005	0.000	0.005	0.381	2.651	1.904	1.904	1.899	1.914	1.914	1.914
0.000	0.000	0.000	0.000	0.000	0.000	0.386	2.744	1.909	1.904	1.899	1.919	1.914	1.914
0.005	0.000	0.005	0.000	0.010	0.005	0.386	2.690	1.914	1.909	1.904	1.919	1.919	1.914
0.000	0.005	0.000	0.000	0.000	-0.005	0.386	2.646	1.909	1.904	1.899	1.919	1.914	1.909
-0.005	0.000	0.005	0.005	0.005	-0.005	0.386	2.686	1.904	1.904	1.904	1.919	1.914	1.914
0.000	0.005	0.005	0.005	0.010	-0.005	0.386	2.749	1.909	1.904	1.899	1.919	1.914	1.909
0.000	-0.020	0.000	0.005	-0.005	-0.010	0.386	2.671	1.904	1.895	1.895	1.919	1.914	1.914
-0.005	0.000	0.000	0.000	0.000	-0.020	0.391	2.642	1.895	1.899	1.895	1.914	1.909	1.909
0.000	0.015	0.005	0.000	0.000	0.005	0.386	2.729	1.899	1.904	1.899	1.914	1.909	1.914
0.000	0.020	0.005	0.005	0.005	0.015	0.386	2.637	1.895	1.899	1.895	1.914	1.909	1.919
-0.005	0.015	0.000	0.005	0.000	-0.010	0.386	2.651	1.890	1.895	1.895	1.914	1.909	1.904
0.005	0.015	0.005	0.000	0.000	0.015	0.391	2.739	1.904	1.895	1.899	1.914	1.909	1.914
0.010	0.005	0.000	0.000	-0.005	0.024	0.381	2.759	1.909	1.899	1.899	1.914	1.914	1.914
0.005	-0.005	0.000	0.000	0.000	-0.005	0.386	2.671	1.899	1.899	1.895	1.914	1.914	1.909
0.005	0.015	0.005	0.005	0.000	0.015	0.391	2.705	1.909	1.904	1.899	1.919	1.914	1.909
0.000	0.000	0.005	0.000	-0.005	0.020	0.396	2.700	1.909	1.904	1.899	1.919	1.914	1.914
0.000	-0.005	0.005	0.005	0.005	-0.005	0.391	2.695	1.904	1.904	1.904	1.919	1.919	1.914
0.000	0.010	0.000	0.000	0.000	0.020	0.396	2.705	1.909	1.904	1.899	1.919	1.914	1.919
0.000	0.005	0.000	0.000	0.005	0.005	0.391	2.710	1.909	1.904	1.899	1.919	1.914	1.909
-0.005	0.000	0.000	0.000	0.000	0.010	0.391	2.690	1.904	1.904	1.904	1.919	1.914	1.914
-0.005	-0.005	0.005	0.000	0.010	0.000	0.396	2.676	1.904	1.899	1.904	1.919	1.914	1.909
-0.010	0.010	0.000	0.000	0.010	-0.005	0.396	2.690	1.899	1.899	1.899	1.914	1.914	1.909
-0.005	-0.005	0.000	0.000	0.005	0.000	0.391	2.695	1.899	1.899	1.899	1.919	1.914	1.909
0.010	0.000	0.000	0.010	0.000	0.005	0.396	2.700	1.904	1.899	1.895	1.914	1.909	1.909
0.010	-0.005	0.000	0.005	0.005	-0.010	0.391	2.690	1.899	1.895	1.895	1.909	1.909	1.909
0.015	0.000	0.005	0.005	0.010	0.005	0.391	2.690	1.899	1.899	1.895	1.914	1.909	1.909
0.005	0.000	0.000	0.000	0.000	-0.015	0.396	2.695	1.899	1.899	1.895	1.909	1.909	1.904
0.000	0.005	0.005	0.005	0.000	-0.015	0.396	2.695	1.895	1.899	1.895	1.914	1.909	1.909
0.010	0.000	0.005	0.000	-0.005	0.010	0.386	2.686	1.899	1.899	1.895	1.914	1.909	1.914
0.000	0.000	0.000	0.005	-0.005	0.000	0.391	2.700	1.899	1.899	1.895	1.914	1.909	1.909
-0.010	0.005	0.010	0.000	0.000	0.000	0.391	2.695	1.899	1.904	1.899	1.919	1.909	1.909
0.010	0.000	0.005	0.005	0.005	0.010	0.386	2.681	1.904	1.904	1.895	1.919	1.914	1.919
0.000	0.005	-0.005	0.000	0.000	-0.005	0.396	2.695	1.904	1.904	1.899	1.919	1.909	1.909
0.000	0.005	0.005	0.000	0.000	-0.010	0.396	2.705	1.909	1.909	1.899	1.919	1.914	1.909
0.005	0.000	0.000	0.005	0.000	-0.015	0.400	2.695	1.909	1.904	1.899	1.919	1.914	1.909
0.005	0.010	0.005	0.000	0.005	0.015	0.386	2.690	1.904	1.904	1.904	1.919	1.914	1.919
0.000	0.005	0.000	0.005	0.005	0.010	0.400	2.695	1.904	1.904	1.899	1.919	1.914	1.914
0.005	-0.005	0.005	0.005	0.000	0.000	0.386	2.646	1.899	1.899	1.899	1.919	1.914	1.914
0.010	0.000	0.005	0.005	0.000	0.005	0.396	2.642	1.890	1.899	1.899	1.914	1.914	1.914
-0.005	0.005	0.000	0.000	0.005	-0.005	0.381	2.646	1.899	1.895	1.895	1.914	1.909	1.909
0.000	0.000	-0.005	0.000	0.000	0.005	0.391	2.646	1.890	1.890	1.895	1.909	1.909	1.909
0.000	-0.005	-0.005	0.000	0.005	0.000	0.386	2.739	1.895	1.890	1.890	1.909	1.909	1.909
-0.010	0.005	0.000	-0.005	0.005	0.000	0.391	2.676	1.890	1.895	1.890	1.909	1.909	1.909
0.005	0.005	0.010	0.005	0.005	0.000	0.391	2.764	1.904	1.890	1.890	1.909	1.904	1.909
0.005	0.005	0.005	0.000	0.000	-0.015	0.391	2.681	1.899	1.899	1.895	1.909	1.904	1.904
0.005	0.000	0.005	0.005	0.000	0.010	0.386	2.749	1.904	1.899	1.895	1.914	1.904	1.909
-0.005	-0.005	-0.005	0.000	0.000	0.005	0.396	2.681	1.895	1.895	1.895	1.914	1.909	1.909
0.000	0.005	0.005	0.000	0.000	-0.010	0.391	2.739	1.909	1.899	1.895	1.914	1.909	1.899
0.000	0.000	0.005	0.005	-0.005	0.000	0.391	2.646	1.899	1.899	1.899	1.919	1.909	1.909
0.005	0.005	0.000	0.005	0.000	-0.010	0.386	2.710	1.904	1.904	1.899	1.914	1.909	1.909
0.010	0.000	0.005	0.010	0.005	0.015	0.391	2.661	1.904	1.904	1.899	1.919	1.914	1.919
0.000	0.005	0.000	0.005	0.000	0.005	0.391	2.725	1.904	1.904	1.899	1.914	1.914	1.914
0.000	0.010	0.000	0.000	0.000	-0.005	0.391	2.739	1.904	1.904	1.904	1.914	1.914	1.914
0.005	0.015	0.005	0.000	0.005	0.000	0.391	2.661	1.904	1.904	1.899	1.919	1.914	1.914
0.005	0.005	0.005	-0.005	0.005	0.010	0.391	2.710	1.904	1.899	1.899	1.919	1.909	1.909
-0.005	0.005	0.000	-0.005	0.005	-0.024	0.386	2.681	1.899	1.899	1.899	1.914	1.909	1.904
0.000	-0.005	0.005	0.000	0.005	0.005	0.386	2.695	1.895	1.895	1.895	1.914	1.909	1.914
0.000	0.000	0.000	0.000	0.005	-0.005	0.391	2.695	1.899	1.899	1.895	1.909	1.909	1.909
0.005	0.000	0.000	-0.005	0.000	0.000	0.391	2.710	1.899	1.895	1.895	1.909	1.904	1.909
0.005	0.005	0.000	0.000	0.000	0.015	0.391	2.710	1.904	1.895	1.895	1.909	1.909	1.909
-0.005	-0.015	0.010	-0.005	0.000	0.015	0.386	2.705	1.899	1.895	1.895	1.914	1.904	1.909
0.005	0.005	0.000	0.000	0.000	0.010	0.396	2.710	1.904	1.899	1.895	1.914	1.904	1.909
0.005	-0.005	-0.005	0.000	0.005	0.010	0.386	2.715	1.904	1.899	1.895	1.914	1.909	1.909
0.010	0.000	0.000	0.005	0.000	-0.010	0.396	2.705	1.909	1.899	1.899	1.914	1.909	1.904
0.005	0.000	0.005	0.005	-0.005	0.000	0.391	2.710	1.909	1.904	1.899	1.919	1.914	1.909
0.005	-0.005	0.005	0.000	0.000	0.005	0.386	2.710	1.909	1.904	1.899	1.919	1.914	1.914
0.005	0.005	0.000	0.005	-0.005	0.000	0.386	2.705	1.904	1.904	1.904	1.919	1.909	1.909
0.000	0.000	0.000	0.000	0.000	0.010	0.396	2.700	1.909	1.904	1.904	1.919	1.919	1.914
0.005	0.005	0.005	0.000	0.005	0.010	0.391	2.700	1.909	1.904	1.904	1.919	1.919	1.919
0.010	0.005	0.005	0.005	0.000	0.005	0.391	2.700	1.909	1.909	1.904	1.924	1.919	1.914
-0.005	-0.005	0.005	0.000	0.000	0.010	0.381	2.700	1.899	1.904	1.899	1.919	1.914	1.914
0.005	0.005	0.005	0.000	0.005	0.005	0.391	2.710	1.904	1.904	1.899	1.919	1.914	1.914
-0.005	-0.005	0.000	0.000	0.000	0.005	0.391	2.710	1.904	1.899	1.899	1.919	1.914	1.909
-0.010	0.000	0.000	0.000	0.005	0.005	0.396	2.700	1.899	1.895	1.899	1.919	1.909	1.909
-0.005	-0.005	0.000	0.005	0.005	0.000	0.391	2.700	1.895	1.895	1.895	1.914	1.909	1.909
-0.005	0.000	0.000	0.005	0.005	-0.010	0.391	2.695	1.895	1.895	1.895	1.914	1.909	1.909
0.000	0.005	0.000	0.005	0.000	-0.005	0.386	2.695	1.904	1.899	1.899	1.914	1.909	1.909
-0.005	0.005	0.000	0.000	0.005	0.000	0.386	2.642	1.895	1.895	1.895	1.914	1.909	1.909
0.015	0.005	0.005	0.005	0.000	-0.015	0.391	2.671	1.899	1.899	1.895	1.914	1.909	1.904
0.000	0.010	-0.005	0.005	-0.005	0.000	0.391	2.788	1.909	1.899	1.895	1.914	1.909	1.909
0.000	0.005	0.010	0.005	-0.005	0.000	0.391	2.646	1.904	1.904	1.899	1.919	1.914	1.909
0.005	0.000	-0.005	0.000	0.000	-0.020	0.391	2.739	1.909	1.899	1.895	1.919	1.914	1.909
0.005	0.000	0.000	0.000	0.000	-0.005	0.391	2.681	1.904	1.904	1.904	1.919	1.914	1.914
0.000	-0.005	0.000	0.000	0.000	0.024	0.386	2.661	1.899	1.904	1.899	1.919	1.914	1.924
0.005	-0.005	0.000	0.005	0.010	0.010	0.391	2.681	1.899	1.904	1.899	1.919	1.919	1.924
-0.005	-0.005	0.000	0.000	-0.005	0.024	0.386	2.666	1.899	1.899	1.899	1.919	1.914	1.919
0.000	-0.005	0.000	0.000	0.005	0.024	0.391	2.656	1.895	1.899	1.899	1.919	1.914	1.919
0.000	-0.005	0.000	0.000	0.000	-0.015	0.386	2.734	1.904	1.904	1.899	1.919	1.914	1.909
-0.005	0.000	0.005	0.000	0.005	0.015	0.391	2.739	1.904	1.899	1.899	1.914	1.914	1.919
0.000	0.005	0.000	0.005	0.005	-0.005	0.386	2.739	1.895	1.899	1.895	1.914	1.909	1.914
0.000	-0.005	0.000	0.005	0.005	0.010	0.391	2.646	1.890	1.890	1.890	1.914	1.909	1.909
0.000	0.000	0.000	-0.005	0.005	-0.020	0.386	2.729	1.895	1.890	1.890	1.909	1.909	1.904
0.005	-0.005	0.000	0.000	0.005	0.010	0.396	2.739	1.899	1.890	1.890	1.909	1.909	1.914
0.000	0.005	0.005	0.005	-0.005	0.020	0.391	2.671	1.895	1.895	1.890	1.909	1.904	1.909
0.000	0.000	0.005	0.000	0.000	0.000	0.396	2.705	1.904	1.895	1.890	1.909	1.904	1.904
0.005	0.000	0.000	0.000	0.000	0.015	0.391	2.715	1.909	1.899	1.895	1.909	1.904	1.909
0.005	0.005	0.000	0.000	0.005	0.010	0.396	2.705	1.909	1.899	1.895	1.914	1.909	1.909
0.000	0.005	-0.005	0.000	0.005	0.005	0.381	2.695	1.909	1.904	1.899	1.914	1.909	1.909
0.000	0.000	0.005	0.000	0.005	-0.020	0.386	2.690	1.904	1.904	1.904	1.919	1.909	1.904
0.005	-0.005	0.005	0.005	0.000	-0.010	0.391	2.695	1.904	1.904	1.904	1.919	1.914	1.904
0.000	0.005	0.000	0.005	-0.005	0.005	0.396	2.705	1.904	1.904	1.904	1.919	1.914	1.914
0.000	-0.005	0.010	0.000	0.000	0.015	0.391	2.710	1.904	1.904	1.904	1.919	1.914	1.914
-0.005	0.000	0.000	0.005	0.000	0.010	0.396	2.700	1.904	1.904	1.904	1.919	1.914	1.914
-0.005	0.005	0.000	0.005	0.005	0.005	0.386	2.686	1.899	1.899	1.899	1.919	1.914	1.914
-0.005	0.000	0.005	0.005	0.005	0.010	0.396	2.681	1.899	1.904	1.904	1.919	1.914	1.914
-0.010	0.000	0.005	0.000	0.000	-0.020	0.391	2.681	1.895	1.895	1.895	1.914	1.914	1.904
0.005	0.010	0.000	0.005	0.010	0.015	0.391	2.700	1.899	1.899	1.895	1.914	1.914	1.914
0.005	0.010	0.005	0.000	0.000	0.005	0.386	2.700	1.899	1.899	1.895	1.914	1.909	1.914
0.000	0.015	0.000	0.000	0.005	0.005	0.391	2.705	1.899	1.899	1.895	1.914	1.909	1.909
0.010	0.015	0.005	0.000	0.000	0.000	0.391	2.705	1.904	1.899	1.895	1.914	1.909	1.909
-0.005	0.000	0.000	0.000	0.005	0.000	0.386	2.690	1.895	1.890	1.895	1.914	1.909	1.909
0.005	-0.020	0.000	0.000	-0.005	0.010	0.391	2.705	1.899	1.890	1.890	1.909	1.904	1.909
0.005	0.000	0.005	0.005	0.000	-0.005	0.396	2.686	1.899	1.895	1.895	1.914	1.909	1.904
-0.005	-0.005	-0.005	0.000	0.000	-0.010	0.396	2.681	1.904	1.899	1.895	1.914	1.909	1.909
0.005	0.005	0.000	0.005	0.000	-0.015	0.391	2.700	1.909	1.904	1.899	1.914	1.909	1.909
0.000	-0.010	0.005	0.010	0.000	0.000	0.381	2.690	1.899	1.899	1.899	1.919	1.909	1.914
0.015	0.000	0.005	0.005	0.000	-0.005	0.386	2.695	1.909	1.904	1.899	1.919	1.909	1.909
0.010	0.000	0.000	0.005	0.000	-0.010	0.391	2.627	1.899	1.899	1.899	1.919	1.909	1.909
0.000	-0.005	0.000	0.000	-0.005	-0.005	0.386	2.651	1.890	1.895	1.899	1.919	1.914	1.909
0.000	0.010	0.005	0.005	-0.005	0.015	0.396	2.793	1.904	1.904	1.899	1.919	1.914	1.919
-0.005	0.024	0.005	0.005	0.000	-0.005	0.381	2.651	1.899	1.904	1.899	1.919	1.914	1.914
-0.005	0.015	0.005	0.000	0.000	-0.010	0.391	2.744	1.904	1.899	1.899	1.914	1.909	1.909
0.000	0.000	-0.005	0.005	0.005	0.005	0.391	2.671	1.895	1.895	1.895	1.914	1.909	1.914
0.005	0.020	0.005	0.000	0.005	0.010	0.391	2.656	1.899	1.899	1.899	1.914	1.909	1.914
0.005	0.005	-0.005	0.000	0.000	0.005	0.376	2.681	1.895	1.895	1.895	1.914	1.904	1.909
-0.010	0.015	0.000	0.000	0.005	0.005	0.386	2.734	1.899	1.895	1.895	1.909	1.909	1.909
0.000	0.005	0.005	0.000	-0.005	-0.015	0.391	2.671	1.899	1.895	1.890	1.914	1.909	1.904
0.005	0.000	0.010	0.005	0.005	0.015	0.396	2.729	1.904	1.895	1.895	1.914	1.909	1.909
-0.005	0.000	0.000	0.005	0.000	-0.005	0.396	2.729	1.904	1.895	1.895	1.909	1.909	1.909
0.000	-0.005	0.005	0.010	0.000	0.010	0.386	2.646	1.904	1.895	1.890	1.914	1.909	1.909
0.000	0.000	0.005	0.005	0.000	0.015	0.396	2.656	1.899	1.899	1.899	1.914	1.909	1.914
0.000	0.000	0.000	0.000	0.005	0.005	0.391	2.651	1.899	1.899	1.895	1.914	1.909	1.909
0.005	-0.010	0.000	0.000	0.000	0.010	0.396	2.749	1.904	1.895	1.899	1.914	1.909	1.914
0.005	-0.010	0.000	0.000	0.005	-0.010	0.400	2.676	1.909	1.899	1.895	1.914	1.909	1.904
0.005	-0.015	0.000	0.000	0.000	0.010	0.391	2.681	1.904	1.904	1.899	1.914	1.909	1.914
0.000	-0.005	0.005	0.005	0.000	0.005	0.386	2.695	1.904	1.904	1.899	1.919	1.909	1.914
0.000	-0.005	0.000	0.000	0.005	-0.020	0.391	2.695	1.904	1.904	1.899	1.914	1.914	1.909
0.005	-0.005	0.005	0.000	0.005	0.000	0.391	2.695	1.899	1.904	1.899	1.914	1.914	1.914
0.000	0.005	0.005	0.000	0.010	-0.020	0.391	2.690	1.895	1.899	1.899	1.914	1.909	1.904
-0.005	-0.005	0.000	-0.005	0.005	0.015	0.391	2.705	1.899	1.895	1.899	1.914	1.909	1.914
0.000	0.020	0.010	-0.005	0.010	0.015	0.391	2.710	1.899	1.899	1.899	1.914	1.909	1.909
-0.005	0.015	0.005	0.000	0.005	0.010	0.386	2.686	1.899	1.899	1.895	1.914	1.909	1.909
-0.005	0.000	0.005	0.005	0.000	0.010	0.391	2.690	1.895	1.895	1.895	1.914	1.909	1.909
0.000	0.000	0.000	0.005	0.005	-0.015	0.391	2.690	1.899	1.890	1.890	1.914	1.909	1.904
-0.005	0.005	0.000	0.000	0.000	0.010	0.396	2.710	1.895	1.895	1.895	1.909	1.909	1.909
0.005	0.005	0.005	0.000	-0.005	0.005	0.386	2.681	1.899	1.895	1.895	1.909	1.909	1.909
0.010	0.005	0.000	0.000	0.000	0.005	0.391	2.705	1.899	1.899	1.899	1.909	1.904	1.909
-0.005	0.005	-0.005	0.000	0.000	0.010	0.381	2.686	1.899	1.895	1.899	1.919	1.909	1.914
0.000	0.005	0.000	0.000	0.000	0.010	0.391	2.705	1.904	1.899	1.899	1.914	1.909	1.909
0.010	0.005	0.010	0.000	0.005	0.005	0.386	2.690	1.914	1.904	1.899	1.919	1.914	1.914
0.010	0.010	0.000	0.005	0.005	-0.005	0.386	2.695	1.904	1.904	1.899	1.919	1.914	1.909
0.005	0.000	0.000	0.005	0.005	0.005	0.386	2.681	1.904	1.904	1.899	1.919	1.914	1.914
-0.005	0.000	0.000	0.000	0.005	-0.010	0.386	2.705	1.899	1.899	1.899	1.919	1.914	1.909
0.000	-0.005	0.005	0.000	0.000	0.005	0.381	2.695	1.904	1.899	1.899	1.919	1.914	1.914
0.000	0.000	0.000	0.005	0.000	0.000	0.391	2.700	1.899	1.899	1.899	1.914	1.909	1.909
0.000	0.000	0.000	0.005	0.000	-0.020	0.391	2.705	1.899	1.895	1.895	1.914	1.909	1.904
0.000	-0.005	0.005	0.000	0.005	0.005	0.396	2.686	1.904	1.895	1.895	1.914	1.909	1.914
-0.005	-0.005	0.005	0.005	0.005	-0.010	0.386	2.651	1.890	1.890	1.895	1.914	1.909	1.904
0.010	-0.005	0.000	0.005	0.005	0.015	0.391	2.651	1.885	1.890	1.890	1.909	1.904	1.909
0.000	-0.005	0.000	0.000	0.005	0.000	0.386	2.798	1.899	1.890	1.890	1.909	1.904	1.904
0.005	-0.010	0.000	0.000	-0.005	0.005	0.391	2.637	1.895	1.890	1.890	1.904	1.904	1.909
0.000	0.005	0.005	0.000	0.005	0.005	0.391	2.729	1.899	1.899	1.895	1.909	1.909	1.909
-0.010	-0.010	0.000	0.000	-0.005	0.000	0.386	2.671	1.904	1.899	1.895	1.914	1.904	1.904
-0.005	0.015	0.000	0.005	-0.005	0.000	0.386	2.646	1.899	1.904	1.895	1.914	1.909	1.909
0.005	0.010	0.005	0.000	0.000	0.000	0.396	2.676	1.899	1.899	1.899	1.914	1.909	1.909
-0.010	-0.015	0.000	0.000	0.000	0.015	0.391	2.651	1.895	1.895	1.899	1.914	1.909	1.909
0.010	-0.005	0.000	0.000	0.005	0.005	0.391	2.666	1.904	1.899	1.899	1.914	1.909	1.914
0.000	-0.005	0.000	0.000	0.005	0.005	0.391	2.627	1.890	1.899	1.895	1.914	1.909	1.909
0.000	-0.005	0.000	0.000	0.005	0.010	0.396	2.729	1.899	1.899	1.899	1.919	1.914	1.909
0.000	0.010	0.000	0.005	0.000	0.000	0.396	2.651	1.895	1.899	1.899	1.914	1.909	1.909
0.005	0.015	0.000	0.005	0.005	-0.005	0.381	2.661	1.914	1.904	1.899	1.919	1.914	1.909
0.000	0.010	0.000	0.005	0.000	-0.024	0.386	2.734	1.909	1.904	1.899	1.914	1.909	1.904
0.005	0.005	0.005	0.005	0.000	0.000	0.391	2.749	1.909	1.899	1.899	1.919	1.914	1.914
0.010	0.005	0.000	0.000	0.005	0.005	0.391	2.661	1.904	1.899	1.899	1.914	1.909	1.914
0.000	0.010	0.005	0.000	0.005	0.000	0.391	2.695	1.899	1.899	1.895	1.914	1.909	1.909
-0.005	0.000	0.005	0.005	0.005	-0.005	0.391	2.710	1.899	1.895	1.890	1.914	1.909	1.904
0.010	0.000	0.000	0.005	0.005	0.005	0.386	2.695	1.899	1.895	1.890	1.914	1.909	1.909
0.010	0.000	0.005	0.000	0.000	0.015	0.396	2.705	1.899	1.895	1.895	1.914	1.909	1.909
0.000	0.005	0.010	0.000	0.005	0.005	0.396	2.715	1.904	1.899	1.895	1.914	1.904	1.904
0.005	0.000	0.005	0.000	-0.005	0.010	0.391	2.705	1.909	1.899	1.899	1.914	1.909	1.909
0.005	0.000	0.000	0.005	0.000	0.005	0.386	2.676	1.904	1.899	1.899	1.914	1.909	1.909
0.000	0.010	0.000	0.005	0.000	-0.010	0.400	2.686	1.904	1.904	1.899	1.914	1.909	1.904
0.000	0.010	0.000	0.000	0.000	0.020	0.396	2.700	1.909	1.904	1.904	1.919	1.914	1.919
0.015	0.005	0.000	0.005	0.000	0.010	0.405	2.695	1.909	1.904	1.904	1.919	1.914	1.909
0.005	0.000	0.005	0.005	0.005	0.005	0.386	2.695	1.904	1.904	1.904	1.924	1.919	1.919
-0.005	0.000	0.000	0.005	0.000	0.010	0.391	2.690	1.899	1.904	1.899	1.919	1.914	1.914
0.005	-0.005	0.000	0.005	0.000	0.010	0.386	2.686	1.899	1.899	1.899	1.919	1.919	1.914
0.005	-0.010	0.005	0.000	0.000	0.000	0.386	2.690	1.899	1.895	1.895	1.919	1.914	1.909
-0.005	-0.005	0.000	0.000	0.000	-0.024	0.381	2.700	1.895	1.899	1.895	1.914	1.914	1.904
-0.010	0.000	0.000	0.000	0.000	0.005	0.391	2.681	1.890	1.899	1.899	1.914	1.914	1.914
0.000	-0.005	-0.005	0.000	0.005	-0.005	0.381	2.681	1.895	1.890	1.895	1.914	1.909	1.909
0.000	-0.005	0.005	0.000	0.005	-0.029	0.391	2.690	1.895	1.895	1.890	1.909	1.909	1.899
0.005	0.010	0.000	0.000	0.005	0.005	0.391	2.690	1.895	1.895	1.890	1.909	1.909	1.909
-0.005	0.005	-0.005	0.000	0.000	0.000	0.396	2.695	1.895	1.895	1.890	1.909	1.904	1.909
0.000	0.015	0.000	0.005	-0.005	0.010	0.391	2.705	1.895	1.895	1.895	1.909	1.904	1.909
0.000	0.010	0.000	0.000	0.005	0.010	0.386	2.695	1.899	1.895	1.890	1.914	1.909	1.909
0.005	0.005	0.010	0.000	0.005	0.010	0.396	2.710	1.904	1.899	1.895	1.914	1.909	1.909
0.000	0.000	0.005	0.005	0.000	0.010	0.391	2.651	1.899	1.899	1.895	1.914	1.909	1.909
0.010	-0.005	0.005	0.000	-0.005	-0.005	0.396	2.651	1.899	1.899	1.899	1.914	1.909	1.904
0.005	-0.005	0.000	0.000	0.000	0.005	0.391	2.783	1.904	1.899	1.895	1.909	1.909	1.914
-0.005	-0.005	0.005	0.000	0.005	0.005	0.391	2.656	1.899	1.899	1.895	1.919	1.909	1.909
0.000	-0.005	0.000	0.000	0.005	-0.010	0.386	2.729	1.904	1.899	1.899	1.914	1.914	1.909
0.005	0.000	0.005	0.000	0.005	0.000	0.386	2.671	1.899	1.904	1.899	1.914	1.914	1.914
0.000	0.000	0.000	-0.005	0.005	0.000	0.386	2.651	1.904	1.899	1.899	1.914	1.909	1.914
0.000	-0.010	0.000	0.000	0.005	-0.005	0.391	2.681	1.899	1.895	1.895	1.914	1.909	1.909
-0.005	0.010	0.000	0.005	0.005	0.005	0.386	2.734	1.904	1.904	1.899	1.914	1.909	1.909
-0.005	0.029	-0.005	0.005	0.005	-0.005	0.386	2.666	1.904	1.899	1.895	1.919	1.909	1.909
0.000	0.000	0.005	0.000	0.005	-0.005	0.386	2.725	1.899	1.895	1.895	1.914	1.909	1.909
0.005	-0.015	0.000	0.000	0.010	0.000	0.391	2.729	1.899	1.895	1.895	1.909	1.909	1.909
-0.005	-0.005	0.000	0.000	0.000	0.005	0.386	2.651	1.909	1.895	1.890	1.909	1.904	1.909
-0.005	0.010	0.000	0.005	0.000	-0.005	0.396	2.651	1.904	1.904	1.895	1.909	1.904	1.904
0.005	-0.005	0.000	0.005	-0.005	0.005	0.386	2.734	1.909	1.899	1.895	1.914	1.909	1.909
0.005	0.005	0.005	0.005	-0.005	0.005	0.396	2.744	1.909	1.909	1.899	1.914	1.909	1.909
0.010	0.005	0.005	0.000	-0.005	0.005	0.386	2.671	1.909	1.909	1.899	1.914	1.909	1.909
0.005	0.000	0.005	0.000	-0.005	-0.015	0.400	2.705	1.909	1.909	1.904	1.919	1.909	1.904
0.000	-0.005	0.005	0.000	0.000	0.005	0.381	2.695	1.904	1.904	1.904	1.919	1.914	1.914
0.005	0.000	0.000	0.005	0.005	0.005	0.396	2.710	1.909	1.904	1.904	1.924	1.914	1.914
0.005	-0.005	0.005	0.005	0.005	-0.005	0.391	2.695	1.904	1.904	1.904	1.919	1.914	1.914
0.000	-0.005	0.010	0.000	0.005	0.000	0.391	2.681	1.904	1.904	1.899	1.919	1.914	1.909
0.000	0.010	0.000	-0.005	0.005	0.005	0.386	2.700	1.904	1.909	1.904	1.924	1.919	1.919
-0.005	0.000	0.000	-0.005	0.005	0.005	0.386	2.700	1.899	1.904	1.899	1.919	1.914	1.919
0.005	0.000	-0.005	0.000	0.005	0.000	0.381	2.681	1.899	1.899	1.899	1.919	1.914	1.914
0.000	0.000	0.005	0.010	0.005	0.015	0.396	2.690	1.895	1.895	1.899	1.919	1.914	1.914
0.010	0.000	0.000	0.005	0.005	0.005	0.396	2.690	1.899	1.895	1.899	1.919	1.914	1.914
0.005	0.010	0.005	0.005	0.005	0.005	0.396	2.700	1.899	1.895	1.895	1.914	1.909	1.909
-0.010	0.005	-0.005	0.000	0.005	0.005	0.391	2.710	1.895	1.899	1.895	1.914	1.914	1.909
0.005	0.020	0.005	0.000	0.000	0.000	0.396	2.686	1.895	1.899	1.895	1.909	1.909	1.909
0.000	0.015	0.005	0.000	0.005	0.015	0.396	2.695	1.895	1.899	1.895	1.914	1.909	1.914
0.005	0.015	0.005	0.000	0.005	0.010	0.391	2.690	1.899	1.899	1.899	1.914	1.909	1.909
0.000	0.005	0.010	0.000	0.000	-0.005	0.391	2.710	1.904	1.899	1.899	1.914	1.909	1.909
0.005	0.000	-0.005	0.000	0.000	0.010	0.391	2.695	1.904	1.899	1.895	1.914	1.914	1.914
0.000	0.005	0.000	0.000	0.000	0.010	0.396	2.690	1.904	1.904	1.904	1.919	1.909	1.909
0.000	0.010	0.005	0.000	0.000	0.015	0.391	2.690	1.904	1.904	1.899	1.919	1.914	1.914
0.005	-0.005	0.010	0.000	0.000	0.015	0.386	2.710	1.909	1.904	1.899	1.919	1.919	1.914
0.000	0.005	0.005	0.000	0.005	0.005	0.386	2.705	1.909	1.904	1.899	1.919	1.914	1.909
0.010	-0.005	-0.005	0.005	0.000	-0.005	0.391	2.690	1.909	1.904	1.899	1.919	1.909	1.909
-0.005	0.000	-0.005	0.005	0.000	0.000	0.391	2.695	1.904	1.904	1.899	1.919	1.914	1.914
-0.010	-0.005	0.000	0.005	0.000	0.010	0.391	2.642	1.890	1.895	1.899	1.914	1.914	1.914
0.000	-0.010	-0.005	0.005	0.000	0.000	0.386	2.651	1.890	1.895	1.895	1.914	1.914	1.909
0.005	-0.020	-0.005	0.005	0.005	0.005	0.391	2.803	1.904	1.890	1.890	1.914	1.909	1.909
0.000	0.000	0.000	0.000	-0.005	0.005	0.391	2.646	1.899	1.899	1.895	1.914	1.904	1.909
0.000	-0.005	0.000	0.005	0.000	0.010	0.391	2.739	1.904	1.895	1.890	1.914	1.909	1.909
0.000	-0.010	0.000	0.000	-0.005	0.005	0.386	2.671	1.895	1.890	1.895	1.909	1.904	1.904
0.005	0.000	0.005	0.000	0.000	0.000	0.396	2.651	1.895	1.899	1.895	1.909	1.904	1.904
0.005	0.005	0.005	0.005	0.000	0.005	0.381	2.686	1.895	1.899	1.895	1.914	1.909	1.904
0.010	0.005	0.005	0.005	0.005	0.005	0.386	2.734	1.899	1.899	1.895	1.914	1.909	1.909
0.000	0.005	0.005	0.000	0.000	0.005	0.386	2.656	1.899	1.899	1.895	1.914	1.909	1.909
0.000	0.000	0.005	0.000	0.005	-0.010	0.396	2.656	1.895	1.899	1.899	1.914	1.909	1.904
0.005	0.015	0.005	0.000	0.005	-0.010	0.386	2.739	1.904	1.899	1.899	1.914	1.909	1.904
-0.005	0.010	-0.005	0.000	0.000	0.005	0.396	2.651	1.899	1.895	1.895	1.914	1.909	1.914
-0.005	0.005	0.000	0.000	0.005	-0.015	0.391	2.744	1.904	1.899	1.899	1.919	1.914	1.909
0.000	0.000	0.000	0.000	0.005	0.000	0.391	2.729	1.909	1.899	1.899	1.919	1.914	1.909
0.000	0.020	0.005	0.000	0.005	0.010	0.386	2.744	1.914	1.909	1.904	1.919	1.914	1.914
0.000	0.010	-0.005	0.000	0.000	-0.005	0.386	2.671	1.909	1.904	1.895	1.914	1.909	1.909
0.005	0.005	0.005	0.000	0.000	0.010	0.386	2.710	1.909	1.899	1.899	1.919	1.909	1.914
0.005	0.010	0.000	0.005	0.005	0.015	0.391	2.700	1.904	1.904	1.899	1.914	1.914	1.919
0.010	0.005	0.005	0.000	0.005	0.020	0.391	2.700	1.899	1.899	1.899	1.914	1.909	1.914
0.005	0.000	0.005	0.005	0.000	0.015	0.386	2.710	1.899	1.899	1.899	1.914	1.909	1.914
0.005	0.010	0.005	0.005	-0.005	0.010	0.386	2.695	1.899	1.895	1.895	1.909	1.904	1.904
0.000	0.005	0.005	0.005	0.000	0.005	0.386	2.700	1.899	1.895	1.895	1.914	1.909	1.909
0.000	0.000	0.000	0.000	0.000	0.005	0.391	2.690	1.895	1.895	1.895	1.909	1.909	1.909
0.010	0.000	0.005	0.000	0.005	0.005	0.391	2.681	1.895	1.895	1.895	1.914	1.909	1.909
0.005	-0.005	0.005	0.000	-0.005	0.000	0.386	2.695	1.899	1.895	1.895	1.914	1.909	1.909
0.000	0.000	0.010	0.005	-0.005	-0.005	0.386	2.715	1.904	1.899	1.899	1.919	1.909	1.909
-0.005	-0.005	0.005	0.010	-0.005	-0.015	0.391	2.700	1.904	1.899	1.899	1.919	1.909	1.904
0.005	0.015	0.000	0.000	0.000	0.000	0.396	2.705	1.909	1.909	1.904	1.919	1.914	1.914
0.005	0.010	0.000	0.000	0.000	0.015	0.391	2.690	1.909	1.904	1.904	1.919	1.914	1.919
0.000	-0.005	0.000	0.000	0.000	-0.010	0.386	2.681	1.904	1.899	1.904	1.919	1.914	1.914
0.000	-0.005	0.005	0.000	0.000	-0.015	0.391	2.686	1.904	1.899	1.904	1.914	1.914	1.909
-0.005	-0.005	0.005	0.000	0.000	-0.005	0.391	2.700	1.904	1.899	1.899	1.919	1.914	1.914
0.000	-0.005	0.005	0.000	0.000	-0.010	0.391	2.690	1.904	1.899	1.899	1.914	1.914	1.909
0.000	0.005	0.005	0.000	0.015	0.010	0.391	2.690	1.904	1.904	1.899	1.914	1.919	1.914
0.000	-0.005	0.000	0.000	0.000	0.010	0.386	2.705	1.904	1.895	1.895	1.914	1.914	1.914
0.000	0.010	0.000	0.010	0.010	0.010	0.381	2.695	1.904	1.899	1.895	1.914	1.909	1.909
0.010	0.005	0.005	0.000	0.010	0.010	0.396	2.695	1.899	1.899	1.899	1.914	1.909	1.909
-0.005	0.010	-0.005	0.000	0.000	0.000	0.391	2.686	1.895	1.899	1.895	1.914	1.904	1.909
0.010	0.005	0.000	0.005	0.005	-0.010	0.391	2.681	1.899	1.899	1.895	1.909	1.909	1.904
0.000	0.010	0.000	-0.005	0.000	-0.010	0.391	2.651	1.890	1.895	1.895	1.909	1.904	1.904
0.005	0.010	0.005	0.000	0.000	0.000	0.391	2.666	1.890	1.895	1.890	1.914	1.909	1.904
0.010	-0.005	0.000	0.000	-0.005	0.015	0.386	2.642	1.890	1.890	1.895	1.914	1.909	1.914
-0.005	-0.005	0.000	0.000	-0.010	0.000	0.391	2.651	1.890	1.890	1.890	1.914	1.909	1.909
0.015	0.000	0.005	0.000	-0.005	0.010	0.386	2.749	1.904	1.895	1.895	1.914	1.909	1.909
0.010	0.000	0.005	0.005	-0.010	-0.010	0.386	2.671	1.899	1.899	1.895	1.914	1.914	1.904
0.005	0.000	0.000	0.000	-0.005	0.010	0.386	2.651	1.895	1.899	1.895	1.914	1.914	1.914
0.000	0.010	0.000	0.005	0.005	0.015	0.386	2.695	1.899	1.899	1.895	1.914	1.914	1.914
0.005	0.005	0.000	0.000	0.010	0.005	0.386	2.627	1.895	1.895	1.895	1.914	1.914	1.914
-0.005	-0.005	-0.005	0.010	0.005	-0.005	0.391	2.671	1.890	1.890	1.890	1.909	1.909	1.909
0.000	0.000	0.000	0.000	0.005	0.010	0.396	2.739	1.899	1.895	1.890	1.909	1.909	1.909
-0.005	-0.005	0.010	0.005	0.005	-0.020	0.396	2.754	1.904	1.895	1.890	1.909	1.904	1.899
0.000	-0.005	0.005	0.000	0.000	-0.024	0.391	2.646	1.899	1.895	1.890	1.909	1.899	1.899
-0.005	-0.015	0.005	0.005	-0.005	0.000	0.386	2.749	1.899	1.890	1.890	1.909	1.904	1.909
-0.005	0.000	0.005	0.000	0.000	-0.015	0.396	2.642	1.890	1.895	1.890	1.909	1.899	1.899
-0.005	-0.005	0.000	0.005	0.005	-0.005	0.386	2.744	1.885	1.890	1.890	1.904	1.899	1.904
0.005	0.000	-0.005	0.005	0.000	0.005	0.391	2.661	1.890	1.890	1.885	1.904	1.899	1.904
0.000	0.005	0.005	0.010	0.000	0.005	0.386	2.715	1.895	1.895	1.890	1.909	1.904	1.904
0.000	0.005	0.000	0.000	0.000	0.005	0.386	2.695	1.895	1.890	1.890	1.904	1.904	1.904
0.005	0.010	0.000	0.000	0.000	0.000	0.396	2.710	1.904	1.895	1.890	1.909	1.904	1.904
0.000	0.010	0.000	0.000	-0.005	-0.005	0.391	2.686	1.899	1.899	1.895	1.909	1.904	1.904
0.005	0.010	0.005	0.005	0.005	0.005	0.386	2.686	1.904	1.895	1.895	1.909	1.904	1.904
0.000	0.010	0.000	0.000	0.005	0.005	0.396	2.695	1.904	1.899	1.895	1.914	1.909	1.909
0.010	0.010	0.000	0.000	0.005	-0.010	0.386	2.690	1.904	1.904	1.899	1.914	1.909	1.909
0.000	0.000	0.000	0.005	0.000	-0.010	0.400	2.705	1.904	1.899	1.895	1.914	1.909	1.909
0.000	0.005	0.000	0.005	0.010	0.005	0.386	2.681	1.899	1.899	1.895	1.914	1.909	1.909
-0.005	0.005	0.005	0.005	0.005	0.015	0.391	2.695	1.904	1.895	1.895	1.914	1.909	1.909
-0.005	0.000	0.005	0.000	0.005	-0.020	0.386	2.676	1.895	1.895	1.899	1.914	1.909	1.904
0.015	0.000	0.005	0.000	0.010	0.010	0.396	2.681	1.895	1.895	1.895	1.909	1.904	1.909
0.000	0.000	0.005	0.000	0.005	-0.005	0.391	2.676	1.890	1.895	1.890	1.909	1.904	1.909
0.000	0.000	0.000	0.000	0.010	0.000	0.386	2.681	1.890	1.890	1.890	1.909	1.904	1.904
0.005	0.005	0.000	0.000	0.000	0.000	0.386	2.686	1.895	1.890	1.885	1.904	1.904	1.904
-0.005	-0.005	0.005	0.005	0.000	0.005	0.396	2.686	1.890	1.890	1.890	1.909	1.904	1.904
0.005	-0.005	0.005	0.005	0.000	0.000	0.391	2.695	1.895	1.890	1.890	1.909	1.904	1.904
0.005	0.005	0.005	0.010	0.000	0.000	0.396	2.695	1.899	1.895	1.890	1.909	1.899	1.904
0.000	0.000	0.000	0.005	0.000	-0.005	0.386	2.695	1.895	1.890	1.890	1.909	1.904	1.904
-0.005	0.005	0.005	0.005	0.000	0.000	0.391	2.700	1.899	1.895	1.890	1.909	1.904	1.904
0.000	0.000	-0.005	0.000	-0.005	0.000	0.386	2.705	1.899	1.899	1.895	1.909	1.904	1.904
0.005	0.005	0.005	0.000	-0.005	0.010	0.391	2.690	1.899	1.895	1.895	1.909	1.904	1.904
0.015	0.005	0.005	0.000	-0.005	0.015	0.396	2.710	1.909	1.899	1.899	1.914	1.904	1.909
0.000	0.005	-0.005	0.000	-0.005	0.010	0.386	2.646	1.895	1.895	1.895	1.914	1.909	1.909
0.005	0.005	0.005	0.005	-0.005	0.005	0.391	2.651	1.895	1.899	1.895	1.914	1.909	1.909
-0.005	0.000	0.005	-0.005	0.000	0.005	0.386	2.798	1.904	1.895	1.895	1.914	1.909	1.909
0.000	0.000	0.000	0.005	0.000	0.010	0.391	2.651	1.899	1.899	1.890	1.914	1.909	1.909
0.005	0.000	0.005	0.000	0.000	-0.005	0.391	2.739	1.904	1.895	1.895	1.909	1.904	1.899
0.010	0.000	0.000	0.005	0.005	0.000	0.391	2.686	1.899	1.895	1.890	1.914	1.909	1.904
0.005	0.000	0.000	0.000	0.010	0.020	0.391	2.646	1.890	1.890	1.890	1.909	1.909	1.909
-0.005	0.005	0.000	0.005	0.005	0.020	0.396	2.681	1.890	1.890	1.890	1.909	1.904	1.909
0.000	0.005	0.000	0.000	0.005	0.020	0.391	2.656	1.885	1.890	1.890	1.904	1.904	1.909
0.010	0.005	0.000	0.005	0.005	0.005	0.391	2.725	1.890	1.890	1.885	1.909	1.899	1.899
-0.005	0.005	0.005	0.005	0.000	0.000	0.391	2.734	1.895	1.890	1.890	1.904	1.904	1.899
-0.005	0.000	0.000	0.000	-0.005	0.010	0.391	2.715	1.899	1.890	1.890	1.909	1.899	1.899
0.000	0.005	0.005	0.010	0.000	0.015	0.391	2.661	1.899	1.895	1.890	1.909	1.904	1.904
0.000	0.005	-0.005	0.000	0.005	0.000	0.396	2.646	1.895	1.895	1.895	1.909	1.904	1.904
0.005	0.005	0.000	0.000	0.000	0.000	0.391	2.729	1.899	1.895	1.895	1.909	1.904	1.904
0.005	0.000	0.000	0.005	-0.005	-0.005	0.396	2.656	1.909	1.895	1.899	1.914	1.909	1.909
0.010	0.000	0.005	0.010	-0.005	-0.015	0.391	2.656	1.904	1.899	1.895	1.914	1.904	1.899
0.000	0.000	0.005	0.005	-0.005	-0.005	0.391	2.686	1.899	1.899	1.895	1.914	1.909	1.904
-0.005	0.000	0.000	0.000	0.000	0.005	0.386	2.705	1.899	1.895	1.895	1.914	1.909	1.909
0.000	-0.005	0.005	0.000	0.000	0.000	0.391	2.695	1.904	1.895	1.895	1.914	1.909	1.909
0.000	-0.005	0.000	0.000	0.010	-0.005	0.391	2.700	1.899	1.895	1.895	1.909	1.909	1.909
0.000	0.005	0.000	0.000	0.005	-0.015	0.396	2.695	1.899	1.899	1.895	1.909	1.904	1.899
-0.005	0.005	0.000	-0.005	0.005	-0.010	0.391	2.695	1.899	1.895	1.895	1.909	1.909	1.904
0.005	0.005	0.000	0.000	0.000	0.005	0.400	2.681	1.895	1.895	1.890	1.909	1.909	1.904
0.000	0.005	0.000	0.000	0.005	-0.020	0.391	2.681	1.890	1.890	1.890	1.909	1.904	1.899
0.000	0.000	-0.005	0.000	0.005	0.010	0.396	2.681	1.890	1.890	1.890	1.909	1.904	1.909
-0.005	0.005	-0.005	0.000	-0.005	0.005	0.391	2.705	1.895	1.890	1.890	1.909	1.904	1.904
0.010	0.000	0.005	0.000	0.010	0.005	0.391	2.690	1.895	1.890	1.895	1.909	1.904	1.904
-0.005	0.005	0.000	0.000	0.000	-0.010	0.396	2.695	1.890	1.895	1.895	1.909	1.904	1.904
0.010	0.005	0.000	0.000	0.000	-0.029	0.391	2.686	1.904	1.895	1.895	1.909	1.904	1.895
0.005	0.000	0.005	0.000	0.000	0.000	0.396	2.695	1.904	1.899	1.895	1.914	1.904	1.909
0.005	0.010	0.000	0.000	-0.005	0.010	0.391	2.681	1.895	1.899	1.895	1.914	1.909	1.909
0.000	0.000	0.005	0.005	-0.005	0.010	0.396	2.690	1.899	1.899	1.895	1.914	1.909	1.909
0.000	0.000	0.000	0.000	0.000	0.010	0.391	2.710	1.899	1.899	1.899	1.919	1.909	1.909
0.005	0.000	0.005	-0.005	-0.005	0.010	0.391	2.695	1.904	1.904	1.895	1.914	1.914	1.909
0.005	0.000	0.005	0.005	-0.005	0.000	0.386	2.690	1.899	1.899	1.895	1.919	1.914	1.909
0.010	0.005	0.000	0.005	0.005	0.000	0.386	2.686	1.899	1.899	1.895	1.914	1.914	1.914
0.005	0.000	0.000	0.000	0.010	-0.020	0.381	2.705	1.895	1.895	1.895	1.909	1.909	1.909
0.000	0.000	0.005	0.000	0.010	0.015	0.400	2.690	1.895	1.890	1.895	1.914	1.909	1.909
-0.005	-0.005	0.000	0.000	0.010	0.005	0.396	2.690	1.895	1.890	1.890	1.909	1.909	1.909
0.005	0.000	0.005	0.005	0.010	-0.015	0.396	2.656	1.890	1.890	1.890	1.909	1.904	1.899
0.005	-0.005	0.000	0.005	0.010	0.000	0.381	2.646	1.885	1.890	1.885	1.909	1.904	1.904
0.000	0.000	0.000	0.005	0.005	0.000	0.396	2.798	1.899	1.885	1.890	1.909	1.904	1.909
0.000	0.010	0.000	0.005	0.010	-0.015	0.386	2.642	1.890	1.890	1.890	1.904	1.904	1.899
0.000	0.005	-0.005	0.005	0.015	0.015	0.400	2.734	1.904	1.890	1.890	1.909	1.909	1.914
0.010	0.005	0.005	0.005	0.020	0.000	0.391	2.681	1.899	1.899	1.890	1.909	1.909	1.909
0.005	0.010	-0.005	0.010	0.024	0.020	0.396	2.661	1.895	1.899	1.895	1.914	1.914	1.914
0.010	0.005	0.000	0.005	0.024	0.010	0.386	2.686	1.895	1.895	1.899	1.914	1.909	1.909
-0.005	0.015	0.000	0.005	0.024	0.020	0.396	2.734	1.904	1.899	1.895	1.914	1.909	1.914
0.000	0.015	0.010	0.000	0.015	0.010	0.386	2.676	1.904	1.904	1.899	1.914	1.909	1.909
-0.005	-0.020	-0.005	0.005	0.020	0.020	0.396	2.642	1.890	1.890	1.895	1.914	1.914	1.914
0.005	-0.015	0.000	0.005	0.020	0.005	0.391	2.725	1.899	1.895	1.895	1.914	1.909	1.909
0.000	-0.010	0.000	0.005	0.010	0.029	0.386	2.651	1.899	1.895	1.895	1.914	1.909	1.914
-0.010	-0.005	0.000	0.005	0.005	0.029	0.386	2.646	1.890	1.895	1.890	1.909	1.909	1.909
-0.005	-0.010	0.000	0.005	0.010	0.000	0.386	2.744	1.899	1.890	1.890	1.909	1.904	1.899
0.000	-0.005	0.005	0.005	0.005	0.005	0.386	2.749	1.904	1.895	1.890	1.909	1.904	1.904
0.000	0.000	0.000	0.005	0.010	0.020	0.386	2.671	1.899	1.895	1.890	1.909	1.904	1.909
-0.005	0.005	0.005	0.000	0.005	0.015	0.391	2.695	1.895	1.895	1.890	1.904	1.899	1.904
0.005	0.005	0.005	0.005	0.005	0.010	0.396	2.690	1.895	1.895	1.895	1.904	1.899	1.904
0.000	0.000	0.005	0.005	0.000	0.005	0.396	2.700	1.895	1.890	1.890	1.909	1.899	1.899
-0.005	0.000	0.000	0.000	0.000	0.005	0.391	2.700	1.895	1.895	1.890	1.904	1.899	1.899
0.005	0.005	0.005	0.000	-0.005	0.015	0.396	2.705	1.904	1.895	1.890	1.909	1.904	1.899
0.000	0.000	0.000	0.005	-0.010	-0.010	0.386	2.700	1.899	1.899	1.890	1.909	1.899	1.899
0.000	0.015	0.000	0.005	-0.015	0.000	0.396	2.686	1.904	1.904	1.895	1.914	1.904	1.899
0.005	0.005	0.005	0.000	-0.010	-0.024	0.391	2.700	1.904	1.899	1.899	1.914	1.909	1.895
0.000	0.000	0.000	0.005	-0.010	-0.010	0.396	2.690	1.899	1.899	1.899	1.914	1.909	1.904
0.005	0.015	0.000	0.000	-0.005	-0.005	0.391	2.686	1.899	1.899	1.904	1.919	1.909	1.904
0.005	0.010	-0.005	0.000	-0.010	0.000	0.391	2.686	1.899	1.899	1.899	1.919	1.909	1.909
-0.005	0.010	0.005	0.000	-0.010	0.005	0.391	2.690	1.895	1.895	1.899	1.919	1.914	1.909
0.000	0.005	0.000	0.005	-0.010	0.000	0.400	2.705	1.899	1.899	1.899	1.914	1.914	1.909
0.000	0.000	-0.005	0.000	-0.010	-0.005	0.391	2.686	1.899	1.895	1.895	1.914	1.909	1.909
-0.005	0.000	0.000	0.000	-0.010	-0.005	0.396	2.686	1.895	1.890	1.895	1.914	1.909	1.904
0.010	0.000	0.000	0.000	-0.015	0.000	0.391	2.695	1.895	1.895	1.890	1.909	1.904	1.909
0.015	0.000	0.005	0.005	-0.010	0.015	0.391	2.681	1.895	1.890	1.890	1.909	1.909	1.909
-0.005	0.000	0.000	0.000	-0.010	0.020	0.396	2.686	1.890	1.890	1.890	1.904	1.904	1.909
-0.005	0.000	0.005	0.000	-0.005	-0.010	0.396	2.700	1.890	1.885	1.890	1.909	1.904	1.899
0.005	-0.005	0.005	0.000	-0.015	0.000	0.391	2.705	1.899	1.890	1.885	1.904	1.904	1.899
0.010	0.020	0.005	0.005	-0.010	0.000	0.396	2.700	1.895	1.899	1.890	1.904	1.904	1.904
0.005	0.010	0.005	-0.005	-0.005	-0.010	0.396	2.690	1.899	1.899	1.895	1.909	1.904	1.904
0.005	0.015	0.000	0.005	0.000	0.000	0.396	2.695	1.899	1.899	1.890	1.909	1.904	1.904
-0.005	0.015	0.005	-0.005	0.000	0.000	0.391	2.656	1.895	1.895	1.895	1.909	1.909	1.909
0.010	-0.005	0.000	0.000	-0.005	0.000	0.391	2.651	1.895	1.895	1.895	1.914	1.909	1.909
-0.005	-0.005	0.005	0.000	0.000	0.000	0.391	2.798	1.909	1.899	1.895	1.914	1.909	1.914
-0.005	0.010	0.000	0.000	0.005	0.000	0.391	2.651	1.909	1.899	1.895	1.914	1.909	1.909
0.000	-0.005	-0.005	0.000	0.005	-0.015	0.386	2.646	1.909	1.899	1.895	1.914	1.904	1.909
0.000	-0.005	-0.005	0.005	0.015	-0.005	0.396	2.671	1.909	1.904	1.899	1.914	1.914	1.909
0.000	-0.005	0.000	0.000	0.005	-0.024	0.391	2.642	1.895	1.899	1.899	1.914	1.909	1.904
-0.005	0.000	0.005	0.005	0.005	0.005	0.386	2.681	1.890	1.895	1.899	1.914	1.909	1.909
-0.005	-0.010	0.000	0.000	0.005	-0.024	0.396	2.734	1.904	1.895	1.895	1.909	1.909	1.899
0.000	-0.005	0.005	0.000	0.010	-0.005	0.391	2.681	1.895	1.895	1.895	1.909	1.909	1.904
0.000	-0.005	0.000	0.000	0.005	0.010	0.391	2.725	1.890	1.890	1.890	1.909	1.909	1.909
-0.005	0.000	0.000	0.000	0.005	-0.005	0.386	2.729	1.895	1.890	1.890	1.909	1.904	1.904
0.005	0.010	0.000	0.005	0.005	0.015	0.396	2.646	1.890	1.895	1.890	1.909	1.904	1.909
-0.005	0.005	-0.005	0.005	0.005	0.000	0.391	2.725	1.895	1.890	1.890	1.909	1.904	1.904
0.005	0.010	0.000	0.000	0.005	0.010	0.396	2.661	1.895	1.895	1.890	1.909	1.909	1.904
0.000	0.000	0.005	0.005	0.005	0.000	0.391	2.739	1.899	1.890	1.890	1.909	1.904	1.904
0.000	0.010	0.010	0.000	0.000	0.000	0.391	2.666	1.899	1.895	1.890	1.914	1.904	1.904
0.000	-0.010	0.000	0.000	0.005	0.005	0.381	2.695	1.904	1.895	1.890	1.914	1.909	1.909
0.010	0.000	0.005	0.005	0.000	0.010	0.396	2.690	1.904	1.899	1.895	1.909	1.909	1.909
0.010	-0.005	0.000	0.005	0.005	0.005	0.396	2.705	1.904	1.899	1.899	1.914	1.909	1.909
0.005	0.000	0.005	0.000	0.010	-0.015	0.396	2.700	1.904	1.899	1.899	1.914	1.909	1.904
0.000	0.010	0.000	0.005	0.005	-0.005	0.396	2.705	1.909	1.904	1.899	1.914	1.909	1.909
0.005	0.005	0.005	-0.005	0.000	0.010	0.396	2.695	1.899	1.904	1.899	1.914	1.909	1.914
0.010	0.000	0.005	0.000	0.005	0.034	0.391	2.695	1.899	1.899	1.899	1.914	1.909	1.919
-0.010	-0.005	0.000	0.000	0.010	0.015	0.391	2.690	1.899	1.895	1.895	1.914	1.909	1.909
0.005	-0.005	0.000	0.005	0.005	0.029	0.381	2.700	1.899	1.895	1.895	1.914	1.909	1.909
0.000	-0.005	0.000	0.005	0.010	0.015	0.391	2.676	1.895	1.895	1.895	1.909	1.909	1.904
0.000	0.000	0.000	0.005	0.005	0.020	0.386	2.700	1.895	1.890	1.890	1.909	1.904	1.909
0.005	0.000	0.000	0.005	0.005	0.015	0.396	2.690	1.895	1.895	1.890	1.909	1.904	1.904
0.010	0.010	0.000	0.000	-0.005	0.010	0.396	2.695	1.899	1.895	1.895	1.909	1.904	1.899
0.000	-0.005	0.000	0.005	-0.005	-0.005	0.396	2.690	1.895	1.895	1.890	1.904	1.904	1.899
0.000	0.000	0.005	0.005	0.000	-0.020	0.391	2.705	1.895	1.895	1.895	1.909	1.904	1.899
0.000	0.000	0.000	0.000	-0.005	-0.015	0.391	2.700	1.895	1.895	1.895	1.909	1.904	1.904
0.010	-0.005	0.000	0.000	0.000	-0.005	0.386	2.705	1.904	1.895	1.895	1.914	1.904	1.899
-0.005	0.000	0.005	0.000	-0.005	0.000	0.386	2.695	1.904	1.899	1.895	1.914	1.909	1.909
0.000	0.005	0.000	0.005	0.000	-0.010	0.386	2.681	1.899	1.899	1.899	1.914	1.909	1.909
0.005	0.015	0.000	0.005	0.005	-0.015	0.391	2.690	1.899	1.904	1.899	1.914	1.914	1.909
0.000	0.000	0.000	0.000	0.000	0.000	0.391	2.705	1.904	1.899	1.895	1.919	1.909	1.909
0.010	-0.005	0.000	0.010	0.005	-0.005	0.391	2.690	1.904	1.895	1.895	1.919	1.914	1.904
0.000	0.020	0.000	0.010	0.005	-0.005	0.391	2.690	1.899	1.904	1.899	1.919	1.914	1.914
0.005	0.010	0.000	0.005	0.005	0.000	0.391	2.637	1.890	1.895	1.895	1.914	1.909	1.914
0.000	0.005	0.000	0.005	0.010	-0.024	0.391	2.661	1.885	1.890	1.895	1.914	1.909	1.904
0.005	-0.005	0.005	0.005	0.005	-0.010	0.381	2.788	1.904	1.890	1.890	1.914	1.909	1.909
0.010	0.000	0.000	0.000	0.010	-0.010	0.386	2.646	1.895	1.890	1.885	1.904	1.904	1.904
0.000	-0.020	0.000	0.005	0.000	0.000	0.391	2.637	1.885	1.885	1.885	1.904	1.904	1.904
-0.005	-0.015	-0.005	0.000	0.000	0.010	0.386	2.686	1.885	1.885	1.885	1.904	1.904	1.904
0.005	-0.005	0.005	0.000	0.000	0.015	0.391	2.666	1.890	1.885	1.885	1.904	1.899	1.904
0.005	0.000	0.000	0.005	0.000	0.010	0.391	2.690	1.895	1.885	1.885	1.904	1.899	1.904
0.000	0.000	-0.005	0.000	-0.005	-0.029	0.386	2.744	1.904	1.895	1.890	1.904	1.899	1.895
0.005	0.000	0.005	0.000	-0.005	0.010	0.391	2.671	1.904	1.899	1.895	1.909	1.904	1.909
0.000	0.000	0.005	0.000	0.000	0.005	0.386	2.739	1.909	1.899	1.895	1.909	1.904	1.904
0.005	0.000	0.005	0.000	-0.005	0.015	0.391	2.725	1.909	1.904	1.899	1.909	1.904	1.909
0.000	0.015	0.000	0.005	0.000	0.005	0.386	2.729	1.914	1.909	1.899	1.914	1.904	1.904
0.000	0.005	0.010	0.010	0.005	0.005	0.396	2.661	1.904	1.909	1.904	1.919	1.909	1.904
0.015	0.015	0.000	0.000	0.005	0.000	0.391	2.642	1.909	1.904	1.904	1.914	1.909	1.909
-0.005	0.015	0.000	0.005	0.000	0.015	0.391	2.744	1.904	1.904	1.899	1.919	1.909	1.914
-0.005	0.000	0.005	0.000	0.005	-0.005	0.386	2.671	1.909	1.899	1.904	1.919	1.909	1.909
-0.005	-0.010	0.000	0.000	0.000	0.010	0.391	2.690	1.899	1.895	1.895	1.919	1.909	1.909
0.010	0.000	0.005	0.005	0.010	0.015	0.381	2.690	1.895	1.899	1.899	1.919	1.909	1.909
0.000	0.000	0.000	0.005	0.005	0.010	0.386	2.700	1.895	1.895	1.895	1.914	1.909	1.904
0.010	0.000	0.005	0.005	0.005	0.000	0.396	2.690	1.895	1.895	1.890	1.909	1.904	1.899
-0.005	-0.010	0.005	0.005	0.000	0.010	0.391	2.695	1.890	1.890	1.890	1.909	1.909	1.904
0.005	0.000	0.005	0.010	0.005	0.010	0.386	2.710	1.904	1.895	1.890	1.914	1.909	1.909
0.005	-0.005	0.005	0.000	0.000	0.010	0.386	2.686	1.895	1.895	1.890	1.909	1.909	1.909
-0.005	0.010	0.010	0.005	0.010	-0.010	0.386	2.690	1.899	1.895	1.895	1.909	1.909	1.899
0.000	0.000	0.000	0.005	0.000	-0.005	0.391	2.700	1.899	1.895	1.895	1.909	1.904	1.909
0.000	0.000	-0.005	0.000	0.000	0.005	0.396	2.690	1.904	1.899	1.890	1.909	1.909	1.909
0.005	0.010	0.000	0.005	-0.005	0.000	0.386	2.676	1.899	1.899	1.895	1.914	1.909	1.909
0.005	0.000	0.000	0.005	0.005	0.000	0.391	2.686	1.899	1.899	1.895	1.914	1.909	1.909
0.010	0.000	0.000	0.000	0.000	-0.010	0.391	2.710	1.909	1.899	1.895	1.909	1.909	1.909
-0.010	0.000	0.005	0.000	-0.005	0.005	0.396	2.690	1.899	1.899	1.899	1.914	1.909	1.909
-0.005	0.010	0.000	0.000	-0.005	0.000	0.396	2.700	1.904	1.899	1.899	1.914	1.909	1.909
0.000	0.000	0.000	-0.005	0.000	0.000	0.386	2.690	1.899	1.899	1.899	1.914	1.914	1.914
-0.005	0.005	0.000	0.000	0.010	0.005	0.381	2.700	1.899	1.895	1.895	1.914	1.909	1.909
-0.005	-0.010	0.000	0.000	0.005	-0.010	0.386	2.681	1.895	1.895	1.895	1.914	1.914	1.904
0.010	-0.005	0.000	0.000	0.005	0.005	0.391	2.681	1.895	1.895	1.895	1.914	1.909	1.914
0.000	-0.005	0.005	0.005	0.005	0.010	0.396	2.686	1.895	1.890	1.890	1.909	1.909	1.909
0.000	-0.005	0.000	0.000	0.000	0.005	0.386	2.705	1.899	1.890	1.890	1.909	1.904	1.904
0.005	0.000	0.005	0.000	0.005	0.000	0.396	2.700	1.899	1.890	1.890	1.909	1.904	1.904
0.000	0.010	0.000	-0.005	0.000	-0.015	0.391	2.690	1.899	1.895	1.895	1.909	1.899	1.899
0.005	-0.005	0.005	0.005	0.000	-0.020	0.391	2.642	1.890	1.890	1.890	1.909	1.899	1.899
0.005	0.010	0.000	0.005	0.000	-0.005	0.386	2.666	1.890	1.895	1.890	1.909	1.904	1.909
0.005	0.005	0.000	0.000	-0.005	-0.005	0.396	2.793	1.904	1.895	1.890	1.909	1.904	1.904
0.000	0.010	0.000	0.000	0.000	0.000	0.391	2.651	1.904	1.899	1.895	1.909	1.904	1.909
-0.005	0.000	0.000	0.005	0.000	-0.029	0.396	2.725	1.904	1.899	1.895	1.914	1.904	1.899
0.005	0.005	-0.005	0.000	0.005	0.005	0.386	2.676	1.904	1.904	1.899	1.914	1.909	1.919
0.005	-0.005	0.000	0.000	0.000	0.010	0.396	2.646	1.899	1.899	1.895	1.914	1.909	1.914
-0.005	-0.010	0.000	0.000	0.005	0.024	0.386	2.686	1.899	1.895	1.899	1.914	1.909	1.909
0.000	-0.005	0.000	0.005	0.000	0.029	0.391	2.729	1.909	1.899	1.899	1.914	1.909	1.919
0.010	0.005	0.005	0.005	-0.005	0.029	0.386	2.676	1.909	1.904	1.899	1.914	1.909	1.914
0.005	0.000	0.000	0.000	0.000	0.015	0.386	2.729	1.904	1.899	1.895	1.914	1.909	1.909
-0.005	-0.010	0.005	0.005	0.005	0.015	0.386	2.729	1.904	1.899	1.895	1.914	1.909	1.909
0.005	-0.005	0.000	0.000	0.005	-0.015	0.386	2.744	1.909	1.904	1.899	1.914	1.909	1.899
-0.005	0.005	0.000	0.005	0.005	0.015	0.386	2.729	1.904	1.899	1.895	1.914	1.909	1.909
0.005	-0.010	0.000	0.000	0.005	0.000	0.386	2.725	1.904	1.899	1.890	1.909	1.904	1.904
0.000	0.000	0.000	0.000	0.005	0.005	0.391	2.754	1.909	1.904	1.899	1.914	1.909	1.909
0.000	0.000	-0.005	0.000	0.000	-0.020	0.391	2.666	1.899	1.899	1.895	1.909	1.904	1.899
0.000	-0.005	0.000	0.000	0.000	0.010	0.391	2.690	1.899	1.899	1.899	1.914	1.909	1.909
-0.010	0.000	0.005	0.000	0.000	0.010	0.391	2.690	1.904	1.904	1.899	1.919	1.909	1.914
-0.005	0.005	0.005	0.005	0.000	0.005	0.396	2.700	1.904	1.899	1.904	1.919	1.914	1.909
0.005	0.005	-0.005	0.005	0.000	0.000	0.391	2.690	1.904	1.904	1.899	1.919	1.914	1.909
0.005	0.000	-0.005	0.005	0.000	0.000	0.386	2.700	1.909	1.904	1.904	1.919	1.914	1.909
0.005	0.000	0.005	0.005	0.000	-0.029	0.391	2.705	1.909	1.904	1.909	1.924	1.914	1.904
0.000	0.005	0.005	0.005	0.000	0.010	0.396	2.710	1.904	1.904	1.904	1.924	1.919	1.914
0.010	0.000	0.000	0.000	-0.005	-0.010	0.391	2.710	1.909	1.904	1.904	1.924	1.914	1.914
0.000	-0.005	0.000	0.005	0.010	-0.024	0.396	2.705	1.904	1.904	1.904	1.924	1.919	1.914
0.005	0.000	0.000	0.010	0.005	-0.005	0.386	2.690	1.904	1.904	1.904	1.924	1.919	1.914
0.015	-0.005	0.005	0.000	0.005	-0.005	0.391	2.686	1.899	1.899	1.899	1.919	1.914	1.914
0.005	0.000	0.000	0.005	0.000	0.010	0.396	2.676	1.899	1.904	1.899	1.919	1.914	1.919
0.000	-0.005	0.000	0.005	0.005	-0.024	0.391	2.695	1.899	1.895	1.895	1.919	1.914	1.909
-0.005	0.000	0.005	0.000	0.005	0.010	0.381	2.695	1.895	1.895	1.895	1.914	1.909	1.914
0.000	0.005	0.005	0.000	0.000	0.005	0.391	2.705	1.899	1.895	1.895	1.914	1.909	1.914
0.000	0.000	0.000	-0.005	-0.005	0.005	0.386	2.700	1.899	1.895	1.895	1.909	1.909	1.909
0.005	0.010	0.000	0.005	0.005	-0.020	0.396	2.681	1.899	1.895	1.895	1.909	1.904	1.909
0.010	0.005	0.000	0.000	-0.005	0.010	0.386	2.681	1.899	1.899	1.895	1.909	1.909	1.914
0.000	0.010	0.000	0.000	0.000	-0.020	0.386	2.700	1.899	1.899	1.899	1.909	1.904	1.904
0.005	0.010	0.000	0.000	0.000	0.010	0.386	2.710	1.904	1.899	1.899	1.914	1.909	1.914
-0.005	0.010	-0.005	0.000	0.000	0.024	0.391	2.710	1.904	1.899	1.899	1.919	1.914	1.919
0.000	0.000	0.000	0.000	0.000	0.010	0.386	2.690	1.909	1.899	1.899	1.919	1.914	1.914
-0.010	-0.010	0.005	0.000	0.000	0.010	0.386	2.710	1.904	1.899	1.899	1.919	1.909	1.909
-0.005	0.000	0.000	0.005	0.005	0.010	0.386	2.646	1.899	1.904	1.904	1.919	1.914	1.914
0.005	0.005	0.010	0.010	0.005	0.010	0.386	2.656	1.895	1.904	1.899	1.919	1.919	1.914
0.000	0.000	0.005	-0.005	0.010	0.010	0.391	2.651	1.895	1.899	1.899	1.914	1.914	1.914
0.005	-0.005	0.005	0.000	0.005	0.010	0.391	2.651	1.895	1.895	1.895	1.919	1.914	1.914
0.000	0.005	0.005	0.000	0.010	-0.020	0.386	2.637	1.885	1.890	1.895	1.914	1.909	1.904
0.005	0.005	0.000	0.000	0.005	-0.029	0.386	2.671	1.890	1.895	1.895	1.914	1.909	1.899
0.000	0.005	0.000	0.005	0.005	-0.010	0.396	2.651	1.885	1.890	1.890	1.914	1.909	1.909
0.005	0.005	0.000	0.005	0.010	-0.010	0.386	2.686	1.890	1.885	1.885	1.909	1.904	1.904
-0.005	0.005	0.005	0.005	0.005	-0.029	0.396	2.651	1.890	1.885	1.885	1.904	1.904	1.899
0.005	0.034	0.000	0.005	0.000	-0.010	0.391	2.671	1.885	1.890	1.890	1.909	1.904	1.909
0.000	0.005	0.000	0.010	0.000	-0.029	0.391	2.734	1.895	1.890	1.885	1.904	1.904	1.899
0.005	0.015	0.005	0.000	0.005	-0.005	0.391	2.729	1.904	1.895	1.895	1.904	1.904	1.909
0.000	-0.015	0.000	0.000	0.000	0.000	0.396	2.725	1.904	1.890	1.890	1.904	1.904	1.909
0.005	-0.005	0.000	0.000	0.005	0.005	0.391	2.637	1.899	1.895	1.890	1.909	1.904	1.914
0.000	0.000	0.000	0.000	0.000	0.029	0.396	2.646	1.899	1.895	1.895	1.909	1.909	1.919
0.005	0.000	0.000	0.005	0.005	0.034	0.391	2.749	1.909	1.899	1.895	1.909	1.909	1.914
-0.010	-0.005	-0.005	0.000	-0.005	0.049	0.396	2.651	1.899	1.899	1.895	1.909	1.904	1.919
0.005	-0.005	0.005	0.000	0.005	0.039	0.386	2.686	1.904	1.899	1.899	1.914	1.909	1.914
0.005	-0.005	0.000	0.000	0.000	0.034	0.386	2.686	1.899	1.899	1.899	1.914	1.909	1.909
0.000	0.010	0.000	0.005	0.000	0.010	0.386	2.700	1.899	1.899	1.899	1.914	1.909	1.904
0.000	0.000	0.000	-0.005	0.000	0.029	0.386	2.686	1.895	1.895	1.895	1.914	1.909	1.909
-0.005	-0.005	0.000	0.010	0.005	0.010	0.381	2.700	1.895	1.895	1.895	1.914	1.909	1.904
0.000	-0.005	0.000	-0.005	0.005	0.015	0.386	2.700	1.899	1.895	1.895	1.909	1.909	1.904
-0.005	-0.005	0.000	0.000	0.005	0.000	0.391	2.690	1.895	1.890	1.890	1.909	1.904	1.899
0.005	0.010	0.000	0.005	0.005	-0.010	0.396	2.700	1.895	1.895	1.890	1.909	1.904	1.895
0.000	0.010	0.000	0.000	0.005	-0.029	0.391	2.695	1.899	1.890	1.890	1.909	1.904	1.890
-0.005	0.000	0.005	0.005	0.000	-0.020	0.396	2.700	1.895	1.890	1.890	1.909	1.904	1.899
-0.005	0.005	0.000	0.000	0.000	-0.015	0.391	2.676	1.890	1.895	1.895	1.909	1.904	1.899
0.005	0.005	0.000	0.000	0.005	-0.034	0.391	2.700	1.895	1.890	1.895	1.909	1.904	1.899
0.000	0.015	0.000	0.000	0.000	-0.005	0.396	2.700	1.904	1.899	1.895	1.909	1.904	1.909
0.000	0.000	0.005	0.005	0.000	0.010	0.391	2.695	1.899	1.895	1.895	1.914	1.909	1.914
0.005	-0.005	0.000	0.010	0.000	0.015	0.396	2.710	1.904	1.895	1.895	1.914	1.909	1.914
0.000	-0.005	0.000	0.010	0.000	0.010	0.391	2.695	1.904	1.904	1.899	1.914	1.909	1.909
0.010	-0.005	0.000	0.005	0.000	0.005	0.391	2.686	1.904	1.904	1.895	1.914	1.909	1.909
-0.005	0.015	0.000	0.005	0.010	-0.010	0.391	2.695	1.904	1.909	1.904	1.914	1.909	1.904
0.005	0.024	0.000	0.000	0.010	-0.005	0.386	2.695	1.904	1.909	1.904	1.914	1.914	1.909
0.000	0.015	0.000	0.000	0.010	-0.015	0.381	2.686	1.895	1.899	1.899	1.914	1.909	1.909
-0.005	0.020	0.000	0.000	0.005	-0.005	0.386	2.700	1.895	1.899	1.895	1.914	1.909	1.909
0.005	-0.020	0.000	0.000	0.005	-0.005	0.381	2.690	1.899	1.885	1.890	1.914	1.909	1.909
-0.005	-0.020	0.000	0.000	-0.005	-0.005	0.396	2.710	1.899	1.890	1.890	1.914	1.904	1.909
-0.005	-0.020	0.000	0.000	-0.005	-0.010	0.391	2.632	1.890	1.885	1.885	1.909	1.904	1.909
0.005	0.015	0.005	0.000	-0.005	0.000	0.386	2.651	1.890	1.895	1.890	1.909	1.904	1.904
0.000	0.010	0.005	0.005	0.000	0.015	0.391	2.803	1.904	1.895	1.890	1.909	1.904	1.909
0.010	0.005	0.000	0.000	0.000	0.015	0.396	2.651	1.899	1.895	1.890	1.904	1.904	1.909
0.005	0.000	0.010	0.005	-0.010	0.015	0.386	2.739	1.899	1.899	1.895	1.909	1.904	1.904
0.000	0.005	0.005	0.000	-0.010	0.000	0.386	2.686	1.899	1.895	1.895	1.909	1.899	1.899
0.005	-0.005	0.000	0.000	0.000	0.010	0.386	2.656	1.899	1.895	1.895	1.914	1.909	1.909
0.010	-0.005	0.000	0.000	0.005	0.005	0.396	2.686	1.899	1.899	1.895	1.909	1.909	1.904
0.015	0.005	0.005	0.005	0.005	-0.005	0.391	2.686	1.899	1.899	1.895	1.914	1.909	1.909
0.000	0.000	0.000	0.005	0.005	0.000	0.391	2.729	1.890	1.899	1.899	1.914	1.914	1.909
0.010	-0.005	0.000	0.000	0.010	0.005	0.381	2.632	1.890	1.895	1.895	1.914	1.914	1.914
0.000	-0.005	0.000	0.005	0.010	0.005	0.396	2.729	1.895	1.895	1.895	1.919	1.914	1.909
0.000	-0.005	0.005	0.010	0.010	-0.015	0.386	2.642	1.895	1.895	1.895	1.914	1.909	1.904
0.000	0.000	0.005	0.005	0.000	-0.005	0.396	2.739	1.895	1.899	1.895	1.909	1.909	1.904
0.000	0.010	-0.005	-0.005	0.000	0.010	0.386	2.642	1.890	1.890	1.895	1.909	1.904	1.914
0.010	0.000	0.005	0.005	-0.005	0.005	0.391	2.744	1.899	1.890	1.895	1.909	1.904	1.909
-0.005	0.000	-0.005	0.000	0.000	0.005	0.386	2.666	1.890	1.890	1.885	1.909	1.904	1.904
0.000	-0.005	-0.005	0.000	0.000	0.015	0.381	2.690	1.890	1.890	1.885	1.904	1.904	1.904
-0.005	0.000	0.000	0.000	0.010	-0.005	0.386	2.710	1.890	1.885	1.885	1.904	1.904	1.899
0.000	0.000	0.000	0.000	0.005	0.000	0.386	2.690	1.895	1.890	1.890	1.904	1.899	1.904
-0.010	0.005	-0.005	0.000	0.005	-0.029	0.386	2.705	1.890	1.885	1.885	1.904	1.899	1.890
0.005	0.005	0.000	0.000	0.010	-0.005	0.386	2.700	1.899	1.890	1.885	1.904	1.904	1.899
-0.005	0.000	0.005	0.000	0.000	0.010	0.391	2.700	1.899	1.890	1.890	1.909	1.904	1.909
0.000	0.005	0.010	0.005	0.000	0.024	0.391	2.671	1.899	1.895	1.890	1.909	1.904	1.909
-0.005	0.000	0.000	0.005	0.010	0.015	0.396	2.705	1.904	1.899	1.895	1.909	1.909	1.909
0.000	0.000	0.000	0.010	0.000	0.005	0.391	2.690	1.904	1.899	1.895	1.909	1.904	1.904
0.000	0.005	0.000	0.000	0.005	0.000	0.391	2.686	1.904	1.904	1.899	1.914	1.909	1.909
0.010	-0.005	0.000	0.005	-0.005	-0.005	0.386	2.686	1.899	1.899	1.899	1.914	1.904	1.904
0.000	-0.005	0.010	0.005	-0.005	0.005	0.391	2.686	1.899	1.899	1.899	1.914	1.909	1.909
0.000	0.000	0.000	0.005	0.005	0.000	0.381	2.690	1.899	1.899	1.899	1.914	1.909	1.904
-0.005	-0.005	0.005	0.000	0.010	-0.005	0.396	2.686	1.895	1.895	1.895	1.914	1.909	1.904
0.005	-0.005	0.000	0.000	0.010	0.000	0.386	2.705	1.895	1.895	1.895	1.909	1.909	1.904
-0.005	-0.005	0.005	0.005	0.005	-0.029	0.391	2.686	1.890	1.890	1.890	1.909	1.904	1.899
-0.005	0.005	0.005	0.000	0.010	-0.015	0.396	2.705	1.890	1.890	1.890	1.909	1.904	1.904
-0.005	0.005	0.000	0.000	0.005	0.020	0.386	2.695	1.895	1.890	1.890	1.904	1.904	1.909
0.010	0.005	0.000	0.005	0.000	0.015	0.381	2.700	1.895	1.895	1.890	1.909	1.904	1.904
0.005	-0.005	0.000	0.000	0.005	0.005	0.391	2.681	1.890	1.890	1.890	1.904	1.899	1.904
0.005	0.005	0.005	0.000	-0.010	0.010	0.391	2.705	1.895	1.890	1.890	1.909	1.899	1.904
0.000	0.005	0.000	0.000	-0.005	0.010	0.396	2.700	1.899	1.895	1.890	1.909	1.904	1.904
0.005	0.005	0.005	0.005	0.000	0.005	0.391	2.700	1.899	1.895	1.890	1.909	1.904	1.904
-0.005	-0.005	0.000	0.000	0.000	-0.010	0.396	2.666	1.895	1.890	1.890	1.909	1.904	1.904
0.005	-0.005	0.005	0.000	0.000	0.005	0.391	2.671	1.895	1.895	1.895	1.909	1.909	1.909
-0.005	-0.010	0.005	0.000	0.000	-0.024	0.391	2.808	1.909	1.895	1.895	1.909	1.909	1.899
0.005	0.005	0.005	0.000	0.000	-0.005	0.386	2.646	1.904	1.899	1.895	1.914	1.909	1.909
0.010	-0.005	0.000	-0.005	0.000	0.010	0.396	2.651	1.899	1.899	1.895	1.914	1.909	1.909
0.005	0.005	0.000	0.000	0.000	0.005	0.396	2.690	1.895	1.895	1.895	1.914	1.909	1.909
0.000	0.000	0.000	0.000	0.000	0.005	0.396	2.646	1.890	1.895	1.895	1.914	1.909	1.909
-0.010	0.010	0.005	0.000	0.005	-0.005	0.391	2.686	1.890	1.895	1.895	1.914	1.904	1.904
0.000	0.000	0.000	0.000	0.000	0.010	0.391	2.739	1.899	1.890	1.890	1.909	1.904	1.909
0.000	0.005	0.005	0.005	0.010	0.010	0.391	2.676	1.895	1.890	1.890	1.909	1.909	1.909
0.005	0.005	-0.005	0.005	0.000	-0.015	0.391	2.627	1.890	1.890	1.890	1.909	1.904	1.899
0.010	0.010	0.000	0.000	0.005	0.010	0.386	2.729	1.895	1.885	1.890	1.909	1.904	1.909
0.015	0.005	0.000	0.000	0.005	0.020	0.391	2.720	1.899	1.890	1.890	1.909	1.904	1.909
0.000	0.005	0.000	0.000	0.000	0.010	0.386	2.754	1.899	1.890	1.885	1.909	1.904	1.904
0.005	0.015	0.000	0.000	0.005	0.010	0.381	2.642	1.909	1.895	1.890	1.904	1.904	1.904
0.010	0.000	0.000	0.005	0.000	0.015	0.386	2.744	1.914	1.899	1.895	1.909	1.909	1.904
0.005	-0.005	0.005	0.000	0.000	0.000	0.381	2.671	1.904	1.904	1.895	1.909	1.904	1.904
0.000	-0.010	-0.005	0.000	-0.005	-0.005	0.405	2.690	1.904	1.904	1.895	1.909	1.904	1.904
0.005	0.005	0.000	0.000	0.005	0.000	0.391	2.681	1.909	1.904	1.899	1.914	1.909	1.909
0.005	0.005	0.005	0.005	-0.005	-0.010	0.400	2.700	1.909	1.909	1.904	1.914	1.909	1.909
-0.005	0.015	0.000	0.005	-0.005	0.000	0.386	2.705	1.904	1.909	1.904	1.919	1.909	1.909
0.005	0.010	0.005	0.005	0.000	0.010	0.391	2.705	1.904	1.904	1.904	1.919	1.909	1.914
0.010	-0.010	0.000	0.005	0.000	0.015	0.381	2.705	1.904	1.895	1.899	1.919	1.914	1.909
-0.005	0.005	0.005	0.005	0.000	0.000	0.396	2.686	1.899	1.899	1.899	1.919	1.909	1.904
0.000	0.000	0.005	0.005	-0.005	-0.020	0.391	2.690	1.899	1.899	1.899	1.914	1.914	1.904
0.000	0.005	0.000	0.005	0.005	-0.005	0.396	2.686	1.895	1.895	1.895	1.914	1.909	1.909
0.000	0.000	0.000	0.010	0.005	-0.010	0.386	2.681	1.895	1.895	1.895	1.914	1.914	1.909
0.005	0.000	0.000	0.000	0.005	0.000	0.386	2.671	1.885	1.890	1.890	1.909	1.909	1.909
0.000	0.000	0.005	0.000	0.005	-0.005	0.386	2.700	1.895	1.890	1.890	1.909	1.904	1.909
-0.005	0.000	0.005	0.000	0.000	-0.015	0.396	2.690	1.895	1.890	1.885	1.909	1.904	1.904
0.005	-0.005	0.005	0.000	0.000	0.010	0.391	2.700	1.899	1.890	1.885	1.904	1.904	1.909
0.010	0.005	0.000	0.000	0.000	-0.005	0.391	2.690	1.899	1.895	1.890	1.909	1.904	1.909
0.010	-0.005	0.005	0.000	0.000	0.000	0.391	2.700	1.899	1.895	1.895	1.909	1.904	1.909
0.000	0.000	0.000	0.005	0.000	0.015	0.391	2.705	1.899	1.899	1.895	1.914	1.909	1.914
-0.005	0.000	0.000	0.000	0.000	0.015	0.381	2.700	1.904	1.899	1.895	1.914	1.909	1.909
0.005	-0.005	0.005	0.005	-0.005	0.010	0.391	2.715	1.909	1.899	1.895	1.914	1.909	1.909
0.000	-0.005	0.000	0.005	0.005	0.054	0.386	2.681	1.899	1.904	1.895	1.914	1.914	1.924
0.005	0.005	0.000	0.005	0.005	0.015	0.386	2.705	1.909	1.909	1.899	1.914	1.909	1.909
-0.005	0.010	0.005	0.005	0.005	0.024	0.386	2.690	1.899	1.904	1.899	1.914	1.909	1.909
-0.005	0.005	0.005	-0.005	0.000	0.005	0.386	2.700	1.904	1.899	1.899	1.914	1.909	1.909
-0.005	0.000	0.000	0.000	0.005	-0.010	0.391	2.646	1.895	1.899	1.899	1.914	1.909	1.904
-0.005	0.005	0.000	0.000	0.000	-0.015	0.386	2.646	1.890	1.895	1.895	1.914	1.909	1.904
0.000	0.005	0.000	0.005	0.005	-0.005	0.391	2.793	1.904	1.895	1.895	1.914	1.904	1.904
0.000	0.000	0.005	0.000	0.010	0.015	0.386	2.651	1.895	1.895	1.895	1.914	1.909	1.909
0.000	0.000	0.005	0.000	0.005	0.010	0.391	2.739	1.899	1.895	1.890	1.909	1.904	1.909
0.000	0.010	-0.005	0.000	0.005	0.000	0.396	2.681	1.895	1.895	1.890	1.909	1.904	1.904
0.000	0.005	0.000	0.005	0.000	0.005	0.386	2.646	1.890	1.890	1.890	1.909	1.909	1.909
-0.005	0.005	0.000	0.005	0.000	0.005	0.396	2.681	1.890	1.890	1.890	1.909	1.904	1.904
0.005	0.005	0.000	0.000	-0.005	-0.015	0.396	2.739	1.904	1.899	1.890	1.909	1.904	1.899
0.000	0.005	0.000	0.000	0.000	0.005	0.391	2.817	1.919	1.899	1.895	1.909	1.909	1.909
0.005	0.005	0.000	0.005	0.005	-0.029	0.391	2.642	1.909	1.899	1.899	1.914	1.909	1.899
-0.005	-0.005	0.000	0.000	0.005	0.000	0.381	2.729	1.909	1.904	1.899	1.914	1.914	1.909
0.010	0.005	0.000	0.005	0.005	-0.005	0.391	2.642	1.909	1.909	1.899	1.919	1.909	1.909
-0.005	-0.005	0.005	0.000	0.000	-0.034	0.386	2.744	1.909	1.904	1.899	1.919	1.909	1.904
-0.005	-0.005	0.000	0.000	-0.005	0.010	0.396	2.734	1.909	1.904	1.899	1.919	1.914	1.919
0.005	0.000	0.000	0.000	0.010	0.000	0.386	2.754	1.919	1.909	1.904	1.924	1.914	1.914
-0.005	-0.005	0.000	0.010	0.010	-0.010	0.391	2.651	1.904	1.904	1.904	1.919	1.914	1.909
0.000	-0.005	0.005	0.005	0.005	-0.029	0.381	2.700	1.904	1.904	1.899	1.919	1.914	1.909
0.005	-0.005	0.000	0.000	0.000	0.005	0.391	2.676	1.895	1.899	1.899	1.919	1.914	1.914
0.000	0.005	0.000	0.005	0.005	0.010	0.391	2.700	1.899	1.899	1.899	1.914	1.909	1.914
0.000	0.005	0.005	0.005	0.010	0.010	0.396	2.710	1.899	1.899	1.899	1.919	1.914	1.914
0.000	0.000	0.005	0.000	0.005	0.010	0.386	2.681	1.890	1.895	1.895	1.909	1.909	1.914
0.000	0.020	-0.005	0.000	0.000	0.010	0.391	2.695	1.895	1.899	1.895	1.914	1.909	1.909
0.010	0.000	-0.005	0.005	-0.005	0.000	0.391	2.686	1.899	1.895	1.895	1.909	1.904	1.909
0.005	-0.005	0.000	0.000	0.000	0.000	0.391	2.695	1.895	1.890	1.895	1.909	1.909	1.909
0.005	-0.005	0.000	0.000	0.000	0.005	0.386	2.686	1.899	1.895	1.895	1.914	1.909	1.909
0.005	-0.005	0.000	0.000	0.000	0.010	0.391	2.700	1.904	1.899	1.895	1.914	1.909	1.909
0.010	0.005	0.000	-0.005	-0.005	0.005	0.396	2.710	1.904	1.899	1.895	1.914	1.909	1.909
0.005	-0.005	0.000	0.000	0.000	0.000	0.386	2.710	1.909	1.904	1.899	1.914	1.914	1.914
0.000	-0.005	0.005	0.000	0.000	-0.015	0.391	2.690	1.909	1.904	1.899	1.919	1.914	1.909
0.000	0.005	0.005	0.000	0.005	0.005	0.386	2.686	1.904	1.904	1.904	1.919	1.914	1.919
0.005	-0.005	0.000	0.005	0.005	0.005	0.386	2.695	1.904	1.904	1.899	1.919	1.914	1.914
0.005	-0.005	0.000	0.005	0.005	0.015	0.391	2.681	1.904	1.899	1.899	1.919	1.914	1.914
0.005	-0.005	0.000	0.005	0.010	-0.024	0.396	2.695	1.904	1.904	1.895	1.919	1.919	1.904
-0.005	0.005	0.005	0.005	0.000	0.000	0.391	2.705	1.899	1.904	1.899	1.914	1.914	1.914
-0.005	0.005	0.000	0.005	0.010	-0.005	0.386	2.686	1.895	1.899	1.899	1.914	1.914	1.909
0.000	-0.005	0.000	0.005	0.005	0.005	0.381	2.705	1.899	1.895	1.895	1.914	1.909	1.914
-0.005	-0.005	0.005	0.000	0.005	-0.010	0.386	2.700	1.899	1.895	1.895	1.909	1.909	1.909
0.010	0.005	0.005	0.000	0.005	-0.015	0.396	2.690	1.899	1.895	1.890	1.909	1.909	1.904
0.000	0.010	0.010	0.005	0.000	0.010	0.396	2.695	1.895	1.899	1.895	1.909	1.904	1.909
0.010	0.015	0.005	0.000	0.000	0.010	0.391	2.637	1.890	1.895	1.895	1.909	1.904	1.909
0.010	0.005	0.005	0.000	-0.005	0.015	0.396	2.651	1.890	1.895	1.895	1.909	1.909	1.914
0.005	0.005	0.005	0.005	0.000	-0.005	0.391	2.798	1.904	1.899	1.895	1.909	1.909	1.909
-0.005	0.005	0.005	-0.005	0.000	0.010	0.391	2.642	1.899	1.899	1.899	1.914	1.909	1.909
0.010	0.010	-0.005	0.000	0.000	-0.015	0.386	2.729	1.909	1.904	1.899	1.914	1.909	1.904
0.000	0.015	0.000	0.000	-0.005	0.029	0.391	2.686	1.904	1.904	1.904	1.919	1.909	1.919
0.000	0.005	0.005	0.000	-0.005	0.020	0.386	2.656	1.899	1.904	1.899	1.919	1.914	1.914
-0.005	0.005	0.000	0.000	0.000	0.010	0.386	2.681	1.895	1.899	1.899	1.919	1.914	1.914
0.005	0.005	0.005	0.005	0.000	-0.005	0.386	2.744	1.904	1.899	1.899	1.919	1.914	1.904
0.000	0.005	0.005	0.000	0.000	0.000	0.391	2.666	1.899	1.904	1.899	1.919	1.914	1.909
-0.005	-0.005	0.000	0.000	0.005	-0.024	0.386	2.725	1.899	1.899	1.895	1.914	1.914	1.904
0.005	0.015	0.000	0.005	0.000	-0.005	0.386	2.646	1.895	1.899	1.899	1.914	1.914	1.914
0.000	0.010	0.000	0.000	0.010	0.000	0.386	2.642	1.890	1.895	1.890	1.909	1.909	1.914
0.000	0.010	0.005	0.005	0.010	0.010	0.391	2.754	1.899	1.895	1.890	1.914	1.909	1.914
0.000	0.000	0.000	0.000	0.000	0.010	0.391	2.646	1.899	1.890	1.890	1.909	1.904	1.909
0.000	0.010	0.000	0.005	0.000	-0.024	0.386	2.651	1.904	1.895	1.890	1.909	1.904	1.899
0.000	0.005	0.005	0.005	0.000	0.010	0.386	2.671	1.899	1.895	1.895	1.909	1.904	1.914
0.000	0.005	0.005	0.005	0.000	0.010	0.391	2.686	1.895	1.895	1.895	1.909	1.904	1.909
0.000	0.000	0.000	0.000	-0.005	-0.010	0.391	2.681	1.899	1.895	1.895	1.909	1.904	1.904
0.005	0.000	0.005	0.000	0.000	-0.010	0.396	2.695	1.904	1.895	1.895	1.909	1.904	1.904
0.005	-0.005	0.005	0.000	0.000	0.020	0.386	2.705	1.909	1.899	1.895	1.909	1.909	1.914
0.000	-0.005	0.005	0.000	0.005	-0.015	0.386	2.700	1.899	1.899	1.895	1.914	1.909	1.904
0.005	-0.005	0.005	0.000	-0.005	-0.010	0.386	2.710	1.909	1.904	1.899	1.919	1.909	1.909
0.005	0.005	0.000	0.000	0.000	0.005	0.391	2.695	1.904	1.904	1.899	1.919	1.909	1.914
-0.005	-0.010	0.000	0.005	0.005	0.000	0.396	2.686	1.904	1.899	1.895	1.919	1.909	1.909
0.010	0.005	0.000	0.005	0.000	-0.005	0.391	2.690	1.899	1.904	1.899	1.919	1.909	1.909
-0.005	0.005	0.000	0.005	0.005	-0.005	0.391	2.690	1.895	1.899	1.899	1.914	1.914	1.909
-0.005	-0.005	0.005	0.000	0.000	0.005	0.386	2.686	1.895	1.895	1.895	1.914	1.909	1.914
0.000	0.000	0.000	0.000	0.005	-0.010	0.396	2.700	1.895	1.895	1.895	1.909	1.909	1.904
-0.005	0.000	0.005	0.000	-0.005	0.010	0.391	2.690	1.895	1.895	1.895	1.909	1.909	1.909
0.000	0.005	0.000	0.005	0.000	0.015	0.396	2.681	1.895	1.895	1.895	1.914	1.909	1.909
0.000	0.010	0.000	0.010	0.005	0.010	0.386	2.690	1.890	1.895	1.890	1.909	1.909	1.909
0.000	-0.005	0.000	0.005	0.005	0.005	0.391	2.686	1.895	1.890	1.890	1.909	1.904	1.904
-0.005	-0.005	0.000	0.005	0.000	0.010	0.391	2.695	1.895	1.890	1.890	1.909	1.909	1.909
0.005	0.005	0.010	0.010	0.000	-0.005	0.391	2.695	1.899	1.895	1.890	1.909	1.904	1.904
-0.005	-0.010	0.005	0.005	0.000	0.020	0.386	2.705	1.895	1.895	1.890	1.914	1.909	1.909
0.000	-0.005	0.005	0.000	-0.005	-0.005	0.391	2.690	1.904	1.895	1.895	1.914	1.909	1.909
0.000	0.000	0.000	0.000	0.000	0.005	0.391	2.710	1.904	1.899	1.895	1.914	1.909	1.909
0.005	0.000	0.005	0.000	0.005	-0.005	0.396	2.695	1.909	1.899	1.895	1.914	1.909	1.909
0.005	0.000	0.000	-0.005	-0.005	-0.020	0.386	2.690	1.904	1.904	1.899	1.914	1.904	1.904
0.005	0.005	0.005	0.000	0.000	0.010	0.396	2.642	1.895	1.904	1.899	1.914	1.909	1.914
0.000	-0.010	-0.005	0.000	0.005	0.005	0.381	2.646	1.890	1.899	1.899	1.914	1.914	1.914
0.000	0.000	0.000	0.000	0.000	0.024	0.391	2.798	1.909	1.899	1.899	1.919	1.909	1.914
-0.010	0.005	0.005	0.000	-0.005	0.010	0.391	2.642	1.899	1.899	1.899	1.914	1.909	1.909
0.010	0.000	0.005	0.005	0.005	0.010	0.386	2.642	1.895	1.899	1.895	1.914	1.909	1.914
0.005	0.000	0.005	0.000	0.005	0.005	0.391	2.676	1.895	1.895	1.899	1.914	1.909	1.909
-0.010	0.010	0.000	0.000	0.000	0.010	0.386	2.666	1.885	1.895	1.890	1.909	1.909	1.904
-0.005	0.005	0.000	0.000	0.005	0.020	0.386	2.681	1.890	1.890	1.890	1.909	1.904	1.909
0.000	0.005	0.005	-0.005	0.010	0.005	0.396	2.754	1.899	1.890	1.890	1.909	1.909	1.909
0.000	0.005	0.005	0.000	-0.005	0.005	0.396	2.661	1.899	1.890	1.890	1.909	1.904	1.904
0.010	0.010	0.000	0.000	0.005	-0.005	0.386	2.632	1.890	1.895	1.890	1.909	1.904	1.904
0.005	0.005	0.005	0.000	0.005	-0.005	0.391	2.646	1.890	1.890	1.890	1.909	1.904	1.899
0.005	0.005	0.000	0.000	0.005	-0.010	0.386	2.642	1.885	1.890	1.890	1.909	1.904	1.904
0.005	0.005	-0.005	0.005	-0.005	-0.015	0.396	2.646	1.890	1.895	1.890	1.909	1.909	1.904
0.000	0.005	0.000	0.005	0.005	-0.015	0.386	2.729	1.895	1.890	1.890	1.909	1.909	1.909
-0.005	0.005	0.005	0.000	-0.005	0.005	0.400	2.749	1.904	1.895	1.895	1.909	1.904	1.914
0.000	-0.005	0.005	0.000	0.000	0.010	0.391	2.666	1.904	1.899	1.895	1.914	1.909	1.909
0.010	-0.005	0.000	0.005	0.005	0.000	0.396	2.700	1.904	1.899	1.895	1.914	1.909	1.904
0.000	-0.005	-0.005	0.000	0.005	-0.029	0.381	2.676	1.895	1.899	1.895	1.914	1.909	1.899
0.005	0.005	0.000	0.005	0.005	-0.005	0.391	2.700	1.899	1.899	1.895	1.914	1.909	1.909
-0.010	0.000	0.005	0.000	0.010	0.005	0.386	2.700	1.899	1.899	1.895	1.909	1.909	1.914
0.000	0.015	0.005	0.000	0.000	0.010	0.396	2.690	1.899	1.899	1.895	1.909	1.904	1.909
0.000	0.005	0.000	0.005	0.000	-0.010	0.386	2.700	1.895	1.895	1.890	1.909	1.899	1.904
0.005	0.000	0.000	0.000	0.010	0.020	0.391	2.686	1.899	1.890	1.890	1.909	1.904	1.909
-0.010	0.005	-0.005	0.005	0.000	0.000	0.396	2.690	1.895	1.890	1.890	1.909	1.904	1.899
0.005	-0.005	0.005	0.000	0.000	0.024	0.396	2.700	1.899	1.890	1.890	1.909	1.904	1.904
0.015	0.005	0.005	0.000	0.005	0.005	0.386	2.681	1.895	1.895	1.890	1.909	1.904	1.904
0.005	0.000	0.000	0.005	-0.005	0.005	0.386	2.681	1.890	1.890	1.895	1.909	1.904	1.904
-0.005	0.005	0.005	0.000	0.005	0.010	0.391	2.705	1.899	1.895	1.890	1.909	1.904	1.904
0.005	0.000	0.010	0.000	0.000	0.005	0.386	2.715	1.909	1.895	1.895	1.914	1.909	1.899
0.000	0.005	0.000	-0.005	0.000	-0.010	0.391	2.690	1.899	1.899	1.895	1.909	1.909	1.899
0.010	0.005	0.005	0.000	0.005	0.000	0.396	2.700	1.904	1.904	1.895	1.914	1.909	1.904
-0.005	0.005	0.000	0.005	0.005	-0.005	0.396	2.700	1.899	1.899	1.899	1.919	1.909	1.909
0.000	-0.005	0.000	0.005	0.005	0.005	0.391	2.690	1.909	1.899	1.899	1.919	1.909	1.909
0.005	0.000	0.000	0.000	0.005	0.005	0.391	2.700	1.909	1.904	1.895	1.919	1.909	1.909
0.000	0.005	-0.005	0.005	0.005	0.015	0.391	2.700	1.904	1.904	1.899	1.914	1.914	1.914
0.000	0.005	0.000	0.010	0.000	0.010	0.386	2.676	1.904	1.904	1.899	1.914	1.914	1.909
0.005	0.000	-0.005	0.005	0.005	0.010	0.391	2.705	1.904	1.899	1.899	1.919	1.909	1.909
0.000	0.010	0.005	0.000	0.000	0.000	0.386	2.690	1.899	1.899	1.899	1.914	1.909	1.904
0.015	0.000	0.005	0.005	-0.005	0.010	0.391	2.686	1.895	1.895	1.895	1.914	1.909	1.914
0.005	0.010	0.005	0.000	0.005	-0.010	0.391	2.651	1.890	1.890	1.895	1.909	1.909	1.904
0.005	0.005	0.000	0.000	0.005	0.010	0.386	2.656	1.890	1.890	1.890	1.909	1.909	1.909
0.005	-0.005	0.005	-0.005	0.005	0.015	0.391	2.661	1.890	1.890	1.890	1.909	1.904	1.909
0.000	-0.005	0.000	0.000	-0.005	0.020	0.381	2.646	1.885	1.890	1.890	1.909	1.904	1.909
0.010	0.010	0.005	0.000	0.005	0.010	0.391	2.705	1.895	1.895	1.890	1.909	1.909	1.909
0.005	0.005	0.000	-0.005	0.005	0.000	0.381	2.681	1.899	1.895	1.890	1.914	1.904	1.904
-0.005	0.005	0.005	-0.005	0.005	0.010	0.391	2.637	1.895	1.895	1.895	1.909	1.909	1.904
0.005	0.005	0.005	-0.005	-0.005	-0.024	0.386	2.686	1.895	1.895	1.895	1.914	1.904	1.904
0.005	0.000	0.000	0.005	0.000	0.000	0.391	2.671	1.890	1.895	1.895	1.914	1.904	1.909
0.000	0.005	0.005	0.000	0.000	-0.005	0.396	2.681	1.899	1.895	1.895	1.914	1.909	1.909
-0.005	0.005	0.005	0.000	0.000	-0.005	0.391	2.676	1.895	1.899	1.890	1.914	1.909	1.909
-0.005	-0.010	0.000	0.005	0.005	-0.005	0.386	2.642	1.890	1.890	1.890	1.914	1.909	1.909
0.000	-0.010	0.005	0.005	0.000	-0.015	0.386	2.729	1.899	1.890	1.890	1.914	1.909	1.909
0.000	-0.010	0.000	0.005	0.005	0.005	0.386	2.651	1.890	1.890	1.885	1.909	1.909	1.909
0.010	0.005	0.000	0.005	0.005	0.005	0.391	2.642	1.890	1.890	1.890	1.909	1.904	1.909
-0.010	0.000	0.000	0.000	0.000	0.000	0.381	2.739	1.890	1.890	1.885	1.904	1.904	1.909
-0.005	0.005	0.000	0.000	0.005	-0.005	0.391	2.671	1.890	1.885	1.885	1.904	1.899	1.899
-0.005	0.000	0.000	0.005	0.000	-0.020	0.391	2.690	1.885	1.885	1.885	1.904	1.899	1.895
-0.005	0.005	0.005	0.000	0.000	0.005	0.386	2.690	1.895	1.890	1.885	1.904	1.899	1.904
0.000	0.000	0.005	0.005	-0.005	0.010	0.386	2.700	1.895	1.885	1.885	1.904	1.899	1.904
0.000	0.005	0.000	0.005	0.000	0.010	0.391	2.681	1.895	1.890	1.885	1.904	1.899	1.904
0.010	0.005	-0.005	0.000	-0.005	0.000	0.386	2.710	1.895	1.890	1.885	1.904	1.899	1.899
-0.005	0.005	0.000	0.005	0.000	-0.024	0.396	2.710	1.899	1.895	1.890	1.904	1.899	1.895
0.010	0.000	0.000	0.005	0.000	0.005	0.386	2.700	1.899	1.899	1.890	1.904	1.904	1.904
-0.005	-0.005	0.005	0.005	0.005	0.000	0.386	2.705	1.899	1.895	1.890	1.909	1.904	1.899
0.000	0.005	0.000	0.005	0.000	0.015	0.386	2.690	1.904	1.904	1.899	1.914	1.904	1.909
0.005	-0.005	0.005	0.000	-0.005	0.015	0.381	2.705	1.904	1.899	1.895	1.914	1.904	1.909
0.010	0.005	0.000	0.000	-0.005	0.020	0.391	2.671	1.904	1.904	1.899	1.909	1.909	1.909
0.000	-0.005	0.000	0.000	0.000	0.015	0.386	2.700	1.899	1.899	1.895	1.914	1.909	1.909
0.005	0.010	0.000	0.000	0.005	0.015	0.391	2.686	1.895	1.899	1.899	1.914	1.909	1.909
0.005	0.005	0.005	0.000	0.005	0.005	0.391	2.690	1.895	1.895	1.899	1.909	1.909	1.904
0.005	-0.005	-0.005	0.005	0.010	-0.020	0.396	2.690	1.895	1.895	1.895	1.914	1.909	1.899
0.000	0.005	0.005	0.005	0.005	0.000	0.391	2.695	1.895	1.895	1.895	1.914	1.909	1.904
-0.005	-0.005	0.000	0.000	0.005	0.010	0.396	2.676	1.885	1.890	1.890	1.909	1.909	1.909
0.000	-0.010	0.000	0.005	0.010	0.005	0.391	2.686	1.890	1.885	1.885	1.909	1.909	1.904
0.005	-0.015	0.000	0.000	0.005	0.005	0.396	2.695	1.890	1.885	1.880	1.909	1.904	1.904
0.000	-0.005	0.000	0.000	0.005	0.000	0.391	2.686	1.885	1.890	1.885	1.904	1.904	1.904
0.005	-0.005	0.000	0.005	0.000	-0.015	0.396	2.705	1.895	1.890	1.885	1.904	1.899	1.895
0.000	0.000	0.000	0.000	0.000	0.000	0.396	2.700	1.899	1.895	1.890	1.904	1.904	1.904
0.005	0.005	0.000	0.000	0.000	-0.010	0.396	2.695	1.899	1.899	1.890	1.904	1.904	1.899
0.010	-0.005	0.000	0.005	0.000	0.005	0.386	2.651	1.899	1.895	1.895	1.909	1.904	1.909
0.010	0.000	-0.005	0.000	-0.005	0.010	0.391	2.646	1.895	1.895	1.895	1.909	1.904	1.909
0.000	0.005	0.005	0.000	-0.005	-0.005	0.386	2.803	1.909	1.899	1.899	1.914	1.904	1.899
0.000	0.005	0.005	0.000	0.005	0.010	0.391	2.642	1.899	1.899	1.899	1.914	1.909	1.909
0.005	0.005	0.000	0.005	0.000	0.000	0.386	2.734	1.904	1.899	1.899	1.914	1.909	1.904
-0.005	0.000	0.000	0.000	0.000	0.010	0.386	2.690	1.899	1.899	1.895	1.914	1.909	1.909
0.000	0.005	0.000	0.005	0.005	0.015	0.391	2.651	1.899	1.899	1.899	1.914	1.909	1.909
0.005	0.010	-0.005	0.005	0.000	0.005	0.396	2.690	1.895	1.899	1.895	1.914	1.909	1.904
0.000	0.000	0.000	0.000	0.000	0.005	0.386	2.744	1.899	1.895	1.895	1.909	1.909	1.909
0.005	0.010	0.000	0.000	0.000	0.005	0.396	2.793	1.909	1.899	1.895	1.909	1.909	1.904
-0.005	0.005	0.000	0.000	0.005	0.000	0.386	2.632	1.895	1.899	1.895	1.909	1.904	1.904
0.005	0.010	0.000	0.005	0.000	0.005	0.391	2.637	1.890	1.890	1.895	1.909	1.904	1.904
0.000	0.000	0.000	0.000	0.000	-0.024	0.396	2.646	1.885	1.885	1.890	1.904	1.904	1.895
0.010	0.000	0.005	0.000	0.000	-0.005	0.386	2.739	1.895	1.890	1.890	1.909	1.909	1.899
0.005	0.000	0.010	0.005	0.000	-0.005	0.396	2.739	1.890	1.885	1.890	1.909	1.904	1.904
-0.005	0.000	0.005	0.000	0.000	0.005	0.386	2.646	1.890	1.890	1.890	1.909	1.904	1.909
0.000	0.005	0.005	0.005	0.005	-0.005	0.391	2.651	1.885	1.890	1.890	1.909	1.909	1.909
0.005	0.010	0.005	0.000	0.005	0.005	0.396	2.705	1.899	1.895	1.890	1.909	1.909	1.909
-0.005	0.005	0.005	0.000	0.000	0.005	0.391	2.695	1.895	1.895	1.890	1.909	1.909	1.909
0.000	0.005	0.005	0.005	0.000	-0.005	0.391	2.695	1.899	1.895	1.895	1.914	1.909	1.909
0.010	0.005	0.000	0.005	0.000	-0.020	0.391	2.695	1.904	1.899	1.895	1.914	1.909	1.904
