-0.005	0.005	0.005	0.010	0.010	0.000	0.420	2.686	2.339	2.065	2.002	1.938	1.948	1.938
0.005	-0.005	0.000	0.005	0.010	0.010	0.420	2.700	2.236	2.114	2.026	1.968	1.953	1.943
-0.005	-0.010	0.000	0.000	0.015	0.010	0.425	2.686	2.153	2.124	2.051	1.992	1.963	1.948
-0.005	0.000	0.000	0.005	0.010	-0.020	0.420	2.686	2.095	2.119	2.070	2.017	1.973	1.948
0.000	0.005	-0.005	0.005	0.005	0.000	0.420	2.695	2.056	2.100	2.075	2.036	1.987	1.958
0.010	0.000	0.000	0.005	0.005	-0.010	0.415	2.695	2.026	2.075	2.080	2.056	2.002	1.968
0.005	-0.005	0.005	0.005	0.010	0.005	0.425	2.808	2.017	2.061	2.075	2.065	2.021	1.987
0.005	-0.005	0.005	0.005	0.010	-0.015	0.420	2.661	1.997	2.041	2.065	2.070	2.031	1.992
0.000	0.000	-0.005	0.005	0.000	-0.010	0.420	2.651	1.978	2.026	2.051	2.070	2.041	2.007
0.005	0.010	0.000	0.000	-0.005	0.000	0.420	2.656	1.982	2.017	2.041	2.065	2.046	2.017
0.005	0.010	0.005	0.000	-0.005	-0.010	0.420	2.749	1.987	2.007	2.031	2.065	2.051	2.021
0.010	0.000	0.000	0.000	0.000	0.015	0.420	2.749	1.992	2.002	2.026	2.061	2.056	2.041
0.000	0.005	0.005	0.005	-0.005	0.015	0.425	2.651	1.982	2.002	2.021	2.056	2.056	2.046
0.010	0.000	-0.005	0.000	0.005	0.010	0.420	2.681	1.982	1.992	2.012	2.046	2.056	2.046
0.000	0.005	0.005	0.000	0.005	0.015	0.425	2.656	1.982	1.992	2.007	2.041	2.046	2.046
-0.005	0.005	0.005	0.000	0.000	0.005	0.420	2.690	1.982	1.987	2.002	2.041	2.041	2.046
-0.005	0.000	-0.005	0.000	0.000	0.010	0.415	2.739	1.982	1.982	1.997	2.031	2.041	2.041
0.000	-0.005	0.000	0.000	-0.005	0.005	0.420	2.700	1.982	1.982	1.992	2.026	2.036	2.041
0.000	0.000	0.000	0.005	0.000	0.005	0.425	2.739	1.978	1.982	1.987	2.021	2.031	2.036
0.000	0.005	0.000	0.000	0.010	0.000	0.425	2.739	1.978	1.978	1.982	2.012	2.021	2.031
0.000	0.000	-0.005	0.000	-0.005	-0.010	0.415	2.734	1.968	1.978	1.982	2.012	2.017	2.021
0.000	0.005	0.005	0.000	0.000	-0.005	0.430	2.656	1.978	1.973	1.978	2.007	2.012	2.021
-0.005	0.010	0.005	0.000	0.005	0.000	0.420	2.739	1.973	1.973	1.973	2.002	2.007	2.017
-0.005	0.000	0.005	0.005	0.000	0.015	0.430	2.715	1.973	1.973	1.973	1.997	2.002	2.012
0.000	0.010	0.000	0.005	-0.005	-0.005	0.415	2.690	1.968	1.973	1.973	1.997	1.997	2.007
0.000	0.010	0.000	0.005	0.000	0.010	0.420	2.705	1.968	1.968	1.973	1.992	1.997	2.007
0.005	0.005	0.005	0.005	0.000	0.000	0.425	2.700	1.968	1.968	1.968	1.992	1.992	2.002
0.005	-0.005	0.005	0.005	-0.005	0.000	0.430	2.695	1.968	1.968	1.968	1.992	1.992	1.997
0.015	0.024	-0.005	0.005	0.000	0.005	0.415	2.681	1.968	1.973	1.973	1.992	1.992	1.997
-0.005	0.005	0.010	0.005	0.000	-0.015	0.420	2.710	1.968	1.968	1.973	1.992	1.992	1.992
0.005	-0.015	0.005	0.010	0.000	-0.015	0.420	2.700	1.963	1.963	1.968	1.992	1.992	1.992
0.005	-0.005	0.005	0.005	0.000	0.000	0.430	2.690	1.968	1.968	1.973	1.992	1.987	1.992
0.005	0.005	0.000	0.005	0.000	-0.020	0.425	2.700	1.968	1.973	1.968	1.992	1.992	1.992
0.010	0.010	0.000	0.000	0.005	0.010	0.420	2.686	1.963	1.968	1.968	1.982	1.987	1.992
0.000	-0.005	0.000	0.000	0.005	0.005	0.420	2.710	1.963	1.958	1.963	1.987	1.987	1.992
0.000	-0.005	0.000	0.005	0.005	0.000	0.425	2.676	1.948	1.958	1.963	1.982	1.982	1.987
0.000	0.010	0.005	0.000	0.005	-0.010	0.425	2.690	1.948	1.958	1.963	1.982	1.978	1.978
0.000	0.005	0.005	0.005	0.010	0.010	0.425	2.700	1.953	1.953	1.958	1.982	1.978	1.982
-0.005	-0.005	0.000	0.000	-0.005	0.010	0.420	2.710	1.953	1.948	1.953	1.978	1.973	1.978
0.000	0.015	0.000	0.000	0.000	0.010	0.425	2.700	1.953	1.953	1.953	1.973	1.973	1.978
0.000	0.010	-0.005	0.005	0.005	0.015	0.420	2.681	1.943	1.948	1.948	1.973	1.973	1.978
-0.005	0.005	0.000	0.000	-0.005	0.015	0.420	2.705	1.953	1.948	1.953	1.973	1.968	1.973
0.000	0.000	0.005	0.000	0.000	-0.005	0.415	2.690	1.953	1.948	1.953	1.968	1.968	1.973
0.000	-0.005	0.005	0.000	0.005	0.005	0.420	2.690	1.948	1.953	1.953	1.973	1.973	1.973
-0.005	0.010	0.000	0.000	0.000	0.015	0.420	2.686	1.953	1.953	1.953	1.973	1.968	1.973
0.005	0.000	0.000	0.000	-0.005	0.010	0.420	2.705	1.953	1.948	1.948	1.973	1.968	1.968
0.005	-0.015	0.000	0.000	0.000	-0.010	0.420	2.822	1.968	1.953	1.953	1.973	1.968	1.963
0.000	-0.005	0.000	0.005	-0.005	0.000	0.415	2.651	1.953	1.953	1.953	1.973	1.968	1.968
0.005	0.000	0.000	0.005	0.005	0.000	0.420	2.651	1.948	1.953	1.953	1.973	1.968	1.968
-0.005	-0.005	-0.005	0.000	0.000	-0.005	0.420	2.778	1.958	1.953	1.953	1.968	1.968	1.968
-0.005	-0.005	0.005	-0.005	0.005	0.000	0.425	2.646	1.958	1.958	1.953	1.968	1.968	1.968
-0.005	0.005	0.005	0.000	0.000	0.000	0.415	2.734	1.963	1.958	1.953	1.973	1.968	1.973
0.000	0.005	0.000	0.005	0.005	0.010	0.430	2.651	1.953	1.958	1.953	1.968	1.968	1.973
0.000	0.000	0.005	0.000	0.005	0.010	0.430	2.656	1.943	1.953	1.953	1.968	1.968	1.968
0.000	0.005	0.000	0.000	0.000	-0.005	0.425	2.749	1.943	1.948	1.948	1.968	1.963	1.958
0.000	0.000	0.000	0.000	0.010	0.015	0.420	2.690	1.943	1.938	1.948	1.968	1.963	1.968
0.000	0.005	0.005	0.005	0.000	-0.010	0.425	2.744	1.948	1.943	1.943	1.968	1.963	1.953
0.005	0.000	0.000	0.000	0.000	-0.005	0.425	2.695	1.943	1.938	1.943	1.963	1.958	1.953
0.005	0.000	0.000	0.000	0.000	0.000	0.420	2.627	1.929	1.934	1.943	1.963	1.958	1.963
0.000	0.000	0.000	0.000	-0.005	0.005	0.425	2.739	1.938	1.938	1.938	1.963	1.958	1.958
0.000	0.005	0.005	0.005	0.000	-0.005	0.420	2.651	1.934	1.938	1.938	1.963	1.958	1.958
0.010	0.005	0.005	0.005	-0.005	-0.005	0.425	2.749	1.943	1.938	1.938	1.963	1.958	1.958
0.010	0.000	0.005	0.005	-0.005	0.005	0.430	2.734	1.934	1.938	1.938	1.958	1.958	1.958
0.020	0.005	0.005	0.000	0.000	-0.005	0.425	2.705	1.938	1.938	1.938	1.958	1.963	1.953
0.005	0.010	0.005	0.000	0.000	-0.020	0.430	2.686	1.934	1.938	1.938	1.958	1.958	1.958
0.005	0.029	0.000	0.000	0.000	0.000	0.425	2.690	1.934	1.943	1.943	1.958	1.958	1.963
0.005	0.024	0.010	0.000	0.005	0.015	0.420	2.705	1.938	1.938	1.943	1.963	1.958	1.958
0.015	-0.005	0.000	0.010	0.000	0.010	0.420	2.681	1.929	1.929	1.938	1.958	1.958	1.963
0.005	-0.010	0.000	0.005	0.010	0.015	0.420	2.676	1.929	1.929	1.934	1.958	1.958	1.963
0.005	-0.005	0.000	0.005	0.005	-0.010	0.420	2.690	1.934	1.929	1.929	1.953	1.953	1.948
0.000	0.000	0.000	0.005	0.005	0.005	0.420	2.700	1.924	1.924	1.924	1.953	1.948	1.958
-0.005	-0.005	0.005	0.005	0.000	-0.010	0.425	2.695	1.929	1.924	1.924	1.948	1.948	1.943
0.010	0.000	-0.005	0.010	0.000	0.020	0.420	2.686	1.924	1.924	1.924	1.948	1.943	1.948
0.000	0.005	0.000	0.005	0.010	0.015	0.425	2.686	1.924	1.924	1.924	1.943	1.943	1.948
0.000	0.000	0.005	-0.005	0.000	-0.005	0.420	2.705	1.924	1.919	1.924	1.943	1.938	1.943
0.010	0.000	0.010	0.005	0.000	0.015	0.420	2.671	1.919	1.924	1.919	1.943	1.938	1.943
0.000	-0.010	0.000	0.000	0.005	0.010	0.415	2.681	1.919	1.914	1.919	1.943	1.938	1.948
0.000	-0.005	0.005	0.005	0.000	0.015	0.425	2.715	1.929	1.924	1.924	1.943	1.938	1.943
0.000	-0.010	0.000	0.000	0.000	0.015	0.425	2.700	1.934	1.929	1.924	1.938	1.938	1.943
0.005	0.005	0.000	0.000	0.000	0.010	0.425	2.710	1.934	1.929	1.929	1.943	1.938	1.943
-0.005	-0.005	0.005	0.005	0.000	0.000	0.425	2.690	1.929	1.929	1.929	1.943	1.943	1.938
0.005	0.000	0.005	0.005	0.000	0.000	0.420	2.695	1.934	1.929	1.929	1.943	1.938	1.938
-0.005	-0.005	-0.005	0.000	0.005	0.000	0.420	2.705	1.929	1.929	1.929	1.943	1.943	1.943
0.005	0.000	-0.005	0.000	0.005	0.015	0.425	2.690	1.929	1.929	1.924	1.948	1.943	1.943
0.015	0.024	0.000	0.000	0.010	0.005	0.415	2.705	1.934	1.934	1.929	1.943	1.943	1.938
-0.005	0.015	0.000	0.005	0.005	0.010	0.425	2.700	1.929	1.929	1.929	1.943	1.938	1.938
0.000	0.000	0.000	0.005	0.005	-0.005	0.425	2.798	1.938	1.929	1.929	1.943	1.938	1.934
-0.010	0.005	0.000	0.000	0.010	-0.034	0.430	2.671	1.924	1.919	1.924	1.943	1.938	1.924
-0.005	0.005	0.000	0.005	0.010	-0.005	0.420	2.661	1.919	1.919	1.919	1.943	1.938	1.938
0.000	-0.010	0.000	0.000	0.005	-0.005	0.425	2.661	1.914	1.914	1.919	1.938	1.938	1.934
0.000	0.000	0.000	0.005	0.005	0.000	0.420	2.656	1.909	1.914	1.919	1.938	1.934	1.934
0.005	0.010	0.000	0.000	-0.005	0.000	0.425	2.651	1.909	1.909	1.914	1.934	1.934	1.929
-0.005	0.005	0.005	0.005	0.000	-0.005	0.425	2.729	1.914	1.909	1.919	1.934	1.934	1.929
0.000	-0.005	0.005	0.005	-0.005	-0.005	0.425	2.656	1.909	1.909	1.914	1.934	1.934	1.934
0.005	0.005	0.000	0.005	0.000	0.015	0.430	2.646	1.909	1.909	1.914	1.934	1.934	1.938
0.005	0.000	0.005	0.010	-0.005	0.015	0.425	2.686	1.914	1.914	1.909	1.934	1.934	1.938
0.000	0.010	0.000	0.005	-0.005	-0.015	0.425	2.749	1.919	1.914	1.914	1.934	1.934	1.929
-0.005	-0.005	0.000	0.005	-0.010	-0.005	0.420	2.686	1.914	1.909	1.914	1.934	1.929	1.934
0.010	-0.015	0.000	0.000	-0.005	-0.005	0.430	2.656	1.914	1.909	1.909	1.934	1.929	1.929
0.005	-0.010	0.000	0.000	0.005	-0.010	0.425	2.734	1.924	1.914	1.914	1.934	1.934	1.929
0.000	0.010	0.000	0.005	-0.005	-0.010	0.420	2.651	1.914	1.919	1.914	1.934	1.929	1.929
0.000	0.005	0.005	0.000	0.005	0.010	0.420	2.661	1.914	1.914	1.914	1.934	1.929	1.934
0.005	0.015	-0.005	0.000	0.005	0.005	0.425	2.734	1.919	1.914	1.909	1.929	1.929	1.929
0.005	0.000	0.000	0.000	0.020	0.024	0.425	2.681	1.909	1.909	1.909	1.929	1.934	1.934
-0.005	0.000	0.000	0.005	0.024	0.005	0.430	2.710	1.914	1.909	1.904	1.929	1.929	1.929
0.000	0.000	0.000	0.000	0.010	0.010	0.425	2.681	1.904	1.909	1.904	1.924	1.919	1.924
0.010	0.005	0.000	0.000	0.005	0.020	0.425	2.695	1.909	1.904	1.904	1.924	1.919	1.929
0.000	0.000	-0.005	0.000	0.000	0.010	0.415	2.705	1.909	1.904	1.904	1.924	1.919	1.924
0.000	0.000	-0.005	0.005	-0.005	0.010	0.425	2.705	1.909	1.909	1.904	1.924	1.914	1.919
0.005	0.000	-0.005	0.005	-0.005	0.005	0.415	2.700	1.909	1.904	1.904	1.924	1.914	1.914
-0.005	0.010	-0.005	0.015	0.000	-0.005	0.430	2.705	1.909	1.909	1.909	1.929	1.919	1.914
-0.005	0.000	0.000	0.005	-0.005	-0.015	0.425	2.695	1.914	1.909	1.909	1.929	1.919	1.909
0.005	0.000	0.005	0.005	-0.005	-0.015	0.430	2.686	1.909	1.914	1.909	1.929	1.924	1.919
0.005	0.005	0.000	0.005	0.000	-0.010	0.415	2.690	1.914	1.909	1.909	1.929	1.924	1.919
0.005	0.000	0.005	0.000	0.005	0.020	0.425	2.695	1.914	1.909	1.909	1.929	1.924	1.929
0.000	0.005	0.005	0.005	0.005	0.010	0.415	2.676	1.904	1.914	1.909	1.929	1.929	1.929
0.000	0.005	0.000	0.000	0.010	0.005	0.420	2.681	1.904	1.904	1.909	1.929	1.924	1.929
-0.010	-0.005	0.000	0.000	0.010	0.010	0.425	2.690	1.904	1.904	1.904	1.924	1.924	1.924
0.000	-0.005	0.005	0.000	0.000	0.005	0.425	2.700	1.909	1.904	1.904	1.924	1.924	1.919
-0.005	0.000	-0.005	-0.005	0.000	-0.010	0.425	2.681	1.904	1.904	1.904	1.919	1.914	1.919
-0.005	-0.005	0.000	0.000	0.000	-0.024	0.420	2.686	1.899	1.899	1.899	1.924	1.914	1.914
0.005	-0.005	0.000	0.005	0.005	-0.015	0.420	2.710	1.909	1.899	1.899	1.919	1.919	1.914
0.000	0.005	0.005	0.000	0.005	-0.005	0.425	2.676	1.899	1.904	1.899	1.924	1.919	1.914
0.010	0.000	0.005	0.005	0.005	-0.020	0.425	2.705	1.899	1.899	1.899	1.914	1.914	1.914
-0.005	0.010	0.000	0.000	0.005	-0.010	0.420	2.695	1.899	1.899	1.899	1.914	1.914	1.909
0.005	0.005	0.010	0.005	0.005	0.010	0.420	2.695	1.904	1.899	1.899	1.919	1.914	1.919
0.005	-0.005	0.005	0.010	0.005	0.005	0.425	2.817	1.919	1.904	1.899	1.919	1.919	1.919
0.000	0.005	0.005	0.005	0.000	0.005	0.420	2.671	1.909	1.909	1.899	1.919	1.914	1.919
0.000	0.000	0.000	0.005	0.005	0.010	0.420	2.651	1.909	1.904	1.904	1.919	1.914	1.919
0.005	0.005	0.000	0.005	-0.005	-0.024	0.425	2.651	1.899	1.909	1.904	1.919	1.914	1.909
-0.005	0.005	-0.005	0.000	0.000	0.005	0.420	2.744	1.909	1.904	1.899	1.919	1.919	1.919
-0.005	0.005	0.005	0.000	0.000	0.000	0.420	2.749	1.919	1.909	1.904	1.924	1.919	1.914
0.010	-0.005	0.000	0.005	0.000	0.000	0.425	2.666	1.914	1.909	1.909	1.924	1.919	1.919
-0.005	-0.005	0.000	0.005	0.010	-0.020	0.420	2.681	1.904	1.909	1.904	1.924	1.919	1.914
0.000	-0.005	0.005	0.000	0.005	0.015	0.420	2.661	1.904	1.904	1.904	1.924	1.919	1.924
0.000	-0.005	-0.005	0.000	0.005	0.005	0.425	2.676	1.899	1.904	1.899	1.919	1.919	1.919
0.005	0.005	0.010	0.000	0.005	-0.010	0.425	2.759	1.909	1.904	1.904	1.924	1.914	1.914
0.005	0.005	0.000	0.000	0.005	-0.015	0.420	2.710	1.904	1.904	1.904	1.919	1.914	1.914
0.005	0.005	0.000	0.005	0.000	0.020	0.415	2.734	1.904	1.904	1.899	1.919	1.914	1.919
0.010	0.000	0.005	0.000	0.005	0.010	0.425	2.739	1.909	1.899	1.899	1.919	1.914	1.914
0.000	-0.005	0.005	0.005	0.000	0.010	0.415	2.661	1.899	1.899	1.895	1.919	1.909	1.914
0.010	0.000	0.005	0.000	0.000	0.005	0.425	2.749	1.909	1.904	1.899	1.919	1.914	1.914
-0.005	-0.005	0.005	0.005	-0.005	-0.005	0.425	2.739	1.909	1.904	1.899	1.919	1.914	1.909
-0.005	-0.005	0.005	0.005	0.000	0.005	0.425	2.710	1.909	1.904	1.899	1.919	1.914	1.909
-0.005	-0.010	0.005	0.000	0.000	0.005	0.420	2.686	1.904	1.904	1.899	1.919	1.914	1.914
-0.005	-0.005	0.000	0.005	0.000	0.000	0.420	2.686	1.904	1.904	1.904	1.919	1.914	1.909
0.000	-0.005	0.000	0.005	-0.005	0.015	0.425	2.705	1.909	1.904	1.899	1.919	1.914	1.919
0.010	0.000	0.000	0.000	0.000	0.000	0.425	2.705	1.909	1.904	1.904	1.919	1.914	1.909
-0.005	0.000	0.005	0.000	-0.005	0.020	0.425	2.686	1.909	1.909	1.904	1.924	1.919	1.919
0.005	-0.005	0.000	0.005	0.000	0.000	0.425	2.690	1.904	1.904	1.909	1.924	1.919	1.914
0.015	0.015	0.000	0.000	0.000	0.005	0.415	2.686	1.909	1.914	1.904	1.919	1.919	1.919
0.005	0.024	0.000	0.000	0.000	0.000	0.420	2.681	1.904	1.909	1.904	1.924	1.919	1.914
0.000	-0.005	0.005	0.000	0.000	-0.005	0.420	2.686	1.895	1.895	1.904	1.919	1.919	1.914
0.000	-0.005	0.000	0.005	0.005	0.000	0.420	2.686	1.890	1.895	1.899	1.919	1.914	1.914
0.010	-0.005	0.005	0.005	0.005	0.000	0.420	2.681	1.895	1.890	1.895	1.919	1.914	1.909
0.005	0.005	0.000	0.005	0.005	-0.034	0.420	2.676	1.890	1.890	1.890	1.914	1.914	1.904
0.005	-0.005	0.005	0.010	0.000	0.005	0.420	2.681	1.890	1.890	1.890	1.914	1.909	1.914
-0.005	-0.010	0.000	0.005	0.005	0.005	0.425	2.681	1.895	1.890	1.890	1.909	1.909	1.914
0.005	-0.005	0.005	0.000	0.000	0.005	0.425	2.686	1.895	1.890	1.890	1.909	1.909	1.909
0.010	0.010	0.000	0.005	-0.005	0.005	0.420	2.695	1.895	1.895	1.890	1.909	1.909	1.914
0.000	0.005	-0.005	0.005	-0.005	0.024	0.430	2.695	1.899	1.895	1.890	1.909	1.904	1.914
0.010	0.010	0.005	0.005	0.000	0.020	0.415	2.700	1.904	1.899	1.895	1.914	1.909	1.909
0.000	-0.005	0.000	0.000	-0.005	-0.020	0.425	2.686	1.899	1.895	1.895	1.914	1.909	1.899
0.010	0.000	0.000	0.000	-0.005	0.005	0.420	2.686	1.899	1.899	1.895	1.914	1.909	1.909
0.015	0.010	0.000	0.000	0.000	0.024	0.420	2.705	1.904	1.904	1.899	1.914	1.909	1.914
0.010	0.005	0.010	0.005	0.000	0.005	0.425	2.700	1.904	1.899	1.899	1.919	1.909	1.904
-0.005	0.015	0.000	0.000	0.005	0.005	0.425	2.808	1.914	1.904	1.899	1.919	1.914	1.909
-0.005	0.005	0.000	0.005	0.010	0.005	0.425	2.661	1.904	1.904	1.904	1.919	1.914	1.909
0.005	0.005	-0.005	0.005	0.005	-0.005	0.425	2.646	1.899	1.899	1.899	1.919	1.909	1.909
0.000	-0.010	-0.005	0.005	0.005	-0.005	0.420	2.656	1.904	1.895	1.895	1.919	1.909	1.909
0.000	0.005	-0.005	0.000	0.000	0.010	0.430	2.759	1.909	1.899	1.895	1.914	1.904	1.909
0.000	0.010	0.000	0.000	0.005	0.010	0.425	2.749	1.904	1.899	1.895	1.909	1.909	1.909
0.010	0.000	0.000	0.000	0.000	0.010	0.425	2.661	1.899	1.895	1.895	1.909	1.904	1.904
-0.005	0.005	0.005	0.000	0.005	0.010	0.425	2.671	1.895	1.899	1.895	1.914	1.909	1.904
-0.005	0.000	0.005	0.000	0.000	0.000	0.425	2.661	1.890	1.890	1.895	1.914	1.904	1.904
0.000	0.005	0.000	0.000	0.000	-0.005	0.420	2.676	1.890	1.895	1.895	1.909	1.904	1.904
0.000	0.015	-0.005	0.005	0.000	-0.029	0.420	2.754	1.899	1.895	1.895	1.914	1.904	1.899
0.015	0.020	0.000	0.005	-0.005	-0.005	0.420	2.681	1.899	1.899	1.895	1.914	1.909	1.904
0.000	0.010	0.005	0.000	0.005	0.000	0.425	2.744	1.904	1.895	1.895	1.914	1.909	1.909
0.005	0.005	0.000	0.005	0.000	0.005	0.420	2.739	1.909	1.895	1.899	1.914	1.914	1.909
0.005	0.010	0.000	0.005	-0.005	0.005	0.430	2.749	1.909	1.899	1.899	1.914	1.909	1.909
-0.005	0.000	0.000	0.000	0.000	0.010	0.430	2.759	1.914	1.904	1.899	1.919	1.914	1.914
0.000	-0.005	0.000	0.000	0.000	0.000	0.420	2.734	1.914	1.904	1.899	1.919	1.914	1.914
-0.005	0.005	-0.005	0.000	0.000	0.000	0.425	2.705	1.909	1.909	1.904	1.919	1.909	1.909
0.000	0.015	0.000	0.000	0.000	-0.005	0.415	2.686	1.904	1.909	1.904	1.919	1.909	1.909
0.005	0.000	0.005	0.005	0.000	0.000	0.420	2.690	1.904	1.904	1.899	1.919	1.914	1.909
0.015	0.000	0.005	0.000	0.000	0.005	0.425	2.705	1.904	1.904	1.899	1.919	1.914	1.914
0.005	0.010	0.010	0.000	0.000	0.005	0.430	2.700	1.899	1.904	1.904	1.919	1.914	1.909
0.000	-0.005	0.000	0.005	0.005	-0.010	0.415	2.686	1.895	1.895	1.899	1.914	1.909	1.904
0.000	-0.005	0.000	0.010	-0.005	0.010	0.430	2.686	1.890	1.890	1.895	1.914	1.909	1.909
-0.005	-0.010	0.000	0.005	0.000	0.005	0.415	2.690	1.885	1.885	1.890	1.914	1.909	1.904
-0.005	0.010	0.005	0.005	-0.005	0.005	0.425	2.676	1.890	1.895	1.890	1.914	1.909	1.909
0.000	0.005	0.000	0.005	0.000	0.010	0.420	2.686	1.890	1.890	1.890	1.909	1.909	1.909
0.005	0.010	0.000	0.010	0.010	0.005	0.420	2.690	1.890	1.890	1.895	1.914	1.909	1.909
0.005	0.000	0.000	0.005	0.005	-0.034	0.420	2.690	1.890	1.890	1.890	1.909	1.909	1.899
0.000	0.000	0.005	0.000	0.010	0.000	0.425	2.695	1.899	1.895	1.890	1.909	1.909	1.909
0.005	0.010	0.005	0.005	0.005	0.010	0.425	2.695	1.904	1.899	1.895	1.914	1.909	1.909
-0.005	0.000	0.000	0.000	0.000	-0.005	0.425	2.710	1.899	1.895	1.895	1.914	1.909	1.909
0.000	-0.005	0.000	0.000	0.000	-0.005	0.425	2.690	1.899	1.895	1.895	1.914	1.909	1.909
-0.005	0.005	0.000	0.000	0.000	-0.005	0.420	2.705	1.899	1.899	1.895	1.914	1.909	1.909
0.000	0.000	0.005	0.000	0.005	0.000	0.425	2.695	1.904	1.899	1.895	1.909	1.909	1.909
-0.005	0.000	0.000	0.000	0.005	-0.005	0.420	2.710	1.899	1.895	1.895	1.914	1.909	1.909
0.010	0.005	0.005	0.005	0.005	0.005	0.420	2.715	1.899	1.899	1.895	1.914	1.904	1.909
-0.005	-0.005	-0.005	0.000	0.000	0.020	0.420	2.705	1.895	1.895	1.890	1.909	1.909	1.909
0.000	0.000	0.000	0.000	0.005	0.015	0.420	2.705	1.899	1.899	1.895	1.909	1.904	1.909
0.000	0.000	0.005	0.005	0.000	0.005	0.430	2.700	1.895	1.895	1.895	1.909	1.904	1.904
0.005	0.000	0.000	0.000	0.005	0.015	0.425	2.808	1.909	1.895	1.890	1.909	1.904	1.904
0.000	-0.005	0.005	0.000	0.005	0.010	0.425	2.671	1.899	1.895	1.890	1.909	1.904	1.904
0.000	0.000	0.000	0.000	0.010	0.005	0.430	2.651	1.890	1.890	1.895	1.909	1.904	1.904
0.000	-0.005	0.000	0.000	0.000	0.000	0.420	2.651	1.885	1.890	1.895	1.909	1.904	1.904
0.010	0.000	0.000	0.010	0.000	-0.024	0.420	2.651	1.885	1.890	1.890	1.909	1.904	1.895
0.000	0.000	0.000	0.005	0.005	0.000	0.420	2.744	1.890	1.890	1.890	1.909	1.904	1.904
0.000	0.010	-0.005	0.000	-0.005	-0.024	0.425	2.705	1.890	1.895	1.895	1.909	1.904	1.904
0.000	0.000	0.000	0.005	0.000	-0.005	0.430	2.656	1.890	1.895	1.895	1.909	1.909	1.909
0.005	0.000	0.000	0.000	0.000	0.010	0.420	2.656	1.895	1.895	1.895	1.914	1.909	1.914
0.005	0.010	0.000	0.000	0.000	-0.005	0.415	2.686	1.890	1.895	1.895	1.914	1.909	1.909
-0.005	0.000	0.010	0.005	0.005	-0.005	0.420	2.744	1.895	1.890	1.890	1.914	1.909	1.904
0.010	-0.005	0.000	0.005	0.005	0.005	0.425	2.681	1.895	1.890	1.890	1.909	1.909	1.909
0.000	-0.005	0.000	0.000	0.000	0.010	0.430	2.632	1.890	1.885	1.885	1.909	1.909	1.909
0.005	-0.005	0.000	0.005	0.000	0.015	0.425	2.725	1.895	1.890	1.890	1.909	1.904	1.909
0.000	0.005	0.000	0.005	0.000	0.000	0.425	2.651	1.885	1.890	1.885	1.909	1.904	1.899
0.005	0.005	0.005	0.000	0.000	0.005	0.420	2.651	1.885	1.885	1.885	1.904	1.899	1.904
0.000	-0.010	0.005	0.000	0.005	0.005	0.430	2.734	1.895	1.880	1.885	1.899	1.899	1.899
0.000	-0.005	-0.005	0.000	0.000	0.000	0.420	2.690	1.895	1.885	1.880	1.899	1.899	1.899
0.005	-0.005	0.000	0.005	0.005	0.005	0.430	2.681	1.890	1.885	1.885	1.904	1.899	1.895
0.005	0.005	0.005	0.000	0.000	0.000	0.420	2.690	1.890	1.890	1.885	1.904	1.899	1.899
0.005	0.005	0.010	0.005	0.005	0.000	0.430	2.676	1.890	1.890	1.885	1.899	1.899	1.895
0.000	0.000	0.000	0.005	0.000	0.005	0.415	2.705	1.895	1.890	1.885	1.904	1.899	1.899
0.005	0.000	0.000	0.000	-0.005	0.010	0.425	2.695	1.899	1.890	1.890	1.904	1.899	1.904
0.005	0.010	-0.005	0.005	0.000	0.005	0.420	2.695	1.895	1.895	1.890	1.904	1.899	1.899
0.000	0.000	0.000	0.005	0.000	0.000	0.420	2.700	1.895	1.895	1.895	1.909	1.899	1.899
-0.005	-0.005	0.000	0.005	0.000	0.005	0.420	2.686	1.895	1.890	1.890	1.909	1.904	1.904
0.000	0.000	0.010	0.005	0.000	0.000	0.420	2.690	1.895	1.895	1.895	1.909	1.904	1.899
-0.005	-0.005	0.005	0.005	-0.005	-0.005	0.420	2.676	1.890	1.890	1.890	1.904	1.904	1.899
0.000	-0.005	0.000	-0.005	0.000	0.005	0.420	2.690	1.895	1.890	1.890	1.904	1.904	1.904
0.000	-0.005	0.000	0.005	0.000	-0.005	0.415	2.690	1.895	1.890	1.890	1.909	1.904	1.899
-0.005	0.000	0.005	0.010	0.005	0.005	0.425	2.681	1.890	1.890	1.890	1.909	1.904	1.899
0.000	0.020	0.000	-0.005	0.005	-0.005	0.415	2.686	1.890	1.890	1.885	1.904	1.904	1.899
0.005	0.010	0.000	0.000	0.000	-0.015	0.415	2.705	1.890	1.885	1.885	1.904	1.899	1.895
-0.005	0.010	-0.005	0.005	0.010	0.005	0.425	2.710	1.890	1.885	1.885	1.899	1.899	1.899
0.000	0.010	0.005	0.005	0.000	0.005	0.420	2.695	1.890	1.885	1.885	1.904	1.895	1.895
0.010	0.005	0.000	0.005	-0.005	-0.005	0.425	2.710	1.890	1.885	1.885	1.904	1.899	1.895
0.005	0.000	0.000	0.010	0.000	0.010	0.420	2.700	1.890	1.885	1.885	1.904	1.895	1.899
0.010	0.005	0.005	0.000	0.000	-0.010	0.420	2.705	1.895	1.890	1.885	1.899	1.899	1.890
0.000	0.000	0.000	0.005	0.000	0.010	0.415	2.715	1.899	1.890	1.890	1.904	1.904	1.899
0.005	-0.005	0.005	0.005	0.000	0.000	0.425	2.700	1.895	1.890	1.885	1.904	1.899	1.899
0.000	-0.010	0.000	0.000	0.000	0.000	0.415	2.822	1.909	1.895	1.890	1.909	1.904	1.904
-0.005	-0.005	0.005	0.005	0.000	0.005	0.425	2.661	1.895	1.895	1.895	1.909	1.904	1.909
0.005	0.000	0.005	0.005	0.000	0.020	0.420	2.651	1.899	1.899	1.890	1.914	1.904	1.904
0.000	0.005	0.000	0.000	0.005	0.010	0.430	2.666	1.904	1.899	1.895	1.909	1.904	1.899
0.005	0.000	0.000	0.005	0.005	-0.010	0.415	2.651	1.895	1.895	1.890	1.909	1.904	1.895
0.000	0.000	-0.005	0.000	0.000	0.005	0.420	2.729	1.895	1.895	1.890	1.909	1.904	1.904
-0.005	-0.005	0.005	0.000	0.000	-0.015	0.425	2.671	1.890	1.895	1.895	1.909	1.904	1.899
0.000	0.000	0.000	0.000	0.005	0.020	0.425	2.666	1.890	1.890	1.890	1.909	1.904	1.909
-0.005	0.000	0.000	0.005	0.000	-0.005	0.415	2.651	1.880	1.885	1.885	1.904	1.899	1.895
0.005	-0.005	0.005	0.000	0.000	0.010	0.425	2.671	1.880	1.885	1.885	1.904	1.904	1.904
-0.005	-0.005	0.000	-0.005	0.005	-0.005	0.420	2.744	1.890	1.880	1.885	1.904	1.899	1.899
0.000	0.010	0.005	0.005	0.005	0.015	0.420	2.686	1.890	1.885	1.885	1.904	1.899	1.899
-0.005	0.005	0.005	0.000	0.000	0.005	0.425	2.651	1.885	1.885	1.880	1.904	1.899	1.899
0.005	0.034	0.000	0.000	0.005	0.005	0.420	2.739	1.895	1.895	1.890	1.904	1.899	1.899
0.010	0.029	-0.005	0.000	0.005	0.005	0.425	2.651	1.885	1.890	1.885	1.904	1.899	1.899
0.000	0.020	0.000	0.000	0.010	-0.005	0.420	2.661	1.899	1.890	1.885	1.904	1.899	1.899
-0.010	0.000	-0.005	0.000	0.005	-0.010	0.420	2.725	1.895	1.890	1.890	1.909	1.899	1.899
0.005	0.000	-0.005	0.000	-0.005	-0.005	0.415	2.705	1.899	1.890	1.890	1.904	1.899	1.899
0.000	0.005	-0.005	0.000	0.000	0.005	0.420	2.690	1.895	1.890	1.890	1.909	1.904	1.904
-0.005	-0.010	0.005	-0.005	0.000	0.010	0.415	2.705	1.895	1.890	1.890	1.909	1.904	1.904
0.000	0.005	0.005	0.000	0.000	0.010	0.420	2.686	1.895	1.899	1.890	1.909	1.904	1.904
-0.005	0.000	0.000	0.000	0.000	0.010	0.420	2.705	1.895	1.890	1.890	1.909	1.904	1.904
0.005	0.005	0.005	0.000	0.000	-0.010	0.430	2.690	1.895	1.895	1.890	1.909	1.899	1.895
0.000	-0.015	0.005	0.005	0.000	0.010	0.425	2.686	1.885	1.885	1.890	1.909	1.904	1.904
-0.005	-0.010	0.005	0.005	0.000	0.010	0.430	2.705	1.890	1.885	1.890	1.909	1.904	1.899
-0.005	-0.010	0.005	0.005	0.005	0.005	0.415	2.690	1.890	1.885	1.885	1.904	1.904	1.899
0.005	-0.005	0.005	0.005	0.000	0.010	0.420	2.676	1.885	1.885	1.885	1.899	1.899	1.899
0.005	-0.005	0.005	0.000	0.005	0.010	0.415	2.681	1.885	1.880	1.880	1.899	1.895	1.899
0.000	-0.005	0.000	0.000	0.000	0.010	0.425	2.710	1.885	1.880	1.880	1.899	1.899	1.895
-0.005	-0.005	0.005	0.000	0.005	0.000	0.420	2.686	1.890	1.885	1.880	1.899	1.899	1.895
0.000	0.005	0.000	0.000	0.000	0.010	0.430	2.690	1.890	1.885	1.885	1.899	1.895	1.899
0.000	0.005	0.005	0.000	0.000	0.000	0.420	2.705	1.890	1.885	1.885	1.899	1.895	1.895
0.005	0.005	-0.005	0.005	0.000	-0.005	0.425	2.686	1.895	1.890	1.885	1.904	1.899	1.899
-0.005	0.005	0.005	0.005	0.010	0.005	0.425	2.700	1.890	1.890	1.890	1.909	1.904	1.899
0.005	0.015	0.000	0.000	0.000	-0.005	0.430	2.695	1.899	1.895	1.890	1.904	1.899	1.895
0.000	0.020	0.000	0.005	0.000	0.000	0.420	2.705	1.890	1.895	1.890	1.909	1.904	1.899
0.005	0.000	0.000	0.000	0.000	-0.005	0.425	2.695	1.895	1.890	1.895	1.909	1.899	1.899
0.015	0.015	0.000	0.000	0.000	0.000	0.415	2.695	1.895	1.895	1.895	1.909	1.904	1.899
-0.005	0.005	0.000	0.005	0.005	0.005	0.425	2.686	1.890	1.890	1.890	1.909	1.904	1.904
0.005	0.005	0.000	0.000	0.010	0.000	0.420	2.700	1.890	1.890	1.890	1.904	1.899	1.895
-0.005	0.005	0.000	0.000	0.000	0.015	0.425	2.812	1.899	1.890	1.890	1.904	1.899	1.904
-0.010	0.005	0.000	-0.005	0.000	0.015	0.420	2.671	1.890	1.885	1.885	1.904	1.899	1.904
0.000	0.000	0.000	0.000	0.000	0.005	0.420	2.646	1.885	1.885	1.885	1.904	1.899	1.899
0.000	0.005	0.000	0.000	0.005	0.000	0.420	2.656	1.880	1.885	1.880	1.904	1.899	1.895
0.000	0.005	0.000	0.000	0.000	0.005	0.430	2.656	1.880	1.885	1.880	1.899	1.895	1.899
0.005	0.010	-0.005	0.005	0.000	0.005	0.425	2.744	1.885	1.880	1.880	1.899	1.895	1.895
0.005	0.000	0.005	0.000	0.000	0.005	0.420	2.715	1.885	1.880	1.880	1.899	1.899	1.895
0.000	-0.010	0.005	0.000	-0.005	0.005	0.425	2.686	1.885	1.880	1.880	1.899	1.895	1.890
0.015	-0.005	0.000	0.005	-0.010	0.005	0.420	2.661	1.880	1.885	1.880	1.899	1.895	1.895
0.010	-0.005	0.000	0.000	-0.005	-0.029	0.420	2.671	1.880	1.885	1.885	1.899	1.895	1.890
0.010	0.000	0.000	0.005	-0.005	0.005	0.420	2.744	1.895	1.890	1.890	1.904	1.899	1.899
0.005	0.010	0.005	0.005	-0.005	0.010	0.425	2.710	1.899	1.890	1.885	1.904	1.899	1.899
-0.005	0.000	0.000	0.000	0.000	0.005	0.415	2.729	1.895	1.890	1.885	1.909	1.904	1.899
0.005	-0.005	0.000	0.000	0.005	0.000	0.425	2.729	1.899	1.890	1.890	1.904	1.904	1.899
0.000	0.000	0.005	0.005	0.015	0.010	0.420	2.646	1.890	1.890	1.890	1.909	1.904	1.904
-0.005	-0.005	0.000	0.000	0.010	0.005	0.420	2.754	1.899	1.890	1.885	1.904	1.904	1.899
0.005	0.000	0.000	0.000	0.015	0.005	0.420	2.744	1.899	1.890	1.885	1.904	1.899	1.899
0.000	0.005	-0.005	0.005	0.005	-0.005	0.430	2.700	1.890	1.890	1.885	1.904	1.899	1.895
0.000	-0.005	0.000	-0.005	0.010	0.005	0.420	2.676	1.885	1.885	1.885	1.904	1.899	1.899
0.005	0.010	0.005	0.000	0.005	0.015	0.425	2.681	1.890	1.890	1.885	1.904	1.899	1.899
0.000	0.005	0.000	0.005	-0.005	-0.010	0.420	2.690	1.885	1.885	1.885	1.899	1.895	1.885
0.010	0.000	0.005	0.005	-0.005	0.010	0.425	2.686	1.880	1.885	1.885	1.899	1.895	1.899
0.005	0.010	-0.005	0.005	0.000	0.005	0.420	2.681	1.880	1.885	1.885	1.899	1.895	1.895
0.000	0.005	0.005	-0.005	0.000	0.005	0.420	2.710	1.885	1.880	1.880	1.899	1.895	1.895
0.000	0.010	0.005	0.000	0.005	0.000	0.420	2.686	1.890	1.885	1.885	1.899	1.899	1.895
0.010	0.005	0.000	0.005	0.000	0.005	0.425	2.690	1.890	1.885	1.885	1.904	1.899	1.899
0.005	0.010	0.000	0.000	0.000	-0.005	0.425	2.695	1.890	1.890	1.885	1.904	1.899	1.890
0.000	-0.010	0.000	0.000	0.000	0.015	0.430	2.690	1.890	1.885	1.885	1.904	1.899	1.904
0.005	0.005	0.005	0.005	-0.005	-0.005	0.430	2.700	1.895	1.890	1.890	1.904	1.899	1.895
0.005	0.000	0.005	0.000	0.000	0.015	0.420	2.686	1.895	1.890	1.890	1.909	1.904	1.899
0.005	0.000	0.000	0.000	0.000	0.015	0.420	2.681	1.890	1.890	1.885	1.904	1.904	1.904
0.005	-0.005	0.000	0.000	-0.005	0.000	0.415	2.690	1.890	1.885	1.885	1.904	1.899	1.899
-0.005	0.005	0.000	-0.005	0.005	0.005	0.420	2.705	1.890	1.890	1.885	1.904	1.899	1.895
0.000	-0.005	0.005	0.000	0.000	-0.005	0.425	2.705	1.890	1.885	1.880	1.904	1.899	1.890
-0.005	-0.005	0.000	0.000	0.005	-0.005	0.420	2.690	1.885	1.885	1.880	1.899	1.899	1.895
-0.005	0.000	0.005	0.005	0.010	-0.029	0.420	2.705	1.885	1.880	1.880	1.899	1.895	1.890
0.005	-0.005	0.005	-0.005	0.005	-0.010	0.425	2.695	1.890	1.880	1.880	1.899	1.895	1.895
-0.005	0.020	0.005	0.005	0.005	0.015	0.420	2.686	1.885	1.890	1.880	1.899	1.895	1.899
-0.010	0.020	0.000	0.005	0.010	0.005	0.425	2.705	1.885	1.885	1.885	1.899	1.895	1.899
0.005	0.005	-0.005	0.005	0.000	0.010	0.420	2.700	1.890	1.880	1.880	1.904	1.895	1.895
0.000	-0.010	-0.005	0.000	0.000	0.005	0.425	2.656	1.895	1.880	1.880	1.899	1.895	1.895
0.005	0.010	0.000	0.005	0.005	0.010	0.420	2.671	1.895	1.890	1.885	1.899	1.895	1.895
0.000	0.005	0.000	0.005	0.000	0.015	0.425	2.651	1.890	1.890	1.885	1.899	1.895	1.895
0.000	0.000	-0.005	0.000	0.000	0.010	0.415	2.666	1.890	1.885	1.885	1.899	1.899	1.899
0.000	0.010	0.000	0.005	0.000	0.015	0.425	2.666	1.885	1.890	1.885	1.904	1.895	1.899
-0.005	0.005	0.005	0.005	-0.005	0.015	0.415	2.744	1.880	1.885	1.885	1.904	1.899	1.899
-0.005	-0.010	0.000	0.000	0.000	-0.015	0.425	2.646	1.880	1.880	1.885	1.904	1.899	1.895
0.000	0.010	-0.005	0.000	0.005	-0.005	0.420	2.686	1.885	1.890	1.885	1.904	1.899	1.899
-0.010	0.005	0.000	0.010	0.000	-0.005	0.420	2.646	1.880	1.880	1.885	1.904	1.899	1.899
0.010	0.005	0.000	0.005	0.005	-0.005	0.425	2.686	1.880	1.880	1.880	1.899	1.899	1.895
0.000	-0.005	-0.005	-0.005	0.000	-0.020	0.430	2.729	1.885	1.875	1.880	1.895	1.895	1.890
-0.005	0.000	0.000	0.000	0.005	-0.005	0.420	2.686	1.885	1.875	1.880	1.895	1.895	1.895
0.005	0.005	0.005	0.000	0.010	-0.010	0.425	2.749	1.890	1.885	1.880	1.899	1.895	1.899
0.010	0.005	0.005	0.000	0.010	0.005	0.420	2.734	1.890	1.885	1.875	1.899	1.895	1.895
0.000	0.010	0.000	0.000	0.005	-0.005	0.430	2.651	1.880	1.880	1.875	1.895	1.890	1.890
0.000	0.000	0.000	0.005	0.000	0.005	0.420	2.651	1.880	1.880	1.875	1.895	1.890	1.899
0.005	0.000	0.005	0.005	0.000	0.015	0.425	2.729	1.890	1.880	1.875	1.895	1.890	1.895
0.005	0.005	0.000	0.000	0.010	0.015	0.420	2.690	1.885	1.880	1.880	1.895	1.890	1.895
-0.005	0.000	-0.005	0.000	0.005	0.005	0.425	2.695	1.885	1.880	1.880	1.899	1.890	1.890
0.000	0.005	0.000	0.005	0.000	0.005	0.430	2.705	1.895	1.885	1.885	1.899	1.895	1.890
0.005	0.010	0.005	0.005	-0.005	-0.005	0.425	2.710	1.899	1.890	1.890	1.904	1.895	1.890
0.005	0.005	0.000	0.005	-0.010	-0.010	0.425	2.710	1.895	1.890	1.890	1.904	1.895	1.890
0.000	0.000	0.000	0.000	-0.005	-0.015	0.425	2.705	1.890	1.890	1.890	1.904	1.899	1.895
0.000	0.010	0.000	0.000	-0.005	-0.015	0.420	2.705	1.895	1.895	1.890	1.904	1.895	1.890
-0.005	0.015	0.000	0.000	0.000	-0.010	0.425	2.705	1.890	1.890	1.890	1.904	1.899	1.895
-0.005	0.000	0.000	0.000	0.000	-0.010	0.420	2.686	1.890	1.885	1.890	1.904	1.899	1.895
-0.010	0.000	0.005	0.005	0.015	-0.005	0.430	2.686	1.880	1.885	1.885	1.909	1.904	1.899
0.005	0.005	0.010	0.005	0.010	-0.005	0.420	2.705	1.885	1.880	1.885	1.904	1.899	1.899
-0.005	0.000	0.000	0.000	0.010	0.000	0.425	2.690	1.880	1.880	1.880	1.899	1.895	1.895
-0.010	0.000	0.000	0.000	0.005	0.010	0.420	2.695	1.880	1.875	1.880	1.899	1.895	1.899
0.000	0.005	0.000	0.000	-0.005	0.005	0.425	2.690	1.880	1.875	1.875	1.895	1.890	1.895
0.005	0.005	0.000	0.000	0.000	0.005	0.425	2.686	1.885	1.880	1.875	1.895	1.890	1.895
-0.005	0.005	0.005	0.000	0.000	0.020	0.420	2.690	1.885	1.880	1.880	1.899	1.895	1.899
0.000	-0.005	0.005	0.000	0.000	0.015	0.420	2.695	1.885	1.875	1.875	1.895	1.890	1.895
0.005	-0.015	0.000	0.000	-0.005	0.029	0.415	2.700	1.890	1.880	1.875	1.895	1.895	1.895
0.005	0.005	0.000	0.005	0.000	0.010	0.435	2.710	1.890	1.890	1.880	1.895	1.895	1.890
0.000	0.010	-0.005	0.000	0.000	0.010	0.415	2.690	1.890	1.890	1.880	1.899	1.895	1.895
0.005	0.005	0.000	-0.005	0.005	-0.015	0.425	2.695	1.895	1.890	1.885	1.899	1.899	1.890
0.000	0.005	0.005	0.000	0.005	0.000	0.415	2.681	1.890	1.890	1.885	1.904	1.895	1.895
-0.005	0.000	0.000	0.000	0.000	-0.015	0.430	2.700	1.890	1.890	1.890	1.904	1.895	1.895
0.000	0.005	0.000	0.010	0.005	0.000	0.425	2.803	1.904	1.895	1.890	1.909	1.904	1.899
-0.005	0.005	0.000	0.000	0.005	0.000	0.425	2.671	1.895	1.890	1.885	1.904	1.895	1.895
-0.005	0.000	0.000	0.000	0.000	0.010	0.425	2.646	1.885	1.885	1.885	1.904	1.899	1.899
-0.005	0.010	0.000	0.005	0.005	0.005	0.425	2.656	1.880	1.885	1.885	1.904	1.899	1.895
0.000	-0.005	0.000	-0.005	0.005	0.005	0.420	2.656	1.880	1.875	1.880	1.899	1.899	1.895
0.005	0.000	0.005	0.000	-0.005	0.005	0.425	2.734	1.885	1.880	1.880	1.899	1.895	1.895
0.010	0.000	0.000	0.005	0.000	-0.005	0.420	2.705	1.880	1.880	1.875	1.899	1.895	1.890
0.005	0.010	0.000	0.010	0.000	-0.010	0.420	2.666	1.875	1.880	1.875	1.899	1.895	1.890
0.005	0.005	-0.005	0.000	0.005	-0.010	0.430	2.666	1.875	1.880	1.880	1.899	1.895	1.890
0.005	0.005	-0.005	0.005	0.000	0.015	0.420	2.676	1.875	1.875	1.880	1.895	1.895	1.899
0.000	0.005	0.010	0.000	0.000	0.015	0.420	2.749	1.885	1.875	1.880	1.895	1.895	1.895
0.010	0.000	0.005	0.005	0.000	0.010	0.425	2.710	1.895	1.880	1.880	1.899	1.895	1.895
0.005	-0.005	0.005	0.000	-0.005	0.020	0.425	2.642	1.880	1.880	1.880	1.899	1.895	1.899
0.010	-0.005	0.000	0.010	0.000	0.010	0.420	2.744	1.895	1.885	1.880	1.899	1.895	1.895
0.005	0.000	-0.005	0.005	-0.005	0.010	0.425	2.661	1.890	1.885	1.880	1.899	1.895	1.895
0.000	0.010	0.000	0.000	-0.005	0.010	0.410	2.651	1.885	1.885	1.885	1.899	1.895	1.895
0.005	0.005	0.005	0.005	0.000	0.005	0.430	2.754	1.895	1.890	1.890	1.904	1.899	1.895
0.005	0.000	0.000	0.005	0.000	-0.005	0.420	2.705	1.895	1.885	1.890	1.899	1.895	1.890
0.000	0.005	0.000	0.005	0.005	0.000	0.430	2.681	1.890	1.885	1.885	1.899	1.895	1.895
-0.005	0.000	0.000	0.000	0.000	0.000	0.415	2.686	1.885	1.885	1.885	1.904	1.895	1.895
-0.005	0.010	0.000	0.000	-0.005	-0.005	0.425	2.690	1.885	1.880	1.885	1.899	1.895	1.890
-0.005	0.010	-0.005	0.005	0.000	-0.005	0.415	2.710	1.875	1.880	1.880	1.899	1.895	1.895
0.010	0.000	-0.005	0.005	0.010	-0.005	0.425	2.686	1.880	1.875	1.880	1.899	1.895	1.895
-0.005	0.005	0.005	0.000	0.010	-0.005	0.410	2.695	1.875	1.875	1.880	1.895	1.890	1.890
0.005	0.010	0.000	0.005	0.005	0.005	0.435	2.705	1.885	1.875	1.875	1.895	1.890	1.895
0.000	0.005	0.000	0.005	0.000	-0.020	0.410	2.690	1.880	1.875	1.875	1.890	1.890	1.890
0.005	0.000	0.000	0.000	0.000	0.015	0.430	2.686	1.880	1.880	1.880	1.895	1.890	1.895
0.005	0.010	0.005	0.000	0.000	0.015	0.415	2.690	1.890	1.885	1.880	1.895	1.890	1.895
0.005	0.010	0.000	0.000	0.005	0.015	0.430	2.700	1.890	1.885	1.880	1.899	1.895	1.895
0.020	0.000	0.000	0.000	0.005	-0.020	0.420	2.695	1.890	1.885	1.880	1.899	1.895	1.885
-0.005	0.005	0.005	0.000	0.005	-0.010	0.425	2.690	1.885	1.885	1.885	1.899	1.895	1.890
0.005	-0.005	0.000	0.000	0.000	0.000	0.420	2.690	1.895	1.885	1.880	1.899	1.895	1.895
0.000	0.005	0.000	0.000	0.005	0.005	0.425	2.690	1.890	1.890	1.885	1.904	1.895	1.895
0.000	-0.005	0.000	0.000	0.005	0.015	0.420	2.700	1.890	1.885	1.880	1.904	1.899	1.895
0.000	0.000	0.000	0.000	0.005	0.005	0.420	2.686	1.890	1.885	1.885	1.904	1.899	1.895
0.000	-0.005	0.010	0.000	0.005	0.010	0.425	2.710	1.890	1.880	1.880	1.899	1.899	1.895
0.005	-0.005	0.005	-0.005	0.005	0.005	0.420	2.715	1.890	1.885	1.880	1.904	1.895	1.895
0.015	0.000	0.005	0.000	0.005	-0.010	0.425	2.705	1.890	1.885	1.880	1.899	1.895	1.885
0.005	-0.005	0.000	0.000	0.005	-0.005	0.415	2.705	1.885	1.880	1.880	1.899	1.895	1.895
-0.005	0.000	0.005	0.005	0.000	0.010	0.425	2.705	1.885	1.880	1.880	1.899	1.890	1.895
0.005	0.000	0.000	0.000	0.005	0.005	0.420	2.808	1.899	1.885	1.880	1.895	1.890	1.895
0.000	-0.005	0.000	0.000	0.000	-0.024	0.425	2.666	1.885	1.885	1.880	1.895	1.890	1.885
-0.005	0.005	0.000	0.005	0.005	0.010	0.415	2.651	1.875	1.890	1.880	1.899	1.890	1.890
0.000	0.010	0.000	0.005	0.005	0.010	0.420	2.651	1.875	1.880	1.880	1.895	1.890	1.895
0.000	0.010	0.000	0.000	0.000	-0.005	0.425	2.749	1.885	1.885	1.880	1.899	1.895	1.890
0.000	0.005	0.000	0.000	0.005	-0.020	0.430	2.739	1.895	1.885	1.885	1.899	1.895	1.890
0.005	0.005	0.005	0.005	0.000	-0.005	0.415	2.646	1.885	1.885	1.885	1.899	1.895	1.890
0.005	0.005	0.000	0.005	0.000	0.000	0.415	2.681	1.880	1.885	1.885	1.904	1.895	1.895
0.010	-0.005	0.000	0.000	0.005	0.015	0.425	2.744	1.890	1.885	1.885	1.899	1.904	1.904
0.005	0.000	0.005	0.005	0.005	0.000	0.425	2.681	1.890	1.890	1.885	1.904	1.899	1.899
0.005	0.024	0.000	0.005	0.000	0.000	0.425	2.642	1.890	1.895	1.890	1.904	1.899	1.899
0.015	0.020	0.000	0.000	0.000	0.015	0.425	2.700	1.890	1.890	1.890	1.904	1.899	1.899
0.005	0.000	0.000	0.005	0.000	0.000	0.420	2.725	1.890	1.880	1.880	1.904	1.895	1.890
-0.005	0.000	-0.005	0.000	0.000	-0.024	0.420	2.720	1.890	1.880	1.885	1.899	1.899	1.890
-0.005	0.000	0.005	0.005	0.000	0.010	0.425	2.744	1.875	1.880	1.880	1.899	1.899	1.895
-0.005	0.000	0.000	0.005	0.010	-0.010	0.430	2.749	1.885	1.875	1.880	1.899	1.899	1.895
0.000	-0.005	0.005	0.000	0.010	0.005	0.420	2.739	1.885	1.875	1.880	1.895	1.895	1.895
-0.005	-0.005	0.000	0.000	0.010	0.000	0.425	2.705	1.885	1.875	1.875	1.895	1.895	1.895
0.005	0.000	0.005	0.000	0.000	-0.015	0.425	2.686	1.890	1.880	1.875	1.895	1.890	1.890
0.000	0.000	0.000	0.000	0.000	0.015	0.420	2.690	1.885	1.880	1.875	1.895	1.890	1.895
0.005	0.010	-0.005	0.000	-0.005	-0.015	0.420	2.690	1.885	1.890	1.880	1.895	1.890	1.890
0.000	0.010	-0.005	0.005	0.000	0.000	0.430	2.715	1.895	1.890	1.880	1.899	1.890	1.890
-0.005	-0.005	0.000	0.000	0.005	0.015	0.425	2.695	1.890	1.885	1.885	1.899	1.895	1.899
0.005	0.000	0.005	0.005	0.000	0.000	0.425	2.695	1.890	1.885	1.885	1.899	1.895	1.890
0.000	0.005	0.000	0.010	0.000	-0.015	0.420	2.686	1.890	1.890	1.890	1.904	1.895	1.890
0.000	0.010	0.000	0.000	0.000	0.015	0.425	2.695	1.895	1.895	1.890	1.904	1.899	1.899
0.000	0.000	0.000	0.005	0.005	-0.010	0.420	2.690	1.890	1.885	1.885	1.904	1.899	1.895
-0.015	0.010	-0.005	0.000	0.000	-0.005	0.415	2.686	1.890	1.885	1.885	1.904	1.895	1.895
-0.005	0.010	0.000	0.005	0.000	0.000	0.420	2.690	1.890	1.885	1.890	1.904	1.899	1.895
0.005	-0.005	0.005	0.005	0.005	-0.010	0.415	2.686	1.890	1.880	1.885	1.904	1.899	1.895
0.000	-0.005	0.005	0.005	0.000	0.015	0.420	2.681	1.885	1.880	1.880	1.904	1.895	1.899
0.000	-0.005	0.005	0.000	0.005	0.000	0.420	2.681	1.885	1.880	1.880	1.899	1.895	1.899
0.000	0.000	0.000	0.000	0.005	0.000	0.425	2.710	1.890	1.880	1.875	1.899	1.890	1.890
0.005	0.000	0.000	0.000	0.000	0.015	0.420	2.700	1.885	1.880	1.875	1.895	1.895	1.899
0.000	0.000	-0.005	0.000	0.005	0.010	0.420	2.695	1.875	1.880	1.875	1.895	1.890	1.895
-0.010	0.000	0.005	0.000	0.000	0.010	0.425	2.705	1.885	1.875	1.880	1.899	1.895	1.895
0.010	0.000	0.000	0.000	0.005	0.000	0.425	2.695	1.885	1.880	1.880	1.895	1.890	1.885
0.005	0.020	0.000	0.000	0.000	0.005	0.420	2.720	1.890	1.890	1.880	1.899	1.895	1.890
-0.005	-0.010	0.000	0.005	-0.005	0.005	0.430	2.690	1.885	1.875	1.880	1.899	1.890	1.890
-0.010	-0.005	0.005	0.005	0.000	-0.015	0.425	2.705	1.890	1.885	1.880	1.899	1.895	1.885
0.000	-0.005	0.000	0.010	-0.005	0.015	0.420	2.812	1.904	1.885	1.880	1.899	1.895	1.899
0.000	-0.005	0.005	0.000	0.005	0.015	0.420	2.666	1.895	1.890	1.885	1.899	1.899	1.899
0.000	0.000	0.005	0.005	0.005	-0.015	0.425	2.646	1.890	1.890	1.885	1.899	1.899	1.890
0.015	0.010	0.000	0.000	-0.005	-0.010	0.420	2.671	1.890	1.895	1.890	1.904	1.895	1.895
0.005	0.000	0.005	0.005	-0.005	0.015	0.420	2.734	1.890	1.895	1.890	1.904	1.899	1.899
-0.005	0.010	0.005	0.000	0.005	0.015	0.425	2.642	1.890	1.890	1.890	1.904	1.899	1.899
0.010	0.015	0.005	0.000	0.005	0.015	0.420	2.729	1.895	1.890	1.885	1.904	1.899	1.899
0.005	0.000	0.000	0.005	0.005	0.005	0.415	2.671	1.890	1.885	1.885	1.904	1.899	1.895
-0.005	0.000	0.005	0.000	0.010	0.005	0.430	2.739	1.890	1.885	1.885	1.904	1.899	1.895
-0.005	-0.005	0.005	0.005	0.005	-0.029	0.420	2.681	1.885	1.880	1.880	1.899	1.895	1.885
0.010	0.000	0.005	0.000	0.000	0.000	0.420	2.734	1.890	1.885	1.880	1.899	1.895	1.895
0.010	0.005	0.000	0.000	0.010	0.010	0.420	2.686	1.885	1.885	1.885	1.899	1.899	1.895
-0.005	0.000	0.000	0.000	0.005	-0.010	0.420	2.729	1.890	1.880	1.880	1.899	1.895	1.890
0.000	0.005	0.000	0.005	0.000	-0.010	0.420	2.729	1.895	1.890	1.885	1.899	1.895	1.895
0.010	0.000	0.000	0.005	0.005	-0.029	0.430	2.651	1.890	1.890	1.885	1.899	1.899	1.890
0.000	0.005	0.000	0.000	0.000	0.005	0.425	2.754	1.899	1.890	1.885	1.904	1.895	1.899
0.000	0.000	0.000	0.000	0.000	0.005	0.425	2.749	1.899	1.890	1.885	1.904	1.895	1.899
0.005	-0.005	0.000	0.000	-0.005	-0.015	0.420	2.700	1.899	1.899	1.890	1.904	1.899	1.890
0.000	0.005	0.005	0.000	0.005	0.000	0.415	2.686	1.895	1.895	1.895	1.909	1.899	1.899
0.000	-0.005	0.010	0.000	0.005	-0.020	0.420	2.700	1.895	1.890	1.890	1.909	1.899	1.895
0.005	0.005	0.005	0.005	-0.005	-0.020	0.415	2.686	1.895	1.899	1.890	1.909	1.899	1.895
0.005	0.015	0.005	0.000	0.000	0.000	0.435	2.705	1.890	1.895	1.890	1.909	1.904	1.904
0.000	-0.005	0.000	0.000	0.005	0.010	0.425	2.681	1.890	1.890	1.890	1.909	1.904	1.904
0.000	0.000	0.005	0.000	0.005	0.005	0.425	2.700	1.890	1.890	1.890	1.904	1.904	1.899
0.000	0.005	0.000	0.000	0.015	0.005	0.415	2.681	1.885	1.885	1.885	1.909	1.904	1.904
0.005	0.000	0.000	0.000	0.020	-0.005	0.420	2.695	1.885	1.880	1.885	1.904	1.899	1.895
-0.005	0.000	0.000	0.000	0.000	0.005	0.420	2.681	1.875	1.875	1.880	1.899	1.899	1.899
-0.005	-0.005	0.000	0.005	0.005	-0.005	0.430	2.681	1.880	1.880	1.880	1.899	1.895	1.895
-0.005	0.005	0.005	0.000	0.000	0.010	0.425	2.690	1.880	1.880	1.880	1.899	1.895	1.899
0.005	0.005	0.000	0.005	-0.005	0.024	0.430	2.676	1.890	1.885	1.880	1.899	1.895	1.899
0.000	0.000	-0.005	0.005	0.005	0.000	0.420	2.686	1.885	1.880	1.880	1.899	1.895	1.895
0.000	0.005	0.000	0.000	0.000	0.020	0.430	2.695	1.885	1.880	1.880	1.899	1.895	1.899
0.000	0.000	0.005	0.000	-0.005	0.024	0.420	2.710	1.890	1.885	1.885	1.904	1.895	1.895
0.000	-0.005	0.000	0.005	0.000	0.020	0.425	2.700	1.890	1.885	1.885	1.899	1.899	1.899
0.005	0.000	0.005	0.005	-0.010	0.015	0.420	2.690	1.890	1.890	1.885	1.904	1.895	1.895
-0.005	0.005	0.000	0.005	-0.005	-0.005	0.425	2.705	1.890	1.890	1.885	1.899	1.899	1.890
-0.010	0.005	0.005	0.005	-0.010	0.005	0.425	2.690	1.895	1.890	1.890	1.904	1.899	1.899
0.000	0.005	0.005	0.005	-0.005	-0.005	0.430	2.705	1.895	1.890	1.890	1.904	1.904	1.895
-0.005	0.005	0.000	0.005	0.005	0.000	0.425	2.686	1.890	1.885	1.885	1.904	1.899	1.895
-0.005	0.000	0.000	-0.005	0.000	0.000	0.420	2.700	1.890	1.885	1.885	1.904	1.899	1.895
0.000	-0.005	0.005	0.000	0.005	-0.020	0.420	2.808	1.904	1.885	1.885	1.904	1.899	1.890
-0.005	-0.005	0.000	0.005	0.010	0.005	0.420	2.661	1.890	1.885	1.885	1.899	1.899	1.899
0.000	0.000	0.005	0.000	0.005	-0.005	0.420	2.651	1.880	1.885	1.880	1.899	1.895	1.895
0.005	0.015	-0.005	0.000	0.005	-0.020	0.415	2.666	1.885	1.885	1.880	1.899	1.895	1.885
-0.005	0.015	0.000	0.000	0.010	-0.020	0.425	2.749	1.885	1.880	1.880	1.899	1.895	1.890
0.005	0.000	0.010	0.005	0.000	0.000	0.420	2.725	1.890	1.880	1.880	1.895	1.895	1.895
0.005	-0.005	0.005	0.000	0.000	-0.005	0.430	2.651	1.885	1.880	1.880	1.899	1.899	1.895
0.005	0.000	0.005	0.000	0.010	-0.005	0.425	2.686	1.885	1.885	1.885	1.899	1.899	1.895
-0.005	0.005	0.000	0.005	0.005	-0.020	0.420	2.749	1.890	1.890	1.880	1.899	1.895	1.895
0.005	0.000	0.000	0.000	0.000	0.005	0.415	2.686	1.895	1.890	1.885	1.899	1.895	1.899
0.010	0.000	0.000	0.000	0.000	0.010	0.420	2.646	1.890	1.890	1.890	1.899	1.899	1.904
0.005	-0.005	-0.005	0.000	0.000	0.015	0.425	2.705	1.890	1.885	1.885	1.904	1.899	1.904
0.000	0.000	0.000	0.000	0.005	0.005	0.415	2.642	1.885	1.890	1.890	1.904	1.899	1.895
0.005	-0.020	0.005	0.000	0.005	0.010	0.420	2.729	1.895	1.885	1.890	1.904	1.899	1.899
0.010	0.000	0.000	0.010	0.005	0.010	0.430	2.749	1.899	1.895	1.890	1.909	1.904	1.899
0.005	0.010	0.005	0.000	0.005	0.005	0.415	2.656	1.890	1.890	1.890	1.904	1.895	1.899
0.000	0.015	0.000	0.005	0.010	0.000	0.425	2.729	1.890	1.890	1.890	1.904	1.899	1.895
0.000	0.020	0.000	0.005	0.000	0.000	0.420	2.690	1.890	1.890	1.885	1.904	1.899	1.895
0.005	-0.005	0.000	0.000	-0.005	0.015	0.425	2.686	1.890	1.880	1.885	1.904	1.895	1.899
0.000	-0.005	0.000	0.000	-0.005	0.005	0.425	2.715	1.890	1.885	1.880	1.899	1.895	1.895
0.000	-0.005	-0.005	0.005	0.000	-0.005	0.425	2.695	1.880	1.880	1.880	1.899	1.890	1.890
-0.005	-0.005	0.000	0.005	0.005	-0.005	0.420	2.695	1.880	1.880	1.880	1.899	1.895	1.895
0.000	-0.010	0.005	0.005	0.005	0.005	0.420	2.695	1.885	1.880	1.880	1.899	1.899	1.895
0.000	-0.010	0.000	0.005	0.005	-0.010	0.425	2.705	1.890	1.880	1.880	1.899	1.895	1.890
0.000	-0.005	0.000	0.000	0.000	0.010	0.425	2.686	1.885	1.880	1.880	1.899	1.895	1.895
0.000	-0.005	0.005	0.000	0.000	0.005	0.425	2.695	1.895	1.885	1.885	1.899	1.895	1.895
0.005	0.015	0.000	0.005	-0.005	-0.020	0.430	2.676	1.890	1.895	1.885	1.899	1.895	1.890
0.005	0.024	0.000	0.005	0.005	0.010	0.430	2.686	1.890	1.895	1.890	1.904	1.899	1.904
0.005	0.000	0.000	0.005	0.005	0.000	0.425	2.686	1.890	1.885	1.890	1.904	1.899	1.899
0.000	-0.005	0.005	0.000	0.000	0.005	0.425	2.690	1.890	1.890	1.890	1.904	1.899	1.899
0.000	-0.005	0.000	0.000	0.000	0.010	0.425	2.686	1.890	1.885	1.885	1.904	1.899	1.899
0.000	0.000	0.000	0.000	0.000	0.015	0.430	2.690	1.895	1.885	1.890	1.904	1.899	1.899
0.000	0.000	0.005	0.005	-0.005	0.015	0.415	2.700	1.890	1.885	1.885	1.904	1.899	1.899
0.005	0.000	0.005	0.005	0.005	0.015	0.420	2.690	1.890	1.890	1.885	1.904	1.899	1.899
0.000	0.005	0.000	0.000	0.005	0.010	0.415	2.681	1.885	1.885	1.885	1.904	1.899	1.899
0.000	0.010	0.005	0.000	0.000	0.005	0.415	2.700	1.890	1.885	1.885	1.904	1.895	1.890
0.000	0.005	0.005	0.000	0.000	-0.005	0.410	2.695	1.885	1.885	1.880	1.899	1.895	1.890
0.005	0.000	0.010	0.000	0.000	-0.005	0.420	2.695	1.885	1.880	1.880	1.899	1.895	1.890
0.000	0.000	0.005	0.005	0.005	0.000	0.410	2.690	1.885	1.880	1.880	1.899	1.895	1.895
-0.005	-0.005	0.005	0.000	0.000	0.005	0.425	2.690	1.885	1.880	1.875	1.895	1.895	1.890
0.005	0.005	0.000	0.005	0.000	0.000	0.420	2.822	1.904	1.890	1.880	1.895	1.895	1.895
0.005	0.010	0.000	0.000	-0.005	0.005	0.420	2.651	1.895	1.890	1.880	1.899	1.895	1.895
0.000	0.010	0.000	0.000	-0.005	0.000	0.415	2.651	1.890	1.890	1.885	1.899	1.895	1.895
0.005	0.020	0.000	0.000	0.000	-0.024	0.425	2.661	1.885	1.895	1.890	1.904	1.895	1.885
0.005	0.000	0.000	0.000	-0.005	0.005	0.415	2.661	1.880	1.885	1.885	1.904	1.899	1.899
0.010	0.000	0.000	0.000	0.000	0.005	0.420	2.661	1.890	1.885	1.890	1.904	1.899	1.899
0.005	0.010	-0.005	0.005	0.005	0.000	0.420	2.744	1.895	1.890	1.890	1.904	1.904	1.899
0.000	0.005	0.000	0.000	0.000	0.005	0.425	2.671	1.895	1.890	1.885	1.904	1.899	1.895
0.000	0.000	0.000	0.000	0.000	0.020	0.420	2.666	1.885	1.885	1.885	1.904	1.899	1.904
0.000	0.010	0.005	0.000	0.005	0.015	0.420	2.681	1.885	1.890	1.890	1.904	1.899	1.904
-0.005	0.000	0.000	-0.005	0.000	0.015	0.415	2.754	1.890	1.880	1.880	1.899	1.899	1.899
0.005	0.000	0.005	0.000	0.000	0.005	0.425	2.695	1.890	1.885	1.880	1.899	1.899	1.895
-0.005	-0.005	0.000	0.005	0.000	-0.020	0.415	2.729	1.885	1.880	1.880	1.899	1.895	1.885
-0.005	-0.005	0.000	0.000	0.005	-0.020	0.420	2.744	1.895	1.880	1.880	1.899	1.899	1.890
0.000	-0.005	0.005	0.005	0.005	-0.005	0.420	2.749	1.895	1.885	1.880	1.899	1.895	1.895
0.010	0.000	0.005	0.005	0.005	-0.010	0.420	2.759	1.895	1.885	1.880	1.899	1.895	1.895
0.005	0.005	0.005	0.005	-0.005	-0.005	0.420	2.744	1.899	1.890	1.880	1.899	1.895	1.895
0.000	-0.010	0.000	0.000	0.000	-0.010	0.415	2.690	1.899	1.885	1.885	1.899	1.895	1.895
0.005	-0.010	0.005	0.005	0.000	0.005	0.425	2.690	1.895	1.890	1.885	1.899	1.895	1.895
0.005	-0.005	0.005	0.000	0.000	-0.005	0.415	2.686	1.890	1.890	1.890	1.899	1.895	1.895
0.005	-0.010	0.000	0.000	0.000	0.005	0.425	2.700	1.890	1.890	1.890	1.904	1.899	1.899
0.010	-0.005	0.005	0.000	0.005	0.000	0.420	2.705	1.895	1.895	1.895	1.909	1.899	1.904
0.000	-0.010	0.000	0.000	0.005	0.015	0.430	2.686	1.890	1.890	1.895	1.909	1.904	1.904
0.000	0.005	0.000	0.000	0.005	0.015	0.415	2.686	1.890	1.890	1.890	1.909	1.904	1.904
0.000	0.005	0.000	0.000	0.000	0.015	0.425	2.705	1.895	1.895	1.890	1.909	1.904	1.904
0.000	0.020	0.000	0.000	0.005	0.020	0.420	2.695	1.895	1.895	1.895	1.909	1.904	1.904
0.000	0.020	0.000	0.000	0.000	0.010	0.425	2.690	1.885	1.890	1.890	1.909	1.899	1.899
0.000	0.010	0.000	0.000	0.000	-0.010	0.420	2.690	1.885	1.885	1.885	1.904	1.899	1.899
0.000	0.005	0.005	0.000	0.005	0.005	0.425	2.676	1.885	1.880	1.885	1.904	1.904	1.899
-0.005	0.000	0.005	0.005	0.015	0.005	0.420	2.681	1.885	1.880	1.885	1.904	1.904	1.899
0.005	0.005	0.000	-0.005	0.005	0.005	0.430	2.686	1.880	1.875	1.880	1.899	1.899	1.899
0.000	0.005	0.000	0.000	0.005	0.015	0.420	2.690	1.885	1.880	1.880	1.899	1.895	1.899
0.010	0.005	0.000	0.000	0.000	0.000	0.425	2.695	1.885	1.880	1.880	1.899	1.895	1.890
-0.005	0.010	0.005	0.000	0.000	-0.010	0.425	2.710	1.885	1.880	1.880	1.899	1.895	1.890
-0.005	-0.005	0.005	0.000	-0.005	0.005	0.420	2.700	1.885	1.880	1.880	1.899	1.895	1.899
0.005	0.005	0.005	0.005	0.000	-0.024	0.425	2.715	1.895	1.885	1.880	1.899	1.899	1.890
0.000	0.010	0.000	0.000	-0.005	0.005	0.420	2.695	1.890	1.890	1.885	1.899	1.895	1.899
0.000	0.005	0.005	0.005	0.000	-0.010	0.425	2.695	1.890	1.890	1.885	1.904	1.899	1.895
-0.010	0.010	0.005	0.000	-0.005	-0.029	0.420	2.690	1.890	1.890	1.885	1.904	1.895	1.890
-0.005	0.005	0.000	0.005	-0.005	-0.005	0.420	2.695	1.890	1.890	1.885	1.904	1.895	1.899
0.005	0.005	0.000	0.005	-0.005	-0.005	0.420	2.651	1.899	1.895	1.890	1.904	1.899	1.899
-0.005	-0.005	0.000	0.005	0.000	-0.024	0.420	2.666	1.890	1.890	1.885	1.904	1.899	1.895
0.005	-0.005	0.005	0.005	0.000	0.010	0.425	2.646	1.890	1.890	1.885	1.904	1.899	1.904
0.000	-0.010	0.005	0.000	0.005	-0.010	0.420	2.651	1.880	1.885	1.885	1.899	1.899	1.899
0.000	-0.010	0.010	0.005	0.000	0.015	0.415	2.754	1.885	1.880	1.880	1.899	1.899	1.899
-0.005	0.000	-0.005	0.000	-0.005	-0.005	0.420	2.734	1.880	1.885	1.880	1.899	1.895	1.895
-0.005	0.010	0.000	0.000	0.000	0.000	0.425	2.734	1.890	1.885	1.880	1.899	1.890	1.895
-0.005	0.000	0.000	0.005	0.000	0.015	0.425	2.681	1.890	1.880	1.875	1.899	1.890	1.895
0.000	0.000	0.005	-0.005	0.000	0.005	0.420	2.671	1.880	1.880	1.880	1.899	1.895	1.895
-0.010	0.015	0.005	0.005	0.005	0.010	0.425	2.690	1.880	1.880	1.880	1.899	1.895	1.895
0.005	0.010	-0.005	0.000	0.000	-0.005	0.415	2.700	1.890	1.880	1.880	1.899	1.895	1.890
0.005	0.005	0.000	0.000	0.000	0.000	0.420	2.690	1.895	1.885	1.880	1.895	1.895	1.895
0.000	0.005	0.000	0.000	0.000	-0.020	0.420	2.666	1.885	1.890	1.885	1.899	1.895	1.885
0.010	0.010	0.000	0.000	0.000	-0.005	0.430	2.734	1.895	1.890	1.890	1.904	1.895	1.895
0.005	0.000	0.000	0.000	-0.005	-0.020	0.415	2.656	1.890	1.885	1.885	1.904	1.895	1.890
-0.005	0.005	0.000	-0.005	-0.005	-0.015	0.430	2.666	1.885	1.890	1.890	1.904	1.899	1.890
-0.005	0.005	0.005	0.000	0.000	-0.020	0.415	2.725	1.890	1.885	1.885	1.904	1.899	1.895
-0.005	0.005	0.000	-0.005	0.005	0.010	0.425	2.690	1.890	1.885	1.885	1.904	1.904	1.904
0.005	0.010	0.005	0.005	0.005	0.010	0.420	2.710	1.895	1.885	1.885	1.904	1.899	1.904
0.005	-0.005	0.000	0.010	0.005	0.005	0.425	2.695	1.890	1.885	1.880	1.904	1.899	1.899
-0.005	0.000	-0.005	0.005	0.000	-0.005	0.425	2.695	1.890	1.885	1.885	1.899	1.895	1.895
0.000	-0.005	0.005	0.005	0.005	-0.020	0.420	2.700	1.890	1.885	1.885	1.899	1.895	1.890
0.005	0.000	0.000	0.005	0.010	0.005	0.425	2.695	1.885	1.880	1.880	1.899	1.899	1.899
0.010	0.000	0.000	0.000	0.010	0.010	0.420	2.676	1.885	1.880	1.880	1.895	1.895	1.899
0.010	-0.005	0.000	0.005	0.010	0.010	0.425	2.676	1.885	1.880	1.880	1.899	1.895	1.899
0.005	-0.010	0.005	0.005	0.015	0.020	0.420	2.700	1.880	1.880	1.880	1.895	1.899	1.899
0.005	-0.005	0.005	0.000	0.020	0.020	0.420	2.686	1.885	1.880	1.880	1.895	1.899	1.899
0.010	-0.005	0.000	0.005	0.020	0.020	0.420	2.681	1.885	1.885	1.880	1.899	1.895	1.899
0.005	-0.015	0.000	0.010	0.020	0.020	0.425	2.695	1.885	1.880	1.880	1.895	1.895	1.895
0.000	0.010	0.000	0.000	0.029	0.010	0.415	2.681	1.885	1.890	1.885	1.899	1.895	1.895
0.005	0.010	0.000	0.000	0.024	0.015	0.425	2.690	1.890	1.890	1.885	1.904	1.895	1.895
0.000	0.024	0.000	0.005	0.024	0.010	0.425	2.690	1.895	1.895	1.890	1.904	1.895	1.899
0.010	0.015	0.005	0.005	0.015	0.005	0.420	2.705	1.895	1.895	1.890	1.909	1.899	1.890
0.000	0.010	0.005	0.005	0.015	0.010	0.425	2.690	1.885	1.890	1.890	1.909	1.899	1.895
-0.005	0.010	0.005	0.005	0.015	-0.005	0.415	2.690	1.890	1.890	1.890	1.904	1.899	1.895
-0.005	0.015	0.005	0.005	0.015	0.015	0.425	2.710	1.890	1.890	1.890	1.904	1.899	1.895
-0.005	0.005	0.005	0.010	0.010	-0.015	0.415	2.686	1.885	1.880	1.885	1.904	1.899	1.885
0.000	0.000	0.000	0.005	0.010	0.029	0.420	2.710	1.890	1.880	1.880	1.904	1.899	1.904
-0.010	-0.005	0.005	0.005	0.015	0.024	0.420	2.695	1.890	1.880	1.880	1.899	1.899	1.899
0.000	-0.020	0.000	-0.005	0.005	0.015	0.415	2.690	1.885	1.875	1.875	1.895	1.895	1.895
0.005	-0.024	0.000	0.000	0.000	0.015	0.425	2.808	1.899	1.880	1.875	1.895	1.895	1.895
0.000	-0.005	0.000	0.005	-0.005	0.015	0.425	2.671	1.890	1.885	1.880	1.899	1.890	1.895
0.000	-0.005	0.005	0.005	-0.005	0.010	0.430	2.651	1.890	1.890	1.880	1.895	1.890	1.890
0.000	0.005	0.000	0.005	-0.015	-0.005	0.420	2.681	1.885	1.890	1.880	1.895	1.890	1.885
0.005	0.010	0.000	0.000	-0.010	0.010	0.425	2.661	1.880	1.885	1.885	1.899	1.890	1.890
0.010	0.010	0.000	0.000	-0.005	-0.005	0.415	2.671	1.885	1.885	1.890	1.899	1.890	1.890
-0.005	0.010	0.005	0.000	-0.010	0.005	0.425	2.739	1.890	1.885	1.885	1.904	1.895	1.895
-0.005	0.005	0.005	0.000	-0.015	0.000	0.425	2.671	1.890	1.885	1.885	1.909	1.895	1.895
0.000	0.005	0.000	0.005	-0.015	-0.010	0.420	2.754	1.895	1.890	1.890	1.904	1.899	1.890
0.005	0.000	0.005	0.005	-0.010	-0.010	0.425	2.681	1.890	1.890	1.890	1.904	1.899	1.895
-0.005	0.000	-0.005	0.000	-0.010	-0.015	0.430	2.651	1.885	1.890	1.890	1.904	1.904	1.899
0.005	0.000	-0.005	0.005	-0.020	-0.005	0.425	2.705	1.890	1.890	1.885	1.904	1.899	1.899
0.010	-0.005	0.005	0.005	-0.015	0.000	0.425	2.632	1.880	1.880	1.885	1.904	1.899	1.895
0.000	-0.005	0.000	0.005	-0.010	-0.029	0.425	2.734	1.885	1.880	1.880	1.904	1.899	1.885
0.000	-0.005	0.000	0.005	-0.005	0.000	0.420	2.651	1.880	1.880	1.880	1.899	1.899	1.895
-0.005	-0.010	0.000	0.010	-0.010	0.010	0.425	2.700	1.880	1.875	1.880	1.899	1.899	1.899
0.000	-0.005	0.000	0.005	-0.010	0.010	0.425	2.729	1.880	1.875	1.875	1.899	1.895	1.899
0.010	0.005	0.010	0.005	-0.005	-0.005	0.415	2.710	1.890	1.880	1.875	1.895	1.895	1.895
0.005	0.005	0.005	0.010	-0.010	-0.020	0.420	2.681	1.880	1.880	1.880	1.895	1.890	1.890
0.000	0.000	0.005	0.005	-0.005	-0.010	0.420	2.686	1.885	1.880	1.880	1.895	1.895	1.890
-0.005	0.000	0.005	0.000	0.005	0.020	0.420	2.705	1.890	1.880	1.875	1.895	1.895	1.899
0.010	0.015	0.000	0.005	-0.005	-0.005	0.420	2.705	1.890	1.890	1.880	1.899	1.895	1.895
0.000	0.005	-0.005	0.000	-0.005	-0.015	0.415	2.690	1.890	1.885	1.885	1.895	1.895	1.895
-0.010	0.010	0.000	0.000	0.000	-0.015	0.420	2.690	1.885	1.885	1.885	1.899	1.895	1.890
-0.005	0.005	0.000	-0.005	0.005	0.010	0.420	2.705	1.895	1.890	1.885	1.899	1.899	1.899
0.000	0.000	0.000	0.000	0.000	0.000	0.420	2.676	1.890	1.890	1.885	1.899	1.895	1.899
0.005	0.000	0.000	0.000	0.015	0.015	0.415	2.695	1.890	1.885	1.885	1.904	1.904	1.899
-0.005	0.015	0.010	0.000	0.005	0.005	0.430	2.686	1.890	1.890	1.890	1.904	1.899	1.895
0.000	0.020	0.000	0.010	0.010	0.000	0.420	2.676	1.890	1.895	1.890	1.904	1.899	1.899
0.000	0.005	0.005	0.000	0.010	0.005	0.415	2.690	1.890	1.885	1.885	1.904	1.899	1.895
0.000	-0.005	0.005	0.000	0.000	0.000	0.415	2.700	1.885	1.880	1.880	1.904	1.899	1.895
0.010	0.005	0.005	0.005	0.000	0.005	0.420	2.686	1.885	1.880	1.880	1.899	1.895	1.895
0.005	0.005	0.000	0.000	0.005	0.010	0.415	2.686	1.885	1.880	1.880	1.899	1.895	1.895
-0.005	0.010	0.005	0.000	0.000	0.010	0.420	2.715	1.885	1.880	1.880	1.895	1.890	1.890
0.010	0.005	0.005	0.005	0.005	-0.010	0.415	2.686	1.885	1.880	1.880	1.895	1.895	1.890
0.010	0.000	-0.005	0.000	0.015	-0.010	0.420	2.700	1.885	1.880	1.880	1.895	1.895	1.890
0.005	0.000	0.005	0.000	0.005	0.000	0.425	2.705	1.885	1.880	1.880	1.899	1.890	1.890
0.010	0.005	0.000	0.000	0.005	-0.020	0.430	2.686	1.890	1.885	1.880	1.899	1.895	1.885
0.005	0.005	-0.005	0.000	0.000	-0.010	0.415	2.705	1.890	1.885	1.880	1.899	1.895	1.895
0.000	0.000	0.005	0.000	0.010	0.020	0.420	2.700	1.890	1.885	1.880	1.899	1.895	1.899
-0.010	-0.005	0.000	0.000	0.000	0.015	0.420	2.827	1.899	1.885	1.885	1.899	1.895	1.899
0.000	0.000	0.005	0.005	0.000	-0.015	0.420	2.666	1.895	1.890	1.885	1.904	1.899	1.895
0.000	0.000	0.005	0.000	0.000	0.010	0.420	2.661	1.895	1.890	1.885	1.904	1.899	1.895
0.010	-0.005	0.000	0.005	0.005	0.005	0.425	2.656	1.890	1.890	1.885	1.904	1.899	1.895
0.005	0.000	0.000	0.000	0.005	0.000	0.425	2.661	1.885	1.890	1.885	1.904	1.899	1.890
0.005	0.015	0.000	0.000	0.005	-0.005	0.425	2.734	1.890	1.890	1.885	1.904	1.899	1.895
-0.005	0.000	0.000	0.005	0.000	-0.005	0.425	2.734	1.890	1.885	1.885	1.899	1.899	1.895
-0.005	-0.010	0.005	0.000	0.005	0.005	0.420	2.671	1.885	1.880	1.880	1.904	1.899	1.899
0.000	-0.005	0.005	0.005	0.000	0.005	0.420	2.646	1.875	1.880	1.880	1.899	1.895	1.895
0.005	0.005	0.000	0.005	-0.005	0.000	0.425	2.681	1.875	1.880	1.880	1.895	1.895	1.895
0.005	0.000	-0.005	0.005	0.000	0.005	0.425	2.651	1.890	1.880	1.875	1.899	1.895	1.895
0.000	0.005	0.000	0.000	0.000	-0.005	0.420	2.812	1.904	1.885	1.880	1.895	1.890	1.890
0.005	0.010	0.000	0.000	-0.005	0.005	0.420	2.734	1.899	1.890	1.885	1.899	1.895	1.890
0.005	-0.010	0.010	0.005	0.000	0.034	0.425	2.637	1.890	1.890	1.885	1.899	1.895	1.899
0.010	0.005	0.000	0.005	0.005	0.024	0.420	2.744	1.895	1.890	1.885	1.899	1.899	1.895
0.000	0.000	0.000	0.005	0.000	0.005	0.410	2.744	1.899	1.895	1.885	1.899	1.895	1.885
0.000	-0.010	0.000	0.000	0.005	0.005	0.425	2.729	1.904	1.895	1.895	1.904	1.895	1.895
0.005	0.000	0.005	0.005	0.005	0.005	0.420	2.715	1.899	1.899	1.895	1.909	1.899	1.899
0.005	-0.005	0.005	0.000	0.010	0.005	0.420	2.690	1.899	1.895	1.895	1.909	1.904	1.899
0.000	0.000	0.005	0.000	0.005	-0.005	0.420	2.710	1.895	1.899	1.895	1.909	1.899	1.890
0.005	-0.015	0.005	0.005	0.000	0.000	0.430	2.686	1.890	1.895	1.895	1.909	1.909	1.899
-0.005	0.020	0.000	0.005	0.010	-0.005	0.425	2.705	1.885	1.899	1.899	1.909	1.904	1.899
-0.005	0.010	0.005	0.005	0.000	-0.010	0.425	2.695	1.890	1.890	1.895	1.909	1.904	1.899
0.000	0.000	0.005	0.005	0.010	0.000	0.415	2.705	1.890	1.890	1.890	1.909	1.904	1.904
0.000	-0.005	0.005	0.000	0.000	0.000	0.420	2.695	1.890	1.880	1.885	1.909	1.899	1.899
-0.005	0.010	0.000	0.000	0.000	0.000	0.420	2.690	1.890	1.885	1.885	1.904	1.899	1.899
0.000	0.010	0.005	0.005	0.005	-0.024	0.425	2.695	1.885	1.885	1.885	1.904	1.899	1.890
-0.010	0.010	0.000	0.010	0.005	0.010	0.420	2.681	1.875	1.880	1.885	1.904	1.899	1.904
-0.005	0.000	0.000	0.000	0.010	0.015	0.425	2.690	1.890	1.880	1.880	1.904	1.899	1.904
-0.005	0.005	0.005	0.000	0.000	0.005	0.425	2.695	1.885	1.880	1.880	1.899	1.895	1.895
0.005	-0.005	0.005	0.005	0.000	0.015	0.430	2.686	1.885	1.880	1.880	1.899	1.899	1.904
0.020	0.000	0.000	0.005	0.000	0.024	0.425	2.690	1.895	1.885	1.880	1.899	1.895	1.904
0.015	0.005	-0.005	0.000	0.000	0.015	0.425	2.690	1.895	1.890	1.880	1.904	1.895	1.899
0.005	0.005	0.000	0.005	0.005	0.005	0.420	2.705	1.899	1.895	1.885	1.904	1.899	1.899
0.000	0.005	0.005	0.005	0.005	-0.010	0.425	2.686	1.895	1.895	1.890	1.904	1.899	1.895
0.010	0.010	0.005	0.000	0.000	0.005	0.415	2.710	1.899	1.895	1.890	1.904	1.899	1.899
0.005	0.020	0.000	0.000	0.000	-0.005	0.425	2.681	1.890	1.899	1.895	1.904	1.899	1.895
-0.005	0.000	-0.005	0.000	0.000	0.015	0.420	2.681	1.890	1.890	1.890	1.904	1.904	1.904
0.000	0.000	0.005	0.005	0.000	0.015	0.425	2.705	1.895	1.890	1.890	1.909	1.899	1.899
0.005	0.000	0.005	0.000	0.000	-0.020	0.425	2.695	1.890	1.885	1.890	1.904	1.899	1.890
0.005	0.005	0.005	0.005	0.005	0.015	0.420	2.822	1.899	1.890	1.890	1.909	1.904	1.899
0.000	-0.005	0.005	0.000	0.010	0.000	0.420	2.651	1.890	1.885	1.885	1.904	1.904	1.899
-0.005	0.000	0.000	0.000	0.010	-0.005	0.425	2.651	1.880	1.885	1.885	1.904	1.899	1.899
0.005	0.010	0.000	0.000	0.005	0.005	0.420	2.671	1.880	1.880	1.885	1.904	1.899	1.899
0.000	-0.010	0.000	-0.005	0.000	0.010	0.410	2.651	1.875	1.875	1.880	1.899	1.895	1.895
0.005	-0.010	-0.005	-0.005	0.005	0.010	0.415	2.646	1.885	1.875	1.880	1.899	1.895	1.895
0.000	-0.005	0.005	0.005	0.000	0.010	0.420	2.744	1.890	1.880	1.880	1.899	1.895	1.895
0.000	-0.010	0.000	0.000	0.000	0.010	0.430	2.671	1.890	1.885	1.880	1.899	1.895	1.895
0.005	0.010	-0.005	0.005	0.000	0.005	0.425	2.651	1.885	1.890	1.885	1.899	1.895	1.895
0.005	0.010	-0.005	0.010	0.000	0.005	0.425	2.676	1.885	1.895	1.885	1.904	1.899	1.895
0.005	0.010	0.005	0.000	0.005	0.005	0.425	2.646	1.880	1.885	1.890	1.904	1.899	1.895
-0.010	0.010	0.000	0.005	0.000	0.000	0.430	2.822	1.899	1.890	1.890	1.909	1.899	1.899
0.005	0.010	0.000	0.005	0.000	0.005	0.415	2.725	1.904	1.895	1.890	1.909	1.904	1.899
0.005	0.000	0.000	0.005	0.000	0.000	0.430	2.661	1.899	1.890	1.890	1.909	1.899	1.895
0.005	0.015	-0.005	0.005	0.005	0.010	0.425	2.744	1.899	1.895	1.890	1.904	1.904	1.899
-0.005	0.005	-0.005	0.000	0.005	0.000	0.420	2.651	1.890	1.890	1.890	1.904	1.904	1.899
0.005	0.000	0.005	0.005	0.000	-0.005	0.420	2.695	1.899	1.890	1.890	1.909	1.899	1.895
0.000	-0.005	0.000	0.005	0.005	-0.010	0.425	2.695	1.890	1.890	1.890	1.904	1.899	1.895
0.005	-0.010	0.000	0.005	0.010	-0.010	0.425	2.690	1.890	1.885	1.885	1.904	1.899	1.899
0.000	0.005	0.000	0.005	0.000	0.010	0.425	2.681	1.890	1.890	1.885	1.904	1.899	1.904
0.010	0.000	0.000	0.005	0.000	-0.010	0.425	2.700	1.890	1.885	1.885	1.899	1.895	1.890
0.000	-0.005	0.005	0.000	0.005	0.010	0.425	2.700	1.885	1.880	1.885	1.899	1.899	1.899
0.005	-0.005	0.000	0.005	0.005	-0.024	0.430	2.686	1.885	1.885	1.885	1.899	1.899	1.890
0.000	0.005	0.000	0.005	0.005	0.010	0.425	2.681	1.885	1.885	1.880	1.899	1.895	1.899
-0.005	0.000	0.000	0.000	-0.005	-0.020	0.425	2.681	1.885	1.885	1.880	1.899	1.895	1.895
0.010	0.000	0.000	0.005	-0.005	0.015	0.425	2.676	1.890	1.890	1.885	1.904	1.899	1.904
0.015	0.000	0.000	0.005	0.005	0.010	0.425	2.686	1.890	1.885	1.885	1.904	1.899	1.904
0.005	0.000	0.005	0.005	0.000	0.005	0.420	2.690	1.890	1.890	1.885	1.904	1.899	1.899
0.000	0.005	0.000	-0.005	-0.005	0.005	0.420	2.686	1.890	1.895	1.885	1.904	1.899	1.899
0.000	0.000	0.010	-0.005	-0.005	0.005	0.420	2.690	1.890	1.890	1.890	1.904	1.895	1.895
0.010	0.000	0.000	0.000	0.005	0.010	0.420	2.676	1.885	1.890	1.890	1.904	1.904	1.904
0.000	-0.005	0.005	0.000	0.005	-0.010	0.415	2.681	1.885	1.885	1.890	1.904	1.899	1.895
0.005	0.005	0.000	0.000	0.000	0.010	0.420	2.681	1.885	1.890	1.885	1.904	1.899	1.899
0.005	-0.005	0.000	0.000	0.000	-0.010	0.415	2.700	1.885	1.880	1.885	1.904	1.899	1.895
-0.005	-0.005	0.000	0.005	0.005	0.015	0.425	2.686	1.880	1.885	1.885	1.904	1.904	1.904
0.005	0.010	0.000	0.005	0.010	-0.024	0.415	2.705	1.885	1.885	1.880	1.899	1.899	1.890
0.000	0.005	0.000	0.000	0.005	-0.010	0.425	2.695	1.880	1.880	1.880	1.899	1.895	1.895
-0.005	0.000	0.000	-0.005	0.000	0.005	0.425	2.710	1.885	1.880	1.875	1.899	1.895	1.899
0.010	0.010	0.000	0.005	0.005	0.000	0.425	2.690	1.885	1.880	1.880	1.899	1.895	1.895
0.005	-0.010	0.005	0.005	0.005	0.010	0.420	2.695	1.885	1.875	1.880	1.895	1.895	1.895
-0.005	-0.015	0.005	0.000	0.000	0.005	0.425	2.808	1.899	1.880	1.880	1.895	1.895	1.895
0.000	-0.005	0.000	0.005	-0.005	-0.015	0.420	2.661	1.890	1.885	1.880	1.899	1.895	1.890
0.005	-0.010	0.010	0.005	-0.005	0.000	0.425	2.646	1.885	1.885	1.885	1.899	1.895	1.895
0.005	-0.010	0.005	0.000	-0.005	-0.020	0.420	2.666	1.880	1.885	1.885	1.899	1.895	1.890
0.010	0.000	0.000	0.000	0.000	-0.010	0.420	2.646	1.880	1.890	1.885	1.899	1.899	1.895
0.000	0.005	0.000	-0.005	-0.005	0.010	0.420	2.729	1.890	1.890	1.885	1.899	1.895	1.904
0.005	0.015	0.000	0.000	0.005	-0.010	0.420	2.642	1.890	1.890	1.885	1.904	1.899	1.899
-0.005	0.005	0.000	0.005	0.005	0.000	0.420	2.651	1.880	1.885	1.885	1.909	1.899	1.895
0.000	0.000	0.005	0.010	0.000	0.005	0.430	2.749	1.890	1.885	1.885	1.904	1.899	1.899
0.000	0.010	0.005	0.005	0.005	-0.005	0.415	2.681	1.885	1.885	1.880	1.899	1.899	1.895
-0.010	0.024	0.000	0.000	0.000	-0.024	0.425	2.651	1.880	1.885	1.885	1.899	1.895	1.890
-0.005	0.010	0.005	0.010	0.010	0.010	0.420	2.817	1.895	1.880	1.885	1.904	1.899	1.895
-0.005	-0.005	-0.005	0.010	0.005	0.005	0.420	2.725	1.885	1.875	1.880	1.899	1.895	1.895
0.000	-0.010	0.000	0.005	0.000	-0.010	0.420	2.637	1.885	1.875	1.880	1.899	1.895	1.895
0.000	0.005	0.000	0.005	0.005	0.015	0.425	2.744	1.890	1.885	1.875	1.895	1.895	1.895
-0.005	0.010	0.000	0.010	0.000	0.000	0.415	2.651	1.885	1.885	1.880	1.895	1.890	1.890
-0.005	0.010	0.000	0.000	0.000	-0.010	0.420	2.744	1.890	1.885	1.880	1.895	1.890	1.890
0.010	0.005	-0.005	0.005	-0.005	-0.005	0.420	2.700	1.890	1.885	1.880	1.895	1.890	1.890
0.000	0.010	-0.005	0.005	0.005	0.010	0.425	2.681	1.885	1.890	1.885	1.899	1.895	1.899
0.000	0.015	0.000	0.005	0.000	0.005	0.420	2.690	1.890	1.890	1.885	1.904	1.895	1.895
0.015	0.000	-0.005	0.005	0.000	0.005	0.425	2.700	1.890	1.885	1.885	1.904	1.895	1.895
0.010	-0.010	0.000	0.000	-0.005	-0.005	0.420	2.710	1.885	1.885	1.890	1.904	1.895	1.895
0.000	0.010	0.000	0.000	0.000	0.005	0.420	2.676	1.885	1.890	1.890	1.904	1.899	1.899
-0.005	-0.005	-0.005	0.000	0.005	0.005	0.425	2.681	1.885	1.885	1.890	1.904	1.899	1.899
0.005	-0.005	0.000	0.005	0.000	0.005	0.415	2.681	1.890	1.885	1.885	1.904	1.899	1.899
0.000	0.010	0.000	0.005	0.000	0.000	0.425	2.686	1.885	1.885	1.885	1.904	1.899	1.899
0.000	0.000	0.000	0.005	0.010	0.005	0.420	2.686	1.880	1.885	1.885	1.904	1.899	1.899
0.000	-0.010	0.000	0.005	0.005	-0.005	0.425	2.690	1.880	1.880	1.880	1.899	1.899	1.895
-0.010	0.000	0.005	0.000	0.010	0.005	0.420	2.705	1.880	1.880	1.880	1.899	1.895	1.895
0.000	0.010	0.000	0.000	0.005	0.005	0.425	2.686	1.880	1.880	1.880	1.895	1.895	1.895
0.005	0.020	0.000	0.000	0.000	0.000	0.420	2.686	1.880	1.880	1.880	1.895	1.895	1.895
0.005	0.020	0.000	0.000	0.000	-0.010	0.430	2.686	1.885	1.880	1.875	1.895	1.890	1.890
0.005	0.005	0.005	0.000	-0.005	-0.020	0.415	2.715	1.890	1.880	1.880	1.895	1.890	1.885
-0.005	0.000	0.000	0.005	-0.005	0.010	0.430	2.710	1.885	1.880	1.880	1.899	1.895	1.895
0.010	0.005	0.000	0.000	-0.005	0.010	0.415	2.690	1.890	1.880	1.875	1.895	1.890	1.895
0.000	0.000	0.000	0.000	-0.005	0.010	0.425	2.710	1.890	1.880	1.880	1.899	1.895	1.895
0.005	-0.005	0.010	0.000	-0.005	-0.024	0.415	2.710	1.895	1.885	1.885	1.899	1.895	1.890
0.000	-0.005	0.000	0.005	0.000	0.005	0.425	2.700	1.890	1.885	1.885	1.899	1.899	1.895
-0.005	-0.005	0.005	-0.005	0.000	0.010	0.420	2.686	1.890	1.890	1.885	1.899	1.895	1.899
0.005	-0.010	0.000	0.000	0.005	-0.010	0.425	2.700	1.895	1.885	1.885	1.899	1.899	1.890
-0.005	0.005	0.000	0.000	0.005	-0.005	0.420	2.817	1.909	1.895	1.890	1.904	1.899	1.895
0.000	-0.005	-0.005	0.000	0.005	0.005	0.420	2.661	1.895	1.895	1.885	1.904	1.899	1.899
0.000	0.015	0.000	0.000	0.005	-0.005	0.420	2.646	1.890	1.899	1.890	1.904	1.899	1.895
-0.005	0.015	0.000	0.005	0.005	0.005	0.425	2.666	1.880	1.890	1.890	1.904	1.899	1.899
0.010	-0.015	0.005	0.010	0.005	0.010	0.420	2.705	1.885	1.880	1.885	1.904	1.899	1.895
-0.005	0.000	0.000	0.000	0.005	0.000	0.420	2.637	1.885	1.885	1.885	1.904	1.899	1.890
-0.005	-0.005	0.005	0.000	0.005	0.015	0.425	2.656	1.880	1.875	1.880	1.899	1.895	1.899
0.000	-0.010	0.005	0.005	0.005	0.015	0.415	2.681	1.875	1.875	1.875	1.899	1.895	1.895
0.005	0.000	-0.005	0.000	0.000	-0.010	0.420	2.666	1.875	1.875	1.875	1.895	1.890	1.890
0.005	-0.005	0.005	0.000	0.000	0.010	0.420	2.690	1.880	1.875	1.875	1.895	1.895	1.895
-0.005	-0.005	0.000	-0.005	-0.005	0.010	0.425	2.656	1.885	1.875	1.875	1.895	1.890	1.890
-0.005	0.005	0.000	0.000	0.000	-0.020	0.415	2.822	1.904	1.885	1.880	1.895	1.890	1.885
0.000	0.000	-0.005	0.000	0.000	0.005	0.420	2.744	1.904	1.890	1.880	1.899	1.895	1.895
0.005	0.005	0.005	0.005	0.000	0.010	0.425	2.646	1.890	1.890	1.885	1.899	1.895	1.895
-0.005	0.000	0.000	0.000	-0.005	0.010	0.415	2.690	1.899	1.890	1.885	1.899	1.899	1.899
0.000	0.000	0.000	0.005	0.000	0.010	0.425	2.656	1.890	1.895	1.890	1.904	1.899	1.899
0.010	0.000	0.000	0.000	0.000	-0.029	0.425	2.734	1.899	1.895	1.890	1.904	1.899	1.890
0.005	0.005	0.000	0.005	0.000	0.005	0.415	2.710	1.895	1.895	1.890	1.904	1.899	1.899
0.010	0.005	0.000	0.005	0.000	0.010	0.430	2.686	1.890	1.890	1.890	1.909	1.899	1.899
0.000	-0.005	0.000	0.005	0.005	0.000	0.415	2.700	1.890	1.890	1.885	1.904	1.899	1.895
0.010	-0.005	0.000	0.000	0.005	-0.010	0.430	2.690	1.885	1.885	1.885	1.904	1.899	1.895
0.005	-0.010	0.005	0.005	0.005	-0.020	0.420	2.700	1.890	1.885	1.885	1.904	1.899	1.895
0.000	0.010	0.000	0.000	0.010	-0.015	0.430	2.681	1.880	1.890	1.885	1.904	1.899	1.895
-0.005	-0.010	0.005	0.000	0.000	-0.015	0.420	2.681	1.880	1.875	1.880	1.899	1.895	1.895
0.000	-0.015	0.000	0.000	0.005	0.020	0.425	2.686	1.880	1.875	1.880	1.899	1.895	1.899
0.000	-0.010	0.000	0.000	0.000	0.015	0.425	2.686	1.880	1.875	1.880	1.899	1.895	1.899
0.000	-0.010	0.000	0.000	-0.005	0.000	0.420	2.690	1.885	1.875	1.880	1.899	1.895	1.890
0.000	0.000	0.000	0.000	0.000	-0.005	0.420	2.690	1.890	1.885	1.880	1.895	1.895	1.895
0.000	0.015	0.005	0.000	0.000	0.015	0.420	2.690	1.890	1.890	1.885	1.899	1.895	1.899
0.000	0.020	0.000	0.000	0.005	0.000	0.420	2.690	1.890	1.890	1.885	1.904	1.895	1.890
0.005	0.015	0.005	0.005	0.000	0.005	0.425	2.700	1.895	1.890	1.890	1.904	1.899	1.899
0.000	0.010	0.000	0.000	0.000	-0.020	0.420	2.690	1.890	1.890	1.890	1.904	1.899	1.895
0.000	0.000	0.000	-0.005	-0.005	0.005	0.430	2.690	1.895	1.890	1.890	1.909	1.899	1.904
-0.005	0.010	0.000	0.000	0.000	0.005	0.420	2.700	1.895	1.890	1.885	1.909	1.899	1.899
0.000	0.005	0.005	0.005	0.005	-0.015	0.425	2.690	1.890	1.890	1.885	1.904	1.904	1.890
0.010	0.024	0.005	0.000	0.005	0.000	0.420	2.710	1.890	1.895	1.890	1.904	1.904	1.899
-0.005	0.024	0.000	0.000	0.010	0.000	0.415	2.705	1.890	1.890	1.885	1.904	1.899	1.899
-0.005	0.005	0.000	0.005	0.010	-0.010	0.430	2.705	1.890	1.885	1.885	1.904	1.899	1.899
0.010	0.010	0.005	0.005	0.000	0.015	0.415	2.690	1.890	1.885	1.885	1.904	1.899	1.904
-0.005	-0.015	0.000	0.000	0.000	0.015	0.430	2.695	1.880	1.875	1.880	1.899	1.899	1.899
-0.005	-0.010	0.000	0.005	0.005	0.010	0.415	2.803	1.895	1.880	1.875	1.899	1.895	1.895
0.000	-0.010	-0.005	0.000	0.000	-0.015	0.430	2.656	1.885	1.880	1.875	1.895	1.895	1.885
0.000	-0.015	0.005	0.000	0.005	0.005	0.420	2.651	1.880	1.880	1.875	1.895	1.895	1.895
0.000	0.000	-0.005	0.005	0.000	-0.020	0.425	2.808	1.880	1.885	1.880	1.899	1.890	1.890
0.015	0.020	0.000	0.005	0.000	0.005	0.420	2.754	1.895	1.890	1.885	1.899	1.895	1.895
-0.005	0.015	0.005	0.000	0.000	0.005	0.420	2.637	1.885	1.890	1.885	1.899	1.895	1.895
-0.010	0.000	0.000	0.005	-0.005	0.005	0.425	2.739	1.890	1.885	1.885	1.904	1.895	1.895
0.000	0.010	0.000	0.000	0.005	-0.005	0.430	2.671	1.885	1.885	1.885	1.904	1.899	1.895
-0.005	0.010	0.005	0.005	0.005	0.010	0.420	2.759	1.895	1.890	1.890	1.904	1.899	1.899
0.005	0.005	0.000	0.005	0.000	0.010	0.425	2.690	1.895	1.890	1.890	1.904	1.904	1.899
0.000	0.005	0.005	0.005	0.005	0.010	0.425	2.651	1.890	1.890	1.890	1.904	1.904	1.899
0.005	-0.005	0.000	0.005	0.010	0.010	0.425	2.822	1.904	1.890	1.885	1.904	1.904	1.899
-0.005	-0.005	0.000	0.005	0.005	0.000	0.415	2.646	1.890	1.890	1.885	1.904	1.904	1.899
0.000	0.000	0.000	0.005	0.010	0.005	0.420	2.637	1.885	1.885	1.890	1.904	1.899	1.899
-0.010	-0.005	0.005	0.000	0.000	-0.005	0.420	2.642	1.875	1.885	1.885	1.904	1.895	1.895
0.000	0.005	0.005	0.000	0.005	0.005	0.420	2.749	1.885	1.880	1.885	1.904	1.895	1.895
0.000	0.000	0.000	0.000	0.000	-0.005	0.415	2.705	1.885	1.880	1.880	1.899	1.895	1.895
0.005	-0.005	0.000	0.005	0.010	-0.005	0.420	2.710	1.885	1.875	1.875	1.899	1.895	1.890
-0.005	0.005	0.000	0.000	0.000	0.000	0.420	2.686	1.885	1.880	1.875	1.899	1.895	1.895
-0.005	0.000	0.000	0.000	0.005	0.005	0.415	2.705	1.885	1.885	1.880	1.899	1.895	1.895
0.010	0.005	0.005	0.005	0.000	0.000	0.425	2.686	1.885	1.885	1.885	1.899	1.895	1.895
0.000	0.000	0.000	0.005	0.000	0.000	0.415	2.705	1.890	1.880	1.885	1.899	1.895	1.890
-0.005	0.005	0.000	0.000	0.000	0.000	0.425	2.690	1.885	1.885	1.885	1.904	1.895	1.895
0.000	-0.005	0.005	0.010	0.000	-0.005	0.425	2.700	1.890	1.885	1.885	1.899	1.895	1.895
0.005	-0.005	0.000	0.000	-0.005	-0.034	0.420	2.700	1.890	1.885	1.885	1.899	1.895	1.890
0.005	0.005	0.000	0.005	0.005	0.000	0.420	2.690	1.895	1.890	1.885	1.904	1.904	1.899
0.000	0.010	0.005	0.000	0.005	-0.015	0.430	2.700	1.895	1.890	1.890	1.904	1.899	1.899
0.010	0.000	0.000	0.000	0.005	-0.010	0.420	2.681	1.890	1.890	1.890	1.904	1.899	1.895
0.000	0.005	0.005	0.005	0.010	0.010	0.425	2.705	1.890	1.890	1.890	1.904	1.904	1.899
0.005	0.005	0.000	0.005	0.000	0.005	0.415	2.681	1.885	1.890	1.885	1.904	1.899	1.899
0.000	-0.005	0.005	0.000	0.000	0.005	0.420	2.676	1.880	1.885	1.885	1.904	1.899	1.899
0.010	0.000	0.000	0.005	0.000	0.005	0.425	2.686	1.880	1.880	1.880	1.899	1.899	1.899
-0.005	0.000	0.005	0.000	0.005	0.010	0.420	2.695	1.880	1.875	1.880	1.899	1.895	1.895
0.005	0.000	0.000	0.000	0.000	0.005	0.420	2.695	1.880	1.880	1.875	1.895	1.895	1.895
0.000	0.000	0.000	0.005	0.000	-0.005	0.415	2.686	1.880	1.875	1.875	1.895	1.890	1.895
0.010	-0.005	-0.005	0.005	0.000	-0.024	0.420	2.695	1.890	1.880	1.875	1.895	1.890	1.885
0.000	0.005	0.000	0.005	0.000	0.020	0.430	2.710	1.890	1.880	1.875	1.895	1.895	1.899
0.000	-0.005	0.000	0.005	0.000	0.005	0.425	2.686	1.890	1.885	1.875	1.899	1.890	1.890
0.000	0.015	0.005	0.005	0.000	0.020	0.430	2.690	1.890	1.890	1.885	1.899	1.895	1.899
0.015	0.000	0.005	0.005	0.000	0.000	0.425	2.700	1.895	1.885	1.885	1.899	1.895	1.895
0.005	-0.005	0.005	0.005	-0.005	0.020	0.425	2.808	1.899	1.890	1.885	1.899	1.895	1.899
0.005	-0.005	0.005	0.000	0.000	0.015	0.420	2.666	1.895	1.890	1.885	1.899	1.899	1.899
0.005	-0.005	-0.005	0.000	0.000	0.005	0.420	2.642	1.890	1.885	1.885	1.904	1.899	1.895
0.005	-0.005	-0.005	0.005	0.000	-0.015	0.420	2.729	1.885	1.890	1.885	1.904	1.899	1.890
-0.005	0.000	0.005	0.005	0.005	-0.020	0.425	2.754	1.880	1.885	1.890	1.904	1.899	1.890
-0.010	0.000	0.000	0.005	0.000	-0.015	0.425	2.637	1.875	1.880	1.885	1.904	1.895	1.895
0.000	0.000	-0.005	0.000	0.000	0.015	0.425	2.749	1.890	1.880	1.880	1.904	1.899	1.899
-0.005	0.010	0.000	0.000	0.005	-0.005	0.425	2.666	1.880	1.880	1.880	1.899	1.899	1.895
-0.005	0.015	0.000	0.005	0.005	0.000	0.425	2.646	1.880	1.880	1.880	1.899	1.895	1.890
0.000	0.000	0.000	0.005	0.005	0.015	0.420	2.671	1.875	1.875	1.880	1.899	1.895	1.899
0.000	-0.010	0.000	0.005	0.005	0.005	0.420	2.651	1.875	1.870	1.875	1.895	1.890	1.895
-0.005	0.010	0.005	0.000	0.000	0.015	0.420	2.812	1.890	1.880	1.875	1.895	1.890	1.890
0.005	-0.010	0.005	0.000	-0.005	0.010	0.420	2.646	1.880	1.875	1.875	1.895	1.890	1.885
0.000	0.000	0.000	0.000	0.005	0.000	0.420	2.632	1.875	1.880	1.875	1.895	1.890	1.890
-0.005	0.000	0.000	0.000	0.000	0.020	0.425	2.637	1.875	1.875	1.875	1.895	1.895	1.895
0.005	0.010	0.000	0.000	0.000	0.015	0.425	2.759	1.885	1.885	1.880	1.899	1.890	1.890
0.005	0.005	0.000	0.000	0.005	0.000	0.420	2.637	1.885	1.880	1.880	1.899	1.895	1.890
0.005	0.000	0.005	0.000	0.000	0.000	0.430	2.705	1.890	1.885	1.880	1.895	1.890	1.895
0.005	0.020	0.005	0.000	0.000	0.005	0.420	2.690	1.895	1.890	1.885	1.899	1.895	1.895
0.005	0.015	0.005	0.000	0.000	-0.015	0.430	2.710	1.895	1.890	1.885	1.899	1.895	1.885
0.000	0.010	0.005	0.005	0.000	0.010	0.420	2.705	1.890	1.890	1.885	1.899	1.895	1.895
-0.005	0.005	0.005	-0.005	0.005	0.005	0.420	2.710	1.885	1.885	1.885	1.899	1.899	1.895
-0.005	0.000	0.010	0.000	-0.005	-0.024	0.410	2.681	1.890	1.885	1.885	1.899	1.895	1.890
-0.005	-0.010	0.000	0.005	0.000	0.000	0.420	2.705	1.885	1.880	1.880	1.899	1.895	1.895
0.005	0.000	-0.005	0.005	0.000	0.024	0.410	2.695	1.885	1.880	1.880	1.899	1.899	1.899
0.000	0.010	0.000	0.005	0.000	0.010	0.420	2.690	1.885	1.885	1.880	1.899	1.895	1.895
0.000	0.005	0.000	0.005	0.000	0.020	0.415	2.686	1.880	1.885	1.875	1.895	1.895	1.895
0.005	0.000	0.000	0.005	0.005	0.015	0.420	2.690	1.880	1.880	1.880	1.895	1.890	1.895
0.005	0.015	0.005	0.000	0.010	0.000	0.420	2.700	1.880	1.880	1.880	1.895	1.890	1.885
0.000	-0.005	0.000	0.000	0.000	-0.005	0.415	2.695	1.880	1.875	1.875	1.895	1.890	1.885
0.000	0.005	0.000	0.005	0.005	0.010	0.415	2.686	1.880	1.880	1.875	1.895	1.890	1.895
0.010	0.000	0.005	0.005	0.005	-0.024	0.420	2.690	1.885	1.880	1.880	1.895	1.890	1.880
0.010	0.000	0.005	0.005	0.000	0.005	0.420	2.695	1.890	1.880	1.880	1.899	1.895	1.895
0.000	0.000	0.005	0.005	0.000	0.010	0.425	2.695	1.890	1.885	1.885	1.899	1.895	1.899
0.010	0.015	0.000	0.000	-0.005	-0.015	0.425	2.695	1.890	1.885	1.885	1.899	1.890	1.890
0.000	0.005	0.005	0.000	0.000	0.015	0.420	2.695	1.890	1.885	1.885	1.904	1.899	1.899
-0.005	0.010	0.005	0.000	0.000	-0.010	0.425	2.705	1.890	1.885	1.885	1.904	1.899	1.890
-0.005	0.000	0.000	0.000	0.005	-0.005	0.420	2.686	1.890	1.885	1.885	1.904	1.899	1.895
0.000	-0.005	0.005	0.000	0.005	0.005	0.415	2.695	1.885	1.880	1.885	1.904	1.899	1.899
-0.005	0.015	0.000	0.000	0.005	-0.010	0.415	2.690	1.890	1.885	1.880	1.899	1.899	1.895
0.005	0.005	0.000	-0.005	0.005	0.000	0.425	2.817	1.904	1.890	1.880	1.899	1.895	1.899
0.000	0.005	0.000	0.000	0.010	0.005	0.425	2.651	1.890	1.885	1.880	1.899	1.895	1.895
0.000	0.005	0.000	0.000	0.010	0.010	0.425	2.651	1.880	1.880	1.875	1.895	1.890	1.890
0.000	-0.010	0.000	0.000	0.000	-0.005	0.420	2.651	1.875	1.875	1.875	1.895	1.890	1.885
0.000	-0.010	0.000	0.000	-0.005	0.005	0.420	2.759	1.885	1.875	1.875	1.895	1.890	1.890
-0.005	-0.015	0.000	0.005	-0.005	0.010	0.415	2.661	1.885	1.875	1.875	1.895	1.890	1.890
0.005	-0.005	0.005	-0.005	-0.005	-0.005	0.425	2.729	1.890	1.880	1.880	1.895	1.890	1.885
-0.005	-0.010	0.000	0.000	0.000	0.000	0.420	2.656	1.885	1.880	1.875	1.899	1.895	1.890
-0.005	0.000	0.005	0.000	0.000	-0.015	0.420	2.754	1.895	1.890	1.880	1.895	1.890	1.880
0.005	0.000	0.005	0.000	0.000	-0.024	0.425	2.690	1.895	1.890	1.880	1.899	1.895	1.885
0.010	0.005	0.000	0.010	0.000	-0.010	0.425	2.646	1.890	1.895	1.890	1.904	1.895	1.895
0.005	0.020	-0.005	-0.005	-0.005	0.024	0.425	2.827	1.904	1.895	1.890	1.904	1.899	1.904
0.005	0.005	0.000	0.005	0.000	0.005	0.420	2.646	1.895	1.895	1.890	1.909	1.899	1.895
0.005	0.010	0.005	0.005	0.000	0.024	0.425	2.627	1.880	1.890	1.890	1.904	1.899	1.904
0.005	0.010	0.000	-0.005	0.000	0.010	0.430	2.646	1.885	1.890	1.890	1.904	1.899	1.899
0.000	-0.005	0.000	0.005	0.005	0.010	0.420	2.759	1.895	1.885	1.890	1.904	1.899	1.899
0.000	-0.005	0.000	0.000	0.005	-0.015	0.425	2.700	1.890	1.885	1.885	1.904	1.899	1.895
0.000	0.000	0.000	0.000	0.005	0.005	0.415	2.700	1.890	1.880	1.885	1.904	1.899	1.895
0.000	0.000	0.005	0.000	0.005	0.015	0.425	2.686	1.885	1.885	1.885	1.904	1.899	1.899
-0.005	0.000	0.005	0.000	0.005	0.010	0.410	2.681	1.880	1.880	1.880	1.899	1.899	1.895
0.000	-0.005	0.005	0.000	0.010	-0.020	0.425	2.676	1.880	1.880	1.880	1.899	1.895	1.890
0.000	0.000	-0.005	0.000	0.000	0.005	0.420	2.710	1.880	1.880	1.880	1.899	1.895	1.895
0.000	-0.015	0.000	0.005	0.010	0.010	0.425	2.686	1.885	1.875	1.875	1.899	1.895	1.895
0.005	-0.024	0.005	0.005	0.000	-0.005	0.415	2.681	1.885	1.875	1.875	1.895	1.895	1.890
0.005	-0.005	0.000	0.000	0.005	-0.020	0.415	2.686	1.885	1.880	1.880	1.895	1.895	1.890
0.005	0.010	0.005	0.000	0.000	0.005	0.420	2.700	1.890	1.890	1.880	1.899	1.895	1.895
0.000	0.010	0.000	0.000	0.000	0.005	0.420	2.695	1.885	1.890	1.885	1.899	1.895	1.899
0.005	0.005	0.005	0.005	0.005	0.000	0.420	2.686	1.890	1.890	1.885	1.899	1.895	1.895
0.000	0.020	0.000	0.000	0.005	-0.005	0.420	2.681	1.890	1.890	1.890	1.904	1.899	1.895
0.000	0.015	0.005	0.005	0.005	-0.010	0.425	2.681	1.890	1.890	1.890	1.904	1.899	1.899
0.005	0.000	0.010	0.000	0.005	0.000	0.415	2.686	1.885	1.885	1.885	1.904	1.899	1.899
-0.005	0.000	0.000	0.000	0.005	0.000	0.420	2.676	1.880	1.885	1.885	1.899	1.899	1.899
-0.005	0.005	0.000	-0.005	0.005	0.000	0.420	2.705	1.885	1.880	1.880	1.904	1.895	1.899
0.005	-0.005	0.000	0.000	0.000	0.000	0.425	2.710	1.890	1.880	1.885	1.899	1.899	1.895
0.010	0.000	0.005	0.005	0.005	0.005	0.425	2.681	1.885	1.885	1.880	1.899	1.899	1.899
-0.005	0.010	0.000	0.005	0.005	0.000	0.430	2.705	1.880	1.880	1.880	1.899	1.895	1.895
-0.005	0.005	0.005	0.000	0.005	0.005	0.420	2.686	1.880	1.875	1.880	1.895	1.895	1.895
0.005	0.005	0.000	0.005	0.000	-0.010	0.420	2.700	1.880	1.880	1.875	1.899	1.890	1.885
0.005	0.005	0.000	0.000	0.005	-0.015	0.415	2.690	1.880	1.875	1.875	1.890	1.890	1.890
0.000	-0.005	0.000	-0.005	0.005	-0.005	0.425	2.695	1.880	1.870	1.875	1.890	1.890	1.890
-0.005	-0.005	0.000	0.000	0.000	0.010	0.420	2.822	1.895	1.880	1.875	1.895	1.890	1.895
0.010	-0.005	0.000	0.000	-0.005	0.000	0.420	2.666	1.895	1.880	1.880	1.895	1.890	1.890
0.000	0.000	0.000	0.000	-0.005	0.000	0.420	2.661	1.890	1.885	1.880	1.895	1.890	1.890
0.005	0.000	0.000	0.005	-0.005	0.000	0.420	2.798	1.880	1.885	1.880	1.899	1.890	1.895
0.005	0.015	0.000	0.005	0.010	-0.020	0.425	2.739	1.895	1.895	1.885	1.904	1.895	1.890
-0.005	0.015	-0.005	0.005	0.000	0.005	0.430	2.642	1.885	1.890	1.890	1.904	1.895	1.895
0.005	0.020	0.005	0.005	0.000	-0.029	0.425	2.632	1.885	1.890	1.890	1.904	1.895	1.890
0.005	0.024	0.000	0.000	0.005	-0.005	0.420	2.661	1.880	1.885	1.885	1.904	1.899	1.895
-0.005	0.005	0.000	0.005	0.005	-0.005	0.420	2.744	1.885	1.880	1.885	1.904	1.899	1.895
0.000	-0.005	0.000	0.005	0.005	0.000	0.425	2.676	1.885	1.880	1.880	1.904	1.899	1.899
0.005	0.000	0.000	0.005	0.010	0.005	0.425	2.646	1.880	1.875	1.880	1.899	1.895	1.899
0.000	-0.005	0.005	0.005	0.000	0.010	0.420	2.793	1.890	1.875	1.880	1.899	1.895	1.899
-0.005	-0.010	-0.005	0.005	0.005	0.010	0.420	2.642	1.880	1.875	1.875	1.899	1.895	1.890
-0.005	0.000	0.000	0.005	0.005	-0.015	0.420	2.642	1.875	1.875	1.875	1.895	1.895	1.885
-0.010	0.000	-0.005	-0.005	0.000	0.015	0.420	2.642	1.870	1.875	1.875	1.890	1.890	1.895
0.000	-0.005	0.000	0.000	0.000	0.010	0.420	2.661	1.875	1.875	1.875	1.895	1.890	1.890
0.010	0.005	0.000	0.005	0.010	0.005	0.420	2.627	1.870	1.870	1.875	1.890	1.890	1.890
0.005	0.005	0.000	0.005	0.010	0.020	0.425	2.700	1.875	1.875	1.875	1.890	1.890	1.895
-0.005	0.005	0.000	0.000	0.000	0.015	0.415	2.681	1.880	1.875	1.875	1.895	1.890	1.890
0.000	0.000	0.000	0.005	-0.005	0.015	0.425	2.686	1.885	1.880	1.875	1.895	1.890	1.895
0.015	-0.005	0.005	0.005	0.000	0.005	0.420	2.690	1.890	1.880	1.880	1.895	1.890	1.885
0.005	-0.005	0.000	0.005	0.000	0.024	0.415	2.705	1.890	1.880	1.880	1.895	1.890	1.895
0.010	-0.010	0.000	-0.005	0.000	0.015	0.425	2.690	1.890	1.880	1.880	1.899	1.890	1.890
0.000	0.000	0.005	0.005	0.000	0.000	0.420	2.690	1.890	1.885	1.880	1.899	1.890	1.885
0.015	-0.005	0.005	0.000	0.000	-0.015	0.425	2.705	1.890	1.885	1.885	1.895	1.890	1.885
0.015	0.015	-0.005	0.000	0.000	-0.005	0.415	2.690	1.890	1.890	1.880	1.899	1.890	1.890
0.000	-0.005	0.000	0.000	0.000	0.000	0.420	2.695	1.880	1.880	1.885	1.899	1.895	1.890
0.000	0.000	0.005	0.000	0.010	-0.005	0.415	2.695	1.880	1.880	1.880	1.899	1.890	1.885
-0.015	0.000	0.005	0.000	0.010	0.005	0.415	2.705	1.875	1.875	1.880	1.895	1.895	1.890
0.005	-0.015	0.005	0.000	0.005	0.000	0.420	2.686	1.880	1.875	1.875	1.899	1.890	1.890
0.000	0.005	0.005	0.000	0.010	-0.005	0.415	2.695	1.875	1.875	1.875	1.895	1.890	1.885
0.000	0.000	0.000	-0.005	0.005	-0.024	0.425	2.695	1.880	1.875	1.875	1.890	1.890	1.880
0.010	0.000	0.005	0.000	0.000	-0.034	0.425	2.690	1.880	1.880	1.875	1.895	1.890	1.880
0.000	0.000	0.000	0.000	0.005	0.005	0.420	2.715	1.880	1.875	1.875	1.895	1.890	1.895
0.005	0.010	-0.005	0.000	0.000	0.005	0.425	2.695	1.880	1.880	1.875	1.895	1.890	1.895
-0.005	-0.005	0.005	0.005	0.000	-0.020	0.420	2.705	1.890	1.880	1.875	1.895	1.890	1.885
0.005	0.005	0.010	0.005	-0.005	0.015	0.425	2.705	1.890	1.885	1.880	1.899	1.890	1.895
0.015	0.005	0.005	0.005	0.005	0.015	0.420	2.705	1.890	1.890	1.880	1.899	1.895	1.895
0.000	0.005	0.000	0.005	0.000	0.005	0.420	2.710	1.890	1.890	1.880	1.899	1.895	1.895
0.010	0.005	0.005	0.005	0.000	-0.005	0.415	2.695	1.890	1.890	1.885	1.899	1.895	1.890
-0.005	0.000	0.000	0.005	0.000	-0.010	0.415	2.812	1.904	1.890	1.890	1.904	1.895	1.895
0.005	-0.005	0.010	0.010	0.005	0.020	0.420	2.661	1.890	1.885	1.890	1.904	1.899	1.899
-0.005	-0.010	0.000	0.005	0.000	0.005	0.420	2.651	1.875	1.880	1.885	1.899	1.895	1.890
0.000	-0.005	0.005	0.005	0.000	-0.005	0.425	2.798	1.875	1.885	1.885	1.904	1.895	1.895
0.000	0.000	0.000	0.000	0.005	0.000	0.420	2.734	1.880	1.880	1.885	1.899	1.895	1.895
-0.005	0.005	0.000	-0.005	0.000	0.005	0.420	2.637	1.875	1.875	1.875	1.895	1.890	1.895
0.000	-0.005	-0.005	0.000	0.010	-0.015	0.420	2.734	1.880	1.875	1.875	1.895	1.890	1.885
0.005	-0.005	0.000	0.000	0.005	-0.005	0.430	2.671	1.875	1.875	1.875	1.895	1.890	1.885
-0.005	0.000	0.000	0.000	0.005	0.000	0.415	2.754	1.885	1.875	1.875	1.895	1.890	1.890
0.000	0.010	0.000	0.005	0.000	0.005	0.425	2.686	1.885	1.880	1.875	1.895	1.890	1.890
0.000	0.015	0.005	0.000	0.000	-0.015	0.420	2.646	1.880	1.880	1.875	1.895	1.885	1.880
0.000	0.000	0.000	0.005	0.000	0.005	0.415	2.681	1.875	1.875	1.880	1.895	1.890	1.895
0.000	-0.005	0.000	0.000	0.005	-0.005	0.420	2.632	1.875	1.875	1.875	1.899	1.895	1.890
0.015	0.000	0.005	0.005	0.005	0.020	0.430	2.744	1.890	1.880	1.875	1.899	1.895	1.895
0.010	0.005	0.000	0.000	0.000	-0.015	0.415	2.642	1.880	1.885	1.880	1.895	1.895	1.890
0.010	0.010	0.000	0.005	-0.005	0.015	0.430	2.744	1.890	1.890	1.880	1.899	1.895	1.899
0.010	0.010	0.005	0.005	0.000	0.010	0.420	2.749	1.895	1.890	1.885	1.899	1.895	1.895
0.000	0.000	0.005	0.010	0.005	0.024	0.430	2.710	1.890	1.885	1.885	1.899	1.895	1.899
0.000	0.000	0.000	0.005	0.005	0.000	0.415	2.681	1.890	1.885	1.885	1.899	1.895	1.890
-0.010	0.000	0.005	0.000	0.005	0.010	0.430	2.705	1.885	1.885	1.880	1.899	1.895	1.895
0.000	0.000	0.000	0.000	0.000	0.005	0.415	2.700	1.890	1.880	1.880	1.899	1.895	1.890
0.000	0.005	0.000	0.000	0.000	0.000	0.425	2.705	1.890	1.885	1.880	1.899	1.890	1.890
-0.005	0.010	0.000	0.005	0.000	0.005	0.425	2.700	1.890	1.885	1.880	1.895	1.890	1.890
0.005	0.010	0.005	0.000	0.000	0.005	0.420	2.710	1.890	1.885	1.880	1.899	1.890	1.890
0.005	0.010	0.000	0.000	0.005	0.000	0.420	2.700	1.890	1.885	1.875	1.895	1.890	1.885
0.000	0.015	0.000	0.005	0.000	0.000	0.420	2.690	1.890	1.885	1.880	1.895	1.890	1.885
0.010	0.015	0.005	0.000	0.005	0.000	0.425	2.686	1.885	1.885	1.885	1.899	1.895	1.890
0.005	0.005	0.005	0.000	0.005	-0.024	0.425	2.690	1.885	1.880	1.880	1.895	1.895	1.885
0.005	0.005	0.000	-0.005	-0.005	-0.005	0.415	2.695	1.885	1.880	1.880	1.899	1.895	1.895
0.000	0.005	0.000	0.000	0.000	0.005	0.425	2.690	1.890	1.885	1.885	1.899	1.895	1.895
0.005	-0.005	0.010	0.005	0.005	0.005	0.420	2.686	1.885	1.885	1.885	1.899	1.899	1.895
0.000	-0.005	0.005	0.000	0.000	0.000	0.425	2.686	1.885	1.885	1.885	1.904	1.899	1.899
0.005	0.000	0.000	0.000	0.000	0.000	0.420	2.700	1.885	1.885	1.885	1.904	1.899	1.899
0.005	0.005	0.000	0.005	0.005	-0.020	0.420	2.695	1.885	1.890	1.885	1.904	1.899	1.895
0.005	0.005	0.000	0.005	0.000	-0.024	0.430	2.686	1.885	1.885	1.885	1.904	1.895	1.890
0.005	-0.005	0.005	0.005	0.010	-0.005	0.415	2.700	1.885	1.880	1.885	1.904	1.899	1.899
0.005	0.000	0.005	0.005	0.005	-0.010	0.430	2.695	1.885	1.890	1.885	1.899	1.899	1.895
0.000	0.000	0.000	0.000	0.010	0.010	0.420	2.705	1.885	1.885	1.880	1.899	1.899	1.899
0.000	0.005	0.005	0.000	0.010	0.000	0.425	2.700	1.885	1.885	1.880	1.899	1.895	1.890
0.005	0.000	0.000	0.000	0.010	0.010	0.410	2.695	1.880	1.875	1.875	1.895	1.895	1.895
-0.010	0.005	0.005	-0.005	0.000	0.010	0.420	2.812	1.899	1.885	1.880	1.895	1.895	1.895
0.005	0.005	0.010	0.005	0.000	-0.020	0.420	2.666	1.890	1.885	1.880	1.899	1.890	1.885
0.015	0.005	0.000	0.005	0.005	0.015	0.425	2.651	1.885	1.885	1.875	1.895	1.890	1.895
0.005	-0.005	-0.005	0.000	0.000	0.000	0.415	2.798	1.890	1.880	1.880	1.895	1.890	1.895
0.005	-0.015	0.000	0.005	-0.005	0.005	0.430	2.744	1.899	1.885	1.880	1.895	1.890	1.895
0.000	0.000	0.005	0.000	0.000	0.010	0.425	2.651	1.890	1.890	1.885	1.899	1.895	1.895
0.010	-0.005	0.005	0.005	-0.005	-0.015	0.425	2.734	1.895	1.895	1.885	1.904	1.895	1.890
-0.010	0.000	0.000	0.005	0.005	0.015	0.420	2.676	1.885	1.890	1.885	1.904	1.899	1.899
0.000	0.005	0.000	0.000	-0.005	0.034	0.420	2.739	1.895	1.895	1.890	1.904	1.899	1.904
0.000	0.005	0.005	0.005	0.000	0.024	0.420	2.681	1.895	1.895	1.890	1.909	1.904	1.899
0.000	0.005	0.000	0.005	0.010	0.015	0.425	2.749	1.895	1.895	1.890	1.909	1.904	1.899
0.000	0.000	0.005	0.005	0.000	0.015	0.420	2.705	1.890	1.890	1.890	1.909	1.904	1.899
-0.005	0.015	0.000	0.000	0.005	-0.010	0.425	2.656	1.885	1.895	1.895	1.909	1.899	1.895
0.005	0.010	0.000	0.000	0.000	0.010	0.425	2.729	1.890	1.890	1.885	1.904	1.899	1.895
-0.005	0.005	0.005	0.000	0.010	0.000	0.415	2.646	1.880	1.880	1.885	1.904	1.899	1.895
-0.005	0.000	0.005	0.005	0.005	-0.005	0.425	2.646	1.880	1.875	1.885	1.904	1.899	1.895
0.010	-0.010	0.005	0.005	0.000	0.000	0.425	2.739	1.890	1.880	1.880	1.904	1.899	1.895
0.000	0.005	0.005	0.005	0.010	0.005	0.430	2.690	1.890	1.885	1.875	1.899	1.895	1.895
-0.005	0.005	0.000	0.000	0.005	0.010	0.420	2.681	1.880	1.885	1.880	1.895	1.890	1.895
0.005	0.020	0.000	0.000	0.005	0.000	0.420	2.705	1.890	1.885	1.880	1.899	1.890	1.890
-0.005	0.039	0.000	0.000	-0.005	0.000	0.415	2.690	1.885	1.895	1.885	1.899	1.895	1.895
0.005	0.024	0.000	0.000	-0.005	0.005	0.420	2.700	1.890	1.890	1.890	1.904	1.895	1.895
0.005	-0.010	0.000	-0.005	0.005	-0.005	0.415	2.705	1.885	1.875	1.885	1.904	1.895	1.890
0.010	-0.010	0.000	0.005	0.000	0.005	0.430	2.710	1.890	1.880	1.880	1.904	1.899	1.899
0.000	-0.005	0.005	0.005	0.005	0.010	0.430	2.690	1.890	1.885	1.885	1.904	1.904	1.899
0.000	-0.005	0.005	0.005	0.000	0.005	0.430	2.700	1.890	1.890	1.890	1.909	1.899	1.899
0.000	-0.015	0.005	0.000	0.005	0.000	0.415	2.695	1.885	1.885	1.885	1.904	1.899	1.895
0.005	-0.005	0.005	0.005	0.000	-0.015	0.425	2.671	1.885	1.885	1.885	1.899	1.899	1.890
0.000	-0.015	0.000	0.005	0.005	-0.015	0.425	2.681	1.880	1.880	1.885	1.904	1.899	1.899
0.000	-0.005	0.005	0.005	0.010	0.000	0.425	2.686	1.885	1.880	1.885	1.899	1.899	1.899
-0.005	0.000	0.005	0.000	0.010	-0.005	0.420	2.686	1.880	1.885	1.880	1.899	1.899	1.895
0.000	0.000	0.000	0.005	0.005	0.010	0.420	2.686	1.880	1.880	1.880	1.895	1.895	1.899
-0.005	0.015	0.005	0.000	0.000	0.010	0.420	2.710	1.885	1.880	1.880	1.899	1.895	1.895
0.000	0.010	0.010	0.005	0.000	0.000	0.430	2.690	1.880	1.880	1.880	1.895	1.890	1.890
0.000	0.005	0.000	0.005	0.000	0.000	0.425	2.686	1.880	1.875	1.875	1.895	1.895	1.895
-0.005	0.000	0.005	0.000	0.000	0.015	0.430	2.710	1.885	1.875	1.875	1.895	1.890	1.890
0.000	0.010	0.010	0.000	-0.005	0.020	0.425	2.710	1.885	1.880	1.875	1.895	1.890	1.890
0.005	0.000	0.000	0.000	0.000	0.005	0.425	2.700	1.890	1.880	1.880	1.895	1.895	1.895
0.015	0.005	0.010	0.000	0.005	-0.005	0.425	2.690	1.890	1.885	1.880	1.895	1.890	1.885
0.005	0.005	0.000	0.000	0.000	0.015	0.420	2.695	1.890	1.885	1.880	1.899	1.890	1.890
0.005	0.000	0.005	0.000	0.005	-0.010	0.420	2.666	1.885	1.885	1.885	1.904	1.895	1.885
-0.005	-0.005	0.000	0.000	0.000	0.010	0.420	2.671	1.880	1.885	1.880	1.899	1.895	1.899
0.005	0.000	-0.005	0.000	-0.005	0.000	0.425	2.642	1.880	1.885	1.885	1.899	1.895	1.895
0.005	0.005	0.005	0.000	0.000	-0.015	0.425	2.666	1.880	1.885	1.885	1.899	1.895	1.890
0.010	-0.005	0.005	0.005	0.010	0.010	0.420	2.739	1.890	1.880	1.885	1.899	1.899	1.899
-0.005	0.005	0.005	-0.005	0.000	0.010	0.415	2.744	1.890	1.885	1.880	1.899	1.899	1.895
-0.005	0.005	-0.005	0.000	0.005	0.015	0.425	2.637	1.880	1.885	1.880	1.899	1.899	1.899
0.000	0.000	0.005	0.000	0.005	0.024	0.425	2.651	1.875	1.880	1.880	1.895	1.895	1.899
-0.005	-0.005	0.000	0.000	0.005	0.015	0.420	2.734	1.885	1.875	1.875	1.895	1.895	1.895
0.005	-0.005	0.000	0.000	0.010	0.000	0.425	2.681	1.885	1.875	1.880	1.895	1.890	1.885
0.000	0.005	0.000	0.000	0.005	-0.005	0.425	2.642	1.875	1.875	1.875	1.890	1.890	1.885
0.000	0.005	0.000	0.005	0.000	-0.005	0.420	2.705	1.880	1.880	1.880	1.895	1.890	1.890
0.010	0.000	0.000	0.005	0.000	0.000	0.430	2.646	1.875	1.875	1.875	1.895	1.885	1.890
0.005	0.000	0.000	0.000	-0.005	-0.005	0.425	2.651	1.895	1.880	1.875	1.895	1.885	1.885
0.005	0.005	0.005	0.000	-0.005	0.015	0.420	2.666	1.890	1.880	1.875	1.895	1.885	1.885
0.005	0.010	0.000	0.000	-0.005	0.005	0.420	2.744	1.895	1.890	1.880	1.895	1.890	1.890
-0.005	0.010	0.005	0.000	-0.005	-0.010	0.430	2.734	1.895	1.890	1.885	1.899	1.890	1.885
0.005	0.005	0.000	0.000	0.000	0.005	0.425	2.700	1.899	1.890	1.890	1.904	1.895	1.895
0.000	0.010	0.005	0.000	0.005	0.005	0.420	2.710	1.895	1.890	1.890	1.904	1.895	1.895
0.010	0.005	0.000	0.000	0.005	-0.005	0.420	2.700	1.890	1.890	1.890	1.899	1.899	1.895
0.005	0.000	0.005	0.000	0.005	-0.015	0.425	2.700	1.895	1.890	1.890	1.904	1.899	1.895
0.000	0.005	0.005	0.000	0.005	0.000	0.425	2.705	1.895	1.890	1.890	1.904	1.899	1.895
0.005	0.005	0.005	0.005	0.000	-0.005	0.425	2.681	1.890	1.890	1.890	1.904	1.899	1.895
0.000	0.005	0.005	0.005	0.010	-0.005	0.420	2.705	1.885	1.890	1.885	1.904	1.899	1.895
-0.005	-0.005	0.005	0.000	-0.005	-0.010	0.420	2.681	1.880	1.880	1.885	1.904	1.895	1.895
0.000	-0.005	0.005	0.005	0.005	0.000	0.415	2.686	1.880	1.880	1.885	1.904	1.899	1.899
0.000	0.005	0.000	0.005	0.000	0.000	0.425	2.686	1.875	1.880	1.880	1.899	1.895	1.895
0.015	0.000	0.005	0.005	0.005	-0.005	0.425	2.705	1.880	1.875	1.875	1.899	1.895	1.895
0.000	-0.005	0.005	0.005	0.010	-0.010	0.430	2.686	1.875	1.875	1.875	1.895	1.899	1.895
0.000	0.010	0.000	0.000	0.005	-0.010	0.430	2.690	1.880	1.880	1.880	1.895	1.890	1.890
-0.005	0.010	0.005	0.000	0.005	0.005	0.430	2.686	1.880	1.880	1.880	1.899	1.895	1.895
0.000	-0.005	0.005	-0.005	0.000	0.000	0.425	2.695	1.885	1.875	1.880	1.895	1.890	1.895
-0.005	-0.010	0.005	0.000	-0.005	0.005	0.420	2.700	1.890	1.880	1.875	1.895	1.895	1.895
0.005	0.005	0.000	0.000	-0.005	0.005	0.430	2.686	1.890	1.885	1.880	1.899	1.890	1.895
0.005	0.015	-0.005	0.000	-0.005	0.015	0.420	2.690	1.890	1.890	1.885	1.899	1.895	1.895
0.000	0.005	0.000	0.000	-0.005	0.024	0.425	2.705	1.890	1.885	1.885	1.899	1.895	1.899
0.010	0.000	0.005	0.000	0.000	0.039	0.425	2.671	1.890	1.890	1.885	1.899	1.899	1.904
-0.005	0.010	0.005	0.000	0.005	0.034	0.430	2.710	1.890	1.890	1.890	1.904	1.899	1.904
0.000	-0.005	0.000	-0.005	0.005	0.015	0.420	2.690	1.890	1.885	1.885	1.904	1.899	1.895
0.000	-0.010	0.000	0.005	0.010	-0.020	0.430	2.695	1.890	1.880	1.880	1.904	1.895	1.880
-0.005	-0.005	0.000	-0.005	0.005	0.015	0.420	2.803	1.899	1.885	1.880	1.899	1.895	1.895
0.005	0.015	0.000	0.000	0.005	0.005	0.425	2.656	1.890	1.890	1.880	1.899	1.899	1.895
0.005	0.010	0.000	0.000	0.005	0.000	0.420	2.646	1.880	1.885	1.885	1.899	1.895	1.890
-0.005	0.005	0.000	0.005	0.000	-0.010	0.425	2.793	1.890	1.885	1.880	1.899	1.895	1.890
0.000	0.015	0.000	0.005	0.010	0.000	0.415	2.739	1.895	1.885	1.880	1.899	1.895	1.890
0.005	-0.005	0.000	0.000	0.005	0.005	0.420	2.637	1.885	1.880	1.880	1.899	1.895	1.895
0.000	0.005	0.005	-0.005	0.000	0.010	0.420	2.651	1.880	1.885	1.885	1.899	1.895	1.895
0.005	0.000	0.010	-0.005	0.005	-0.010	0.415	2.681	1.880	1.880	1.880	1.899	1.895	1.890
0.005	0.010	0.005	0.000	-0.005	0.000	0.420	2.759	1.895	1.885	1.885	1.899	1.895	1.895
0.010	-0.005	0.005	0.005	0.005	0.000	0.430	2.681	1.890	1.885	1.885	1.904	1.899	1.899
0.000	0.000	0.000	0.000	0.005	0.005	0.430	2.651	1.880	1.885	1.885	1.904	1.899	1.899
0.005	-0.005	0.000	0.005	0.000	-0.005	0.420	2.695	1.895	1.885	1.885	1.904	1.899	1.895
0.005	0.005	0.000	0.000	0.005	-0.005	0.430	2.671	1.899	1.890	1.885	1.904	1.899	1.895
0.010	-0.005	0.000	0.005	-0.005	0.000	0.425	2.734	1.895	1.890	1.885	1.904	1.899	1.899
-0.005	-0.005	0.000	0.005	0.000	-0.005	0.420	2.671	1.890	1.890	1.890	1.904	1.904	1.895
0.005	0.015	0.000	0.005	0.000	-0.010	0.430	2.656	1.885	1.890	1.885	1.904	1.899	1.895
-0.005	-0.005	0.000	-0.005	0.005	0.015	0.420	2.744	1.890	1.885	1.885	1.899	1.899	1.899
-0.005	0.000	0.005	0.005	0.000	0.000	0.430	2.681	1.890	1.885	1.885	1.904	1.899	1.899
-0.005	0.010	0.005	0.000	0.010	0.005	0.425	2.690	1.885	1.885	1.880	1.904	1.899	1.899
-0.010	0.000	0.005	0.010	0.000	0.024	0.420	2.686	1.880	1.880	1.880	1.904	1.895	1.899
0.005	0.000	0.005	0.000	0.000	0.015	0.425	2.700	1.890	1.880	1.880	1.899	1.895	1.895
0.010	0.000	0.000	0.010	0.000	0.010	0.430	2.700	1.885	1.885	1.880	1.899	1.895	1.895
0.000	0.010	0.000	0.000	0.005	0.015	0.420	2.705	1.875	1.880	1.880	1.895	1.895	1.890
0.000	0.000	0.005	-0.005	0.000	0.010	0.415	2.695	1.880	1.880	1.880	1.895	1.895	1.895
0.010	-0.005	0.005	-0.005	0.000	0.000	0.420	2.681	1.880	1.880	1.880	1.895	1.895	1.890
0.005	0.005	0.000	-0.005	0.005	-0.029	0.415	2.690	1.885	1.885	1.880	1.899	1.890	1.885
0.000	0.000	0.005	0.000	0.000	0.000	0.420	2.690	1.885	1.880	1.880	1.899	1.895	1.895
0.000	0.000	0.005	0.005	0.000	0.000	0.415	2.700	1.880	1.885	1.885	1.899	1.895	1.899
0.005	0.000	0.005	0.005	0.000	0.005	0.425	2.686	1.885	1.885	1.885	1.904	1.899	1.899
-0.010	0.005	0.005	0.010	0.005	0.005	0.425	2.690	1.885	1.885	1.885	1.904	1.904	1.899
0.005	0.005	0.005	0.005	0.005	-0.010	0.430	2.686	1.885	1.885	1.880	1.904	1.899	1.895
0.000	-0.010	0.000	0.005	0.005	-0.015	0.415	2.690	1.885	1.880	1.880	1.904	1.899	1.895
0.000	0.000	0.005	-0.005	0.005	-0.015	0.430	2.690	1.890	1.885	1.880	1.899	1.899	1.895
0.005	-0.005	0.005	0.000	0.010	0.000	0.420	2.695	1.885	1.885	1.880	1.899	1.899	1.899
-0.005	0.010	0.000	0.000	0.005	0.005	0.425	2.690	1.880	1.885	1.880	1.899	1.895	1.895
0.000	0.010	0.000	0.000	0.005	0.000	0.425	2.705	1.885	1.880	1.880	1.895	1.890	1.895
0.005	0.010	0.005	0.000	0.000	0.010	0.430	2.681	1.880	1.880	1.875	1.895	1.890	1.890
0.000	0.015	0.000	0.000	0.000	-0.015	0.415	2.700	1.875	1.880	1.880	1.895	1.890	1.885
-0.010	0.005	-0.005	0.005	0.005	0.020	0.425	2.686	1.875	1.875	1.875	1.895	1.890	1.899
-0.005	0.000	0.010	0.000	0.000	0.024	0.420	2.705	1.880	1.875	1.875	1.895	1.890	1.895
0.000	0.000	0.000	0.005	0.000	0.015	0.425	2.812	1.899	1.885	1.875	1.895	1.890	1.895
0.015	0.010	0.000	0.005	0.000	0.024	0.420	2.651	1.890	1.885	1.880	1.895	1.890	1.895
0.005	-0.005	0.005	0.000	0.000	0.020	0.420	2.656	1.890	1.885	1.880	1.895	1.890	1.890
0.005	0.000	0.000	0.000	-0.010	0.000	0.425	2.803	1.899	1.890	1.880	1.895	1.890	1.885
-0.005	0.000	-0.005	0.000	0.000	0.005	0.425	2.739	1.899	1.890	1.885	1.895	1.895	1.890
0.005	0.000	0.005	0.000	0.000	0.020	0.420	2.642	1.890	1.895	1.885	1.899	1.895	1.895
0.000	0.010	0.005	0.000	0.005	-0.010	0.425	2.744	1.899	1.895	1.890	1.904	1.899	1.885
0.005	-0.005	0.000	0.000	0.000	0.000	0.425	2.651	1.890	1.895	1.890	1.904	1.899	1.895
-0.010	0.005	0.000	0.000	0.015	0.000	0.425	2.749	1.895	1.890	1.890	1.904	1.899	1.895
0.010	0.000	0.005	0.000	0.000	-0.005	0.420	2.686	1.890	1.890	1.890	1.904	1.899	1.890
-0.005	0.005	0.000	0.000	0.000	-0.010	0.420	2.734	1.890	1.890	1.885	1.904	1.895	1.895
0.000	0.005	0.010	0.000	0.005	-0.005	0.430	2.686	1.890	1.885	1.890	1.904	1.899	1.895
0.005	0.000	0.000	0.005	0.000	-0.005	0.425	2.666	1.880	1.885	1.880	1.904	1.895	1.895
-0.005	0.000	0.005	0.000	0.000	-0.024	0.420	2.749	1.880	1.880	1.885	1.899	1.895	1.885
0.000	0.000	-0.005	0.000	0.000	-0.010	0.425	2.656	1.875	1.875	1.880	1.899	1.895	1.895
0.000	0.005	0.005	0.005	0.000	0.000	0.425	2.749	1.885	1.880	1.880	1.899	1.895	1.895
-0.005	0.005	0.005	0.000	0.000	-0.024	0.425	2.739	1.890	1.885	1.880	1.899	1.895	1.890
0.005	0.015	0.005	0.000	0.005	-0.044	0.420	2.695	1.890	1.885	1.880	1.899	1.895	1.890
0.010	-0.005	0.000	0.000	0.010	-0.020	0.420	2.690	1.885	1.880	1.880	1.899	1.899	1.899
0.005	0.010	0.010	0.000	0.005	0.000	0.430	2.690	1.885	1.890	1.890	1.904	1.899	1.904
-0.005	0.010	0.000	0.000	0.005	0.010	0.420	2.695	1.890	1.890	1.885	1.904	1.899	1.904
-0.005	0.000	0.005	-0.005	0.005	0.005	0.425	2.710	1.890	1.885	1.885	1.904	1.899	1.899
0.000	0.005	0.000	-0.005	0.000	0.005	0.425	2.700	1.895	1.890	1.885	1.904	1.899	1.904
0.005	0.000	0.000	0.000	0.010	0.034	0.425	2.710	1.895	1.890	1.885	1.904	1.899	1.904
-0.010	-0.010	0.005	0.000	0.010	0.034	0.425	2.705	1.895	1.890	1.885	1.904	1.899	1.904
-0.005	0.000	0.000	-0.005	0.005	0.034	0.420	2.695	1.895	1.890	1.885	1.904	1.899	1.904
0.005	0.005	0.005	0.000	0.000	0.059	0.425	2.690	1.890	1.890	1.890	1.904	1.899	1.909
0.005	0.015	0.000	0.000	-0.005	0.034	0.420	2.690	1.895	1.890	1.885	1.904	1.895	1.895
-0.005	-0.010	0.005	0.000	-0.010	0.005	0.425	2.705	1.885	1.880	1.885	1.904	1.895	1.885
-0.010	0.000	0.000	0.000	-0.005	-0.005	0.430	2.686	1.885	1.885	1.880	1.899	1.899	1.890
0.005	0.000	0.000	0.005	-0.005	-0.005	0.420	2.681	1.880	1.885	1.880	1.899	1.890	1.885
0.005	-0.005	0.000	0.005	-0.005	-0.034	0.425	2.686	1.880	1.880	1.880	1.895	1.895	1.880
0.000	0.010	-0.005	0.005	-0.005	-0.044	0.425	2.686	1.880	1.885	1.880	1.899	1.895	1.885
0.005	0.015	0.000	0.000	-0.005	-0.005	0.420	2.695	1.880	1.885	1.880	1.899	1.895	1.895
0.005	0.005	0.000	0.000	0.005	-0.010	0.425	2.686	1.885	1.880	1.880	1.899	1.895	1.890
0.010	0.005	-0.005	0.010	0.005	-0.010	0.420	2.705	1.890	1.885	1.885	1.904	1.899	1.895
0.010	0.005	0.005	0.010	0.005	-0.010	0.430	2.705	1.890	1.885	1.885	1.904	1.899	1.899
0.005	0.015	0.000	0.005	0.010	0.000	0.420	2.705	1.890	1.890	1.885	1.904	1.899	1.899
0.005	-0.005	0.000	0.000	0.015	0.000	0.430	2.695	1.895	1.890	1.885	1.904	1.899	1.904
0.005	0.000	0.005	-0.005	0.005	0.005	0.420	2.695	1.890	1.890	1.885	1.899	1.895	1.899
0.010	0.010	0.005	-0.005	0.010	-0.020	0.425	2.812	1.904	1.895	1.890	1.904	1.899	1.895
-0.005	0.000	0.000	0.000	0.005	0.010	0.415	2.676	1.895	1.890	1.885	1.904	1.899	1.904
0.005	0.005	0.010	0.000	0.005	-0.015	0.425	2.656	1.890	1.890	1.890	1.904	1.895	1.895
-0.005	0.000	0.005	-0.005	0.000	0.005	0.420	2.803	1.895	1.890	1.890	1.904	1.899	1.899
-0.005	-0.015	0.000	0.000	0.000	0.000	0.425	2.734	1.899	1.885	1.885	1.904	1.899	1.895
-0.005	-0.005	0.000	0.005	0.005	-0.015	0.415	2.646	1.880	1.885	1.885	1.904	1.899	1.895
0.000	-0.005	0.000	0.000	0.005	-0.010	0.430	2.734	1.890	1.885	1.885	1.899	1.899	1.895
-0.010	0.000	0.000	0.000	0.005	0.005	0.425	2.661	1.885	1.885	1.885	1.899	1.895	1.895
-0.005	0.000	-0.005	0.000	0.000	0.010	0.425	2.744	1.890	1.885	1.880	1.899	1.895	1.899
0.000	0.000	0.005	0.000	-0.005	0.015	0.425	2.681	1.890	1.890	1.885	1.904	1.895	1.895
0.005	0.015	0.010	0.000	0.000	0.015	0.425	2.661	1.885	1.890	1.890	1.904	1.895	1.895
0.000	0.015	0.005	0.005	-0.005	-0.010	0.420	2.695	1.890	1.890	1.885	1.904	1.899	1.895
0.000	0.010	0.000	0.005	0.000	-0.005	0.420	2.651	1.895	1.890	1.885	1.904	1.904	1.899
0.005	0.010	0.000	0.000	0.005	-0.005	0.425	2.739	1.904	1.895	1.890	1.904	1.899	1.895
0.000	0.005	0.000	0.005	0.005	0.005	0.425	2.754	1.904	1.895	1.890	1.909	1.904	1.899
0.010	0.000	0.000	0.000	0.000	-0.020	0.420	2.646	1.899	1.895	1.890	1.909	1.899	1.895
-0.005	0.020	-0.005	0.000	0.000	0.010	0.425	2.729	1.899	1.899	1.895	1.909	1.904	1.909
0.005	0.005	-0.005	0.005	0.000	0.000	0.420	2.695	1.904	1.895	1.890	1.909	1.904	1.899
-0.005	0.010	0.000	0.000	0.010	0.005	0.420	2.686	1.895	1.895	1.895	1.909	1.904	1.904
0.000	0.010	0.000	0.000	0.010	-0.015	0.425	2.700	1.895	1.895	1.895	1.909	1.904	1.899
0.000	0.010	0.000	0.005	0.005	0.015	0.420	2.686	1.890	1.890	1.895	1.909	1.904	1.909
-0.010	-0.005	0.000	0.000	0.005	0.015	0.425	2.710	1.885	1.885	1.885	1.909	1.904	1.899
0.000	0.000	0.000	0.000	0.010	-0.010	0.425	2.705	1.885	1.880	1.885	1.909	1.904	1.895
0.010	-0.005	0.000	0.005	0.010	0.005	0.415	2.681	1.885	1.880	1.880	1.904	1.904	1.899
-0.005	0.000	0.000	0.005	0.000	0.000	0.415	2.686	1.880	1.880	1.880	1.904	1.899	1.904
0.000	0.000	0.005	0.005	0.000	0.010	0.425	2.681	1.880	1.880	1.880	1.904	1.895	1.899
0.000	0.005	0.005	0.005	0.000	-0.015	0.420	2.686	1.880	1.875	1.880	1.899	1.899	1.895
0.000	0.000	0.000	0.005	-0.005	0.005	0.430	2.695	1.875	1.875	1.875	1.899	1.895	1.899
0.005	0.000	-0.005	0.000	-0.005	-0.024	0.420	2.695	1.885	1.880	1.880	1.899	1.895	1.895
0.000	0.010	0.000	0.005	0.000	-0.010	0.425	2.681	1.890	1.885	1.880	1.899	1.899	1.895
0.005	0.000	-0.005	0.005	0.000	-0.005	0.420	2.676	1.885	1.885	1.880	1.904	1.899	1.899
0.005	0.000	0.005	0.005	0.005	0.000	0.430	2.690	1.890	1.885	1.885	1.899	1.899	1.899
0.005	-0.005	0.000	0.000	0.000	0.000	0.415	2.705	1.890	1.885	1.885	1.904	1.899	1.904
0.000	0.005	0.000	0.005	0.005	-0.010	0.430	2.705	1.890	1.890	1.885	1.899	1.899	1.895
-0.005	0.000	0.000	0.005	0.005	0.010	0.420	2.686	1.885	1.880	1.880	1.904	1.899	1.904
0.000	0.000	-0.005	0.005	0.005	0.000	0.430	2.695	1.890	1.885	1.880	1.899	1.899	1.899
0.000	-0.005	0.000	0.000	0.005	0.000	0.415	2.681	1.885	1.880	1.880	1.899	1.899	1.895
0.000	0.000	0.000	0.000	0.005	0.005	0.430	2.705	1.890	1.885	1.880	1.899	1.895	1.899
-0.005	0.015	0.005	0.000	0.005	0.005	0.425	2.710	1.885	1.885	1.880	1.899	1.890	1.895
-0.005	-0.005	0.005	0.000	0.005	0.005	0.420	2.695	1.885	1.880	1.880	1.895	1.890	1.895
0.005	0.000	0.000	0.000	0.005	-0.024	0.420	2.808	1.899	1.885	1.880	1.899	1.890	1.885
0.005	-0.005	0.000	0.000	0.005	0.015	0.430	2.666	1.885	1.885	1.880	1.895	1.890	1.895
0.000	0.005	0.000	-0.005	0.005	0.015	0.420	2.661	1.885	1.885	1.880	1.895	1.890	1.895
0.000	0.000	0.005	0.000	0.000	0.020	0.420	2.808	1.899	1.890	1.880	1.895	1.890	1.890
0.010	0.010	0.005	0.000	0.000	0.015	0.425	2.642	1.890	1.890	1.885	1.899	1.890	1.890
-0.005	-0.010	0.005	0.000	0.000	0.000	0.425	2.651	1.880	1.885	1.885	1.904	1.895	1.890
0.005	0.000	0.005	0.005	-0.005	-0.005	0.420	2.729	1.890	1.890	1.890	1.904	1.895	1.890
-0.005	-0.005	0.000	0.000	-0.005	-0.005	0.420	2.651	1.885	1.885	1.885	1.904	1.895	1.890
0.000	0.000	0.005	0.005	-0.005	-0.010	0.430	2.656	1.885	1.885	1.890	1.904	1.899	1.890
0.005	0.005	0.000	0.005	-0.005	-0.010	0.420	2.686	1.885	1.885	1.885	1.909	1.899	1.890
-0.005	-0.005	0.005	0.000	-0.005	-0.005	0.425	2.744	1.890	1.885	1.885	1.904	1.899	1.895
0.000	-0.005	0.005	0.000	0.000	-0.005	0.425	2.681	1.890	1.885	1.885	1.904	1.899	1.899
-0.005	0.000	0.005	-0.005	0.000	-0.005	0.415	2.656	1.885	1.885	1.885	1.904	1.904	1.899
0.000	0.005	0.000	-0.005	0.005	0.000	0.420	2.729	1.890	1.885	1.885	1.904	1.899	1.899
-0.005	-0.005	0.000	0.005	0.015	0.010	0.425	2.656	1.875	1.880	1.880	1.899	1.899	1.899
0.000	0.000	0.005	0.005	0.005	0.010	0.420	2.759	1.890	1.880	1.880	1.899	1.895	1.899
-0.005	0.010	0.000	0.000	0.005	0.024	0.415	2.739	1.895	1.885	1.880	1.899	1.895	1.904
0.005	-0.005	0.005	0.000	0.000	0.024	0.420	2.690	1.890	1.880	1.880	1.899	1.895	1.899
0.000	0.005	0.000	0.000	0.005	0.010	0.425	2.686	1.885	1.885	1.880	1.899	1.895	1.890
0.005	0.020	0.000	0.005	0.005	0.024	0.425	2.690	1.890	1.890	1.885	1.899	1.895	1.895
0.000	0.024	-0.005	0.005	0.000	0.015	0.430	2.705	1.890	1.890	1.885	1.899	1.895	1.895
0.000	0.000	0.000	0.005	0.005	0.015	0.430	2.710	1.895	1.885	1.885	1.904	1.899	1.890
0.005	0.000	0.005	0.005	0.005	0.005	0.430	2.715	1.895	1.885	1.885	1.904	1.899	1.890
0.000	-0.005	0.000	0.005	0.000	-0.010	0.420	2.686	1.885	1.885	1.885	1.904	1.895	1.890
0.005	-0.010	0.000	0.000	-0.005	-0.020	0.425	2.705	1.895	1.885	1.885	1.904	1.899	1.890
-0.005	-0.010	0.000	0.005	0.000	-0.005	0.415	2.690	1.890	1.890	1.890	1.904	1.899	1.899
0.000	0.000	0.000	0.010	0.000	-0.010	0.420	2.686	1.890	1.885	1.890	1.904	1.899	1.895
0.005	0.000	0.005	0.000	0.005	-0.024	0.425	2.695	1.890	1.890	1.885	1.904	1.899	1.890
0.005	-0.010	0.005	0.005	0.000	-0.015	0.430	2.686	1.890	1.885	1.890	1.904	1.899	1.895
-0.005	-0.020	0.005	0.000	0.010	-0.005	0.425	2.681	1.885	1.880	1.885	1.904	1.899	1.899
-0.010	-0.005	0.005	0.000	0.010	-0.029	0.420	2.690	1.880	1.880	1.885	1.899	1.899	1.895
-0.005	-0.005	0.000	0.000	0.010	-0.020	0.420	2.690	1.885	1.885	1.880	1.899	1.899	1.895
0.000	0.005	0.005	0.005	0.000	0.015	0.430	2.705	1.890	1.885	1.880	1.899	1.899	1.904
-0.005	-0.005	0.000	0.005	0.010	0.029	0.425	2.710	1.885	1.875	1.880	1.895	1.895	1.904
-0.010	0.005	0.000	0.005	0.005	0.034	0.415	2.690	1.885	1.880	1.880	1.895	1.895	1.904
0.010	0.024	0.000	0.005	0.000	0.024	0.425	2.700	1.890	1.885	1.880	1.899	1.890	1.899
0.000	0.015	0.000	0.005	0.000	0.029	0.430	2.710	1.885	1.885	1.880	1.899	1.890	1.895
0.000	0.015	0.005	0.005	0.005	0.015	0.425	2.710	1.890	1.885	1.885	1.899	1.895	1.890
-0.005	0.015	0.000	-0.005	0.000	0.005	0.430	2.686	1.890	1.890	1.880	1.899	1.895	1.890
0.005	-0.010	0.000	0.000	0.000	0.010	0.425	2.695	1.885	1.880	1.885	1.904	1.899	1.895
-0.005	0.005	0.005	0.000	-0.005	-0.024	0.415	2.817	1.904	1.890	1.885	1.904	1.895	1.885
0.005	0.015	0.000	0.005	-0.005	-0.005	0.425	2.671	1.895	1.890	1.890	1.904	1.895	1.890
0.000	0.010	0.000	0.000	0.000	-0.020	0.425	2.651	1.890	1.895	1.890	1.904	1.899	1.890
0.010	-0.010	-0.005	0.000	-0.005	-0.005	0.425	2.803	1.904	1.890	1.890	1.904	1.899	1.895
0.005	-0.005	0.005	0.000	-0.005	-0.005	0.420	2.642	1.890	1.890	1.890	1.904	1.899	1.895
0.000	-0.005	0.000	0.000	-0.005	0.000	0.425	2.651	1.885	1.890	1.885	1.904	1.899	1.899
0.010	0.000	-0.005	0.000	0.000	-0.005	0.415	2.705	1.890	1.885	1.885	1.904	1.899	1.895
0.000	0.000	0.000	0.005	0.000	0.000	0.425	2.686	1.885	1.890	1.885	1.904	1.899	1.895
0.000	0.000	0.000	0.005	0.005	-0.020	0.425	2.651	1.875	1.880	1.885	1.904	1.899	1.895
-0.005	0.000	0.000	0.000	0.000	-0.005	0.420	2.671	1.870	1.880	1.880	1.899	1.895	1.895
0.000	0.024	0.005	0.000	-0.005	0.000	0.420	2.754	1.885	1.885	1.880	1.899	1.890	1.895
0.005	0.010	0.005	0.005	0.005	0.000	0.420	2.686	1.880	1.880	1.880	1.895	1.895	1.899
0.005	0.020	0.005	0.005	0.010	0.005	0.420	2.729	1.890	1.880	1.880	1.899	1.895	1.895
0.005	0.015	0.005	0.000	0.000	-0.005	0.420	2.729	1.890	1.885	1.880	1.899	1.895	1.895
-0.005	0.010	-0.005	0.005	0.000	-0.005	0.415	2.744	1.890	1.885	1.880	1.899	1.895	1.895
0.000	0.000	0.005	0.005	0.010	0.010	0.425	2.749	1.895	1.885	1.880	1.899	1.899	1.899
0.000	0.005	0.000	0.000	0.010	0.010	0.415	2.749	1.899	1.890	1.885	1.899	1.899	1.899
0.005	-0.005	-0.005	0.000	0.010	0.000	0.420	2.686	1.899	1.890	1.885	1.904	1.899	1.895
0.005	-0.005	0.005	0.005	0.015	0.015	0.420	2.676	1.895	1.895	1.890	1.904	1.899	1.904
0.005	-0.005	0.005	0.005	0.010	0.000	0.425	2.710	1.895	1.890	1.890	1.904	1.899	1.895
0.000	0.005	0.000	0.005	0.005	0.010	0.420	2.681	1.890	1.895	1.890	1.904	1.899	1.899
-0.010	0.010	0.000	0.005	0.010	0.010	0.425	2.700	1.885	1.895	1.890	1.904	1.899	1.899
-0.005	-0.005	0.005	0.005	0.000	0.015	0.430	2.705	1.895	1.890	1.890	1.904	1.899	1.895
0.000	0.000	0.005	0.000	0.010	-0.010	0.425	2.676	1.885	1.890	1.885	1.904	1.899	1.890
0.005	0.010	0.000	0.000	0.005	-0.005	0.430	2.700	1.885	1.885	1.885	1.904	1.899	1.890
0.000	-0.005	0.000	0.000	0.000	0.000	0.420	2.690	1.880	1.875	1.880	1.904	1.899	1.895
-0.005	-0.010	0.005	0.005	0.000	-0.024	0.425	2.686	1.880	1.875	1.880	1.899	1.895	1.885
0.000	-0.005	0.000	0.005	-0.005	0.020	0.430	2.700	1.880	1.880	1.875	1.899	1.895	1.899
-0.005	0.005	0.000	0.000	0.005	0.005	0.430	2.681	1.880	1.880	1.880	1.899	1.895	1.899
0.005	0.000	0.000	0.005	0.000	0.024	0.415	2.690	1.890	1.880	1.880	1.899	1.895	1.899
0.000	0.000	0.000	0.005	0.005	0.024	0.420	2.690	1.880	1.880	1.880	1.899	1.895	1.899
-0.005	0.005	0.005	0.000	-0.005	0.015	0.420	2.690	1.885	1.885	1.880	1.899	1.890	1.890
0.005	-0.005	0.000	0.000	-0.005	0.000	0.420	2.695	1.890	1.885	1.880	1.899	1.895	1.890
0.000	0.010	0.000	0.005	-0.005	0.000	0.420	2.710	1.890	1.890	1.885	1.899	1.895	1.895
0.005	0.005	0.000	0.000	0.000	-0.005	0.430	2.690	1.890	1.885	1.885	1.899	1.895	1.895
0.005	0.010	-0.005	0.005	-0.005	0.005	0.420	2.695	1.895	1.895	1.885	1.904	1.899	1.895
0.005	0.015	0.000	0.005	0.000	-0.015	0.430	2.700	1.895	1.895	1.885	1.904	1.899	1.890
0.005	0.005	0.005	0.010	0.005	0.005	0.425	2.690	1.890	1.890	1.890	1.904	1.899	1.899
0.000	-0.005	0.005	0.005	0.000	0.005	0.430	2.705	1.890	1.890	1.890	1.904	1.899	1.899
0.005	-0.005	0.000	0.005	0.000	0.000	0.425	2.700	1.885	1.880	1.885	1.904	1.899	1.899
0.000	-0.005	0.000	0.000	0.005	0.005	0.425	2.808	1.885	1.885	1.885	1.904	1.899	1.899
-0.005	0.000	0.000	0.005	0.010	0.005	0.425	2.671	1.880	1.880	1.880	1.899	1.899	1.899
0.000	0.005	0.005	0.000	0.005	-0.010	0.425	2.656	1.880	1.880	1.880	1.899	1.895	1.890
0.005	0.000	0.000	0.000	0.010	-0.015	0.425	2.676	1.875	1.880	1.880	1.899	1.895	1.890
0.000	-0.005	0.005	0.005	-0.005	0.024	0.425	2.656	1.870	1.875	1.875	1.895	1.890	1.899
-0.005	0.000	0.005	0.005	-0.005	0.015	0.420	2.744	1.880	1.875	1.875	1.895	1.890	1.895
0.000	0.005	0.000	0.000	-0.005	0.010	0.425	2.739	1.890	1.880	1.880	1.895	1.890	1.890
0.005	0.010	0.000	0.005	0.000	0.000	0.425	2.661	1.885	1.880	1.875	1.895	1.890	1.890
-0.005	0.000	0.000	0.000	0.000	-0.005	0.425	2.739	1.890	1.880	1.880	1.895	1.895	1.890
0.005	-0.005	0.000	0.000	-0.005	-0.005	0.415	2.686	1.895	1.885	1.880	1.895	1.895	1.890
0.005	0.000	0.000	0.005	0.005	0.010	0.430	2.734	1.899	1.890	1.880	1.899	1.895	1.895
-0.005	-0.005	0.000	0.000	0.005	0.015	0.420	2.686	1.890	1.890	1.885	1.899	1.895	1.899
0.005	0.005	0.000	0.005	0.000	0.010	0.430	2.754	1.899	1.895	1.890	1.904	1.899	1.899
0.000	0.015	0.005	0.005	0.010	0.000	0.425	2.744	1.895	1.895	1.895	1.904	1.899	1.895
0.000	0.000	0.005	0.005	0.005	0.005	0.420	2.734	1.899	1.890	1.890	1.904	1.895	1.895
0.000	0.010	0.005	0.000	0.010	-0.010	0.425	2.681	1.895	1.895	1.890	1.904	1.899	1.890
0.000	0.024	0.000	0.000	0.010	-0.034	0.415	2.642	1.895	1.895	1.895	1.904	1.899	1.890
0.000	0.010	0.000	0.000	0.010	0.005	0.420	2.686	1.885	1.885	1.890	1.904	1.899	1.899
0.005	-0.005	0.005	0.005	0.005	0.000	0.425	2.690	1.885	1.885	1.885	1.904	1.899	1.899
0.000	-0.005	0.000	0.000	0.005	0.000	0.425	2.700	1.885	1.875	1.880	1.899	1.895	1.895
0.000	0.005	0.005	0.000	0.000	0.005	0.420	2.681	1.880	1.885	1.880	1.899	1.895	1.895
-0.010	-0.005	0.000	0.000	-0.005	-0.029	0.420	2.690	1.875	1.875	1.880	1.895	1.890	1.890
0.000	0.005	-0.005	0.000	0.000	0.010	0.415	2.695	1.880	1.875	1.875	1.899	1.895	1.899
0.005	-0.005	0.005	0.000	-0.005	0.000	0.425	2.715	1.890	1.875	1.880	1.899	1.890	1.895
0.000	-0.005	0.005	0.000	-0.005	0.010	0.415	2.710	1.890	1.880	1.875	1.899	1.895	1.895
0.000	0.000	0.000	0.005	-0.005	-0.010	0.420	2.700	1.885	1.885	1.880	1.899	1.895	1.895
0.000	-0.005	0.000	0.000	0.000	0.000	0.425	2.700	1.890	1.885	1.880	1.899	1.899	1.895
0.010	0.000	0.005	0.000	0.010	-0.005	0.425	2.710	1.890	1.890	1.885	1.899	1.899	1.895
-0.005	0.000	0.005	0.000	0.005	0.005	0.415	2.686	1.890	1.890	1.885	1.899	1.899	1.899
-0.010	0.010	0.000	0.000	0.005	-0.005	0.425	2.686	1.890	1.895	1.885	1.904	1.899	1.899
0.005	0.010	0.005	0.000	0.005	-0.005	0.420	2.690	1.890	1.890	1.890	1.904	1.899	1.895
0.005	0.005	0.005	0.005	0.000	-0.020	0.425	2.690	1.890	1.890	1.885	1.909	1.899	1.895
0.000	0.010	0.010	0.000	0.005	-0.005	0.425	2.686	1.885	1.890	1.890	1.904	1.899	1.895
0.005	0.000	0.000	0.000	0.005	0.010	0.430	2.681	1.890	1.880	1.885	1.904	1.899	1.904
0.000	0.010	0.000	0.005	0.000	0.010	0.420	2.686	1.880	1.885	1.885	1.899	1.899	1.899
-0.005	0.005	0.000	0.000	0.000	-0.010	0.430	2.676	1.880	1.880	1.880	1.895	1.890	1.890
0.005	0.024	-0.005	0.000	0.000	0.000	0.425	2.705	1.885	1.885	1.880	1.899	1.895	1.895
-0.005	0.015	0.000	0.000	0.000	0.010	0.430	2.705	1.885	1.880	1.880	1.899	1.895	1.895
-0.010	0.005	0.005	0.000	-0.005	0.010	0.425	2.705	1.885	1.875	1.875	1.895	1.895	1.895
0.005	0.000	0.010	0.005	-0.005	0.005	0.425	2.686	1.885	1.880	1.875	1.899	1.890	1.890
0.000	0.015	0.000	0.005	0.000	0.010	0.420	2.808	1.899	1.885	1.880	1.895	1.895	1.895
0.005	-0.010	0.000	0.010	0.010	0.015	0.425	2.661	1.890	1.885	1.880	1.899	1.899	1.899
0.000	-0.005	0.005	0.010	0.024	0.005	0.420	2.642	1.885	1.885	1.880	1.899	1.899	1.895
0.010	-0.005	-0.005	0.005	0.039	0.005	0.420	2.803	1.899	1.885	1.880	1.899	1.904	1.899
0.005	-0.005	0.000	0.010	0.024	0.034	0.425	2.642	1.895	1.890	1.885	1.904	1.904	1.909
0.005	-0.005	0.000	0.010	0.010	0.034	0.425	2.637	1.885	1.890	1.885	1.904	1.895	1.904
-0.005	0.000	-0.005	0.005	0.000	0.020	0.425	2.715	1.895	1.890	1.885	1.904	1.895	1.895
-0.005	-0.005	0.000	0.005	0.000	0.020	0.425	2.656	1.890	1.890	1.885	1.904	1.899	1.895
0.015	0.000	0.005	0.005	-0.010	0.020	0.425	2.651	1.890	1.895	1.890	1.904	1.895	1.895
0.000	0.000	0.005	0.000	-0.005	0.015	0.415	2.686	1.880	1.885	1.890	1.904	1.899	1.895
0.005	0.015	0.005	0.000	0.015	-0.010	0.420	2.744	1.890	1.890	1.885	1.904	1.899	1.890
-0.005	0.034	0.000	0.005	0.034	0.020	0.420	2.705	1.890	1.890	1.890	1.904	1.904	1.904
0.000	0.005	0.000	0.005	0.039	0.015	0.425	2.744	1.890	1.880	1.885	1.904	1.904	1.899
0.000	0.000	0.000	0.005	0.034	0.010	0.420	2.739	1.895	1.880	1.880	1.904	1.899	1.899
0.000	0.000	0.000	0.000	0.024	0.010	0.420	2.759	1.899	1.885	1.885	1.899	1.895	1.895
0.015	0.005	0.005	0.005	0.015	0.000	0.420	2.642	1.895	1.890	1.885	1.899	1.895	1.895
0.000	-0.005	0.000	0.000	0.020	-0.020	0.420	2.734	1.890	1.885	1.885	1.899	1.890	1.885
-0.005	0.000	0.005	0.005	0.010	0.005	0.425	2.681	1.885	1.885	1.885	1.904	1.890	1.890
0.010	-0.010	0.000	0.005	0.000	0.000	0.420	2.676	1.880	1.885	1.885	1.899	1.890	1.895
0.000	-0.010	-0.005	0.005	-0.005	0.005	0.420	2.710	1.890	1.890	1.890	1.904	1.895	1.895
0.005	-0.020	0.000	0.000	-0.015	0.010	0.425	2.686	1.890	1.885	1.885	1.904	1.895	1.895
0.010	0.020	0.000	0.000	-0.029	0.010	0.420	2.715	1.895	1.895	1.890	1.904	1.890	1.895
0.005	0.029	0.005	0.000	-0.029	0.000	0.430	2.700	1.890	1.899	1.895	1.909	1.895	1.890
0.005	0.034	0.005	0.000	-0.020	0.000	0.420	2.686	1.890	1.899	1.895	1.909	1.899	1.895
0.000	0.010	0.000	0.000	-0.020	0.000	0.415	2.686	1.890	1.890	1.890	1.909	1.904	1.895
0.010	0.000	0.000	0.005	-0.020	-0.020	0.425	2.690	1.890	1.885	1.890	1.909	1.904	1.890
0.005	-0.005	0.000	0.000	-0.010	0.005	0.415	2.686	1.880	1.880	1.885	1.904	1.904	1.899
0.005	-0.005	0.005	0.000	-0.015	-0.005	0.425	2.710	1.885	1.880	1.885	1.904	1.904	1.899
-0.005	0.000	0.000	0.000	-0.010	-0.005	0.420	2.690	1.885	1.880	1.880	1.899	1.899	1.895
-0.005	-0.005	0.005	-0.005	-0.005	0.000	0.425	2.686	1.885	1.880	1.875	1.899	1.899	1.895
0.000	-0.005	0.000	0.000	-0.010	-0.005	0.420	2.690	1.880	1.880	1.875	1.899	1.895	1.895
-0.005	-0.010	0.005	0.005	-0.005	-0.005	0.420	2.686	1.875	1.880	1.880	1.899	1.895	1.895
0.005	-0.005	0.005	0.000	-0.010	-0.005	0.415	2.695	1.885	1.875	1.875	1.895	1.895	1.895
0.000	-0.010	0.000	0.000	-0.005	-0.015	0.425	2.710	1.890	1.880	1.875	1.895	1.890	1.890
0.010	0.000	0.000	0.005	-0.010	-0.024	0.425	2.690	1.890	1.885	1.880	1.895	1.890	1.885
0.010	-0.005	0.005	0.005	-0.005	-0.005	0.420	2.700	1.885	1.885	1.880	1.899	1.895	1.895
0.005	0.000	0.000	0.005	-0.005	-0.015	0.430	2.710	1.890	1.890	1.885	1.904	1.895	1.895
0.000	-0.010	0.000	0.005	0.005	0.010	0.420	2.700	1.890	1.885	1.880	1.899	1.899	1.899
0.000	-0.005	0.000	0.005	0.000	0.005	0.425	2.686	1.895	1.890	1.885	1.899	1.899	1.899
0.005	-0.015	0.000	0.000	0.005	-0.024	0.420	2.690	1.890	1.890	1.885	1.899	1.899	1.890
0.000	-0.015	0.000	0.000	0.005	0.010	0.420	2.808	1.899	1.890	1.885	1.904	1.899	1.904
-0.005	-0.005	0.005	-0.005	0.005	0.015	0.425	2.661	1.895	1.890	1.890	1.904	1.899	1.904
-0.005	-0.005	0.005	0.000	0.000	0.005	0.420	2.651	1.890	1.895	1.890	1.904	1.895	1.899
0.000	0.010	0.005	0.000	0.010	-0.015	0.430	2.793	1.899	1.895	1.885	1.904	1.899	1.890
-0.010	0.015	0.000	0.000	0.005	0.015	0.415	2.646	1.880	1.890	1.890	1.904	1.899	1.899
-0.005	0.005	0.000	-0.005	0.005	0.020	0.425	2.651	1.880	1.885	1.885	1.904	1.895	1.899
0.005	0.010	0.005	0.000	0.005	0.015	0.420	2.739	1.890	1.890	1.885	1.904	1.895	1.895
0.010	0.020	0.000	-0.005	0.005	0.010	0.430	2.676	1.885	1.885	1.885	1.899	1.895	1.895
0.005	0.010	0.000	0.000	0.005	0.010	0.425	2.651	1.880	1.880	1.880	1.899	1.895	1.895
-0.005	0.005	0.005	0.000	0.005	0.010	0.420	2.676	1.875	1.875	1.880	1.904	1.895	1.895
0.005	0.005	-0.005	0.005	0.005	-0.005	0.425	2.754	1.890	1.885	1.880	1.899	1.895	1.890
0.000	0.005	0.005	0.000	0.000	0.015	0.420	2.705	1.890	1.880	1.880	1.899	1.895	1.895
0.000	0.005	-0.005	0.000	0.000	-0.005	0.415	2.759	1.895	1.885	1.880	1.899	1.895	1.890
0.000	0.005	0.000	0.000	-0.005	0.005	0.425	2.734	1.895	1.890	1.885	1.904	1.899	1.895
-0.005	-0.005	0.005	0.000	-0.005	0.005	0.420	2.754	1.904	1.890	1.885	1.904	1.899	1.895
0.000	-0.005	0.005	0.005	-0.005	-0.005	0.420	2.656	1.904	1.899	1.890	1.904	1.899	1.895
0.000	0.000	-0.005	0.000	0.005	-0.020	0.420	2.749	1.904	1.895	1.890	1.909	1.904	1.899
0.010	-0.015	0.005	0.005	0.000	0.005	0.425	2.686	1.895	1.890	1.890	1.904	1.904	1.904
-0.005	-0.010	0.000	0.005	0.005	0.010	0.420	2.676	1.890	1.895	1.890	1.909	1.904	1.904
0.000	-0.010	0.000	0.000	0.010	0.000	0.420	2.676	1.890	1.890	1.890	1.904	1.904	1.899
0.005	0.000	0.000	0.000	0.005	0.000	0.430	2.671	1.885	1.890	1.890	1.904	1.899	1.899
0.010	0.005	0.000	0.000	0.010	-0.015	0.415	2.705	1.885	1.890	1.885	1.904	1.899	1.895
-0.005	-0.005	0.000	-0.005	0.010	-0.005	0.425	2.700	1.880	1.880	1.890	1.904	1.899	1.899
0.000	0.000	0.005	0.005	0.005	0.000	0.420	2.705	1.880	1.885	1.885	1.904	1.895	1.895
-0.010	0.005	0.000	0.000	0.010	-0.010	0.425	2.686	1.880	1.880	1.880	1.899	1.899	1.895
-0.005	0.000	0.000	-0.005	0.005	-0.005	0.415	2.686	1.880	1.875	1.880	1.899	1.895	1.895
