-0.005	0.005	0.005	-0.005	0.000	-0.005	0.415	1.777	2.334	1.621	1.445	1.299	1.323	1.289
-0.005	-0.005	0.000	0.000	0.000	-0.020	0.430	1.733	2.031	1.743	1.528	1.367	1.333	1.299
0.005	0.000	0.005	0.000	0.000	0.015	0.430	1.768	1.826	1.772	1.592	1.431	1.353	1.323
-0.005	0.005	0.000	0.000	0.000	0.005	0.420	1.733	1.665	1.753	1.641	1.494	1.392	1.343
-0.005	0.005	0.000	0.000	0.000	0.000	0.425	1.777	1.558	1.704	1.660	1.543	1.426	1.362
-0.005	0.000	-0.005	0.000	0.000	0.010	0.430	1.792	1.484	1.641	1.655	1.577	1.465	1.387
-0.005	-0.005	-0.005	0.000	0.000	0.000	0.415	1.787	1.431	1.582	1.636	1.602	1.504	1.416
-0.005	-0.005	0.000	-0.005	0.000	0.005	0.420	1.787	1.396	1.533	1.611	1.606	1.533	1.445
0.000	0.000	0.005	0.000	0.000	0.000	0.430	1.772	1.367	1.484	1.572	1.606	1.548	1.470
-0.010	0.005	-0.005	0.000	-0.005	-0.005	0.425	1.758	1.348	1.455	1.543	1.592	1.558	1.494
-0.005	-0.005	-0.005	0.000	0.000	-0.010	0.420	1.704	1.338	1.421	1.509	1.572	1.562	1.514
-0.005	0.000	0.000	0.000	0.000	-0.005	0.415	1.777	1.328	1.396	1.479	1.553	1.558	1.523
-0.005	0.000	0.000	0.000	0.000	-0.010	0.420	1.782	1.333	1.382	1.455	1.533	1.553	1.533
-0.005	0.005	0.000	0.000	0.000	-0.005	0.425	1.792	1.338	1.372	1.431	1.514	1.543	1.538
-0.005	0.000	0.000	0.000	-0.005	0.000	0.420	1.802	1.343	1.362	1.411	1.494	1.528	1.533
-0.010	0.005	0.000	0.000	0.000	-0.005	0.415	1.807	1.348	1.362	1.401	1.475	1.514	1.528
0.005	0.000	-0.005	0.000	0.000	-0.010	0.415	1.743	1.348	1.362	1.387	1.455	1.499	1.523
0.005	-0.005	0.000	0.005	0.000	0.005	0.420	1.768	1.348	1.357	1.382	1.440	1.484	1.514
0.000	0.010	0.005	0.000	0.000	-0.010	0.425	1.792	1.343	1.362	1.372	1.426	1.465	1.499
0.005	0.020	0.000	0.000	-0.005	0.000	0.415	1.782	1.348	1.357	1.372	1.416	1.450	1.489
0.005	0.020	0.000	0.000	0.000	0.000	0.420	1.797	1.348	1.353	1.367	1.406	1.436	1.475
0.005	0.005	0.000	0.005	-0.005	0.000	0.415	1.792	1.343	1.353	1.362	1.401	1.426	1.460
0.005	-0.005	0.000	0.005	0.005	0.005	0.430	1.782	1.333	1.338	1.353	1.392	1.416	1.450
-0.010	-0.005	-0.005	0.000	0.000	-0.005	0.420	1.743	1.323	1.338	1.348	1.382	1.401	1.436
0.005	-0.005	0.000	0.000	0.005	0.010	0.425	1.772	1.323	1.333	1.343	1.377	1.396	1.426
-0.010	-0.015	-0.005	-0.005	0.000	0.000	0.415	1.787	1.318	1.323	1.338	1.367	1.387	1.411
-0.005	-0.020	0.000	0.000	0.000	-0.029	0.420	1.787	1.313	1.318	1.328	1.367	1.377	1.396
0.000	0.000	0.005	-0.005	0.000	-0.015	0.420	1.768	1.318	1.323	1.328	1.357	1.372	1.387
-0.005	-0.005	0.000	-0.005	0.000	0.015	0.430	1.743	1.309	1.318	1.328	1.353	1.367	1.392
0.010	-0.005	0.000	0.000	0.000	-0.005	0.425	1.748	1.309	1.318	1.323	1.353	1.357	1.382
0.010	-0.005	0.000	-0.005	-0.005	0.010	0.430	1.719	1.304	1.318	1.323	1.348	1.357	1.377
0.000	0.000	0.000	-0.005	0.000	-0.015	0.415	1.782	1.309	1.313	1.323	1.348	1.353	1.362
0.005	-0.005	0.000	-0.005	0.000	0.010	0.425	1.797	1.309	1.313	1.323	1.348	1.353	1.367
-0.005	-0.015	0.000	0.000	-0.005	0.005	0.425	1.763	1.304	1.309	1.313	1.343	1.348	1.362
0.005	-0.010	0.005	0.000	0.000	-0.005	0.425	1.758	1.304	1.309	1.318	1.343	1.343	1.353
0.000	0.000	-0.005	-0.005	0.000	-0.020	0.425	1.777	1.304	1.309	1.313	1.343	1.343	1.353
0.000	-0.005	-0.005	0.000	0.000	-0.005	0.415	1.782	1.299	1.309	1.309	1.338	1.338	1.348
-0.005	0.005	-0.005	0.000	0.000	0.010	0.420	1.787	1.294	1.309	1.309	1.333	1.338	1.353
0.000	-0.005	0.000	0.000	0.000	-0.015	0.425	1.792	1.299	1.299	1.309	1.333	1.333	1.333
0.000	0.000	0.000	0.000	0.000	0.005	0.430	1.777	1.289	1.299	1.304	1.328	1.333	1.338
-0.005	-0.015	-0.005	0.005	0.000	0.000	0.415	1.763	1.284	1.294	1.299	1.323	1.328	1.338
-0.005	-0.005	-0.005	0.000	0.000	0.010	0.415	1.743	1.274	1.289	1.294	1.318	1.323	1.333
0.000	0.000	0.000	0.000	0.000	0.015	0.415	1.758	1.270	1.284	1.289	1.313	1.318	1.328
0.000	0.010	0.000	0.005	0.005	0.010	0.430	1.792	1.274	1.284	1.289	1.313	1.318	1.323
-0.010	0.029	-0.005	-0.005	0.005	-0.020	0.425	1.792	1.270	1.279	1.284	1.313	1.313	1.313
-0.010	0.015	-0.005	0.000	0.000	0.005	0.425	1.797	1.270	1.274	1.284	1.309	1.309	1.318
0.000	0.020	0.000	0.000	-0.005	0.005	0.415	1.772	1.270	1.279	1.284	1.309	1.309	1.313
0.000	-0.005	0.000	0.005	-0.005	0.005	0.425	1.787	1.265	1.270	1.279	1.304	1.309	1.313
0.000	0.000	0.000	0.000	-0.005	0.005	0.425	1.743	1.260	1.270	1.279	1.304	1.304	1.313
0.005	0.000	0.000	0.000	0.000	0.000	0.430	1.792	1.270	1.270	1.274	1.304	1.309	1.309
0.005	-0.005	0.000	0.000	0.000	-0.005	0.420	1.768	1.260	1.265	1.274	1.299	1.304	1.309
0.010	0.000	-0.005	0.000	0.005	-0.015	0.430	1.782	1.260	1.265	1.274	1.299	1.304	1.304
0.005	-0.005	0.010	0.000	-0.005	-0.020	0.420	1.802	1.255	1.260	1.270	1.294	1.294	1.299
0.000	0.000	0.000	-0.005	0.000	0.010	0.425	1.782	1.255	1.265	1.265	1.294	1.294	1.309
0.000	0.000	0.000	0.000	0.000	0.005	0.420	1.797	1.260	1.260	1.265	1.289	1.294	1.299
-0.005	0.000	0.000	-0.005	0.000	0.000	0.420	1.758	1.245	1.255	1.260	1.284	1.289	1.299
-0.010	-0.005	0.000	-0.005	0.000	0.005	0.420	1.787	1.245	1.245	1.255	1.284	1.284	1.294
-0.005	-0.005	-0.005	0.000	0.010	0.000	0.430	1.797	1.245	1.245	1.255	1.279	1.279	1.289
-0.005	-0.005	0.000	-0.005	0.000	0.005	0.430	1.787	1.240	1.245	1.250	1.279	1.279	1.284
-0.010	0.000	0.005	0.000	0.000	-0.010	0.425	1.758	1.230	1.245	1.245	1.274	1.274	1.279
-0.005	0.005	-0.005	0.005	0.005	0.010	0.425	1.768	1.230	1.240	1.245	1.265	1.270	1.279
0.000	-0.010	-0.005	-0.005	0.000	0.000	0.415	1.782	1.230	1.235	1.240	1.265	1.265	1.274
0.005	-0.005	0.000	-0.005	0.005	0.005	0.415	1.792	1.235	1.235	1.240	1.265	1.265	1.274
0.000	0.000	0.000	-0.010	-0.005	0.005	0.425	1.802	1.235	1.235	1.240	1.260	1.265	1.270
-0.005	0.000	0.000	-0.005	-0.005	-0.010	0.425	1.738	1.230	1.235	1.235	1.260	1.260	1.265
0.005	-0.005	0.005	0.000	-0.005	-0.005	0.425	1.772	1.230	1.235	1.240	1.265	1.260	1.265
0.000	-0.005	-0.005	0.000	0.000	-0.010	0.420	1.777	1.235	1.235	1.235	1.260	1.260	1.265
0.000	-0.010	-0.005	0.005	0.005	0.005	0.420	1.777	1.230	1.230	1.240	1.260	1.260	1.270
0.000	0.005	0.000	0.000	0.000	0.005	0.430	1.802	1.230	1.235	1.240	1.260	1.255	1.265
0.005	0.000	0.000	-0.005	0.000	0.010	0.425	1.797	1.230	1.230	1.235	1.260	1.260	1.265
0.005	0.000	0.000	0.000	0.000	0.005	0.425	1.782	1.226	1.230	1.235	1.255	1.255	1.260
-0.005	-0.005	0.000	0.005	0.005	-0.015	0.415	1.748	1.216	1.226	1.230	1.250	1.255	1.250
-0.005	-0.010	-0.005	0.005	0.005	-0.020	0.425	1.802	1.211	1.221	1.226	1.250	1.250	1.255
-0.005	0.000	0.000	0.005	0.000	0.000	0.415	1.797	1.211	1.216	1.221	1.245	1.245	1.255
-0.010	0.000	0.000	0.000	0.000	0.005	0.420	1.787	1.206	1.211	1.216	1.245	1.245	1.255
-0.010	-0.005	0.005	0.000	-0.005	0.010	0.425	1.768	1.206	1.211	1.216	1.240	1.240	1.245
-0.010	-0.005	0.005	0.000	0.000	0.005	0.425	1.743	1.201	1.206	1.216	1.235	1.240	1.245
-0.005	0.000	-0.005	0.000	0.000	0.000	0.420	1.787	1.201	1.201	1.211	1.235	1.235	1.240
0.010	-0.005	-0.005	-0.005	0.005	0.005	0.430	1.812	1.211	1.206	1.206	1.230	1.235	1.245
0.005	0.005	0.000	-0.005	0.000	0.005	0.425	1.812	1.211	1.211	1.206	1.230	1.230	1.235
0.000	0.010	0.000	-0.005	0.000	0.005	0.420	1.777	1.206	1.206	1.211	1.230	1.230	1.235
0.000	0.005	0.000	0.000	0.000	0.000	0.420	1.768	1.201	1.211	1.206	1.230	1.230	1.235
0.000	0.005	-0.005	0.005	0.005	-0.005	0.420	1.797	1.206	1.206	1.211	1.230	1.230	1.235
-0.005	0.000	-0.005	0.000	0.005	-0.010	0.420	1.782	1.201	1.206	1.211	1.230	1.230	1.230
0.000	0.005	0.000	-0.005	0.000	-0.015	0.415	1.792	1.206	1.206	1.206	1.230	1.230	1.230
-0.005	-0.005	0.005	0.000	0.000	0.010	0.430	1.777	1.201	1.206	1.211	1.230	1.230	1.235
0.000	-0.010	0.000	-0.005	-0.005	-0.005	0.420	1.753	1.196	1.206	1.206	1.226	1.226	1.230
0.005	0.000	0.000	0.000	0.000	0.010	0.430	1.787	1.196	1.201	1.206	1.230	1.226	1.230
-0.005	-0.005	-0.005	0.000	0.000	0.010	0.420	1.807	1.191	1.196	1.201	1.226	1.221	1.230
-0.005	0.000	0.000	0.000	0.000	0.005	0.425	1.802	1.196	1.196	1.201	1.221	1.221	1.226
0.000	-0.005	0.000	-0.005	-0.005	0.000	0.415	1.777	1.191	1.191	1.196	1.216	1.216	1.221
-0.005	0.000	0.000	-0.005	0.000	-0.010	0.420	1.714	1.177	1.191	1.191	1.211	1.216	1.216
0.000	-0.010	-0.005	0.000	0.000	-0.005	0.420	1.797	1.177	1.182	1.187	1.211	1.211	1.216
0.000	-0.005	0.000	-0.005	0.000	0.005	0.420	1.777	1.182	1.182	1.187	1.211	1.211	1.216
-0.005	-0.005	0.000	-0.005	0.000	0.000	0.420	1.797	1.187	1.187	1.187	1.211	1.211	1.211
0.005	0.000	0.005	0.000	0.000	0.000	0.430	1.768	1.182	1.187	1.187	1.206	1.206	1.211
-0.005	0.000	0.000	0.000	-0.005	-0.005	0.425	1.777	1.177	1.182	1.182	1.206	1.206	1.211
0.000	0.005	0.000	-0.005	0.000	0.000	0.425	1.777	1.182	1.182	1.182	1.206	1.206	1.211
-0.005	0.005	0.000	0.000	0.000	0.005	0.415	1.787	1.187	1.187	1.187	1.211	1.206	1.211
0.000	0.005	0.000	0.000	-0.005	0.010	0.420	1.797	1.187	1.187	1.187	1.206	1.206	1.206
0.010	0.000	-0.005	-0.005	-0.005	0.005	0.415	1.738	1.187	1.187	1.182	1.201	1.206	1.206
0.005	-0.020	0.005	0.000	0.005	0.005	0.425	1.772	1.182	1.182	1.187	1.206	1.206	1.206
0.005	-0.005	0.000	-0.005	-0.005	-0.010	0.420	1.753	1.182	1.187	1.187	1.201	1.201	1.201
0.005	0.000	-0.005	0.000	0.000	0.000	0.425	1.792	1.182	1.187	1.187	1.206	1.201	1.206
-0.005	0.000	0.000	0.000	-0.005	0.005	0.420	1.792	1.177	1.177	1.182	1.201	1.201	1.201
0.005	0.005	0.000	0.000	0.000	0.005	0.420	1.782	1.177	1.182	1.182	1.201	1.201	1.201
-0.005	0.020	-0.005	0.005	-0.005	0.000	0.420	1.733	1.172	1.182	1.182	1.201	1.196	1.196
0.000	0.020	-0.005	0.005	0.000	0.000	0.420	1.777	1.172	1.177	1.182	1.196	1.201	1.196
0.005	0.010	0.000	0.000	0.005	-0.005	0.425	1.797	1.172	1.172	1.177	1.191	1.196	1.191
0.000	0.005	0.000	0.000	0.000	-0.010	0.425	1.787	1.172	1.167	1.172	1.196	1.191	1.191
-0.005	0.000	0.000	0.000	0.000	0.000	0.430	1.787	1.172	1.167	1.172	1.191	1.191	1.191
-0.005	-0.005	0.000	-0.005	-0.005	0.005	0.425	1.743	1.167	1.167	1.167	1.187	1.187	1.191
-0.005	0.000	-0.005	-0.005	0.005	0.000	0.425	1.768	1.162	1.167	1.167	1.187	1.191	1.191
0.000	-0.005	0.000	0.005	0.000	0.005	0.415	1.777	1.167	1.162	1.167	1.187	1.187	1.191
0.005	0.000	-0.005	0.000	0.000	-0.010	0.420	1.777	1.172	1.167	1.167	1.191	1.187	1.182
-0.005	0.000	0.000	0.000	0.000	0.010	0.425	1.797	1.172	1.172	1.172	1.191	1.187	1.191
-0.005	-0.005	0.000	0.000	-0.005	-0.020	0.430	1.777	1.172	1.172	1.172	1.191	1.187	1.187
0.000	-0.015	0.000	0.005	0.000	0.005	0.420	1.743	1.162	1.167	1.172	1.191	1.187	1.191
0.000	-0.010	0.000	0.000	0.005	0.000	0.430	1.782	1.172	1.167	1.172	1.191	1.187	1.191
0.000	-0.005	0.000	0.000	0.000	0.000	0.420	1.792	1.172	1.172	1.172	1.191	1.187	1.187
-0.005	0.000	-0.005	-0.005	-0.005	-0.005	0.425	1.787	1.172	1.172	1.172	1.191	1.187	1.187
-0.005	0.000	0.000	0.005	0.000	-0.015	0.420	1.768	1.167	1.167	1.167	1.187	1.182	1.182
-0.005	0.005	-0.005	0.000	-0.005	-0.020	0.430	1.777	1.157	1.162	1.167	1.187	1.182	1.177
0.005	0.005	-0.005	0.000	0.000	0.000	0.420	1.772	1.157	1.162	1.162	1.187	1.182	1.187
0.000	0.005	-0.005	0.000	0.000	0.000	0.425	1.787	1.152	1.157	1.162	1.182	1.182	1.182
-0.005	-0.005	0.000	-0.005	0.000	0.005	0.415	1.797	1.152	1.152	1.157	1.182	1.177	1.182
0.005	0.005	0.000	0.000	0.000	0.000	0.420	1.807	1.157	1.152	1.157	1.182	1.177	1.177
-0.010	0.000	0.000	0.000	-0.005	-0.005	0.420	1.763	1.147	1.152	1.152	1.177	1.172	1.172
-0.010	-0.010	-0.005	0.010	-0.005	0.010	0.425	1.753	1.147	1.147	1.147	1.177	1.177	1.182
0.005	0.000	0.000	0.005	0.000	0.010	0.430	1.787	1.157	1.152	1.152	1.172	1.177	1.182
-0.005	0.010	-0.005	0.000	0.000	0.010	0.430	1.792	1.152	1.152	1.152	1.172	1.172	1.177
0.000	0.000	0.000	0.000	-0.005	0.005	0.425	1.748	1.152	1.152	1.152	1.172	1.172	1.172
-0.005	0.000	0.000	-0.005	-0.010	0.015	0.420	1.772	1.152	1.147	1.152	1.172	1.172	1.177
0.005	0.000	0.000	0.005	-0.005	0.005	0.415	1.743	1.152	1.157	1.152	1.172	1.172	1.172
-0.005	0.000	0.000	-0.005	-0.005	-0.015	0.420	1.777	1.143	1.152	1.152	1.172	1.172	1.172
-0.005	0.000	0.000	-0.005	0.000	0.005	0.430	1.782	1.147	1.152	1.152	1.172	1.172	1.172
0.000	0.000	-0.005	-0.005	0.005	-0.020	0.415	1.787	1.147	1.152	1.152	1.172	1.172	1.162
-0.010	0.000	0.005	-0.005	0.005	0.010	0.425	1.812	1.152	1.147	1.152	1.172	1.167	1.172
-0.005	0.000	0.000	-0.005	-0.005	0.000	0.415	1.743	1.143	1.147	1.147	1.167	1.167	1.172
-0.005	0.000	0.000	0.000	-0.005	-0.005	0.425	1.777	1.143	1.147	1.147	1.167	1.167	1.162
0.000	-0.010	-0.005	-0.005	0.000	0.000	0.420	1.772	1.138	1.138	1.143	1.162	1.162	1.172
0.000	0.000	0.005	-0.005	0.000	0.005	0.425	1.777	1.143	1.143	1.147	1.162	1.162	1.167
0.000	0.005	-0.005	-0.005	0.000	0.000	0.430	1.797	1.143	1.143	1.143	1.162	1.157	1.162
0.000	-0.005	0.005	-0.005	0.000	-0.010	0.430	1.777	1.138	1.138	1.138	1.157	1.157	1.152
-0.005	-0.005	0.005	-0.005	0.000	0.010	0.420	1.743	1.138	1.138	1.138	1.157	1.157	1.162
0.005	-0.005	0.005	-0.005	-0.005	0.005	0.425	1.748	1.133	1.138	1.138	1.157	1.157	1.157
-0.005	-0.005	0.000	0.000	0.000	-0.005	0.425	1.792	1.138	1.138	1.138	1.157	1.157	1.157
-0.005	-0.005	0.000	-0.005	-0.005	0.010	0.430	1.797	1.143	1.138	1.138	1.157	1.157	1.162
0.010	0.000	0.005	0.005	-0.005	0.010	0.425	1.753	1.143	1.138	1.138	1.162	1.157	1.157
-0.005	0.005	0.000	0.000	0.000	0.010	0.430	1.753	1.133	1.138	1.138	1.157	1.157	1.157
0.005	0.000	0.000	0.000	-0.005	-0.020	0.420	1.753	1.133	1.143	1.138	1.157	1.157	1.147
-0.010	0.000	0.000	0.000	0.000	0.005	0.420	1.792	1.133	1.138	1.138	1.157	1.157	1.162
0.005	0.000	0.000	-0.005	0.000	0.000	0.420	1.782	1.138	1.138	1.138	1.157	1.157	1.157
0.000	0.000	0.000	-0.005	0.005	0.000	0.430	1.797	1.143	1.138	1.138	1.162	1.157	1.157
0.005	-0.010	0.000	0.000	0.005	0.000	0.425	1.777	1.138	1.138	1.138	1.157	1.152	1.157
-0.010	0.000	-0.005	0.000	-0.005	0.000	0.425	1.748	1.133	1.138	1.138	1.152	1.152	1.152
0.005	-0.005	0.005	0.000	-0.005	-0.010	0.425	1.792	1.138	1.133	1.138	1.152	1.152	1.147
0.000	0.005	0.000	0.000	0.000	0.005	0.420	1.797	1.138	1.138	1.133	1.152	1.152	1.152
0.000	-0.005	0.000	0.000	0.000	-0.005	0.430	1.782	1.138	1.133	1.133	1.147	1.147	1.147
0.005	-0.015	0.000	0.000	0.000	0.000	0.420	1.768	1.133	1.133	1.128	1.147	1.147	1.147
-0.005	0.000	-0.005	-0.005	0.000	-0.010	0.420	1.758	1.133	1.133	1.128	1.147	1.143	1.143
-0.005	-0.005	-0.005	0.000	-0.005	0.005	0.420	1.772	1.128	1.128	1.133	1.147	1.143	1.147
0.005	0.005	0.000	0.000	0.005	0.010	0.430	1.807	1.128	1.128	1.133	1.147	1.143	1.147
-0.005	0.000	0.000	0.000	-0.005	0.005	0.420	1.758	1.128	1.123	1.128	1.147	1.147	1.147
0.000	-0.005	0.000	0.000	-0.005	0.010	0.435	1.753	1.128	1.128	1.128	1.147	1.147	1.152
0.005	-0.005	-0.005	0.000	-0.005	0.010	0.430	1.753	1.133	1.128	1.128	1.147	1.147	1.147
0.000	0.020	0.000	0.005	-0.005	0.005	0.420	1.758	1.123	1.138	1.133	1.152	1.147	1.147
0.010	0.015	0.000	0.000	0.005	-0.010	0.420	1.797	1.128	1.133	1.133	1.152	1.147	1.143
-0.005	0.010	0.000	-0.005	0.000	-0.010	0.425	1.797	1.138	1.133	1.133	1.152	1.147	1.143
0.000	0.005	0.000	0.000	-0.005	0.005	0.420	1.748	1.128	1.128	1.133	1.152	1.147	1.152
0.005	0.000	0.000	0.000	0.000	-0.029	0.425	1.782	1.128	1.128	1.133	1.152	1.147	1.138
0.000	0.005	0.000	0.000	0.000	-0.010	0.425	1.743	1.123	1.128	1.128	1.147	1.147	1.147
-0.010	-0.005	-0.005	0.000	-0.005	0.000	0.425	1.797	1.123	1.118	1.128	1.147	1.147	1.152
0.000	-0.010	0.005	0.000	0.000	-0.020	0.420	1.802	1.133	1.123	1.128	1.143	1.143	1.138
-0.010	-0.005	0.000	0.000	-0.005	0.015	0.420	1.792	1.123	1.118	1.123	1.143	1.143	1.147
0.000	0.000	0.000	0.000	-0.005	0.010	0.420	1.768	1.123	1.123	1.118	1.143	1.143	1.143
0.000	-0.020	-0.005	-0.005	0.000	0.005	0.420	1.758	1.118	1.113	1.118	1.138	1.138	1.143
0.005	0.000	-0.005	0.000	0.000	0.000	0.415	1.797	1.123	1.123	1.118	1.138	1.133	1.138
-0.005	0.000	0.000	0.000	-0.005	-0.010	0.425	1.812	1.128	1.123	1.123	1.138	1.138	1.138
0.000	0.000	0.005	0.000	-0.005	-0.020	0.425	1.787	1.128	1.123	1.123	1.138	1.138	1.133
0.005	-0.010	0.000	0.000	-0.005	0.000	0.420	1.753	1.123	1.123	1.118	1.138	1.138	1.133
0.000	-0.005	-0.005	0.005	0.000	0.010	0.415	1.719	1.123	1.123	1.123	1.138	1.138	1.143
0.005	0.000	0.000	0.000	0.000	0.010	0.420	1.777	1.118	1.123	1.123	1.138	1.138	1.143
0.000	0.015	0.000	0.000	0.000	-0.020	0.425	1.782	1.123	1.128	1.123	1.143	1.138	1.133
-0.005	0.000	0.000	0.000	-0.005	0.005	0.425	1.802	1.128	1.123	1.123	1.143	1.138	1.143
-0.005	0.000	0.005	0.000	0.000	-0.010	0.425	1.748	1.128	1.128	1.123	1.143	1.138	1.133
-0.005	-0.010	0.000	0.000	-0.005	0.010	0.420	1.782	1.118	1.123	1.123	1.143	1.138	1.138
-0.005	-0.005	0.000	0.000	0.000	0.010	0.420	1.772	1.118	1.123	1.123	1.143	1.138	1.143
0.000	0.000	0.000	0.005	0.000	0.010	0.420	1.777	1.123	1.123	1.118	1.143	1.138	1.138
0.000	-0.005	0.000	-0.005	0.005	-0.005	0.425	1.768	1.123	1.118	1.118	1.138	1.133	1.133
0.000	-0.010	-0.005	-0.005	0.000	-0.005	0.415	1.729	1.113	1.118	1.113	1.138	1.133	1.133
-0.005	0.000	0.000	-0.005	-0.005	0.005	0.430	1.729	1.108	1.113	1.118	1.133	1.133	1.138
0.005	-0.005	-0.005	-0.005	0.000	0.010	0.425	1.743	1.113	1.113	1.113	1.133	1.133	1.133
0.000	0.005	-0.005	0.000	0.000	-0.010	0.430	1.772	1.108	1.108	1.113	1.133	1.128	1.128
-0.005	0.010	-0.005	0.000	0.000	0.000	0.415	1.782	1.113	1.113	1.108	1.133	1.128	1.128
-0.005	0.005	0.000	-0.005	-0.005	0.000	0.420	1.772	1.118	1.113	1.113	1.133	1.128	1.128
-0.005	-0.005	0.000	-0.005	0.000	-0.034	0.415	1.758	1.113	1.113	1.113	1.133	1.128	1.118
-0.005	0.005	0.000	0.000	0.000	0.000	0.425	1.743	1.108	1.113	1.113	1.128	1.133	1.128
0.005	0.000	0.005	0.000	0.000	0.000	0.420	1.782	1.118	1.113	1.113	1.133	1.128	1.133
0.000	0.000	-0.005	-0.005	0.005	0.005	0.430	1.763	1.118	1.113	1.113	1.133	1.128	1.133
0.000	-0.005	-0.005	-0.005	-0.010	0.015	0.425	1.758	1.123	1.113	1.118	1.133	1.128	1.133
0.000	0.000	0.000	-0.005	-0.005	-0.005	0.420	1.753	1.123	1.118	1.118	1.133	1.128	1.123
0.005	0.000	0.000	0.000	0.000	-0.005	0.415	1.782	1.123	1.118	1.118	1.138	1.133	1.128
0.000	0.005	0.000	0.000	0.010	0.005	0.425	1.743	1.113	1.113	1.118	1.138	1.133	1.133
-0.005	-0.005	-0.005	0.000	0.000	-0.005	0.415	1.768	1.113	1.113	1.113	1.138	1.128	1.128
-0.005	0.005	0.000	-0.005	0.005	-0.005	0.430	1.802	1.118	1.113	1.113	1.133	1.133	1.128
0.000	-0.005	-0.005	-0.005	0.000	-0.005	0.425	1.777	1.118	1.113	1.113	1.133	1.128	1.128
-0.005	0.000	-0.005	0.005	0.000	-0.029	0.425	1.719	1.113	1.113	1.113	1.133	1.128	1.118
-0.005	0.000	-0.005	0.005	0.005	0.005	0.420	1.772	1.108	1.108	1.113	1.128	1.128	1.128
-0.005	0.005	-0.005	0.000	-0.005	-0.005	0.415	1.768	1.108	1.108	1.108	1.128	1.123	1.123
0.000	-0.005	0.000	0.000	0.000	0.010	0.420	1.777	1.113	1.108	1.108	1.128	1.123	1.128
-0.005	0.000	0.000	0.000	-0.005	0.000	0.415	1.797	1.113	1.108	1.108	1.128	1.123	1.123
-0.005	0.000	-0.005	0.005	0.000	0.010	0.420	1.758	1.118	1.113	1.108	1.128	1.123	1.123
-0.005	0.010	0.000	0.000	0.000	-0.015	0.415	1.772	1.118	1.113	1.113	1.128	1.123	1.123
0.010	0.000	-0.005	0.000	-0.005	0.000	0.425	1.782	1.123	1.113	1.113	1.133	1.123	1.128
0.000	0.000	0.000	0.000	0.000	-0.029	0.425	1.807	1.123	1.113	1.113	1.133	1.128	1.118
0.000	-0.005	0.000	0.000	-0.005	-0.020	0.430	1.753	1.118	1.118	1.113	1.133	1.128	1.123
0.000	0.010	0.000	0.000	-0.005	0.005	0.420	1.768	1.118	1.118	1.118	1.133	1.128	1.128
0.010	-0.005	-0.005	0.000	0.000	0.010	0.430	1.787	1.113	1.113	1.118	1.133	1.133	1.133
0.015	-0.010	0.000	0.000	0.000	-0.005	0.425	1.797	1.118	1.113	1.113	1.133	1.128	1.128
0.000	0.005	0.000	-0.005	0.000	0.010	0.430	1.743	1.113	1.118	1.113	1.133	1.128	1.133
0.005	-0.005	0.000	0.005	-0.005	0.005	0.420	1.689	1.108	1.113	1.113	1.128	1.128	1.128
-0.005	0.005	-0.005	0.000	0.005	-0.015	0.425	1.753	1.104	1.108	1.113	1.128	1.128	1.123
-0.005	0.000	-0.005	0.000	0.005	-0.020	0.420	1.787	1.099	1.099	1.108	1.128	1.128	1.118
0.000	0.000	0.000	0.000	0.000	0.010	0.425	1.797	1.104	1.104	1.108	1.128	1.128	1.133
-0.005	0.000	0.005	-0.005	0.000	-0.010	0.425	1.802	1.108	1.104	1.104	1.123	1.123	1.118
0.000	0.000	0.000	-0.005	-0.005	0.005	0.420	1.743	1.099	1.099	1.099	1.123	1.123	1.123
0.005	0.000	0.005	-0.005	-0.005	-0.010	0.420	1.772	1.104	1.104	1.104	1.123	1.118	1.113
-0.010	0.000	0.000	-0.005	0.000	-0.010	0.415	1.777	1.099	1.094	1.099	1.118	1.118	1.118
-0.005	0.000	0.000	-0.005	0.000	0.005	0.420	1.787	1.108	1.099	1.099	1.123	1.118	1.128
-0.010	0.000	0.000	0.000	-0.005	0.005	0.420	1.792	1.108	1.099	1.099	1.123	1.118	1.123
0.000	0.000	0.005	0.005	-0.005	0.005	0.425	1.753	1.108	1.104	1.104	1.123	1.118	1.123
0.000	0.000	0.005	0.005	-0.005	-0.010	0.420	1.777	1.113	1.104	1.104	1.123	1.118	1.113
0.005	0.000	0.000	0.000	0.000	-0.024	0.425	1.792	1.113	1.108	1.108	1.123	1.118	1.113
0.010	-0.005	0.000	0.000	0.000	0.015	0.420	1.792	1.113	1.108	1.108	1.123	1.123	1.128
0.000	0.005	-0.005	0.000	0.000	0.015	0.430	1.797	1.118	1.113	1.108	1.128	1.123	1.128
0.005	-0.005	0.000	0.000	0.000	-0.005	0.415	1.743	1.113	1.113	1.108	1.128	1.118	1.118
-0.010	-0.010	0.000	0.000	0.005	0.005	0.425	1.777	1.104	1.108	1.108	1.123	1.123	1.123
0.000	-0.005	0.000	0.005	0.000	0.000	0.420	1.782	1.108	1.108	1.108	1.128	1.123	1.123
0.000	0.000	0.000	-0.005	0.000	0.005	0.430	1.792	1.113	1.108	1.108	1.123	1.118	1.118
-0.005	-0.005	-0.005	-0.005	-0.005	-0.015	0.420	1.797	1.108	1.108	1.104	1.123	1.118	1.113
-0.005	-0.005	0.000	0.000	-0.005	0.005	0.425	1.738	1.104	1.108	1.104	1.123	1.118	1.118
0.000	0.000	0.000	0.005	0.000	0.005	0.425	1.763	1.099	1.104	1.104	1.123	1.118	1.118
0.000	0.010	0.000	-0.005	0.005	-0.005	0.430	1.782	1.104	1.104	1.104	1.123	1.113	1.113
-0.010	0.010	0.000	-0.005	0.010	-0.015	0.425	1.792	1.104	1.099	1.099	1.123	1.118	1.113
-0.005	0.000	0.000	0.000	0.000	0.000	0.430	1.753	1.104	1.104	1.104	1.118	1.118	1.113
0.000	0.000	0.000	0.000	0.000	-0.005	0.420	1.777	1.104	1.099	1.099	1.118	1.113	1.118
-0.005	0.000	-0.005	0.000	0.005	-0.010	0.420	1.782	1.108	1.099	1.104	1.123	1.118	1.118
0.000	-0.005	0.000	0.000	0.005	0.000	0.420	1.797	1.108	1.104	1.104	1.118	1.118	1.118
0.000	-0.015	0.005	-0.005	0.000	-0.005	0.420	1.797	1.113	1.099	1.099	1.123	1.118	1.113
0.000	-0.015	0.000	-0.005	-0.005	0.015	0.425	1.787	1.113	1.108	1.104	1.123	1.118	1.123
-0.005	-0.005	0.010	-0.005	0.000	0.010	0.420	1.758	1.108	1.108	1.108	1.123	1.118	1.118
0.000	0.000	0.000	-0.005	0.000	0.015	0.415	1.763	1.108	1.108	1.108	1.123	1.123	1.118
0.000	-0.005	-0.005	-0.005	0.000	0.000	0.415	1.792	1.108	1.108	1.108	1.128	1.118	1.118
0.000	0.000	0.000	-0.005	0.005	-0.015	0.420	1.792	1.108	1.108	1.108	1.128	1.123	1.113
-0.005	0.000	0.000	-0.005	0.005	0.010	0.410	1.777	1.108	1.108	1.104	1.123	1.123	1.123
0.000	-0.005	0.000	0.005	0.000	0.000	0.420	1.733	1.099	1.104	1.108	1.128	1.118	1.118
-0.005	0.010	0.000	0.000	-0.005	0.005	0.415	1.777	1.099	1.104	1.104	1.123	1.118	1.118
0.000	0.005	0.000	0.000	0.005	0.000	0.430	1.787	1.104	1.099	1.104	1.123	1.118	1.113
0.000	-0.010	0.005	0.000	-0.005	0.010	0.420	1.797	1.104	1.094	1.099	1.123	1.118	1.118
-0.005	0.000	0.005	0.000	0.000	0.000	0.425	1.782	1.108	1.099	1.099	1.118	1.113	1.113
-0.005	0.010	0.000	0.005	0.000	0.000	0.415	1.743	1.099	1.099	1.099	1.118	1.113	1.113
0.000	0.005	0.000	0.005	0.005	-0.005	0.420	1.748	1.099	1.099	1.099	1.118	1.113	1.113
0.005	0.010	0.000	0.005	0.000	-0.024	0.420	1.782	1.104	1.104	1.099	1.118	1.113	1.108
0.005	0.005	-0.005	0.005	0.000	0.010	0.425	1.782	1.108	1.099	1.099	1.118	1.118	1.118
-0.010	0.005	0.000	0.005	-0.005	-0.010	0.420	1.802	1.108	1.104	1.104	1.123	1.118	1.113
-0.010	-0.005	0.000	0.000	-0.005	0.005	0.425	1.753	1.104	1.104	1.104	1.123	1.118	1.118
0.010	0.000	0.000	0.005	-0.005	-0.005	0.430	1.772	1.113	1.108	1.104	1.123	1.118	1.118
0.005	0.010	0.000	0.000	0.000	-0.015	0.425	1.782	1.104	1.104	1.104	1.123	1.118	1.113
-0.005	0.000	-0.005	0.000	0.000	0.015	0.425	1.807	1.108	1.104	1.104	1.123	1.118	1.123
-0.005	-0.010	0.000	0.000	0.000	0.015	0.420	1.748	1.104	1.104	1.104	1.123	1.118	1.123
0.005	-0.015	0.000	0.000	0.000	0.005	0.420	1.738	1.099	1.104	1.108	1.118	1.118	1.118
0.000	-0.005	-0.005	-0.005	-0.005	0.005	0.420	1.797	1.094	1.099	1.099	1.118	1.113	1.113
-0.005	-0.005	0.000	0.005	0.005	0.005	0.420	1.797	1.104	1.099	1.104	1.118	1.118	1.118
0.000	-0.010	0.000	-0.005	-0.005	0.000	0.415	1.743	1.104	1.094	1.094	1.118	1.113	1.108
-0.005	0.000	0.000	-0.005	0.000	-0.015	0.415	1.782	1.099	1.099	1.094	1.113	1.113	1.108
-0.005	0.000	0.000	0.000	0.005	0.010	0.420	1.777	1.099	1.094	1.094	1.113	1.108	1.113
0.000	-0.010	0.000	-0.005	0.000	0.005	0.425	1.777	1.104	1.094	1.094	1.113	1.108	1.113
0.000	0.000	0.000	-0.005	0.000	-0.005	0.430	1.797	1.108	1.094	1.094	1.113	1.108	1.108
0.000	0.010	0.005	-0.005	0.000	0.010	0.420	1.807	1.108	1.104	1.099	1.113	1.108	1.113
0.005	-0.010	0.000	-0.005	-0.005	0.005	0.420	1.748	1.108	1.104	1.099	1.113	1.108	1.108
-0.005	-0.010	0.000	-0.010	-0.005	-0.005	0.420	1.748	1.104	1.104	1.099	1.113	1.108	1.108
0.005	-0.005	-0.005	-0.005	0.000	-0.005	0.420	1.792	1.113	1.108	1.104	1.118	1.113	1.108
-0.005	0.000	0.000	-0.005	-0.005	-0.005	0.430	1.802	1.113	1.104	1.104	1.123	1.113	1.108
-0.005	-0.005	-0.005	-0.005	0.000	-0.005	0.415	1.777	1.113	1.108	1.104	1.123	1.118	1.108
0.000	-0.005	0.000	0.005	-0.005	0.015	0.430	1.763	1.108	1.108	1.104	1.123	1.118	1.118
-0.005	-0.005	0.000	0.000	0.000	0.000	0.425	1.743	1.099	1.108	1.108	1.123	1.118	1.118
-0.005	-0.005	-0.005	0.000	0.005	0.005	0.430	1.787	1.104	1.104	1.108	1.123	1.118	1.118
0.000	0.000	0.000	-0.005	0.000	-0.020	0.425	1.807	1.113	1.104	1.108	1.123	1.118	1.113
-0.005	-0.010	0.000	0.005	0.000	0.010	0.425	1.782	1.108	1.104	1.104	1.123	1.118	1.118
-0.010	0.000	0.005	0.005	0.005	0.000	0.415	1.753	1.099	1.104	1.104	1.123	1.118	1.113
-0.005	-0.005	0.000	0.005	0.000	0.000	0.420	1.738	1.094	1.099	1.099	1.118	1.113	1.113
-0.005	-0.005	0.000	0.000	0.000	-0.005	0.420	1.787	1.104	1.099	1.099	1.118	1.113	1.113
0.000	0.005	0.000	0.000	0.000	-0.024	0.420	1.797	1.104	1.104	1.099	1.118	1.113	1.108
0.000	0.005	-0.005	0.005	0.000	0.005	0.420	1.729	1.099	1.104	1.099	1.113	1.113	1.113
0.000	0.010	-0.005	0.000	-0.005	0.005	0.430	1.743	1.099	1.099	1.099	1.113	1.113	1.113
-0.010	0.000	0.000	-0.005	0.000	-0.005	0.420	1.772	1.094	1.099	1.099	1.113	1.113	1.108
0.010	0.010	-0.005	0.000	0.000	0.005	0.425	1.797	1.104	1.104	1.099	1.118	1.113	1.113
0.005	0.015	0.000	-0.005	-0.005	-0.005	0.420	1.787	1.108	1.104	1.099	1.118	1.113	1.108
0.005	-0.010	0.000	-0.005	-0.005	-0.029	0.420	1.787	1.108	1.099	1.099	1.118	1.113	1.104
0.000	0.000	0.000	-0.005	0.000	0.005	0.420	1.787	1.104	1.104	1.099	1.118	1.113	1.118
0.000	0.000	0.000	-0.005	-0.005	0.005	0.425	1.758	1.104	1.108	1.104	1.118	1.118	1.123
0.005	0.005	0.000	0.000	0.000	0.000	0.425	1.802	1.108	1.104	1.108	1.123	1.118	1.113
0.000	-0.005	0.005	-0.005	-0.005	-0.005	0.425	1.792	1.108	1.099	1.104	1.123	1.113	1.118
0.000	-0.005	0.005	-0.005	0.000	0.010	0.425	1.763	1.104	1.104	1.104	1.123	1.118	1.118
-0.005	-0.015	-0.005	0.000	0.000	0.005	0.415	1.748	1.094	1.099	1.099	1.123	1.118	1.118
-0.010	-0.010	0.000	-0.010	0.000	-0.005	0.415	1.772	1.099	1.099	1.099	1.118	1.118	1.108
-0.005	0.000	0.000	-0.005	0.005	0.000	0.415	1.787	1.099	1.094	1.094	1.118	1.113	1.113
-0.005	-0.010	0.000	-0.005	0.000	-0.029	0.425	1.787	1.108	1.094	1.094	1.113	1.108	1.104
-0.005	-0.015	-0.005	-0.005	-0.005	0.015	0.415	1.777	1.108	1.099	1.094	1.113	1.113	1.113
0.000	-0.005	-0.005	0.000	0.000	-0.005	0.430	1.753	1.104	1.099	1.094	1.113	1.113	1.104
0.005	-0.005	0.005	0.005	0.005	-0.005	0.420	1.758	1.094	1.099	1.094	1.113	1.113	1.113
0.010	0.005	-0.005	0.005	-0.005	0.015	0.420	1.782	1.104	1.104	1.099	1.113	1.108	1.113
-0.005	0.010	0.005	0.005	0.005	-0.015	0.425	1.802	1.108	1.104	1.104	1.118	1.113	1.104
0.005	0.000	0.000	0.005	0.000	0.015	0.420	1.797	1.108	1.104	1.099	1.118	1.113	1.113
0.005	0.000	0.000	0.000	-0.005	0.005	0.420	1.797	1.113	1.104	1.104	1.118	1.113	1.113
0.005	0.000	0.000	0.005	-0.005	0.005	0.425	1.768	1.108	1.108	1.108	1.118	1.118	1.113
-0.005	0.000	0.000	0.005	-0.005	-0.005	0.420	1.787	1.108	1.108	1.108	1.123	1.113	1.113
-0.010	0.000	-0.005	0.000	0.000	-0.005	0.430	1.797	1.108	1.108	1.108	1.123	1.118	1.113
0.000	0.015	0.005	0.000	-0.005	-0.010	0.425	1.792	1.118	1.118	1.108	1.123	1.118	1.113
0.005	0.010	0.005	0.000	0.000	0.005	0.425	1.782	1.113	1.113	1.108	1.123	1.123	1.118
-0.015	0.005	-0.005	0.005	0.000	0.005	0.425	1.738	1.104	1.108	1.108	1.123	1.118	1.118
0.000	0.000	0.005	0.000	0.000	0.005	0.415	1.782	1.104	1.104	1.108	1.123	1.118	1.118
-0.010	0.005	0.000	0.000	0.005	-0.029	0.415	1.802	1.104	1.099	1.104	1.123	1.113	1.108
0.000	0.000	-0.005	0.000	0.000	-0.015	0.415	1.792	1.108	1.099	1.099	1.118	1.113	1.113
0.000	0.000	0.005	0.000	0.000	-0.020	0.425	1.772	1.104	1.104	1.104	1.118	1.118	1.113
0.000	0.005	0.000	0.000	0.005	0.015	0.425	1.768	1.104	1.104	1.104	1.118	1.118	1.118
-0.005	-0.005	0.000	-0.005	0.000	0.005	0.425	1.787	1.099	1.094	1.099	1.113	1.113	1.118
-0.005	0.000	-0.005	-0.005	0.000	0.015	0.425	1.797	1.108	1.099	1.099	1.113	1.113	1.118
0.000	0.000	0.005	-0.005	-0.005	0.010	0.425	1.792	1.108	1.104	1.099	1.118	1.113	1.108
0.000	-0.005	0.000	-0.005	0.000	0.010	0.415	1.748	1.108	1.104	1.104	1.118	1.113	1.113
-0.010	0.005	0.005	0.000	0.000	-0.015	0.425	1.777	1.108	1.108	1.104	1.118	1.118	1.108
-0.005	0.010	0.000	0.000	0.005	-0.015	0.415	1.777	1.108	1.108	1.104	1.123	1.113	1.113
0.005	0.000	-0.005	-0.005	0.005	0.015	0.425	1.792	1.113	1.108	1.108	1.123	1.118	1.123
0.000	0.005	0.000	-0.005	-0.005	0.020	0.425	1.802	1.113	1.108	1.104	1.123	1.118	1.123
-0.005	0.000	0.000	0.000	-0.005	0.005	0.425	1.768	1.113	1.113	1.108	1.128	1.118	1.118
0.000	0.000	0.000	0.000	0.005	0.005	0.425	1.768	1.108	1.113	1.108	1.123	1.123	1.118
0.000	0.005	0.005	-0.005	0.000	0.005	0.430	1.792	1.108	1.108	1.108	1.123	1.118	1.118
-0.010	-0.010	0.000	-0.005	0.005	-0.020	0.425	1.792	1.104	1.104	1.108	1.128	1.118	1.113
-0.005	-0.005	0.000	0.000	0.005	0.010	0.425	1.768	1.108	1.104	1.104	1.128	1.118	1.118
-0.005	-0.005	0.000	0.005	0.000	-0.010	0.415	1.782	1.104	1.104	1.104	1.123	1.118	1.113
0.000	0.000	0.000	0.005	0.000	0.010	0.420	1.772	1.099	1.099	1.099	1.118	1.118	1.118
0.000	0.000	-0.005	0.000	-0.005	-0.005	0.420	1.772	1.099	1.099	1.099	1.118	1.113	1.113
-0.005	0.000	0.000	0.000	0.000	-0.010	0.425	1.792	1.099	1.099	1.099	1.118	1.113	1.108
-0.005	-0.005	0.000	0.005	0.000	0.000	0.425	1.792	1.104	1.099	1.099	1.118	1.113	1.113
0.000	-0.005	0.000	-0.005	-0.005	-0.015	0.425	1.753	1.099	1.099	1.099	1.113	1.113	1.108
0.000	0.000	0.000	-0.005	0.000	0.000	0.420	1.738	1.094	1.099	1.099	1.118	1.118	1.118
0.005	0.010	0.000	-0.005	0.005	0.005	0.420	1.792	1.099	1.104	1.099	1.118	1.118	1.118
0.000	0.000	0.000	-0.005	0.005	0.005	0.420	1.792	1.104	1.099	1.099	1.118	1.113	1.118
-0.005	0.010	0.000	-0.005	0.000	-0.020	0.420	1.797	1.108	1.104	1.099	1.118	1.118	1.108
-0.005	0.000	0.000	0.000	-0.005	-0.010	0.425	1.753	1.104	1.104	1.104	1.123	1.113	1.113
0.000	0.000	0.000	-0.005	-0.005	0.005	0.420	1.763	1.104	1.108	1.104	1.123	1.118	1.118
0.000	-0.005	0.005	0.000	0.000	-0.010	0.425	1.763	1.108	1.108	1.104	1.123	1.118	1.118
0.005	-0.005	-0.005	-0.010	-0.005	0.005	0.420	1.782	1.108	1.104	1.104	1.118	1.113	1.118
0.000	-0.005	-0.005	-0.005	0.000	0.005	0.420	1.807	1.108	1.108	1.104	1.123	1.123	1.118
-0.005	0.000	0.005	0.000	0.000	0.005	0.415	1.797	1.108	1.104	1.104	1.123	1.118	1.118
-0.005	-0.005	-0.005	0.000	0.005	-0.005	0.425	1.777	1.108	1.104	1.104	1.123	1.118	1.113
0.000	-0.010	0.000	0.000	0.000	-0.005	0.425	1.763	1.108	1.104	1.099	1.123	1.113	1.113
-0.010	-0.010	-0.005	0.000	0.000	-0.010	0.430	1.802	1.108	1.104	1.099	1.123	1.118	1.108
-0.005	-0.015	-0.005	0.000	0.000	0.015	0.425	1.753	1.104	1.099	1.099	1.118	1.113	1.118
0.000	-0.015	0.000	0.000	0.005	0.005	0.430	1.792	1.099	1.099	1.099	1.113	1.113	1.113
0.000	-0.020	-0.005	0.005	-0.005	-0.005	0.420	1.748	1.104	1.104	1.094	1.118	1.113	1.108
0.000	-0.010	0.000	0.005	-0.005	0.000	0.430	1.724	1.094	1.099	1.099	1.118	1.108	1.108
0.000	0.005	-0.005	0.000	0.000	-0.020	0.420	1.704	1.104	1.104	1.099	1.118	1.113	1.108
0.000	0.005	0.000	0.000	0.000	0.010	0.425	1.802	1.108	1.104	1.104	1.123	1.113	1.113
0.005	0.000	0.000	0.010	0.000	-0.010	0.415	1.758	1.108	1.104	1.104	1.118	1.118	1.108
0.000	0.005	-0.005	0.000	-0.005	0.005	0.425	1.797	1.104	1.108	1.104	1.123	1.113	1.118
0.000	0.000	0.000	0.000	0.000	-0.005	0.420	1.797	1.108	1.104	1.104	1.123	1.118	1.118
0.005	0.005	-0.005	0.000	0.000	0.010	0.425	1.797	1.113	1.108	1.104	1.123	1.118	1.123
-0.005	0.005	0.000	0.000	0.005	0.005	0.415	1.758	1.104	1.104	1.104	1.123	1.118	1.118
-0.005	0.005	0.000	0.000	-0.005	0.005	0.415	1.787	1.108	1.108	1.104	1.123	1.118	1.118
0.000	0.000	0.000	0.000	0.005	-0.005	0.430	1.782	1.108	1.108	1.104	1.123	1.118	1.118
0.005	0.000	0.000	0.000	0.000	0.000	0.425	1.802	1.108	1.104	1.104	1.123	1.118	1.118
-0.005	0.000	0.000	-0.005	0.000	0.005	0.430	1.802	1.108	1.099	1.104	1.123	1.118	1.118
-0.010	0.000	0.000	0.005	-0.005	-0.020	0.415	1.797	1.108	1.104	1.104	1.123	1.113	1.108
0.000	0.000	0.000	0.000	0.000	0.000	0.415	1.743	1.104	1.104	1.099	1.118	1.113	1.113
-0.005	-0.005	0.000	-0.005	-0.005	0.010	0.415	1.748	1.099	1.099	1.099	1.113	1.113	1.118
-0.005	0.000	0.000	0.000	-0.005	0.015	0.425	1.738	1.099	1.104	1.099	1.118	1.113	1.113
0.000	-0.005	0.005	0.000	0.005	0.005	0.420	1.753	1.099	1.099	1.099	1.118	1.113	1.113
-0.005	0.005	0.005	-0.005	0.000	0.005	0.425	1.792	1.104	1.099	1.099	1.118	1.113	1.108
0.005	0.005	-0.005	0.000	0.000	0.005	0.420	1.772	1.108	1.099	1.099	1.118	1.113	1.108
-0.005	0.000	-0.005	0.000	0.000	-0.015	0.430	1.772	1.108	1.104	1.099	1.118	1.113	1.113
0.005	0.005	0.000	0.005	0.000	0.015	0.415	1.768	1.108	1.104	1.104	1.123	1.118	1.118
-0.010	-0.005	-0.005	0.000	-0.005	0.005	0.420	1.689	1.094	1.104	1.104	1.118	1.113	1.118
0.000	0.005	0.000	0.005	0.000	-0.005	0.425	1.738	1.099	1.104	1.104	1.123	1.118	1.113
0.000	0.015	0.000	-0.005	0.000	0.000	0.425	1.797	1.104	1.108	1.104	1.118	1.118	1.118
0.000	0.005	0.005	0.000	-0.005	0.005	0.415	1.709	1.099	1.104	1.108	1.123	1.118	1.113
0.000	-0.010	0.000	0.000	0.005	-0.020	0.425	1.802	1.104	1.094	1.104	1.118	1.118	1.113
-0.005	-0.005	0.000	-0.005	0.000	-0.005	0.430	1.787	1.104	1.099	1.104	1.118	1.118	1.113
0.000	-0.010	0.000	-0.005	0.000	0.000	0.430	1.748	1.104	1.099	1.099	1.118	1.113	1.113
0.000	-0.005	0.000	0.000	0.005	-0.005	0.420	1.777	1.099	1.099	1.094	1.118	1.113	1.113
-0.005	0.005	-0.005	0.000	0.005	-0.010	0.425	1.763	1.099	1.099	1.099	1.118	1.113	1.113
-0.005	0.000	-0.005	0.010	0.000	0.000	0.420	1.782	1.099	1.094	1.094	1.113	1.108	1.108
-0.005	-0.010	0.000	0.005	0.000	0.005	0.420	1.763	1.099	1.094	1.094	1.113	1.108	1.113
0.000	0.000	0.000	0.000	-0.005	-0.020	0.425	1.743	1.099	1.094	1.094	1.108	1.108	1.104
0.005	-0.005	0.000	0.005	-0.005	-0.010	0.420	1.758	1.108	1.099	1.094	1.113	1.108	1.104
0.000	0.000	0.000	0.000	-0.005	-0.005	0.420	1.753	1.099	1.099	1.094	1.108	1.108	1.104
-0.010	0.015	0.000	-0.005	0.005	-0.010	0.425	1.782	1.104	1.104	1.099	1.113	1.113	1.108
-0.005	0.015	0.005	0.000	0.005	0.015	0.420	1.802	1.108	1.104	1.104	1.118	1.113	1.113
-0.005	0.000	-0.005	0.005	0.000	0.005	0.415	1.797	1.108	1.104	1.099	1.118	1.113	1.113
-0.005	0.000	-0.005	0.000	0.000	0.010	0.430	1.782	1.113	1.108	1.104	1.118	1.113	1.113
0.000	0.000	-0.005	0.000	0.000	0.005	0.420	1.787	1.108	1.108	1.104	1.123	1.113	1.118
0.005	-0.005	0.005	0.000	-0.005	-0.005	0.425	1.772	1.104	1.104	1.104	1.123	1.113	1.108
0.000	-0.005	-0.005	0.000	-0.005	0.010	0.415	1.792	1.104	1.104	1.104	1.123	1.118	1.118
0.000	-0.005	0.000	0.010	-0.005	0.005	0.420	1.729	1.099	1.104	1.104	1.123	1.118	1.118
-0.005	-0.024	0.000	0.005	0.010	0.005	0.420	1.748	1.094	1.099	1.104	1.123	1.118	1.118
-0.015	-0.020	-0.005	0.000	0.000	-0.029	0.425	1.753	1.089	1.094	1.094	1.118	1.113	1.104
-0.005	0.000	0.000	0.005	0.000	0.005	0.420	1.748	1.094	1.099	1.094	1.118	1.113	1.113
-0.005	0.005	-0.005	0.000	0.000	0.005	0.420	1.787	1.094	1.094	1.094	1.113	1.108	1.113
-0.005	0.005	0.000	0.005	0.000	0.000	0.415	1.792	1.099	1.094	1.094	1.118	1.108	1.113
0.005	0.010	0.000	0.005	-0.005	0.005	0.425	1.787	1.104	1.099	1.094	1.113	1.108	1.108
-0.005	-0.005	-0.005	0.000	0.000	-0.010	0.425	1.782	1.099	1.094	1.094	1.108	1.108	1.108
0.010	0.000	0.005	0.000	-0.010	0.010	0.425	1.753	1.104	1.099	1.094	1.113	1.108	1.113
0.010	-0.005	0.000	-0.005	0.000	-0.005	0.415	1.758	1.099	1.099	1.094	1.108	1.108	1.108
0.000	0.000	0.000	-0.005	0.000	-0.024	0.420	1.787	1.104	1.099	1.094	1.113	1.108	1.099
-0.005	-0.005	-0.005	-0.005	-0.005	0.010	0.425	1.709	1.094	1.099	1.094	1.113	1.108	1.113
-0.005	0.005	0.000	0.000	0.000	0.010	0.420	1.782	1.094	1.099	1.099	1.118	1.113	1.113
-0.005	-0.005	0.000	-0.005	-0.005	0.005	0.420	1.748	1.099	1.099	1.099	1.118	1.113	1.113
0.000	-0.005	-0.005	0.000	0.000	-0.005	0.425	1.772	1.099	1.099	1.104	1.118	1.113	1.113
0.005	-0.005	-0.005	0.005	0.000	-0.005	0.420	1.777	1.108	1.099	1.099	1.118	1.113	1.113
0.005	-0.005	0.000	0.000	0.000	0.000	0.420	1.719	1.099	1.104	1.099	1.118	1.113	1.113
-0.005	-0.010	0.005	0.000	0.000	0.000	0.425	1.777	1.104	1.099	1.099	1.113	1.108	1.113
-0.010	-0.005	0.000	-0.005	0.000	-0.015	0.420	1.787	1.104	1.099	1.099	1.113	1.108	1.108
0.000	0.000	0.000	0.000	0.000	0.000	0.425	1.797	1.104	1.099	1.094	1.113	1.108	1.108
-0.005	-0.005	-0.005	-0.005	0.000	0.000	0.420	1.787	1.099	1.099	1.094	1.113	1.108	1.108
-0.005	-0.010	-0.005	0.000	-0.005	0.000	0.430	1.748	1.094	1.099	1.094	1.113	1.108	1.104
0.000	0.000	0.000	0.000	0.000	-0.005	0.425	1.768	1.094	1.094	1.094	1.113	1.108	1.104
0.000	-0.005	-0.005	0.000	0.000	0.005	0.420	1.714	1.094	1.089	1.094	1.113	1.108	1.108
-0.005	0.000	0.000	0.000	0.000	-0.005	0.420	1.797	1.094	1.094	1.094	1.113	1.108	1.108
0.000	-0.015	0.005	-0.005	0.000	0.005	0.425	1.816	1.099	1.094	1.094	1.108	1.108	1.108
0.000	0.010	0.000	-0.005	0.000	0.005	0.420	1.792	1.104	1.104	1.099	1.108	1.108	1.108
0.010	0.000	0.000	-0.005	-0.005	-0.005	0.430	1.758	1.113	1.104	1.094	1.113	1.108	1.104
0.000	-0.010	0.000	0.000	-0.005	0.005	0.420	1.772	1.108	1.099	1.099	1.113	1.108	1.108
-0.005	0.000	0.000	0.000	-0.005	-0.010	0.425	1.777	1.108	1.104	1.104	1.118	1.108	1.108
0.000	0.010	-0.005	0.000	0.000	-0.010	0.420	1.772	1.104	1.108	1.104	1.118	1.113	1.104
0.000	0.005	0.000	0.000	0.000	0.005	0.425	1.772	1.104	1.104	1.104	1.118	1.113	1.113
0.000	-0.005	-0.005	0.000	-0.005	0.005	0.425	1.748	1.104	1.104	1.104	1.118	1.118	1.113
-0.010	-0.010	0.000	0.000	0.005	-0.024	0.425	1.792	1.099	1.099	1.099	1.118	1.113	1.104
-0.005	-0.010	0.000	0.000	0.000	-0.020	0.420	1.758	1.099	1.099	1.099	1.118	1.113	1.108
-0.005	0.000	0.000	-0.005	0.000	-0.010	0.425	1.807	1.099	1.099	1.099	1.118	1.113	1.113
-0.010	0.005	-0.005	0.000	0.005	0.005	0.420	1.802	1.104	1.094	1.099	1.118	1.113	1.108
-0.005	0.000	0.000	0.000	0.000	-0.005	0.425	1.787	1.104	1.094	1.094	1.118	1.113	1.113
-0.005	0.000	0.005	0.000	0.000	0.010	0.425	1.797	1.104	1.094	1.094	1.113	1.108	1.113
-0.005	-0.005	0.000	0.000	0.000	0.015	0.425	1.782	1.099	1.094	1.094	1.113	1.108	1.113
-0.010	0.005	0.000	0.000	-0.005	0.010	0.420	1.812	1.104	1.099	1.094	1.113	1.108	1.113
0.010	0.000	0.000	0.005	-0.005	-0.005	0.420	1.797	1.108	1.099	1.094	1.113	1.108	1.104
-0.010	-0.005	-0.005	0.000	0.000	-0.005	0.425	1.748	1.099	1.099	1.094	1.113	1.108	1.108
0.005	0.000	0.000	0.005	0.000	0.000	0.425	1.826	1.108	1.099	1.094	1.113	1.108	1.108
-0.005	0.000	0.000	0.000	0.000	-0.015	0.420	1.772	1.104	1.108	1.099	1.113	1.113	1.108
0.000	0.010	0.005	0.000	-0.005	0.005	0.420	1.753	1.104	1.108	1.104	1.118	1.113	1.113
-0.005	0.000	0.000	0.000	0.000	0.005	0.425	1.802	1.108	1.104	1.104	1.118	1.113	1.113
0.005	-0.005	-0.005	0.000	0.000	-0.024	0.425	1.772	1.108	1.104	1.099	1.118	1.113	1.108
0.000	-0.005	-0.005	0.000	0.000	0.000	0.425	1.807	1.108	1.104	1.104	1.123	1.118	1.118
0.005	0.005	0.000	0.005	0.000	0.000	0.415	1.738	1.108	1.108	1.104	1.123	1.118	1.113
0.000	-0.005	0.000	0.000	0.005	0.000	0.425	1.797	1.099	1.104	1.104	1.123	1.113	1.118
-0.005	-0.005	0.000	0.005	0.000	-0.010	0.420	1.738	1.099	1.099	1.104	1.118	1.118	1.113
0.000	0.000	0.000	0.000	-0.005	0.005	0.425	1.797	1.104	1.099	1.099	1.118	1.108	1.113
-0.010	0.005	-0.005	-0.005	0.000	-0.020	0.425	1.724	1.099	1.104	1.099	1.118	1.113	1.104
0.000	0.010	0.000	-0.005	0.005	-0.015	0.425	1.787	1.099	1.099	1.099	1.113	1.113	1.104
-0.010	0.010	-0.005	-0.005	0.000	-0.020	0.420	1.787	1.099	1.094	1.099	1.113	1.113	1.108
0.000	-0.010	0.005	-0.005	-0.005	0.015	0.425	1.782	1.099	1.094	1.094	1.113	1.108	1.113
0.010	-0.010	0.000	-0.005	-0.005	-0.005	0.420	1.768	1.099	1.094	1.094	1.113	1.108	1.104
0.000	-0.005	-0.005	-0.005	-0.005	0.005	0.425	1.768	1.094	1.094	1.094	1.113	1.108	1.108
0.000	0.005	-0.005	-0.005	0.000	-0.024	0.420	1.758	1.094	1.099	1.094	1.113	1.108	1.099
-0.005	0.010	0.000	-0.005	0.000	0.005	0.425	1.787	1.099	1.099	1.099	1.113	1.113	1.118
0.005	-0.015	-0.005	0.000	0.000	0.010	0.425	1.782	1.104	1.099	1.099	1.113	1.113	1.113
0.000	-0.010	-0.005	-0.005	0.000	-0.020	0.425	1.753	1.104	1.104	1.099	1.113	1.113	1.104
-0.005	-0.005	0.000	-0.005	-0.005	0.005	0.420	1.792	1.104	1.099	1.099	1.118	1.113	1.118
0.005	-0.005	0.000	0.000	-0.005	0.015	0.420	1.777	1.108	1.104	1.104	1.118	1.113	1.118
0.000	0.005	0.000	0.000	-0.005	0.005	0.420	1.763	1.099	1.104	1.104	1.118	1.113	1.113
0.005	-0.005	-0.005	0.000	0.000	0.000	0.425	1.768	1.104	1.104	1.104	1.123	1.113	1.113
-0.005	0.000	0.000	0.005	-0.005	-0.005	0.425	1.787	1.099	1.099	1.099	1.118	1.113	1.108
-0.005	0.000	-0.005	0.000	0.005	-0.015	0.420	1.787	1.099	1.099	1.099	1.118	1.113	1.108
0.000	-0.005	0.000	-0.005	0.000	0.000	0.425	1.758	1.099	1.099	1.094	1.118	1.108	1.108
-0.005	0.000	-0.005	0.000	-0.005	-0.024	0.420	1.797	1.099	1.099	1.094	1.113	1.108	1.104
0.005	0.000	-0.005	0.005	0.000	-0.010	0.425	1.743	1.094	1.099	1.094	1.113	1.113	1.108
0.000	0.010	0.000	0.000	0.000	-0.005	0.415	1.748	1.089	1.094	1.094	1.113	1.108	1.113
0.000	-0.005	0.000	0.000	0.000	0.000	0.425	1.763	1.094	1.089	1.094	1.108	1.108	1.108
0.010	0.000	0.005	0.000	0.000	0.000	0.415	1.792	1.099	1.094	1.094	1.113	1.108	1.108
-0.005	-0.010	-0.005	0.000	0.000	0.010	0.425	1.792	1.094	1.089	1.094	1.113	1.108	1.108
0.000	-0.005	-0.005	0.000	-0.005	-0.010	0.415	1.724	1.094	1.094	1.094	1.113	1.108	1.104
0.005	-0.010	0.000	0.005	-0.005	0.010	0.425	1.797	1.099	1.094	1.094	1.113	1.108	1.113
-0.005	-0.005	-0.005	0.005	0.000	-0.010	0.420	1.777	1.099	1.094	1.094	1.113	1.108	1.108
0.000	0.010	-0.005	0.005	-0.005	0.000	0.425	1.763	1.099	1.104	1.099	1.118	1.108	1.108
0.005	0.010	0.000	0.000	-0.005	-0.010	0.420	1.763	1.104	1.104	1.099	1.113	1.108	1.104
0.010	0.000	0.000	0.000	-0.005	-0.015	0.420	1.772	1.104	1.104	1.099	1.118	1.113	1.108
0.000	0.010	0.000	0.005	0.005	0.020	0.420	1.758	1.104	1.104	1.099	1.118	1.113	1.118
0.005	0.000	-0.005	-0.005	-0.005	0.005	0.425	1.792	1.104	1.099	1.099	1.113	1.113	1.113
0.005	0.005	0.005	0.000	0.000	0.010	0.420	1.787	1.104	1.104	1.099	1.118	1.113	1.113
-0.005	-0.005	-0.005	0.000	0.000	0.000	0.425	1.733	1.099	1.099	1.099	1.113	1.113	1.108
-0.005	0.005	0.000	0.000	0.005	0.005	0.425	1.802	1.099	1.099	1.094	1.113	1.108	1.108
-0.010	-0.005	0.000	0.000	0.000	-0.020	0.420	1.748	1.094	1.094	1.094	1.113	1.108	1.099
-0.005	-0.005	-0.005	0.000	-0.005	0.005	0.425	1.758	1.094	1.094	1.094	1.113	1.104	1.108
-0.005	0.000	0.000	0.000	0.000	0.010	0.425	1.772	1.099	1.094	1.094	1.108	1.108	1.108
-0.005	-0.005	0.000	0.000	-0.005	-0.015	0.420	1.729	1.094	1.094	1.094	1.113	1.104	1.104
-0.005	-0.005	0.000	0.005	0.000	-0.005	0.420	1.763	1.094	1.089	1.094	1.108	1.108	1.104
-0.005	0.000	-0.005	0.000	-0.005	-0.010	0.420	1.763	1.094	1.094	1.094	1.108	1.108	1.104
-0.005	0.000	-0.005	0.000	0.000	-0.020	0.420	1.787	1.104	1.099	1.094	1.113	1.108	1.104
0.000	0.000	-0.005	0.005	0.000	0.010	0.425	1.763	1.108	1.099	1.094	1.113	1.108	1.113
-0.010	-0.005	0.000	0.005	0.000	0.000	0.420	1.782	1.104	1.099	1.099	1.113	1.108	1.108
-0.005	0.005	0.000	0.000	0.000	0.005	0.425	1.748	1.104	1.104	1.104	1.113	1.108	1.113
0.000	-0.005	0.005	-0.005	0.000	0.005	0.425	1.807	1.108	1.099	1.099	1.113	1.113	1.108
0.000	0.000	-0.005	-0.005	-0.010	-0.010	0.420	1.768	1.104	1.104	1.099	1.118	1.108	1.108
-0.010	-0.005	-0.005	-0.005	0.000	0.005	0.425	1.787	1.108	1.104	1.099	1.118	1.108	1.108
0.005	-0.005	-0.005	0.000	0.000	0.005	0.425	1.777	1.104	1.104	1.099	1.118	1.113	1.108
-0.005	0.000	0.000	0.000	0.000	-0.005	0.420	1.797	1.104	1.104	1.099	1.118	1.113	1.113
0.000	-0.005	-0.005	-0.005	0.000	-0.020	0.425	1.748	1.094	1.099	1.099	1.113	1.108	1.104
-0.005	-0.005	-0.005	0.000	0.005	0.005	0.425	1.768	1.094	1.094	1.099	1.113	1.113	1.113
0.000	-0.005	0.000	-0.005	0.000	0.010	0.425	1.812	1.099	1.094	1.094	1.113	1.108	1.108
-0.005	-0.005	0.005	-0.005	0.000	0.005	0.420	1.792	1.094	1.094	1.094	1.108	1.108	1.108
0.005	-0.005	0.000	0.005	0.000	0.000	0.430	1.743	1.094	1.094	1.094	1.113	1.108	1.104
0.000	-0.005	0.000	-0.005	-0.005	0.000	0.420	1.729	1.089	1.089	1.089	1.108	1.104	1.104
0.005	-0.010	0.000	-0.005	-0.005	0.000	0.420	1.763	1.089	1.089	1.089	1.108	1.108	1.108
0.005	-0.010	0.000	-0.005	0.000	-0.005	0.425	1.787	1.094	1.089	1.089	1.108	1.104	1.104
0.000	-0.010	-0.005	0.000	0.000	-0.034	0.430	1.768	1.094	1.094	1.094	1.108	1.108	1.099
0.000	-0.005	0.000	0.000	-0.005	0.000	0.425	1.772	1.099	1.094	1.094	1.108	1.108	1.113
-0.005	-0.005	-0.005	0.000	0.005	0.005	0.425	1.802	1.104	1.094	1.094	1.108	1.108	1.113
0.000	0.000	0.000	0.000	0.000	0.005	0.425	1.792	1.108	1.099	1.094	1.113	1.108	1.108
0.005	0.000	-0.005	0.000	-0.005	-0.015	0.415	1.733	1.099	1.104	1.099	1.113	1.108	1.104
0.005	-0.005	0.000	0.005	0.005	-0.024	0.425	1.768	1.104	1.099	1.094	1.113	1.108	1.104
-0.005	0.000	-0.005	0.000	0.000	0.000	0.420	1.772	1.104	1.099	1.099	1.118	1.113	1.113
0.000	0.010	-0.005	0.010	0.000	0.000	0.420	1.797	1.104	1.104	1.104	1.118	1.108	1.108
0.000	0.015	-0.005	0.000	-0.005	0.010	0.420	1.777	1.099	1.104	1.104	1.118	1.113	1.113
-0.005	-0.005	-0.005	0.015	-0.005	0.000	0.425	1.792	1.094	1.089	1.099	1.118	1.108	1.108
0.005	-0.005	0.000	0.000	0.000	0.000	0.420	1.807	1.104	1.094	1.094	1.113	1.108	1.108
-0.005	-0.005	0.000	0.000	0.000	-0.015	0.425	1.807	1.099	1.094	1.094	1.113	1.108	1.104
0.000	0.000	0.000	0.000	0.000	0.000	0.420	1.782	1.099	1.094	1.094	1.108	1.108	1.108
0.010	0.005	0.000	0.000	-0.005	0.005	0.425	1.699	1.094	1.094	1.094	1.108	1.108	1.108
0.005	0.000	0.000	0.000	0.000	-0.010	0.420	1.777	1.094	1.094	1.094	1.108	1.104	1.104
0.005	0.000	-0.005	0.000	0.000	0.000	0.430	1.743	1.094	1.094	1.094	1.113	1.108	1.108
-0.005	0.005	-0.005	-0.005	0.000	0.005	0.415	1.763	1.094	1.094	1.094	1.108	1.108	1.108
-0.005	0.000	-0.005	0.000	-0.005	-0.020	0.425	1.753	1.094	1.094	1.094	1.108	1.108	1.099
-0.005	0.000	-0.005	0.000	-0.005	-0.024	0.415	1.733	1.094	1.094	1.094	1.113	1.108	1.099
0.010	0.000	0.000	0.000	-0.005	-0.010	0.425	1.792	1.104	1.099	1.094	1.113	1.108	1.108
-0.015	0.010	-0.005	-0.005	-0.005	-0.020	0.420	1.763	1.094	1.104	1.099	1.113	1.108	1.104
0.000	0.020	0.005	0.005	-0.005	0.015	0.425	1.724	1.099	1.099	1.099	1.118	1.113	1.113
-0.005	0.005	0.000	-0.005	0.000	-0.015	0.420	1.812	1.099	1.094	1.094	1.118	1.113	1.108
-0.010	0.010	0.000	0.000	0.000	0.010	0.425	1.753	1.099	1.094	1.099	1.113	1.113	1.118
-0.005	0.005	0.000	-0.010	0.000	0.005	0.420	1.792	1.104	1.094	1.094	1.113	1.113	1.113
0.000	-0.005	-0.005	-0.010	0.000	-0.024	0.425	1.802	1.104	1.089	1.089	1.108	1.108	1.104
-0.005	-0.005	-0.005	-0.005	0.005	0.005	0.415	1.758	1.094	1.089	1.094	1.108	1.108	1.108
-0.005	-0.024	0.000	-0.005	0.000	0.015	0.420	1.782	1.099	1.089	1.089	1.108	1.108	1.108
0.000	-0.020	-0.005	-0.010	0.005	-0.005	0.420	1.758	1.094	1.089	1.089	1.104	1.104	1.104
0.000	-0.010	0.000	-0.005	0.000	0.000	0.420	1.802	1.099	1.094	1.089	1.108	1.104	1.108
0.000	0.000	-0.005	0.000	0.000	0.000	0.420	1.763	1.094	1.094	1.094	1.108	1.104	1.104
-0.005	0.005	-0.005	0.000	0.000	-0.020	0.420	1.768	1.099	1.094	1.094	1.108	1.104	1.094
-0.010	-0.010	-0.005	0.000	-0.005	-0.005	0.420	1.797	1.099	1.094	1.094	1.108	1.099	1.104
-0.010	-0.010	-0.005	0.000	0.000	-0.005	0.415	1.782	1.099	1.094	1.094	1.113	1.108	1.099
0.010	-0.010	0.000	0.005	0.000	0.005	0.425	1.763	1.104	1.104	1.094	1.113	1.108	1.108
0.000	0.005	0.000	0.000	0.000	0.005	0.420	1.738	1.094	1.104	1.094	1.113	1.108	1.108
-0.010	0.000	0.000	0.000	-0.005	0.000	0.425	1.729	1.094	1.099	1.099	1.118	1.108	1.104
0.000	0.000	0.005	0.000	0.000	-0.005	0.420	1.802	1.104	1.099	1.099	1.118	1.113	1.108
-0.005	0.005	0.000	0.005	0.000	0.000	0.425	1.812	1.104	1.099	1.099	1.118	1.113	1.108
-0.005	0.000	-0.010	0.000	-0.005	0.005	0.420	1.729	1.094	1.099	1.099	1.118	1.113	1.113
-0.005	0.000	0.000	0.000	-0.005	0.000	0.425	1.753	1.094	1.094	1.099	1.118	1.113	1.108
0.005	0.005	0.000	0.000	0.005	0.005	0.420	1.733	1.094	1.099	1.099	1.113	1.113	1.113
0.005	0.005	-0.005	-0.005	0.000	-0.024	0.420	1.782	1.094	1.094	1.094	1.108	1.108	1.099
-0.005	0.010	0.000	0.000	0.000	0.005	0.425	1.787	1.094	1.094	1.094	1.113	1.108	1.108
0.000	0.015	-0.005	0.005	0.005	0.005	0.430	1.753	1.094	1.094	1.094	1.113	1.113	1.108
0.005	-0.015	-0.005	0.000	0.000	0.010	0.420	1.724	1.089	1.089	1.089	1.108	1.104	1.108
-0.005	-0.010	-0.005	0.000	-0.005	0.000	0.425	1.772	1.089	1.089	1.089	1.108	1.104	1.104
0.000	-0.005	-0.005	0.005	0.000	0.000	0.425	1.782	1.094	1.089	1.089	1.108	1.104	1.104
0.000	-0.010	-0.005	0.000	-0.005	-0.010	0.415	1.753	1.094	1.089	1.084	1.104	1.104	1.099
0.005	-0.005	0.000	0.000	0.000	-0.005	0.420	1.782	1.099	1.089	1.089	1.104	1.104	1.104
0.000	0.000	0.000	0.000	0.000	0.015	0.420	1.816	1.108	1.099	1.094	1.108	1.104	1.104
0.000	0.000	0.005	0.000	-0.005	0.015	0.420	1.797	1.108	1.099	1.094	1.108	1.104	1.108
-0.005	-0.005	-0.005	0.000	0.000	0.000	0.420	1.777	1.104	1.099	1.094	1.113	1.108	1.104
-0.005	0.000	0.000	-0.005	0.005	0.005	0.425	1.782	1.099	1.099	1.094	1.113	1.108	1.108
-0.005	-0.010	0.000	0.000	-0.005	-0.024	0.420	1.787	1.108	1.104	1.099	1.113	1.104	1.104
-0.005	0.005	0.000	0.000	0.000	-0.010	0.425	1.802	1.108	1.104	1.099	1.118	1.113	1.108
-0.005	0.005	0.000	-0.005	-0.005	0.000	0.420	1.797	1.108	1.104	1.099	1.118	1.108	1.108
0.000	0.000	0.000	0.000	-0.005	-0.005	0.425	1.724	1.099	1.104	1.099	1.118	1.113	1.108
0.000	0.020	-0.005	0.000	0.000	0.000	0.420	1.748	1.099	1.104	1.099	1.113	1.108	1.108
-0.005	0.005	0.000	-0.005	-0.005	0.005	0.425	1.743	1.094	1.099	1.099	1.118	1.108	1.108
-0.005	0.005	-0.005	-0.005	0.000	-0.005	0.420	1.797	1.094	1.094	1.099	1.113	1.108	1.104
0.000	0.000	-0.005	-0.005	-0.005	-0.005	0.420	1.797	1.104	1.094	1.094	1.113	1.104	1.104
-0.015	-0.005	-0.005	-0.005	-0.005	-0.029	0.415	1.743	1.128	1.099	1.094	1.108	1.104	1.099
-0.010	-0.005	0.000	0.000	-0.005	0.005	0.425	1.802	1.182	1.113	1.104	1.113	1.108	1.113
0.000	0.000	0.000	0.000	-0.005	-0.010	0.420	1.797	1.157	1.128	1.108	1.118	1.108	1.104
0.000	-0.010	0.000	0.000	-0.005	0.000	0.425	1.787	1.138	1.128	1.113	1.118	1.113	1.108
0.010	-0.005	0.000	-0.005	-0.005	-0.010	0.415	1.797	1.128	1.128	1.118	1.123	1.118	1.108
0.000	-0.005	0.000	-0.005	0.005	0.000	0.425	1.787	1.128	1.128	1.123	1.128	1.118	1.113
0.010	-0.005	0.000	-0.005	-0.005	-0.005	0.415	1.753	1.118	1.123	1.123	1.133	1.123	1.113
-0.005	-0.005	-0.005	-0.005	-0.005	0.000	0.425	1.782	1.108	1.123	1.123	1.138	1.128	1.123
-0.005	0.000	0.005	0.005	-0.005	0.000	0.420	1.753	1.104	1.118	1.123	1.143	1.128	1.123
-0.005	-0.010	0.000	0.000	0.000	0.000	0.420	1.777	1.099	1.108	1.118	1.138	1.133	1.128
0.005	-0.005	-0.005	0.005	-0.005	0.005	0.425	1.763	1.104	1.108	1.113	1.138	1.133	1.128
-0.005	-0.005	0.000	-0.005	0.000	0.000	0.420	1.743	1.099	1.108	1.113	1.133	1.133	1.128
0.010	0.005	0.000	0.000	0.000	0.005	0.425	1.792	1.104	1.108	1.113	1.138	1.133	1.133
-0.005	-0.005	0.000	0.000	0.000	-0.020	0.415	1.787	1.094	1.099	1.108	1.133	1.133	1.123
0.005	-0.005	0.000	0.000	0.000	0.000	0.420	1.792	1.104	1.099	1.104	1.128	1.128	1.128
0.000	0.000	0.000	-0.005	-0.005	0.000	0.420	1.753	1.099	1.099	1.099	1.123	1.123	1.123
-0.005	-0.005	0.000	-0.005	-0.005	-0.020	0.425	1.797	1.099	1.094	1.099	1.123	1.123	1.118
0.010	0.000	0.000	-0.005	-0.005	0.000	0.425	1.748	1.094	1.094	1.099	1.118	1.118	1.123
-0.005	-0.005	-0.005	0.000	0.000	0.000	0.415	1.772	1.094	1.094	1.099	1.118	1.118	1.123
-0.005	0.000	0.000	0.000	0.000	0.000	0.415	1.792	1.104	1.094	1.099	1.118	1.118	1.123
-0.005	0.000	0.005	0.000	-0.005	0.000	0.425	1.792	1.108	1.099	1.099	1.118	1.113	1.118
-0.005	-0.005	-0.005	-0.005	0.000	-0.005	0.410	1.792	1.108	1.099	1.094	1.113	1.118	1.118
0.000	0.005	-0.005	0.000	0.000	-0.005	0.425	1.777	1.108	1.108	1.099	1.118	1.113	1.113
-0.010	0.000	0.005	-0.005	0.000	-0.015	0.425	1.797	1.108	1.104	1.104	1.118	1.113	1.113
0.000	0.000	0.000	0.000	-0.005	-0.010	0.425	1.797	1.113	1.108	1.104	1.123	1.113	1.118
0.005	-0.010	-0.005	0.005	0.000	-0.015	0.415	1.709	1.108	1.108	1.104	1.123	1.118	1.108
0.010	0.005	-0.005	0.000	0.005	-0.020	0.430	1.787	1.108	1.108	1.108	1.123	1.123	1.113
-0.010	-0.010	-0.005	0.000	0.010	-0.010	0.420	1.768	1.104	1.104	1.104	1.123	1.123	1.118
-0.005	-0.005	0.005	0.000	0.024	0.020	0.425	1.802	1.108	1.104	1.108	1.123	1.123	1.133
0.005	0.000	0.000	0.000	0.020	0.015	0.415	1.758	1.104	1.104	1.104	1.123	1.123	1.123
-0.010	-0.005	0.000	0.005	0.020	0.024	0.425	1.787	1.099	1.104	1.104	1.123	1.123	1.123
0.000	0.005	-0.005	0.000	0.024	0.024	0.420	1.797	1.104	1.099	1.104	1.118	1.118	1.123
0.000	0.000	-0.005	0.000	0.024	0.020	0.425	1.758	1.108	1.104	1.099	1.118	1.118	1.118
-0.005	0.005	-0.005	0.000	0.024	0.000	0.425	1.792	1.104	1.099	1.099	1.118	1.113	1.113
0.005	0.000	0.000	-0.005	0.015	0.020	0.420	1.797	1.104	1.099	1.099	1.113	1.108	1.113
-0.005	0.000	0.000	0.000	0.015	0.010	0.420	1.748	1.099	1.099	1.099	1.113	1.113	1.113
0.005	0.005	0.005	0.000	0.015	0.010	0.420	1.787	1.108	1.104	1.099	1.118	1.108	1.108
0.000	-0.005	0.000	0.000	0.005	0.005	0.420	1.787	1.104	1.099	1.099	1.113	1.108	1.108
0.000	0.000	-0.005	0.000	0.005	-0.010	0.420	1.748	1.104	1.104	1.104	1.118	1.108	1.104
0.005	0.010	0.000	-0.005	0.000	0.010	0.425	1.787	1.108	1.108	1.104	1.118	1.113	1.113
-0.010	-0.005	-0.005	0.000	0.005	-0.005	0.420	1.777	1.108	1.099	1.104	1.123	1.118	1.113
-0.010	0.000	0.005	0.000	0.010	0.000	0.425	1.807	1.108	1.104	1.104	1.123	1.118	1.113
-0.005	-0.005	0.000	0.000	0.005	-0.015	0.420	1.797	1.113	1.108	1.104	1.123	1.118	1.113
0.000	-0.005	0.000	0.005	0.005	-0.005	0.425	1.777	1.108	1.108	1.104	1.123	1.118	1.113
-0.005	0.000	0.000	-0.005	-0.005	0.010	0.415	1.768	1.108	1.108	1.108	1.123	1.118	1.118
0.010	-0.005	0.000	-0.005	-0.015	-0.005	0.420	1.772	1.113	1.108	1.108	1.123	1.113	1.108
-0.010	-0.005	-0.005	0.000	-0.010	0.000	0.420	1.792	1.104	1.108	1.108	1.123	1.118	1.113
-0.005	0.005	-0.005	-0.005	-0.010	0.000	0.425	1.792	1.104	1.104	1.104	1.118	1.113	1.113
-0.005	0.005	0.000	0.000	-0.010	-0.015	0.420	1.768	1.099	1.104	1.104	1.123	1.113	1.108
-0.005	0.000	0.000	0.000	-0.010	0.005	0.425	1.787	1.099	1.099	1.099	1.118	1.113	1.113
-0.015	0.000	-0.005	0.000	-0.015	0.005	0.425	1.797	1.104	1.099	1.099	1.118	1.113	1.113
-0.005	0.005	0.000	0.000	-0.015	-0.005	0.425	1.787	1.104	1.099	1.099	1.118	1.113	1.108
0.005	-0.005	-0.005	0.000	-0.015	-0.005	0.420	1.768	1.104	1.099	1.099	1.113	1.108	1.113
0.015	0.000	0.000	0.000	-0.015	-0.034	0.420	1.714	1.099	1.099	1.099	1.118	1.113	1.104
0.000	0.000	0.000	-0.005	-0.020	-0.005	0.420	1.748	1.099	1.099	1.099	1.118	1.113	1.113
0.005	-0.005	-0.005	0.000	-0.015	-0.005	0.425	1.802	1.104	1.104	1.104	1.118	1.113	1.113
0.005	0.000	0.000	0.000	-0.015	-0.039	0.420	1.797	1.108	1.104	1.099	1.118	1.113	1.108
-0.005	0.000	-0.005	-0.005	-0.015	0.005	0.420	1.797	1.104	1.104	1.104	1.123	1.118	1.123
0.000	0.005	0.005	0.000	-0.010	0.005	0.420	1.797	1.113	1.104	1.108	1.123	1.113	1.113
-0.005	0.000	-0.005	-0.005	-0.010	-0.005	0.420	1.729	1.104	1.104	1.104	1.118	1.118	1.113
-0.005	-0.005	0.000	-0.005	0.000	0.000	0.425	1.816	1.113	1.104	1.104	1.123	1.123	1.118
-0.005	0.000	0.000	-0.005	-0.010	0.000	0.420	1.792	1.113	1.108	1.104	1.123	1.118	1.118
-0.005	0.000	-0.005	0.000	-0.005	0.000	0.420	1.782	1.108	1.108	1.104	1.123	1.118	1.118
-0.010	-0.005	0.000	-0.005	0.000	-0.010	0.420	1.812	1.108	1.104	1.104	1.123	1.123	1.113
-0.010	0.000	0.000	0.005	0.000	0.005	0.425	1.768	1.104	1.104	1.104	1.123	1.118	1.118
-0.005	0.000	-0.005	0.000	-0.005	0.000	0.415	1.782	1.104	1.099	1.099	1.118	1.113	1.113
-0.005	-0.005	0.000	0.000	-0.005	-0.005	0.425	1.748	1.099	1.104	1.104	1.118	1.113	1.113
0.000	-0.005	0.000	0.000	0.000	-0.005	0.420	1.787	1.104	1.104	1.099	1.118	1.113	1.113
-0.005	-0.005	-0.005	0.000	0.000	-0.005	0.420	1.807	1.099	1.099	1.099	1.118	1.118	1.113
0.000	0.000	0.005	0.000	0.000	-0.005	0.420	1.777	1.099	1.104	1.099	1.118	1.113	1.113
0.000	0.000	0.000	0.000	0.000	0.005	0.425	1.797	1.099	1.099	1.099	1.118	1.113	1.118
0.005	0.005	0.000	0.000	0.005	-0.010	0.430	1.709	1.104	1.104	1.099	1.113	1.113	1.113
0.000	0.005	-0.005	0.000	0.005	0.005	0.425	1.860	1.104	1.104	1.099	1.118	1.118	1.118
0.000	0.010	0.000	-0.005	0.000	0.000	0.420	1.768	1.108	1.108	1.104	1.123	1.118	1.118
0.000	0.005	-0.005	0.005	0.005	-0.015	0.430	1.768	1.113	1.104	1.104	1.123	1.118	1.113
0.000	-0.005	-0.005	0.000	-0.005	-0.005	0.420	1.787	1.113	1.104	1.104	1.123	1.118	1.118
0.005	0.000	0.005	0.000	0.005	-0.024	0.425	1.777	1.113	1.108	1.104	1.123	1.118	1.108
-0.005	0.000	0.000	0.000	0.000	-0.005	0.420	1.777	1.113	1.108	1.104	1.123	1.118	1.118
0.000	-0.005	0.000	-0.005	0.000	-0.024	0.420	1.797	1.108	1.108	1.104	1.123	1.118	1.113
0.005	0.005	0.005	-0.005	0.000	0.015	0.425	1.768	1.104	1.108	1.108	1.123	1.118	1.123
0.000	-0.020	0.005	-0.005	0.005	0.005	0.425	1.763	1.104	1.099	1.104	1.123	1.118	1.118
-0.010	-0.015	-0.005	-0.005	0.005	0.005	0.425	1.733	1.099	1.099	1.099	1.118	1.118	1.118
0.000	0.005	-0.005	-0.005	0.000	-0.005	0.420	1.772	1.099	1.099	1.094	1.118	1.108	1.113
0.000	0.015	0.000	0.000	0.005	0.005	0.420	1.758	1.094	1.099	1.099	1.118	1.113	1.108
-0.005	0.000	0.000	0.000	-0.005	-0.010	0.415	1.787	1.094	1.094	1.099	1.118	1.113	1.104
0.000	-0.005	-0.005	-0.005	0.000	-0.010	0.415	1.753	1.099	1.089	1.094	1.118	1.108	1.108
-0.005	0.000	0.000	-0.005	-0.005	-0.010	0.420	1.802	1.104	1.094	1.094	1.118	1.108	1.108
0.005	0.000	-0.005	-0.005	0.000	-0.020	0.420	1.714	1.099	1.099	1.094	1.113	1.113	1.108
0.000	0.000	0.000	0.000	0.000	0.005	0.425	1.772	1.099	1.099	1.094	1.113	1.113	1.118
0.005	-0.010	0.000	0.000	0.000	0.000	0.430	1.714	1.094	1.099	1.099	1.118	1.113	1.113
0.000	-0.005	0.000	0.000	0.000	0.005	0.420	1.782	1.099	1.099	1.099	1.118	1.113	1.118
0.005	-0.005	0.000	0.000	0.000	0.005	0.420	1.772	1.099	1.099	1.099	1.118	1.113	1.113
0.005	0.015	-0.010	0.000	-0.005	0.005	0.415	1.743	1.099	1.104	1.099	1.118	1.113	1.113
0.005	-0.005	0.005	0.000	0.000	0.000	0.420	1.753	1.094	1.099	1.099	1.118	1.113	1.113
-0.005	0.000	-0.005	0.000	0.000	0.000	0.415	1.753	1.094	1.094	1.099	1.118	1.113	1.113
-0.005	-0.005	-0.005	0.010	0.005	-0.010	0.430	1.753	1.094	1.094	1.094	1.118	1.113	1.113
0.000	0.005	0.000	0.005	0.000	0.000	0.415	1.748	1.094	1.094	1.094	1.118	1.113	1.113
-0.005	0.005	-0.005	0.005	0.000	-0.005	0.420	1.792	1.094	1.094	1.094	1.113	1.113	1.108
-0.005	-0.005	-0.005	0.005	0.005	0.000	0.420	1.777	1.094	1.089	1.094	1.108	1.108	1.108
-0.005	-0.005	-0.005	0.000	-0.005	-0.010	0.420	1.748	1.094	1.089	1.089	1.108	1.104	1.108
-0.005	-0.010	0.000	0.000	0.000	-0.010	0.425	1.787	1.094	1.089	1.094	1.108	1.104	1.104
0.005	-0.020	0.000	0.000	0.000	0.010	0.425	1.758	1.099	1.089	1.089	1.108	1.104	1.108
0.000	-0.005	-0.005	0.000	-0.005	0.000	0.420	1.772	1.099	1.089	1.089	1.108	1.104	1.104
0.000	-0.010	0.005	0.000	-0.010	-0.005	0.425	1.743	1.099	1.094	1.089	1.104	1.099	1.104
-0.005	-0.005	-0.005	0.005	-0.005	0.000	0.420	1.714	1.089	1.094	1.094	1.108	1.104	1.108
0.000	-0.015	0.000	-0.005	-0.005	0.005	0.425	1.787	1.099	1.094	1.094	1.108	1.104	1.104
-0.005	-0.005	0.000	-0.005	0.000	0.005	0.420	1.826	1.104	1.099	1.094	1.108	1.104	1.108
-0.005	0.005	0.000	0.000	0.000	-0.005	0.420	1.792	1.108	1.104	1.099	1.113	1.108	1.108
-0.005	-0.005	-0.005	-0.005	0.005	0.005	0.415	1.758	1.104	1.099	1.099	1.113	1.108	1.108
-0.005	0.000	0.000	0.000	0.005	-0.010	0.425	1.646	1.104	1.104	1.099	1.113	1.108	1.099
0.000	0.005	0.005	-0.005	0.000	0.005	0.425	1.792	1.108	1.104	1.104	1.118	1.108	1.108
0.010	-0.005	0.000	-0.005	-0.005	0.000	0.420	1.763	1.108	1.099	1.099	1.118	1.108	1.108
-0.005	-0.005	0.000	0.000	0.000	-0.005	0.425	1.792	1.108	1.099	1.099	1.118	1.113	1.104
-0.005	0.000	-0.005	-0.005	0.000	-0.010	0.420	1.763	1.099	1.099	1.099	1.113	1.113	1.108
-0.005	0.000	0.000	0.000	0.000	0.010	0.425	1.753	1.094	1.099	1.094	1.113	1.113	1.108
0.000	0.005	0.000	-0.005	0.000	-0.005	0.420	1.748	1.094	1.094	1.094	1.113	1.108	1.108
-0.005	0.005	0.000	-0.005	0.005	0.000	0.425	1.797	1.099	1.094	1.094	1.113	1.108	1.108
0.000	0.020	-0.005	0.000	0.000	0.000	0.420	1.768	1.094	1.094	1.094	1.108	1.104	1.108
-0.005	0.005	0.005	-0.005	0.000	0.005	0.425	1.787	1.099	1.094	1.094	1.108	1.104	1.108
-0.010	0.005	0.005	0.000	-0.005	-0.020	0.425	1.772	1.099	1.094	1.094	1.113	1.104	1.099
0.000	-0.005	0.000	-0.005	0.000	0.000	0.425	1.797	1.104	1.094	1.094	1.113	1.108	1.108
-0.010	0.000	-0.005	0.000	0.005	-0.020	0.415	1.792	1.104	1.099	1.094	1.113	1.108	1.104
0.000	0.000	0.000	0.000	0.000	-0.020	0.420	1.753	1.099	1.099	1.094	1.113	1.108	1.099
0.000	0.000	0.000	-0.005	0.000	0.005	0.420	1.787	1.108	1.104	1.094	1.113	1.108	1.113
0.005	-0.010	0.000	0.005	0.000	0.005	0.425	1.753	1.108	1.099	1.099	1.113	1.108	1.108
-0.005	-0.010	0.000	0.000	0.000	-0.010	0.420	1.763	1.104	1.104	1.104	1.118	1.113	1.104
0.000	-0.005	-0.005	0.000	0.000	0.005	0.425	1.797	1.108	1.104	1.104	1.118	1.113	1.113
-0.005	0.005	0.000	0.000	0.000	0.010	0.420	1.797	1.104	1.104	1.104	1.118	1.113	1.113
-0.010	0.000	-0.005	0.000	-0.005	0.010	0.425	1.758	1.099	1.099	1.099	1.123	1.113	1.113
0.005	-0.005	0.000	0.000	0.000	-0.020	0.425	1.777	1.099	1.104	1.104	1.118	1.113	1.104
0.000	-0.005	0.000	0.000	0.000	0.015	0.420	1.758	1.094	1.094	1.099	1.118	1.113	1.113
-0.005	-0.005	-0.005	-0.005	-0.005	-0.005	0.420	1.802	1.099	1.094	1.094	1.113	1.108	1.108
-0.005	-0.005	0.000	0.000	0.005	0.010	0.425	1.821	1.104	1.099	1.099	1.118	1.113	1.113
-0.005	-0.005	0.000	0.000	0.005	-0.015	0.425	1.743	1.099	1.094	1.094	1.108	1.108	1.108
-0.010	-0.010	-0.005	0.000	0.000	0.005	0.420	1.768	1.099	1.099	1.094	1.113	1.108	1.113
0.000	0.000	-0.005	0.005	0.000	0.005	0.420	1.792	1.104	1.099	1.094	1.113	1.108	1.108
0.000	0.000	0.000	0.000	-0.005	0.015	0.420	1.787	1.104	1.104	1.094	1.113	1.108	1.113
0.010	0.000	-0.005	0.000	-0.005	-0.005	0.420	1.772	1.099	1.099	1.099	1.113	1.108	1.108
0.005	0.010	0.000	0.005	0.000	0.010	0.420	1.792	1.099	1.104	1.099	1.118	1.108	1.113
0.000	0.000	0.000	0.000	0.000	0.005	0.425	1.733	1.094	1.099	1.099	1.113	1.113	1.108
0.005	0.000	0.000	0.000	0.000	-0.005	0.420	1.758	1.094	1.099	1.099	1.113	1.113	1.113
0.005	-0.005	0.000	-0.005	0.005	0.000	0.425	1.792	1.104	1.099	1.099	1.118	1.113	1.113
-0.010	-0.015	0.005	0.000	0.000	-0.010	0.420	1.772	1.099	1.094	1.099	1.118	1.113	1.108
-0.010	-0.005	0.000	0.000	0.000	-0.010	0.420	1.758	1.094	1.099	1.099	1.118	1.113	1.113
-0.005	-0.005	0.000	0.000	0.000	0.005	0.420	1.763	1.099	1.094	1.099	1.118	1.113	1.113
0.005	0.000	-0.005	-0.005	-0.005	-0.005	0.430	1.724	1.099	1.099	1.099	1.118	1.113	1.108
0.000	-0.015	-0.005	-0.005	0.000	0.010	0.420	1.792	1.099	1.094	1.094	1.113	1.108	1.113
0.000	-0.010	0.000	-0.005	0.000	0.005	0.425	1.777	1.099	1.094	1.094	1.113	1.108	1.108
-0.010	0.005	0.005	-0.005	-0.005	0.000	0.420	1.787	1.099	1.094	1.094	1.113	1.108	1.108
0.000	0.005	-0.005	-0.005	0.005	0.005	0.425	1.802	1.104	1.094	1.094	1.113	1.108	1.108
-0.010	0.000	-0.010	0.000	-0.005	0.000	0.420	1.758	1.094	1.094	1.094	1.108	1.104	1.104
-0.005	-0.010	0.000	0.000	0.000	0.005	0.420	1.797	1.099	1.089	1.094	1.108	1.104	1.104
0.000	-0.005	-0.005	0.005	-0.005	0.010	0.425	1.787	1.104	1.094	1.089	1.113	1.108	1.104
-0.005	0.000	-0.005	0.005	-0.005	0.010	0.425	1.719	1.089	1.094	1.089	1.108	1.108	1.104
0.005	0.005	0.000	0.000	-0.005	0.005	0.420	1.797	1.099	1.094	1.094	1.108	1.108	1.104
-0.005	-0.005	-0.005	0.005	0.000	0.000	0.425	1.748	1.094	1.094	1.094	1.113	1.108	1.104
0.000	0.010	0.000	0.000	0.005	0.000	0.425	1.802	1.104	1.099	1.099	1.113	1.108	1.104
-0.005	-0.005	0.000	0.000	-0.005	-0.005	0.420	1.748	1.099	1.099	1.099	1.113	1.108	1.108
0.000	0.000	0.000	0.000	-0.005	-0.005	0.420	1.733	1.099	1.099	1.099	1.118	1.108	1.108
0.005	0.000	0.000	0.005	0.000	-0.024	0.425	1.733	1.099	1.099	1.099	1.118	1.108	1.104
0.000	0.000	0.000	0.005	-0.005	-0.029	0.420	1.753	1.094	1.099	1.099	1.118	1.113	1.104
-0.005	0.000	0.000	0.005	0.005	0.005	0.420	1.753	1.094	1.094	1.094	1.118	1.113	1.113
-0.005	0.000	0.000	0.005	-0.005	0.005	0.420	1.782	1.094	1.094	1.094	1.113	1.113	1.113
-0.005	0.000	-0.005	0.005	0.000	0.000	0.415	1.714	1.094	1.094	1.094	1.113	1.113	1.113
-0.005	0.005	0.000	0.000	0.010	-0.005	0.425	1.792	1.094	1.094	1.094	1.108	1.113	1.108
0.005	0.000	-0.005	0.005	0.005	0.005	0.420	1.748	1.094	1.089	1.089	1.108	1.108	1.108
-0.005	0.000	-0.005	0.000	0.000	-0.010	0.425	1.797	1.094	1.089	1.089	1.108	1.104	1.104
0.000	0.005	-0.005	0.005	0.005	-0.005	0.420	1.753	1.094	1.089	1.089	1.104	1.104	1.104
0.000	0.005	0.000	-0.005	-0.005	0.010	0.425	1.797	1.099	1.089	1.089	1.104	1.099	1.108
0.005	-0.005	-0.005	-0.005	-0.005	0.000	0.420	1.763	1.099	1.089	1.089	1.104	1.099	1.104
0.000	-0.010	0.000	0.000	0.000	0.005	0.420	1.792	1.099	1.094	1.089	1.108	1.104	1.104
0.000	0.005	0.005	-0.005	0.000	0.000	0.420	1.802	1.104	1.099	1.094	1.108	1.104	1.104
0.005	-0.010	0.000	-0.005	0.000	0.005	0.420	1.768	1.099	1.094	1.094	1.108	1.104	1.104
-0.010	-0.010	-0.005	-0.005	-0.005	0.010	0.420	1.753	1.099	1.099	1.094	1.108	1.104	1.104
-0.005	0.000	-0.005	-0.005	0.000	-0.024	0.425	1.758	1.099	1.099	1.094	1.113	1.104	1.099
0.000	-0.015	0.000	-0.005	0.000	0.005	0.420	1.792	1.104	1.094	1.099	1.113	1.108	1.108
0.010	-0.010	-0.005	0.000	0.000	0.000	0.420	1.802	1.108	1.104	1.099	1.118	1.108	1.104
0.000	-0.005	0.000	-0.005	-0.005	0.000	0.420	1.802	1.104	1.104	1.099	1.113	1.108	1.108
-0.005	0.005	0.000	-0.005	-0.005	0.005	0.430	1.763	1.104	1.104	1.104	1.118	1.108	1.108
-0.010	0.005	0.000	-0.005	0.000	-0.005	0.420	1.787	1.099	1.104	1.099	1.113	1.108	1.104
-0.005	0.000	0.000	0.000	-0.005	0.005	0.420	1.772	1.099	1.099	1.099	1.118	1.108	1.108
-0.005	0.000	0.000	-0.005	0.000	-0.010	0.415	1.807	1.104	1.099	1.099	1.113	1.108	1.104
0.005	0.005	-0.005	0.000	0.000	-0.005	0.425	1.772	1.104	1.099	1.094	1.113	1.108	1.104
-0.010	0.005	0.000	-0.005	0.000	-0.020	0.420	1.772	1.094	1.094	1.094	1.113	1.104	1.104
-0.005	0.000	0.000	0.005	0.000	0.015	0.420	1.807	1.099	1.094	1.094	1.118	1.108	1.108
0.000	0.000	0.000	0.000	-0.005	0.005	0.425	1.802	1.099	1.094	1.094	1.113	1.108	1.108
-0.005	0.024	-0.005	0.000	-0.005	0.000	0.415	1.807	1.104	1.104	1.094	1.113	1.108	1.104
-0.005	0.015	0.000	-0.005	-0.005	0.000	0.420	1.719	1.094	1.099	1.099	1.108	1.108	1.108
0.005	0.015	0.000	0.000	0.000	0.010	0.420	1.792	1.099	1.099	1.099	1.113	1.108	1.108
0.000	-0.005	-0.005	0.000	-0.005	0.010	0.425	1.743	1.094	1.094	1.099	1.113	1.108	1.108
-0.010	-0.005	-0.005	0.000	0.000	-0.005	0.415	1.787	1.094	1.094	1.094	1.113	1.108	1.108
0.000	-0.005	0.000	0.000	0.005	0.000	0.425	1.802	1.108	1.094	1.099	1.118	1.113	1.108
0.010	-0.005	0.000	0.005	-0.005	-0.015	0.420	1.777	1.108	1.099	1.099	1.118	1.113	1.108
-0.015	-0.005	-0.005	0.000	0.000	-0.029	0.425	1.797	1.099	1.094	1.099	1.113	1.108	1.104
0.000	-0.005	0.005	-0.005	0.000	-0.024	0.415	1.763	1.104	1.099	1.099	1.113	1.113	1.108
-0.005	0.000	0.000	0.000	0.005	0.015	0.425	1.797	1.104	1.099	1.099	1.118	1.113	1.118
-0.010	0.000	-0.005	0.000	0.000	-0.010	0.415	1.777	1.099	1.094	1.094	1.113	1.108	1.113
-0.010	-0.005	-0.005	-0.005	0.005	-0.010	0.420	1.768	1.094	1.094	1.094	1.113	1.113	1.108
-0.005	-0.010	0.000	-0.005	-0.005	-0.005	0.425	1.782	1.094	1.094	1.094	1.108	1.108	1.108
0.000	-0.005	-0.005	-0.005	-0.005	0.010	0.420	1.812	1.104	1.094	1.094	1.108	1.108	1.113
-0.005	0.000	0.000	-0.005	0.000	0.020	0.420	1.758	1.099	1.099	1.094	1.108	1.108	1.108
0.000	0.000	0.000	0.000	0.000	-0.020	0.415	1.787	1.099	1.094	1.094	1.108	1.104	1.099
0.010	-0.005	-0.005	0.000	0.000	-0.005	0.420	1.792	1.099	1.094	1.094	1.108	1.108	1.104
0.005	-0.005	0.000	-0.005	-0.005	-0.005	0.420	1.812	1.104	1.099	1.094	1.113	1.104	1.104
0.005	0.000	0.000	-0.005	-0.005	0.005	0.420	1.714	1.094	1.099	1.099	1.108	1.108	1.108
-0.005	-0.005	0.000	0.000	-0.005	-0.005	0.420	1.753	1.099	1.099	1.099	1.113	1.108	1.108
-0.005	-0.005	-0.005	0.000	0.000	-0.005	0.425	1.792	1.104	1.099	1.099	1.113	1.113	1.104
0.005	0.005	-0.005	0.000	0.005	0.000	0.420	1.763	1.104	1.104	1.099	1.118	1.108	1.108
0.000	0.000	0.000	0.000	-0.005	-0.020	0.420	1.777	1.108	1.099	1.104	1.118	1.113	1.104
0.000	-0.005	0.000	0.005	0.000	0.000	0.425	1.782	1.104	1.104	1.104	1.123	1.113	1.113
0.000	-0.005	-0.005	0.000	0.000	-0.024	0.420	1.763	1.099	1.099	1.099	1.118	1.113	1.104
-0.010	-0.005	-0.005	0.000	-0.005	0.010	0.420	1.763	1.094	1.099	1.099	1.118	1.113	1.118
0.000	0.010	0.000	0.005	-0.005	0.000	0.420	1.792	1.099	1.104	1.099	1.118	1.113	1.108
0.005	-0.005	0.000	0.005	0.005	0.010	0.420	1.738	1.094	1.094	1.099	1.118	1.118	1.118
0.005	-0.015	0.000	0.005	0.000	-0.005	0.425	1.782	1.104	1.094	1.094	1.113	1.113	1.108
-0.005	-0.015	0.000	0.000	0.000	0.010	0.420	1.738	1.094	1.094	1.094	1.113	1.113	1.113
0.000	-0.005	0.000	0.000	0.000	0.000	0.430	1.738	1.094	1.094	1.089	1.113	1.108	1.108
0.000	-0.010	0.000	0.000	0.000	0.015	0.425	1.782	1.094	1.089	1.094	1.108	1.108	1.113
0.000	-0.005	0.000	0.000	-0.005	0.000	0.420	1.787	1.089	1.094	1.089	1.108	1.104	1.108
0.005	-0.005	0.000	0.000	0.000	0.000	0.420	1.787	1.089	1.089	1.094	1.108	1.108	1.108
0.000	0.000	0.000	0.005	0.000	-0.005	0.420	1.802	1.094	1.094	1.094	1.108	1.108	1.104
0.005	0.000	0.000	0.000	-0.005	0.000	0.415	1.753	1.099	1.094	1.094	1.108	1.104	1.104
-0.005	0.000	-0.005	0.000	-0.005	0.005	0.420	1.748	1.094	1.099	1.094	1.108	1.108	1.108
0.005	0.020	0.005	-0.005	-0.005	-0.005	0.420	1.772	1.099	1.104	1.099	1.113	1.108	1.104
-0.005	0.015	-0.005	-0.005	-0.005	-0.015	0.420	1.802	1.099	1.104	1.099	1.113	1.108	1.108
0.000	0.010	0.000	-0.005	-0.005	0.005	0.415	1.782	1.099	1.099	1.099	1.113	1.108	1.108
-0.005	0.010	0.000	-0.005	-0.005	-0.010	0.420	1.763	1.108	1.104	1.104	1.118	1.113	1.113
-0.005	0.000	0.000	0.000	0.005	-0.020	0.420	1.724	1.094	1.094	1.099	1.118	1.113	1.104
0.000	-0.005	-0.005	0.005	0.000	0.010	0.425	1.758	1.104	1.094	1.099	1.118	1.118	1.118
-0.005	-0.005	0.000	-0.005	0.000	0.005	0.420	1.768	1.099	1.094	1.094	1.113	1.113	1.113
-0.005	-0.005	-0.005	-0.005	0.000	0.005	0.420	1.802	1.099	1.099	1.094	1.113	1.108	1.113
-0.005	-0.005	0.000	0.000	0.000	-0.029	0.420	1.768	1.094	1.094	1.089	1.113	1.104	1.099
-0.005	0.000	0.000	-0.005	0.000	0.005	0.420	1.758	1.094	1.094	1.094	1.108	1.104	1.108
-0.005	0.000	-0.005	0.000	-0.005	0.000	0.425	1.777	1.094	1.094	1.094	1.108	1.104	1.108
0.005	-0.005	0.000	-0.005	0.005	0.005	0.425	1.777	1.099	1.089	1.089	1.104	1.104	1.104
-0.005	-0.015	0.000	0.000	-0.005	0.010	0.420	1.777	1.094	1.089	1.089	1.108	1.104	1.108
-0.010	-0.015	0.000	0.005	-0.005	0.005	0.420	1.768	1.094	1.089	1.089	1.108	1.104	1.099
-0.005	-0.015	-0.005	0.000	-0.005	-0.010	0.420	1.763	1.094	1.089	1.089	1.108	1.104	1.099
0.000	0.005	0.000	0.000	0.000	0.010	0.420	1.768	1.099	1.099	1.094	1.108	1.108	1.108
0.010	0.015	-0.005	0.000	0.000	0.005	0.425	1.748	1.099	1.104	1.094	1.113	1.108	1.108
0.005	0.000	0.005	0.000	0.000	0.000	0.415	1.782	1.104	1.094	1.099	1.113	1.108	1.104
0.005	0.000	0.000	0.000	0.000	-0.005	0.430	1.719	1.094	1.099	1.094	1.113	1.108	1.104
0.005	0.005	0.000	-0.005	0.000	-0.005	0.415	1.763	1.094	1.099	1.099	1.118	1.108	1.108
-0.005	0.010	-0.005	0.000	0.000	-0.005	0.425	1.777	1.094	1.094	1.094	1.118	1.108	1.108
0.005	0.005	0.000	0.000	0.005	0.005	0.420	1.797	1.104	1.099	1.099	1.118	1.108	1.108
0.000	0.005	0.000	0.000	0.005	-0.010	0.425	1.777	1.104	1.094	1.099	1.113	1.108	1.104
0.005	-0.005	0.000	0.000	-0.005	-0.005	0.420	1.812	1.104	1.094	1.094	1.113	1.108	1.104
0.000	-0.005	-0.005	0.000	-0.005	-0.005	0.425	1.797	1.099	1.094	1.094	1.113	1.108	1.108
0.000	-0.005	-0.005	0.000	0.000	-0.005	0.415	1.792	1.104	1.094	1.094	1.113	1.104	1.104
-0.005	-0.005	0.005	0.000	0.000	-0.015	0.420	1.738	1.094	1.099	1.094	1.108	1.108	1.104
0.005	0.005	-0.005	0.000	0.000	0.005	0.430	1.792	1.099	1.099	1.094	1.108	1.108	1.108
0.005	-0.005	0.000	0.000	0.005	0.015	0.420	1.787	1.094	1.094	1.094	1.113	1.108	1.108
-0.005	0.000	0.000	0.000	0.000	0.005	0.420	1.797	1.099	1.094	1.094	1.113	1.104	1.104
-0.005	0.005	0.000	0.000	-0.005	0.015	0.430	1.758	1.099	1.099	1.094	1.108	1.108	1.104
-0.005	0.000	0.000	0.000	-0.005	-0.005	0.425	1.792	1.099	1.094	1.094	1.108	1.104	1.099
0.005	-0.005	0.000	0.000	0.000	-0.010	0.415	1.782	1.104	1.094	1.094	1.113	1.108	1.099
0.005	-0.005	0.000	0.005	0.000	0.010	0.420	1.792	1.104	1.099	1.094	1.118	1.113	1.108
0.000	0.000	0.000	0.000	0.000	0.010	0.420	1.802	1.108	1.104	1.099	1.118	1.113	1.113
0.000	-0.005	0.000	-0.005	0.000	-0.005	0.425	1.768	1.104	1.104	1.099	1.118	1.113	1.104
-0.005	-0.010	0.000	0.000	-0.005	0.005	0.415	1.792	1.099	1.104	1.099	1.118	1.113	1.113
0.005	0.000	0.000	0.000	0.000	0.000	0.430	1.733	1.099	1.104	1.099	1.118	1.113	1.108
-0.005	-0.005	0.000	0.000	-0.005	0.005	0.420	1.787	1.094	1.099	1.099	1.118	1.113	1.113
0.000	-0.005	0.000	0.000	0.000	0.000	0.425	1.748	1.099	1.094	1.099	1.118	1.113	1.108
0.000	-0.005	-0.005	0.000	0.005	-0.010	0.415	1.753	1.094	1.094	1.094	1.118	1.113	1.108
-0.005	0.000	0.000	-0.005	0.000	0.000	0.430	1.772	1.094	1.094	1.094	1.113	1.108	1.104
0.000	-0.005	0.000	0.000	-0.005	0.005	0.415	1.777	1.094	1.094	1.094	1.108	1.108	1.108
0.000	-0.010	0.000	0.005	0.000	0.000	0.420	1.748	1.094	1.089	1.094	1.108	1.108	1.108
-0.010	0.000	0.000	0.000	0.005	0.000	0.425	1.777	1.094	1.089	1.089	1.108	1.108	1.104
0.005	-0.010	-0.005	0.000	0.000	0.000	0.420	1.758	1.099	1.089	1.089	1.108	1.104	1.108
-0.005	0.010	-0.005	0.000	0.000	-0.005	0.425	1.782	1.099	1.099	1.094	1.108	1.104	1.104
0.005	0.000	0.000	0.000	-0.005	0.010	0.425	1.772	1.099	1.094	1.094	1.108	1.104	1.108
0.000	0.000	-0.005	-0.005	-0.005	-0.005	0.425	1.787	1.104	1.099	1.094	1.108	1.104	1.104
0.000	0.000	-0.005	-0.005	-0.005	0.000	0.420	1.748	1.099	1.094	1.094	1.108	1.108	1.108
0.000	-0.005	0.000	0.000	0.000	0.000	0.420	1.777	1.099	1.094	1.099	1.113	1.108	1.108
0.005	-0.005	0.000	0.000	-0.005	-0.015	0.420	1.763	1.104	1.099	1.099	1.113	1.108	1.104
0.005	0.005	-0.005	0.000	0.000	-0.024	0.415	1.782	1.104	1.099	1.099	1.118	1.108	1.104
-0.005	0.005	-0.005	-0.010	-0.005	0.000	0.425	1.753	1.099	1.104	1.099	1.118	1.113	1.113
-0.005	0.005	0.000	0.000	0.005	0.005	0.420	1.787	1.099	1.099	1.099	1.118	1.113	1.113
0.000	0.000	-0.005	0.000	0.000	-0.005	0.420	1.748	1.089	1.099	1.094	1.113	1.108	1.113
-0.005	0.005	-0.005	-0.005	0.005	0.000	0.425	1.797	1.104	1.094	1.099	1.113	1.113	1.113
0.000	0.000	-0.005	0.000	0.000	0.000	0.420	1.768	1.099	1.094	1.094	1.113	1.113	1.108
-0.015	0.000	0.000	-0.005	-0.005	-0.005	0.420	1.792	1.094	1.094	1.094	1.113	1.108	1.108
0.000	-0.005	0.000	0.000	-0.005	0.005	0.420	1.787	1.094	1.089	1.089	1.108	1.104	1.108
0.000	-0.005	0.000	0.000	-0.005	0.000	0.420	1.748	1.094	1.094	1.094	1.108	1.104	1.104
0.000	-0.005	-0.005	0.005	0.000	0.000	0.420	1.782	1.099	1.094	1.089	1.108	1.104	1.104
-0.005	-0.005	-0.005	0.000	0.000	0.010	0.425	1.738	1.094	1.089	1.089	1.108	1.108	1.104
0.000	-0.005	0.000	0.000	0.000	-0.005	0.425	1.787	1.099	1.094	1.094	1.108	1.104	1.099
0.010	-0.005	-0.005	0.005	-0.005	0.000	0.425	1.719	1.089	1.094	1.094	1.108	1.108	1.108
0.005	0.000	-0.005	0.005	0.000	0.005	0.425	1.763	1.094	1.094	1.094	1.108	1.108	1.108
-0.005	0.000	0.005	0.000	-0.005	0.005	0.425	1.714	1.089	1.094	1.094	1.108	1.108	1.108
0.000	0.000	0.005	0.000	-0.005	-0.010	0.415	1.763	1.094	1.094	1.094	1.113	1.108	1.104
0.005	0.005	-0.005	0.005	-0.005	-0.005	0.425	1.753	1.099	1.094	1.094	1.113	1.108	1.104
-0.005	-0.005	-0.005	0.005	0.000	-0.029	0.415	1.729	1.094	1.094	1.094	1.113	1.108	1.104
-0.005	0.000	0.000	0.000	-0.005	-0.005	0.425	1.724	1.094	1.099	1.094	1.113	1.108	1.108
0.000	-0.005	-0.005	-0.005	0.000	0.005	0.420	1.758	1.094	1.094	1.094	1.113	1.113	1.113
-0.005	-0.010	-0.005	-0.005	0.000	-0.005	0.420	1.733	1.094	1.089	1.089	1.108	1.108	1.108
0.000	0.000	-0.005	-0.005	-0.005	-0.015	0.420	1.753	1.094	1.094	1.094	1.108	1.104	1.104
0.000	0.000	0.000	0.000	0.000	-0.005	0.420	1.724	1.089	1.089	1.089	1.108	1.108	1.108
-0.005	0.005	0.000	0.000	0.000	0.010	0.420	1.787	1.094	1.094	1.089	1.108	1.108	1.108
-0.005	0.000	0.000	-0.005	0.000	0.010	0.425	1.802	1.094	1.089	1.089	1.104	1.104	1.104
-0.005	0.000	-0.005	-0.005	0.000	-0.020	0.425	1.777	1.094	1.089	1.089	1.104	1.104	1.099
0.005	-0.005	-0.005	0.000	-0.005	-0.029	0.420	1.772	1.094	1.084	1.084	1.104	1.099	1.094
-0.005	-0.005	0.000	0.000	-0.005	-0.005	0.415	1.807	1.094	1.089	1.089	1.104	1.099	1.104
0.000	-0.005	0.000	-0.005	0.000	0.000	0.420	1.802	1.099	1.094	1.089	1.104	1.099	1.104
0.000	0.000	0.000	0.000	0.000	0.000	0.420	1.768	1.094	1.099	1.094	1.108	1.104	1.104
0.005	-0.005	0.000	-0.005	0.000	0.005	0.420	1.812	1.104	1.094	1.089	1.108	1.104	1.104
-0.010	-0.005	-0.005	-0.005	0.000	-0.010	0.420	1.792	1.108	1.099	1.094	1.108	1.104	1.104
0.000	0.000	0.000	0.000	0.000	0.000	0.415	1.807	1.108	1.104	1.099	1.113	1.104	1.104
0.000	0.000	-0.005	0.000	-0.005	-0.005	0.425	1.787	1.108	1.104	1.099	1.113	1.104	1.104
0.000	0.000	0.000	0.000	0.000	0.000	0.420	1.763	1.104	1.104	1.099	1.118	1.108	1.104
-0.015	0.000	0.000	0.000	0.000	0.005	0.425	1.758	1.099	1.099	1.099	1.113	1.108	1.104
0.000	0.005	0.000	0.000	-0.005	0.000	0.415	1.724	1.094	1.104	1.099	1.118	1.113	1.108
0.000	0.010	-0.005	0.000	0.005	-0.005	0.420	1.753	1.094	1.094	1.099	1.118	1.113	1.104
-0.010	0.000	-0.005	-0.005	0.000	0.000	0.420	1.797	1.094	1.094	1.094	1.113	1.108	1.108
0.000	-0.005	-0.005	0.000	-0.005	0.000	0.425	1.768	1.094	1.089	1.094	1.113	1.108	1.108
0.015	0.000	-0.005	-0.005	0.000	-0.015	0.420	1.763	1.099	1.094	1.094	1.113	1.108	1.104
-0.005	0.000	0.000	-0.005	-0.005	0.005	0.425	1.787	1.094	1.089	1.094	1.108	1.104	1.108
-0.005	-0.005	-0.005	-0.005	-0.005	0.000	0.420	1.768	1.094	1.089	1.089	1.108	1.104	1.108
0.005	0.000	0.005	0.000	-0.005	0.000	0.425	1.782	1.094	1.094	1.089	1.108	1.104	1.099
-0.010	-0.005	0.000	-0.005	0.000	-0.005	0.415	1.733	1.084	1.094	1.089	1.108	1.104	1.099
0.005	0.010	0.000	-0.005	0.000	0.010	0.425	1.812	1.099	1.094	1.094	1.113	1.104	1.108
0.000	0.005	0.000	-0.005	-0.010	0.005	0.415	1.797	1.104	1.094	1.089	1.108	1.104	1.104
0.005	-0.005	0.000	0.000	0.000	-0.020	0.420	1.719	1.099	1.094	1.094	1.113	1.108	1.099
0.005	0.005	0.005	0.000	0.000	0.000	0.425	1.777	1.099	1.099	1.099	1.113	1.108	1.104
0.000	0.000	0.000	0.005	0.000	-0.020	0.420	1.743	1.094	1.099	1.099	1.113	1.108	1.104
0.000	-0.005	-0.005	0.000	0.000	-0.005	0.415	1.748	1.094	1.094	1.099	1.113	1.113	1.113
-0.005	0.000	0.000	0.000	0.000	-0.010	0.415	1.787	1.094	1.094	1.099	1.113	1.113	1.113
0.000	0.000	0.000	0.000	0.000	0.015	0.425	1.802	1.104	1.099	1.094	1.113	1.108	1.113
-0.005	-0.005	0.000	0.000	0.000	-0.015	0.420	1.792	1.099	1.094	1.094	1.113	1.108	1.104
0.000	0.000	-0.005	0.000	0.000	-0.005	0.415	1.807	1.104	1.099	1.094	1.113	1.108	1.108
0.000	-0.010	-0.005	0.005	0.000	0.000	0.420	1.782	1.099	1.094	1.094	1.108	1.108	1.108
0.005	-0.015	0.000	0.005	0.000	-0.005	0.425	1.787	1.104	1.094	1.094	1.113	1.108	1.108
-0.005	-0.015	0.000	0.000	-0.005	0.015	0.425	1.782	1.099	1.094	1.094	1.108	1.104	1.108
0.000	-0.010	0.000	0.000	-0.005	-0.005	0.420	1.753	1.094	1.094	1.089	1.108	1.104	1.104
-0.005	0.000	0.000	0.005	0.000	0.015	0.415	1.772	1.089	1.094	1.089	1.108	1.104	1.104
-0.005	-0.005	0.000	0.000	-0.005	0.005	0.425	1.768	1.089	1.089	1.089	1.108	1.104	1.104
-0.005	0.005	0.005	0.000	-0.005	-0.005	0.415	1.782	1.094	1.094	1.094	1.108	1.104	1.099
0.010	0.010	-0.010	0.000	-0.005	0.000	0.420	1.748	1.094	1.094	1.089	1.108	1.104	1.104
-0.005	0.005	0.005	-0.005	0.000	-0.005	0.415	1.782	1.094	1.094	1.094	1.108	1.104	1.104
-0.005	0.010	-0.005	0.000	-0.005	-0.005	0.420	1.802	1.099	1.094	1.094	1.113	1.104	1.104
0.005	0.015	-0.005	0.000	0.005	0.000	0.420	1.787	1.104	1.104	1.099	1.113	1.108	1.104
-0.010	0.005	-0.005	0.000	-0.005	-0.015	0.420	1.777	1.099	1.099	1.099	1.113	1.108	1.104
-0.005	0.000	0.000	0.000	-0.005	-0.005	0.415	1.738	1.099	1.094	1.099	1.113	1.108	1.108
-0.015	0.005	0.000	-0.005	-0.005	-0.020	0.420	1.797	1.099	1.094	1.094	1.113	1.108	1.104
-0.005	0.005	0.005	0.000	0.000	-0.010	0.420	1.768	1.099	1.099	1.099	1.118	1.113	1.108
0.005	0.010	0.000	-0.005	0.005	0.010	0.420	1.733	1.094	1.094	1.094	1.113	1.113	1.113
-0.005	-0.005	0.000	-0.005	0.000	0.010	0.420	1.797	1.099	1.089	1.094	1.113	1.108	1.113
-0.005	-0.005	0.000	0.000	0.005	-0.005	0.420	1.763	1.099	1.089	1.089	1.113	1.108	1.104
0.000	-0.005	-0.005	-0.005	0.000	0.005	0.420	1.763	1.099	1.089	1.089	1.108	1.104	1.108
0.010	0.005	-0.005	-0.005	0.000	-0.015	0.420	1.792	1.094	1.094	1.089	1.108	1.104	1.104
0.005	-0.005	-0.005	0.000	0.000	0.010	0.425	1.753	1.094	1.089	1.084	1.104	1.104	1.104
0.005	-0.005	0.000	-0.005	0.000	0.000	0.415	1.782	1.094	1.089	1.089	1.104	1.104	1.104
0.000	0.005	0.000	-0.005	0.000	-0.010	0.415	1.787	1.094	1.089	1.089	1.108	1.099	1.099
0.005	0.000	0.000	-0.005	0.000	-0.005	0.420	1.782	1.094	1.089	1.089	1.104	1.099	1.099
0.005	-0.005	0.000	0.000	-0.005	0.000	0.420	1.729	1.099	1.094	1.089	1.108	1.099	1.104
-0.005	0.000	0.000	0.000	0.000	-0.020	0.415	1.777	1.099	1.094	1.094	1.108	1.104	1.099
-0.005	0.000	0.000	0.000	0.000	0.010	0.425	1.792	1.104	1.094	1.094	1.108	1.108	1.108
0.000	0.005	-0.005	0.000	-0.005	0.000	0.420	1.777	1.104	1.099	1.099	1.113	1.104	1.104
0.000	0.005	-0.005	0.005	-0.005	0.005	0.420	1.792	1.104	1.104	1.099	1.113	1.108	1.108
-0.005	-0.010	0.000	0.000	-0.005	0.000	0.410	1.743	1.094	1.099	1.099	1.113	1.108	1.108
-0.005	-0.010	0.005	0.000	0.005	0.000	0.430	1.782	1.104	1.099	1.099	1.118	1.113	1.108
0.000	-0.010	0.000	0.000	0.000	0.000	0.415	1.807	1.104	1.099	1.094	1.113	1.108	1.108
-0.010	-0.005	-0.005	0.000	0.000	0.010	0.420	1.782	1.094	1.099	1.099	1.118	1.113	1.113
-0.005	-0.005	-0.005	-0.005	0.010	0.020	0.425	1.802	1.104	1.099	1.099	1.113	1.108	1.113
-0.005	-0.005	-0.005	-0.005	0.005	0.010	0.420	1.787	1.099	1.099	1.094	1.113	1.108	1.108
0.005	0.000	0.000	0.000	0.000	0.005	0.415	1.714	1.094	1.094	1.094	1.108	1.104	1.104
0.005	0.000	-0.005	-0.005	0.000	-0.005	0.425	1.802	1.094	1.094	1.094	1.113	1.104	1.104
0.005	-0.005	0.000	0.000	-0.005	-0.015	0.420	1.792	1.094	1.094	1.089	1.108	1.104	1.094
0.000	0.000	-0.005	-0.005	0.005	0.010	0.420	1.812	1.094	1.094	1.089	1.108	1.104	1.104
-0.005	0.005	0.000	-0.005	-0.005	0.000	0.420	1.782	1.099	1.099	1.089	1.108	1.104	1.104
0.010	0.010	0.000	0.000	0.000	-0.005	0.420	1.787	1.094	1.099	1.094	1.108	1.104	1.104
0.000	0.005	0.000	0.000	0.000	-0.005	0.420	1.777	1.094	1.094	1.094	1.113	1.104	1.104
-0.005	0.010	-0.005	0.000	0.000	-0.029	0.425	1.748	1.094	1.099	1.094	1.113	1.108	1.099
-0.005	0.005	0.000	0.000	0.000	0.010	0.425	1.782	1.099	1.094	1.099	1.113	1.108	1.113
0.010	0.005	0.000	0.005	-0.005	0.005	0.425	1.748	1.104	1.099	1.099	1.118	1.108	1.108
-0.005	-0.005	-0.005	0.000	-0.005	0.000	0.415	1.753	1.099	1.099	1.094	1.113	1.113	1.108
-0.005	-0.005	-0.005	0.000	-0.005	-0.005	0.420	1.787	1.104	1.094	1.094	1.118	1.108	1.104
0.000	0.005	-0.005	-0.005	0.000	0.005	0.425	1.792	1.108	1.104	1.099	1.113	1.113	1.113
0.005	-0.005	0.000	0.005	-0.005	-0.029	0.420	1.787	1.104	1.099	1.099	1.118	1.113	1.104
0.005	-0.005	-0.005	0.000	-0.005	0.000	0.425	1.743	1.099	1.099	1.099	1.113	1.113	1.113
-0.005	-0.005	0.000	0.000	-0.005	0.005	0.415	1.792	1.099	1.094	1.094	1.113	1.108	1.113
0.000	0.010	-0.005	-0.005	0.005	-0.010	0.420	1.748	1.094	1.099	1.094	1.108	1.108	1.108
-0.005	0.000	0.000	-0.005	0.000	-0.005	0.415	1.743	1.094	1.094	1.094	1.108	1.108	1.108
0.000	0.010	0.005	0.000	0.000	-0.005	0.425	1.729	1.089	1.094	1.094	1.108	1.104	1.104
-0.005	-0.010	0.005	0.000	0.005	0.005	0.420	1.787	1.089	1.084	1.089	1.108	1.104	1.104
-0.005	-0.010	0.000	-0.005	0.000	0.005	0.420	1.797	1.094	1.089	1.089	1.108	1.104	1.108
0.000	0.000	-0.005	0.000	0.005	-0.020	0.420	1.768	1.094	1.094	1.089	1.108	1.104	1.099
0.000	0.005	0.000	0.000	0.000	-0.010	0.420	1.792	1.099	1.094	1.094	1.108	1.104	1.104
0.005	-0.005	0.000	0.000	-0.005	0.015	0.420	1.758	1.094	1.094	1.094	1.108	1.104	1.108
-0.005	0.000	0.000	-0.005	0.000	-0.010	0.420	1.787	1.099	1.094	1.094	1.108	1.108	1.104
-0.005	-0.005	0.000	0.000	-0.005	0.015	0.415	1.782	1.099	1.099	1.094	1.108	1.108	1.108
0.000	-0.005	-0.005	-0.005	-0.005	0.005	0.425	1.714	1.099	1.099	1.094	1.108	1.108	1.108
-0.005	-0.005	0.000	0.000	0.000	0.010	0.420	1.802	1.099	1.099	1.099	1.118	1.113	1.108
-0.005	-0.005	-0.005	-0.005	0.000	-0.015	0.425	1.763	1.099	1.099	1.094	1.113	1.108	1.104
-0.005	0.000	0.000	-0.005	0.000	-0.005	0.415	1.792	1.099	1.094	1.099	1.113	1.108	1.108
-0.005	0.000	0.000	0.000	0.005	0.000	0.420	1.777	1.104	1.099	1.099	1.118	1.113	1.108
0.005	-0.010	0.000	-0.005	0.005	0.005	0.415	1.748	1.094	1.094	1.099	1.113	1.113	1.108
0.010	-0.005	0.000	0.000	-0.005	-0.010	0.415	1.748	1.094	1.094	1.094	1.113	1.108	1.104
0.005	0.000	-0.005	-0.005	-0.005	0.000	0.420	1.768	1.089	1.094	1.094	1.108	1.104	1.108
0.000	0.010	-0.005	0.000	0.000	0.005	0.415	1.777	1.089	1.094	1.089	1.108	1.108	1.108
-0.005	-0.010	0.000	-0.005	0.000	-0.015	0.425	1.758	1.089	1.089	1.089	1.108	1.104	1.099
0.000	0.000	0.000	0.000	0.000	0.000	0.425	1.787	1.089	1.089	1.089	1.108	1.104	1.104
-0.015	0.000	0.000	-0.005	0.000	-0.005	0.430	1.797	1.094	1.089	1.089	1.108	1.104	1.104
0.005	0.005	0.000	0.000	0.005	0.000	0.425	1.787	1.104	1.094	1.094	1.108	1.104	1.104
0.000	0.000	0.000	0.005	-0.005	0.005	0.425	1.729	1.099	1.099	1.094	1.108	1.104	1.104
0.000	0.010	0.000	0.000	0.000	-0.024	0.420	1.787	1.099	1.094	1.094	1.108	1.104	1.104
0.005	0.010	0.005	0.000	0.000	0.000	0.420	1.758	1.099	1.099	1.099	1.113	1.108	1.108
0.000	0.010	0.000	0.000	0.000	0.010	0.415	1.787	1.099	1.099	1.094	1.113	1.108	1.113
0.005	0.000	-0.005	0.000	0.000	0.005	0.425	1.797	1.104	1.099	1.094	1.113	1.108	1.104
0.000	0.015	-0.005	0.000	0.000	-0.005	0.415	1.792	1.104	1.104	1.099	1.118	1.113	1.113
0.005	0.000	-0.005	0.000	0.000	0.005	0.430	1.753	1.104	1.099	1.099	1.113	1.108	1.108
0.000	-0.005	-0.005	0.000	-0.005	0.010	0.425	1.768	1.099	1.099	1.099	1.113	1.108	1.113
-0.005	0.000	0.000	0.000	0.000	0.000	0.425	1.797	1.099	1.094	1.099	1.118	1.108	1.108
-0.010	0.000	-0.005	0.000	0.005	0.005	0.415	1.772	1.099	1.099	1.094	1.113	1.113	1.108
-0.005	-0.005	0.000	0.000	0.000	-0.029	0.425	1.782	1.099	1.094	1.094	1.113	1.108	1.099
0.005	-0.010	0.000	0.005	0.000	0.005	0.425	1.763	1.094	1.094	1.089	1.113	1.108	1.108
0.000	-0.005	-0.005	0.000	0.000	0.010	0.420	1.797	1.099	1.094	1.094	1.113	1.104	1.108
-0.005	-0.005	0.000	0.005	0.000	0.005	0.420	1.812	1.099	1.094	1.089	1.108	1.108	1.104
-0.005	-0.015	0.000	0.005	-0.005	0.000	0.420	1.758	1.099	1.089	1.094	1.108	1.104	1.104
0.005	-0.015	0.000	0.000	-0.005	-0.005	0.420	1.787	1.099	1.094	1.094	1.108	1.104	1.104
0.005	-0.010	0.005	0.005	0.000	0.005	0.420	1.772	1.104	1.099	1.094	1.108	1.108	1.104
0.015	0.005	-0.010	0.000	-0.005	-0.005	0.415	1.787	1.104	1.104	1.094	1.108	1.108	1.104
-0.005	0.000	-0.005	0.000	0.000	-0.005	0.425	1.797	1.099	1.104	1.099	1.113	1.108	1.108
0.005	-0.005	0.000	0.000	0.000	0.000	0.425	1.787	1.108	1.104	1.099	1.113	1.108	1.108
-0.005	-0.010	-0.005	0.005	0.000	-0.005	0.420	1.826	1.099	1.099	1.099	1.118	1.108	1.108
0.000	0.000	0.000	0.000	0.000	-0.029	0.420	1.772	1.113	1.108	1.104	1.118	1.113	1.104
-0.010	0.024	0.000	0.000	0.000	0.005	0.415	1.787	1.104	1.108	1.108	1.118	1.113	1.113
-0.010	0.010	-0.005	-0.005	0.000	-0.010	0.420	1.787	1.104	1.104	1.108	1.123	1.118	1.113
0.000	0.015	0.000	0.005	0.000	-0.020	0.425	1.787	1.104	1.108	1.108	1.123	1.113	1.108
-0.005	-0.010	-0.005	-0.005	0.000	-0.005	0.425	1.768	1.104	1.099	1.104	1.118	1.113	1.113
-0.005	-0.010	-0.005	-0.005	0.000	0.005	0.415	1.763	1.099	1.099	1.099	1.118	1.113	1.113
0.005	0.000	-0.005	-0.005	0.000	0.005	0.425	1.733	1.099	1.099	1.099	1.118	1.113	1.113
-0.005	0.000	-0.005	0.000	0.000	-0.020	0.420	1.738	1.094	1.099	1.099	1.118	1.108	1.108
0.000	-0.005	0.000	0.000	0.000	0.010	0.430	1.797	1.089	1.089	1.099	1.113	1.108	1.113
-0.005	0.000	-0.005	0.000	-0.005	0.010	0.425	1.792	1.094	1.094	1.094	1.113	1.108	1.113
-0.010	0.005	0.000	-0.005	0.005	0.005	0.425	1.758	1.094	1.094	1.094	1.113	1.108	1.108
-0.010	-0.010	0.000	0.005	0.000	0.005	0.420	1.748	1.089	1.089	1.094	1.113	1.108	1.108
0.005	-0.010	0.005	0.000	0.000	-0.005	0.425	1.812	1.099	1.089	1.094	1.113	1.108	1.104
0.015	0.000	0.000	0.000	-0.005	-0.005	0.415	1.753	1.094	1.094	1.094	1.108	1.108	1.104
0.000	-0.015	0.000	0.000	-0.005	-0.015	0.430	1.743	1.094	1.094	1.094	1.113	1.108	1.104
0.000	0.010	0.005	0.000	-0.005	-0.015	0.420	1.787	1.094	1.099	1.094	1.113	1.108	1.104
0.000	0.005	0.000	0.005	0.000	-0.015	0.430	1.758	1.094	1.094	1.094	1.113	1.108	1.108
-0.005	-0.005	-0.005	-0.005	-0.005	0.010	0.420	1.743	1.094	1.094	1.094	1.113	1.108	1.113
0.005	-0.005	0.000	0.005	-0.005	0.000	0.420	1.758	1.099	1.094	1.094	1.118	1.108	1.113
-0.005	-0.005	0.000	0.000	-0.005	-0.015	0.420	1.768	1.099	1.094	1.099	1.118	1.113	1.108
0.000	0.000	0.000	0.000	0.005	0.015	0.420	1.802	1.123	1.104	1.099	1.113	1.108	1.113
0.000	-0.005	-0.005	0.000	0.000	0.005	0.420	1.743	1.113	1.099	1.099	1.113	1.108	1.108
-0.005	-0.005	0.005	0.000	0.000	0.010	0.425	1.812	1.108	1.104	1.099	1.118	1.108	1.108
-0.005	0.000	-0.005	0.000	0.005	-0.010	0.420	1.758	1.099	1.104	1.094	1.113	1.108	1.099
-0.005	-0.005	-0.005	0.000	0.000	0.005	0.420	1.699	1.094	1.099	1.094	1.113	1.108	1.108
-0.005	0.005	0.000	-0.005	0.005	0.005	0.425	1.787	1.089	1.094	1.094	1.108	1.104	1.108
0.000	0.005	-0.005	-0.005	0.000	-0.005	0.420	1.787	1.099	1.094	1.094	1.113	1.104	1.099
0.000	0.005	0.000	-0.005	0.000	-0.010	0.425	1.743	1.094	1.094	1.094	1.108	1.108	1.104
-0.005	-0.010	0.000	0.000	0.000	-0.005	0.420	1.753	1.089	1.089	1.094	1.108	1.104	1.099
0.005	0.005	0.000	-0.005	0.000	0.015	0.420	1.758	1.094	1.099	1.094	1.113	1.108	1.108
0.000	0.015	0.000	-0.005	-0.005	0.005	0.415	1.777	1.094	1.099	1.094	1.113	1.108	1.104
0.000	0.010	0.000	0.000	0.005	-0.020	0.430	1.792	1.099	1.094	1.099	1.118	1.108	1.104
0.000	-0.005	0.005	0.005	-0.005	0.000	0.420	1.797	1.104	1.094	1.099	1.118	1.108	1.113
0.000	-0.005	-0.005	0.000	-0.005	0.020	0.420	1.792	1.108	1.099	1.094	1.118	1.113	1.118
0.005	0.000	0.000	0.000	-0.005	0.015	0.420	1.772	1.113	1.104	1.099	1.118	1.113	1.113
0.010	0.000	0.000	0.000	-0.005	-0.015	0.420	1.772	1.108	1.104	1.099	1.118	1.113	1.108
-0.005	0.005	-0.005	0.000	0.000	0.000	0.420	1.787	1.108	1.104	1.099	1.118	1.113	1.108
-0.005	-0.005	0.000	0.005	-0.005	0.010	0.420	1.680	1.094	1.099	1.099	1.118	1.113	1.113
0.000	-0.010	0.000	0.005	0.000	0.005	0.415	1.777	1.094	1.099	1.099	1.118	1.113	1.113
0.000	-0.005	-0.005	-0.005	-0.005	0.005	0.425	1.797	1.094	1.094	1.094	1.113	1.113	1.108
-0.005	-0.005	0.005	-0.005	0.005	-0.005	0.425	1.812	1.099	1.094	1.099	1.113	1.108	1.108
-0.005	-0.005	0.000	0.000	-0.005	0.000	0.415	1.758	1.094	1.094	1.094	1.113	1.108	1.108
-0.010	0.000	-0.005	0.005	-0.005	0.000	0.420	1.797	1.094	1.094	1.089	1.108	1.104	1.104
0.005	0.005	0.000	0.005	0.000	0.000	0.420	1.758	1.094	1.094	1.094	1.108	1.108	1.104
0.000	0.000	0.000	0.005	-0.005	-0.005	0.420	1.738	1.094	1.094	1.094	1.108	1.108	1.104
-0.005	-0.005	0.000	0.000	-0.005	0.000	0.420	1.777	1.094	1.089	1.094	1.108	1.108	1.104
0.000	0.000	0.000	0.000	-0.005	0.000	0.425	1.748	1.094	1.094	1.094	1.108	1.108	1.108
0.000	0.000	0.005	-0.005	0.010	-0.015	0.420	1.792	1.099	1.099	1.099	1.108	1.108	1.104
0.000	0.000	0.005	-0.005	-0.005	0.005	0.420	1.807	1.104	1.099	1.099	1.113	1.108	1.108
0.000	0.005	-0.005	-0.005	0.000	0.000	0.420	1.768	1.104	1.099	1.099	1.113	1.108	1.108
0.000	0.000	0.005	0.000	0.000	0.000	0.420	1.816	1.108	1.099	1.099	1.118	1.113	1.108
-0.010	0.005	0.000	-0.005	0.000	0.000	0.420	1.768	1.104	1.099	1.099	1.118	1.108	1.108
0.005	-0.010	0.005	-0.005	-0.005	0.005	0.430	1.797	1.104	1.104	1.099	1.118	1.113	1.113
0.000	-0.015	-0.005	-0.005	0.000	0.000	0.415	1.777	1.104	1.099	1.099	1.113	1.113	1.108
-0.005	-0.005	-0.005	-0.005	0.005	-0.005	0.425	1.787	1.104	1.099	1.099	1.113	1.108	1.108
0.000	-0.005	-0.005	-0.005	0.000	0.000	0.420	1.738	1.094	1.099	1.094	1.113	1.108	1.108
-0.005	-0.005	-0.005	-0.005	0.000	-0.005	0.430	1.782	1.099	1.094	1.094	1.113	1.108	1.104
0.005	0.000	0.005	0.000	0.000	0.005	0.420	1.753	1.094	1.094	1.094	1.113	1.108	1.108
0.000	-0.005	-0.005	0.000	0.000	-0.005	0.425	1.763	1.089	1.089	1.094	1.113	1.108	1.108
0.005	0.000	-0.005	0.005	0.000	0.000	0.420	1.748	1.089	1.094	1.094	1.113	1.108	1.104
0.005	0.005	0.000	0.000	-0.005	-0.005	0.425	1.812	1.099	1.094	1.089	1.113	1.104	1.099
0.005	0.005	-0.005	0.010	0.000	0.000	0.415	1.738	1.089	1.094	1.089	1.113	1.108	1.108
0.000	0.000	0.000	0.000	-0.005	0.000	0.420	1.787	1.094	1.094	1.094	1.108	1.108	1.108
-0.005	0.000	-0.005	0.000	-0.005	-0.024	0.415	1.787	1.099	1.094	1.094	1.113	1.108	1.104
-0.005	0.000	0.000	0.000	0.000	-0.015	0.420	1.772	1.099	1.094	1.094	1.113	1.108	1.104
0.005	0.000	0.000	0.000	-0.005	0.005	0.420	1.768	1.104	1.094	1.099	1.113	1.108	1.113
-0.005	0.005	-0.005	0.000	0.000	0.000	0.425	1.763	1.104	1.099	1.094	1.113	1.113	1.113
0.000	-0.005	0.000	0.005	0.000	0.000	0.425	1.748	1.104	1.099	1.099	1.118	1.113	1.108
-0.005	0.000	-0.005	0.010	0.000	-0.005	0.420	1.738	1.094	1.099	1.099	1.118	1.108	1.108
0.000	-0.005	0.000	-0.005	0.005	-0.020	0.420	1.787	1.099	1.094	1.099	1.113	1.108	1.104
-0.005	0.005	0.000	0.000	-0.005	0.010	0.420	1.768	1.094	1.094	1.094	1.118	1.113	1.113
-0.010	0.000	0.000	0.000	-0.005	0.015	0.420	1.772	1.094	1.094	1.094	1.113	1.108	1.113
-0.010	0.010	-0.005	-0.005	0.005	0.010	0.415	1.792	1.099	1.099	1.094	1.113	1.108	1.108
-0.010	0.000	-0.005	0.000	0.000	-0.005	0.425	1.753	1.094	1.094	1.089	1.108	1.108	1.104
-0.005	0.000	-0.005	0.000	0.005	-0.005	0.420	1.787	1.094	1.094	1.094	1.108	1.108	1.108
0.015	-0.005	-0.005	-0.005	0.000	0.005	0.425	1.792	1.099	1.094	1.089	1.108	1.104	1.104
0.000	0.000	-0.005	-0.005	0.000	0.000	0.415	1.729	1.094	1.094	1.089	1.108	1.099	1.104
-0.005	-0.010	-0.005	0.000	-0.005	0.000	0.425	1.772	1.099	1.089	1.089	1.108	1.104	1.104
0.000	0.000	-0.005	0.000	-0.005	-0.015	0.415	1.792	1.099	1.094	1.094	1.108	1.104	1.099
0.010	0.005	0.005	0.000	0.000	0.000	0.425	1.797	1.104	1.099	1.094	1.108	1.104	1.104
0.000	0.005	0.005	-0.005	0.000	0.000	0.415	1.753	1.099	1.104	1.094	1.108	1.108	1.104
0.000	-0.005	0.000	-0.005	0.000	0.000	0.425	1.772	1.094	1.099	1.094	1.113	1.108	1.108
0.010	0.000	0.000	-0.005	0.000	-0.024	0.420	1.758	1.099	1.099	1.099	1.113	1.108	1.104
-0.005	0.000	0.000	-0.005	0.000	-0.005	0.425	1.782	1.099	1.099	1.099	1.113	1.108	1.108
0.005	0.010	-0.005	0.000	0.000	0.000	0.420	1.777	1.104	1.104	1.099	1.118	1.113	1.113
0.005	0.000	0.000	-0.005	-0.005	-0.010	0.425	1.714	1.094	1.094	1.099	1.113	1.108	1.108
0.000	-0.005	-0.005	-0.005	0.000	-0.010	0.415	1.777	1.094	1.094	1.094	1.118	1.113	1.113
0.000	0.005	0.000	0.000	0.005	0.000	0.425	1.763	1.094	1.094	1.099	1.113	1.113	1.113
-0.010	-0.005	-0.005	-0.005	0.000	0.000	0.420	1.772	1.084	1.089	1.094	1.113	1.113	1.108
-0.010	-0.010	0.000	0.000	0.000	-0.015	0.425	1.772	1.094	1.089	1.089	1.108	1.108	1.104
-0.005	0.000	-0.005	-0.005	0.005	0.005	0.420	1.875	1.089	1.084	1.089	1.108	1.108	1.108
-0.005	0.000	0.000	0.000	0.005	0.010	0.425	1.729	1.079	1.084	1.089	1.108	1.104	1.108
0.000	0.000	-0.005	0.000	-0.005	0.005	0.420	1.709	1.089	1.079	1.084	1.104	1.104	1.104
0.005	-0.005	0.005	0.000	0.000	0.005	0.420	1.753	1.094	1.084	1.084	1.104	1.104	1.104
0.005	0.000	0.000	-0.005	-0.010	0.010	0.420	1.763	1.094	1.089	1.084	1.104	1.099	1.104
0.000	0.000	0.000	0.005	-0.005	0.010	0.420	1.792	1.099	1.089	1.084	1.104	1.099	1.104
0.000	-0.010	-0.005	0.000	-0.005	0.000	0.425	1.797	1.099	1.089	1.089	1.104	1.099	1.099
0.000	0.000	-0.005	0.000	0.000	0.000	0.420	1.763	1.099	1.094	1.089	1.108	1.104	1.099
0.005	-0.005	-0.005	-0.005	-0.005	-0.024	0.430	1.709	1.094	1.094	1.089	1.108	1.104	1.094
0.000	0.000	0.005	0.000	-0.005	0.010	0.415	1.748	1.089	1.094	1.094	1.108	1.104	1.104
-0.005	-0.005	0.000	-0.005	0.000	-0.005	0.425	1.807	1.099	1.094	1.094	1.113	1.104	1.099
-0.005	-0.010	0.000	0.000	-0.005	-0.020	0.420	1.763	1.099	1.094	1.099	1.113	1.108	1.104
0.000	0.005	-0.005	0.005	0.000	0.005	0.425	1.719	1.094	1.099	1.094	1.113	1.108	1.108
-0.005	-0.010	0.000	-0.005	0.000	0.005	0.415	1.772	1.094	1.089	1.094	1.108	1.104	1.104
-0.005	0.000	0.000	-0.005	-0.005	0.005	0.425	1.772	1.094	1.094	1.094	1.108	1.108	1.108
0.000	0.015	-0.005	-0.005	0.000	-0.015	0.420	1.787	1.099	1.099	1.094	1.113	1.104	1.099
0.000	-0.005	-0.005	-0.005	0.000	0.005	0.425	1.792	1.099	1.094	1.089	1.108	1.104	1.104
-0.010	-0.005	0.000	0.000	0.005	0.005	0.420	1.719	1.094	1.089	1.089	1.108	1.104	1.104
-0.005	-0.005	0.000	0.000	0.000	0.010	0.425	1.772	1.094	1.089	1.089	1.108	1.099	1.099
0.000	-0.005	-0.010	0.000	-0.005	-0.005	0.420	1.768	1.089	1.089	1.089	1.108	1.099	1.099
0.000	0.000	0.000	-0.005	-0.005	0.005	0.425	1.797	1.094	1.094	1.089	1.104	1.104	1.099
0.000	0.000	0.000	0.000	-0.005	0.005	0.420	1.729	1.084	1.089	1.089	1.104	1.104	1.099
-0.005	0.000	0.000	0.000	0.000	0.000	0.420	1.768	1.089	1.089	1.089	1.104	1.104	1.099
-0.005	0.000	-0.005	-0.005	0.005	0.000	0.420	1.807	1.099	1.094	1.094	1.108	1.104	1.099
0.005	0.005	0.000	0.000	0.000	-0.029	0.430	1.802	1.099	1.094	1.094	1.108	1.104	1.094
-0.005	0.000	0.000	0.000	-0.005	-0.010	0.420	1.738	1.099	1.094	1.094	1.108	1.104	1.099
-0.005	0.010	0.000	0.000	-0.005	-0.015	0.420	1.797	1.104	1.104	1.099	1.113	1.108	1.099
-0.005	-0.010	-0.005	0.000	-0.005	0.000	0.425	1.777	1.094	1.094	1.099	1.113	1.108	1.108
-0.005	-0.010	0.000	0.000	0.000	0.005	0.420	1.782	1.099	1.094	1.094	1.113	1.108	1.108
-0.005	-0.005	0.005	0.000	0.000	0.005	0.425	1.753	1.099	1.099	1.099	1.113	1.108	1.108
0.000	-0.020	0.000	0.000	0.000	0.000	0.415	1.753	1.099	1.094	1.094	1.113	1.108	1.108
-0.005	-0.010	-0.005	0.005	0.000	-0.010	0.425	1.797	1.099	1.094	1.094	1.113	1.108	1.104
-0.015	-0.010	-0.005	0.000	0.000	-0.005	0.420	1.787	1.094	1.094	1.094	1.113	1.104	1.099
-0.005	0.015	0.000	0.000	0.005	-0.020	0.425	1.787	1.094	1.099	1.094	1.108	1.104	1.104
-0.005	0.015	0.000	0.000	0.000	-0.005	0.420	1.758	1.094	1.099	1.089	1.108	1.104	1.099
-0.005	0.005	-0.005	0.000	0.000	0.005	0.425	1.748	1.089	1.089	1.089	1.108	1.104	1.108
0.010	0.005	0.000	0.000	0.000	-0.010	0.415	1.782	1.094	1.089	1.089	1.108	1.104	1.099
0.010	0.005	0.000	0.000	0.000	0.010	0.425	1.768	1.094	1.089	1.089	1.108	1.104	1.108
0.000	-0.015	0.000	0.000	0.000	0.005	0.415	1.787	1.094	1.084	1.089	1.108	1.104	1.108
0.000	-0.010	-0.005	0.000	-0.005	0.005	0.425	1.797	1.099	1.094	1.089	1.108	1.104	1.108
0.000	0.000	-0.005	-0.005	0.000	0.010	0.420	1.841	1.099	1.094	1.089	1.104	1.104	1.104
0.000	-0.010	0.000	-0.010	-0.005	0.010	0.425	1.753	1.099	1.094	1.094	1.108	1.104	1.104
0.000	0.010	0.005	-0.005	0.005	-0.020	0.420	1.714	1.099	1.099	1.099	1.108	1.104	1.099
0.000	0.015	-0.005	-0.005	0.000	0.000	0.425	1.733	1.094	1.099	1.099	1.113	1.108	1.104
-0.005	0.010	0.000	0.000	0.000	0.005	0.425	1.787	1.099	1.099	1.099	1.118	1.108	1.113
0.000	0.010	-0.005	-0.005	-0.005	0.015	0.425	1.758	1.099	1.099	1.099	1.118	1.108	1.113
0.005	0.010	0.000	-0.005	0.000	0.005	0.415	1.768	1.099	1.094	1.094	1.113	1.108	1.108
0.000	0.000	-0.005	0.000	-0.005	-0.020	0.425	1.733	1.094	1.094	1.099	1.113	1.108	1.099
-0.005	0.000	0.005	0.000	0.005	0.005	0.415	1.763	1.089	1.089	1.094	1.108	1.108	1.108
-0.010	-0.005	0.000	0.000	0.000	-0.005	0.420	1.768	1.089	1.089	1.089	1.113	1.104	1.104
0.000	-0.005	0.000	0.000	-0.005	0.000	0.420	1.777	1.089	1.089	1.089	1.108	1.104	1.104
0.005	0.000	-0.005	0.000	0.000	0.010	0.420	1.768	1.094	1.089	1.084	1.104	1.104	1.104
0.000	0.000	0.000	0.000	0.000	0.000	0.420	1.743	1.089	1.089	1.084	1.104	1.104	1.104
-0.005	0.005	0.000	0.000	-0.005	0.010	0.415	1.738	1.089	1.089	1.084	1.104	1.099	1.099
0.000	-0.005	0.000	0.000	-0.005	0.010	0.415	1.792	1.099	1.089	1.084	1.104	1.104	1.104
0.005	-0.005	0.005	0.000	-0.005	-0.005	0.420	1.724	1.094	1.094	1.089	1.104	1.104	1.099
0.000	-0.005	0.005	0.000	-0.005	0.005	0.425	1.748	1.094	1.094	1.094	1.104	1.104	1.104
-0.005	-0.010	0.000	0.000	-0.005	0.005	0.415	1.758	1.094	1.094	1.089	1.104	1.104	1.104
0.005	-0.005	0.000	0.000	0.000	0.000	0.425	1.797	1.104	1.099	1.094	1.108	1.099	1.104
0.005	-0.005	0.000	0.000	0.000	0.000	0.415	1.802	1.104	1.099	1.094	1.108	1.104	1.104
0.000	-0.005	-0.010	-0.005	0.005	0.005	0.425	1.787	1.108	1.104	1.094	1.108	1.108	1.108
0.005	0.005	0.000	-0.005	0.000	-0.010	0.415	1.782	1.104	1.104	1.099	1.113	1.104	1.104
-0.010	-0.005	-0.005	0.000	0.000	0.000	0.425	1.758	1.099	1.099	1.099	1.113	1.108	1.104
-0.005	0.000	-0.005	0.000	0.000	0.000	0.420	1.797	1.099	1.099	1.099	1.113	1.108	1.108
-0.010	-0.010	-0.005	0.000	0.000	-0.005	0.420	1.758	1.094	1.094	1.094	1.113	1.108	1.104
0.005	-0.010	0.005	-0.005	0.005	-0.015	0.420	1.787	1.099	1.094	1.094	1.113	1.104	1.099
-0.015	-0.005	0.000	-0.005	0.000	0.000	0.430	1.748	1.089	1.094	1.094	1.113	1.104	1.104
-0.005	-0.005	0.000	0.000	0.000	-0.005	0.420	1.797	1.094	1.094	1.094	1.108	1.104	1.099
0.005	0.000	0.000	0.000	0.000	-0.010	0.420	1.748	1.094	1.094	1.089	1.108	1.104	1.099
0.010	0.000	-0.005	0.000	0.000	0.000	0.420	1.748	1.094	1.089	1.089	1.108	1.104	1.104
0.000	0.005	0.005	0.000	0.000	0.000	0.425	1.797	1.094	1.094	1.094	1.108	1.104	1.099
0.000	-0.015	-0.005	0.000	-0.005	0.005	0.420	1.792	1.094	1.089	1.089	1.104	1.104	1.104
0.000	0.000	0.000	0.000	0.005	0.000	0.420	1.743	1.094	1.094	1.094	1.108	1.104	1.104
0.005	-0.015	-0.005	0.000	0.000	-0.010	0.420	1.772	1.099	1.089	1.094	1.108	1.104	1.104
0.005	-0.005	0.000	0.005	0.005	0.000	0.420	1.733	1.099	1.094	1.094	1.108	1.108	1.104
0.000	0.000	0.005	0.000	-0.005	0.000	0.420	1.802	1.099	1.099	1.094	1.108	1.104	1.104
0.000	0.000	0.000	0.000	0.000	0.005	0.425	1.787	1.104	1.099	1.099	1.113	1.108	1.108
0.000	0.000	0.000	0.000	0.000	-0.015	0.415	1.768	1.104	1.099	1.094	1.113	1.108	1.104
-0.005	-0.005	0.005	0.000	-0.005	-0.005	0.415	1.797	1.104	1.099	1.099	1.113	1.108	1.108
-0.005	-0.005	0.000	0.000	0.005	-0.015	0.415	1.758	1.099	1.094	1.094	1.113	1.108	1.104
0.000	-0.005	-0.005	0.000	-0.005	-0.029	0.420	1.792	1.099	1.094	1.094	1.113	1.104	1.104
0.000	-0.005	0.000	-0.005	-0.005	0.005	0.425	1.787	1.099	1.094	1.094	1.113	1.108	1.113
0.000	-0.005	-0.005	-0.005	0.000	-0.020	0.420	1.787	1.094	1.094	1.094	1.113	1.104	1.104
0.005	0.000	-0.005	-0.005	0.005	0.015	0.425	1.787	1.104	1.094	1.094	1.108	1.104	1.108
-0.005	0.000	0.000	-0.005	0.000	0.010	0.415	1.748	1.099	1.094	1.094	1.108	1.104	1.108
0.000	0.000	0.000	0.000	-0.005	-0.005	0.425	1.797	1.099	1.094	1.094	1.108	1.104	1.104
0.015	-0.005	0.005	0.000	-0.005	0.015	0.420	1.758	1.099	1.099	1.094	1.108	1.104	1.108
0.005	0.005	0.000	0.000	-0.005	0.000	0.415	1.738	1.094	1.094	1.089	1.108	1.104	1.099
-0.005	0.000	0.000	-0.005	0.000	-0.015	0.420	1.763	1.089	1.094	1.094	1.113	1.104	1.104
0.005	-0.010	0.005	0.000	0.000	0.015	0.425	1.777	1.094	1.094	1.094	1.108	1.104	1.104
-0.005	-0.005	-0.005	0.000	-0.005	0.000	0.420	1.748	1.089	1.094	1.089	1.113	1.108	1.104
-0.005	0.000	-0.005	0.000	-0.005	-0.024	0.425	1.807	1.094	1.094	1.094	1.113	1.108	1.099
0.000	-0.005	0.000	0.000	0.000	0.010	0.420	1.743	1.099	1.094	1.094	1.113	1.108	1.108
-0.005	0.020	-0.005	0.000	0.000	0.010	0.420	1.738	1.099	1.099	1.094	1.113	1.113	1.108
0.000	0.010	0.000	-0.005	-0.005	0.005	0.420	1.777	1.094	1.099	1.099	1.113	1.113	1.108
0.000	0.005	-0.005	0.000	0.000	-0.010	0.420	1.763	1.089	1.094	1.099	1.113	1.108	1.108
0.000	-0.005	0.000	0.000	0.000	0.000	0.420	1.753	1.094	1.089	1.094	1.113	1.113	1.108
0.000	0.005	0.000	0.000	0.000	-0.005	0.420	1.753	1.094	1.094	1.094	1.108	1.113	1.108
0.000	0.000	0.000	0.000	0.000	0.005	0.415	1.782	1.089	1.089	1.089	1.113	1.108	1.108
-0.005	-0.005	0.000	0.000	0.000	0.005	0.420	1.792	1.094	1.089	1.089	1.108	1.108	1.108
-0.010	-0.005	0.000	-0.005	0.000	0.010	0.425	1.802	1.094	1.089	1.084	1.108	1.104	1.104
-0.010	0.005	-0.005	0.000	0.005	0.005	0.425	1.787	1.099	1.089	1.089	1.104	1.104	1.104
-0.005	0.005	0.000	0.005	0.000	-0.005	0.425	1.738	1.094	1.089	1.084	1.104	1.099	1.099
0.010	-0.005	0.000	0.005	-0.005	-0.005	0.420	1.792	1.099	1.094	1.084	1.104	1.099	1.099
-0.005	0.005	-0.005	0.005	0.000	-0.005	0.420	1.733	1.089	1.089	1.089	1.104	1.099	1.099
-0.005	-0.005	-0.005	-0.005	-0.005	0.000	0.415	1.792	1.094	1.089	1.089	1.104	1.099	1.099
0.000	-0.005	0.005	0.000	-0.005	-0.010	0.420	1.821	1.104	1.094	1.089	1.104	1.104	1.099
0.000	-0.010	-0.005	0.000	0.000	-0.020	0.415	1.763	1.094	1.094	1.094	1.108	1.104	1.099
0.000	-0.010	0.000	-0.005	0.005	0.005	0.430	1.792	1.099	1.094	1.094	1.108	1.104	1.108
-0.005	0.000	0.005	0.000	-0.005	0.005	0.420	1.763	1.104	1.099	1.094	1.113	1.104	1.104
-0.010	-0.005	0.000	-0.005	-0.005	-0.020	0.430	1.772	1.099	1.099	1.099	1.113	1.104	1.099
0.000	0.000	0.000	-0.005	0.005	0.005	0.420	1.758	1.104	1.099	1.099	1.113	1.108	1.108
0.000	-0.010	-0.005	-0.005	0.000	0.005	0.425	1.797	1.099	1.094	1.099	1.113	1.108	1.108
0.000	0.000	0.000	0.000	0.000	0.005	0.420	1.748	1.094	1.099	1.099	1.118	1.108	1.108
0.000	-0.005	0.000	-0.005	0.000	-0.005	0.420	1.782	1.099	1.099	1.099	1.113	1.108	1.104
-0.005	-0.010	0.000	0.000	0.000	-0.020	0.415	1.768	1.094	1.094	1.094	1.113	1.104	1.104
-0.005	-0.005	0.005	-0.005	0.000	0.000	0.425	1.816	1.099	1.094	1.094	1.113	1.108	1.104
0.000	-0.005	0.000	-0.005	0.000	-0.005	0.420	1.797	1.094	1.094	1.094	1.108	1.104	1.104
0.000	0.000	-0.005	0.000	0.000	0.000	0.420	1.743	1.094	1.089	1.089	1.108	1.104	1.104
-0.005	0.000	-0.005	-0.005	0.000	0.000	0.420	1.772	1.094	1.089	1.089	1.104	1.104	1.104
-0.015	0.005	-0.005	0.000	0.000	-0.005	0.420	1.758	1.084	1.094	1.089	1.108	1.104	1.104
0.010	0.005	0.000	0.000	0.000	-0.015	0.420	1.787	1.094	1.089	1.089	1.108	1.104	1.099
-0.005	0.020	-0.005	-0.005	-0.005	0.000	0.415	1.797	1.099	1.094	1.089	1.108	1.104	1.104
-0.005	0.015	0.000	-0.005	0.000	0.000	0.425	1.772	1.099	1.094	1.094	1.108	1.104	1.104
-0.005	0.010	0.000	0.000	0.000	0.000	0.420	1.802	1.104	1.099	1.094	1.113	1.108	1.108
0.005	0.000	0.000	0.000	-0.005	-0.010	0.420	1.768	1.104	1.099	1.094	1.113	1.108	1.104
0.000	-0.010	0.000	0.000	-0.005	-0.010	0.420	1.729	1.094	1.094	1.099	1.113	1.108	1.104
0.000	0.005	-0.005	0.005	0.000	0.000	0.420	1.787	1.099	1.099	1.099	1.113	1.108	1.108
-0.005	0.015	-0.005	0.005	0.000	-0.005	0.420	1.758	1.094	1.104	1.099	1.113	1.108	1.108
-0.005	0.000	0.000	-0.005	0.000	0.000	0.425	1.797	1.104	1.099	1.099	1.113	1.113	1.108
-0.005	0.005	-0.005	0.000	0.000	-0.010	0.415	1.777	1.099	1.099	1.094	1.113	1.108	1.108
0.000	0.000	0.000	-0.005	-0.005	0.010	0.425	1.777	1.104	1.099	1.094	1.113	1.108	1.108
-0.005	-0.005	0.000	0.000	0.000	-0.010	0.415	1.743	1.094	1.094	1.094	1.108	1.108	1.108
-0.005	0.000	0.000	-0.005	0.000	-0.010	0.425	1.729	1.094	1.094	1.094	1.108	1.108	1.104
0.000	-0.005	-0.005	-0.005	0.000	0.000	0.420	1.753	1.089	1.089	1.089	1.108	1.104	1.104
-0.005	-0.010	0.000	-0.005	0.000	0.010	0.420	1.733	1.079	1.084	1.089	1.108	1.104	1.104
0.000	-0.010	0.000	0.000	0.000	0.000	0.420	1.782	1.089	1.084	1.089	1.108	1.104	1.104
-0.010	-0.010	0.000	0.000	-0.005	-0.005	0.425	1.763	1.084	1.084	1.084	1.104	1.104	1.099
0.005	-0.005	0.005	-0.005	0.000	-0.005	0.415	1.797	1.094	1.089	1.089	1.108	1.104	1.099
0.005	-0.010	0.005	-0.005	0.005	0.000	0.425	1.729	1.089	1.089	1.089	1.104	1.104	1.104
0.005	0.005	0.000	-0.005	0.000	0.000	0.425	1.772	1.094	1.094	1.089	1.104	1.104	1.099
0.000	-0.010	-0.005	0.000	-0.005	0.000	0.420	1.699	1.089	1.089	1.089	1.108	1.104	1.104
-0.005	0.000	0.000	-0.005	0.000	-0.010	0.425	1.772	1.089	1.094	1.094	1.108	1.104	1.104
-0.005	0.000	-0.005	-0.005	0.005	-0.005	0.420	1.782	1.094	1.089	1.089	1.108	1.104	1.104
-0.010	0.000	0.000	0.000	0.000	-0.005	0.425	1.748	1.099	1.094	1.094	1.113	1.104	1.104
-0.005	0.000	0.000	0.005	-0.005	0.005	0.415	1.743	1.094	1.094	1.094	1.113	1.108	1.108
-0.010	-0.005	-0.005	0.005	-0.005	-0.020	0.420	1.787	1.094	1.094	1.094	1.108	1.104	1.099
0.000	0.000	-0.005	0.000	0.000	0.005	0.420	1.777	1.094	1.094	1.094	1.108	1.104	1.108
-0.005	-0.005	-0.005	0.000	0.000	0.005	0.420	1.812	1.099	1.089	1.094	1.108	1.104	1.104
-0.005	0.005	0.000	0.000	0.000	-0.005	0.425	1.792	1.099	1.094	1.089	1.108	1.104	1.099
-0.010	0.000	0.000	0.000	0.000	-0.005	0.425	1.787	1.099	1.094	1.089	1.108	1.104	1.104
-0.005	-0.005	0.000	0.005	-0.005	0.000	0.420	1.782	1.099	1.094	1.089	1.108	1.099	1.099
-0.005	0.005	0.000	0.005	0.000	0.000	0.420	1.787	1.094	1.094	1.094	1.108	1.104	1.099
0.000	0.000	0.000	0.005	0.000	-0.015	0.420	1.797	1.099	1.094	1.089	1.104	1.099	1.094
0.000	-0.010	0.000	0.000	-0.005	0.005	0.420	1.777	1.099	1.094	1.094	1.108	1.099	1.104
-0.005	-0.010	0.000	0.000	-0.005	0.000	0.415	1.743	1.094	1.094	1.094	1.108	1.099	1.104
0.000	-0.005	0.000	0.000	-0.005	0.005	0.420	1.782	1.094	1.094	1.094	1.108	1.104	1.099
0.000	0.005	0.000	-0.005	-0.005	-0.029	0.420	1.797	1.104	1.099	1.094	1.108	1.104	1.094
-0.005	-0.005	0.000	-0.005	-0.005	0.010	0.420	1.802	1.104	1.099	1.094	1.108	1.108	1.108
-0.005	0.000	0.000	0.000	0.000	-0.029	0.420	1.782	1.108	1.104	1.099	1.113	1.108	1.099
-0.005	0.000	0.000	0.000	0.000	0.015	0.425	1.768	1.099	1.104	1.099	1.113	1.108	1.113
0.000	0.000	-0.010	0.000	-0.005	0.010	0.420	1.797	1.108	1.099	1.099	1.113	1.108	1.113
0.000	0.000	-0.005	0.000	0.000	0.005	0.425	1.748	1.104	1.104	1.104	1.118	1.113	1.108
-0.005	-0.005	-0.005	0.000	-0.010	0.005	0.420	1.777	1.104	1.099	1.104	1.118	1.113	1.108
-0.005	0.000	-0.005	0.000	-0.005	0.005	0.420	1.787	1.099	1.099	1.099	1.113	1.108	1.108
-0.005	-0.015	0.000	0.000	0.000	0.000	0.420	1.704	1.094	1.094	1.094	1.113	1.113	1.104
0.000	-0.005	0.000	-0.005	0.000	-0.020	0.420	1.772	1.094	1.094	1.094	1.113	1.113	1.099
0.000	0.000	0.000	-0.005	0.000	0.005	0.420	1.797	1.094	1.094	1.094	1.113	1.108	1.108
-0.010	0.005	0.005	-0.005	0.000	-0.005	0.425	1.792	1.099	1.094	1.094	1.108	1.104	1.108
-0.005	-0.005	0.000	-0.005	0.000	-0.005	0.420	1.821	1.099	1.094	1.094	1.113	1.104	1.099
0.000	0.000	0.000	-0.005	-0.005	0.000	0.420	1.758	1.099	1.094	1.089	1.108	1.104	1.104
-0.005	-0.005	-0.005	-0.005	0.000	-0.015	0.420	1.782	1.094	1.094	1.094	1.108	1.104	1.104
0.005	0.005	0.000	-0.005	0.000	0.005	0.420	1.777	1.099	1.094	1.094	1.113	1.104	1.108
-0.005	0.000	0.000	-0.005	0.005	-0.005	0.420	1.753	1.094	1.094	1.094	1.113	1.108	1.108
0.010	0.005	0.000	-0.010	0.000	-0.010	0.415	1.797	1.099	1.094	1.094	1.113	1.108	1.104
0.005	0.005	-0.005	-0.005	-0.005	-0.005	0.425	1.763	1.099	1.099	1.099	1.113	1.108	1.108
0.005	-0.010	-0.005	-0.005	0.000	-0.005	0.420	1.753	1.094	1.094	1.094	1.113	1.108	1.108
-0.010	0.005	0.000	0.000	0.000	-0.005	0.425	1.753	1.094	1.099	1.099	1.118	1.108	1.108
-0.005	-0.024	0.000	0.000	-0.005	0.000	0.415	1.724	1.094	1.089	1.094	1.118	1.108	1.108
0.005	0.000	0.000	0.000	-0.005	0.005	0.425	1.763	1.094	1.099	1.094	1.113	1.113	1.108
-0.010	0.010	-0.005	0.000	0.000	0.005	0.420	1.758	1.094	1.094	1.094	1.113	1.108	1.113
-0.005	0.010	-0.005	-0.005	-0.005	0.005	0.425	1.787	1.099	1.099	1.094	1.113	1.108	1.113
-0.015	0.010	0.000	-0.005	0.000	0.000	0.420	1.802	1.099	1.094	1.094	1.108	1.104	1.104
-0.005	-0.005	0.000	0.000	0.000	-0.029	0.425	1.768	1.089	1.089	1.089	1.108	1.108	1.099
0.005	-0.010	0.000	0.000	0.000	0.005	0.425	1.797	1.099	1.089	1.089	1.108	1.104	1.108
-0.005	0.000	-0.005	0.000	0.000	-0.010	0.420	1.807	1.099	1.089	1.089	1.108	1.104	1.099
0.000	0.015	-0.005	0.000	0.000	0.005	0.420	1.758	1.099	1.094	1.094	1.108	1.104	1.108
-0.005	-0.005	-0.005	0.000	0.000	0.000	0.425	1.802	1.104	1.089	1.094	1.108	1.104	1.104
0.005	-0.020	0.000	0.000	-0.005	0.005	0.420	1.729	1.099	1.094	1.089	1.108	1.104	1.104
0.005	-0.010	0.000	-0.005	-0.005	0.000	0.425	1.787	1.094	1.094	1.089	1.108	1.099	1.104
-0.005	-0.005	0.000	-0.005	-0.005	-0.010	0.420	1.772	1.094	1.094	1.094	1.108	1.104	1.099
0.000	-0.010	-0.005	0.000	-0.010	0.005	0.420	1.768	1.099	1.094	1.089	1.108	1.104	1.104
-0.010	-0.005	0.000	0.000	0.005	-0.010	0.420	1.787	1.094	1.094	1.094	1.113	1.108	1.104
-0.005	0.000	0.000	0.005	-0.005	0.010	0.425	1.772	1.104	1.099	1.099	1.113	1.108	1.108
0.000	-0.005	0.000	0.000	-0.005	-0.015	0.420	1.797	1.104	1.099	1.099	1.113	1.108	1.108
0.005	-0.005	0.000	0.000	0.000	0.010	0.420	1.753	1.099	1.099	1.099	1.113	1.113	1.113
0.010	-0.005	0.005	0.000	0.000	-0.015	0.415	1.768	1.099	1.099	1.099	1.113	1.108	1.104
0.000	0.000	0.000	0.000	-0.005	-0.015	0.420	1.733	1.094	1.104	1.099	1.113	1.108	1.104
0.005	-0.005	0.000	0.000	0.000	0.000	0.425	1.753	1.094	1.094	1.099	1.113	1.108	1.108
0.000	-0.005	-0.005	0.000	0.000	0.010	0.420	1.758	1.094	1.094	1.094	1.113	1.108	1.108
0.000	0.015	0.000	-0.005	0.000	0.000	0.425	1.787	1.094	1.099	1.094	1.113	1.108	1.108
0.000	0.024	-0.005	0.005	0.000	0.005	0.420	1.797	1.099	1.099	1.094	1.108	1.104	1.104
-0.010	0.015	0.000	0.000	0.000	-0.024	0.420	1.777	1.099	1.089	1.094	1.108	1.104	1.099
-0.010	0.005	-0.005	0.000	0.000	0.000	0.420	1.733	1.094	1.094	1.089	1.108	1.104	1.104
0.000	0.010	0.000	0.000	0.000	0.000	0.425	1.797	1.099	1.094	1.094	1.108	1.104	1.104
0.000	0.005	0.005	0.000	-0.005	0.005	0.420	1.748	1.094	1.094	1.094	1.108	1.104	1.104
-0.005	0.000	-0.005	-0.005	-0.005	0.005	0.425	1.782	1.094	1.094	1.094	1.108	1.108	1.108
-0.005	0.000	0.000	-0.005	-0.005	-0.010	0.420	1.772	1.094	1.094	1.094	1.108	1.104	1.104
-0.015	-0.010	0.000	0.000	-0.005	0.005	0.425	1.763	1.099	1.089	1.094	1.113	1.108	1.108
-0.005	-0.005	0.000	0.000	0.005	0.005	0.415	1.729	1.099	1.094	1.094	1.113	1.113	1.113
-0.005	-0.005	0.000	0.000	0.000	0.005	0.420	1.782	1.099	1.094	1.094	1.113	1.108	1.108
0.000	-0.005	0.000	0.005	0.005	0.005	0.425	1.797	1.104	1.099	1.099	1.113	1.108	1.108
-0.010	-0.005	0.000	0.000	-0.005	0.000	0.420	1.738	1.094	1.099	1.094	1.113	1.108	1.108
-0.005	0.005	-0.005	0.000	0.000	-0.024	0.420	1.768	1.094	1.099	1.094	1.113	1.108	1.099
-0.005	0.000	0.005	0.000	-0.005	0.000	0.425	1.802	1.099	1.094	1.094	1.113	1.108	1.108
0.000	-0.005	0.000	-0.005	-0.005	0.005	0.420	1.753	1.099	1.094	1.094	1.108	1.108	1.108
-0.005	0.000	0.000	0.000	-0.005	0.010	0.420	1.787	1.099	1.094	1.094	1.108	1.104	1.108
0.005	0.000	-0.005	-0.005	-0.005	0.005	0.415	1.802	1.104	1.094	1.089	1.108	1.104	1.104
0.000	0.000	0.005	0.000	0.000	0.005	0.425	1.743	1.094	1.094	1.094	1.108	1.104	1.104
-0.005	-0.010	0.000	0.000	0.000	-0.020	0.420	1.738	1.084	1.089	1.089	1.108	1.108	1.099
0.000	0.010	-0.005	-0.005	-0.005	0.010	0.415	1.782	1.089	1.089	1.094	1.108	1.104	1.108
-0.005	-0.010	0.000	0.000	0.000	0.005	0.425	1.797	1.094	1.089	1.094	1.108	1.104	1.104
0.005	0.010	-0.005	0.000	0.000	-0.020	0.420	1.797	1.099	1.094	1.089	1.108	1.104	1.099
0.000	-0.010	-0.005	0.000	-0.005	0.015	0.425	1.724	1.094	1.089	1.089	1.108	1.104	1.104
-0.005	-0.005	0.000	0.000	0.000	0.000	0.420	1.738	1.094	1.094	1.094	1.108	1.108	1.108
-0.005	0.000	0.000	0.000	0.000	0.005	0.425	1.792	1.099	1.099	1.094	1.108	1.108	1.108
0.000	0.000	-0.005	0.000	0.000	-0.020	0.415	1.772	1.099	1.094	1.094	1.113	1.108	1.104
0.000	-0.005	-0.005	0.005	0.000	0.000	0.425	1.787	1.099	1.094	1.094	1.113	1.108	1.108
0.000	0.000	0.000	0.000	0.000	0.000	0.420	1.807	1.104	1.099	1.099	1.113	1.108	1.108
0.000	0.000	0.000	0.005	0.005	-0.005	0.425	1.724	1.099	1.104	1.099	1.113	1.108	1.104
-0.005	-0.010	-0.005	0.000	0.000	-0.005	0.420	1.797	1.104	1.094	1.094	1.113	1.108	1.108
-0.005	-0.005	-0.005	0.000	0.000	0.015	0.425	1.782	1.099	1.099	1.094	1.113	1.108	1.113
0.000	0.000	-0.005	0.000	0.000	0.005	0.420	1.792	1.099	1.099	1.094	1.108	1.108	1.108
0.000	-0.005	-0.005	0.000	0.000	0.000	0.425	1.753	1.094	1.094	1.094	1.108	1.108	1.108
-0.005	0.000	-0.005	0.005	0.000	0.005	0.420	1.714	1.089	1.094	1.089	1.108	1.104	1.108
-0.005	0.005	0.000	-0.005	-0.005	0.005	0.415	1.807	1.089	1.089	1.094	1.108	1.104	1.104
-0.005	-0.005	-0.005	0.000	0.000	0.000	0.415	1.753	1.089	1.084	1.089	1.108	1.104	1.099
0.005	0.005	0.000	0.000	0.000	0.000	0.425	1.802	1.099	1.094	1.089	1.108	1.104	1.104
0.000	0.000	0.000	0.000	-0.005	-0.005	0.420	1.763	1.094	1.089	1.089	1.108	1.104	1.099
0.010	0.010	-0.005	0.000	0.000	-0.005	0.425	1.733	1.094	1.094	1.089	1.108	1.104	1.104
0.000	-0.005	0.000	0.000	-0.005	0.000	0.420	1.763	1.094	1.089	1.094	1.108	1.104	1.104
0.000	0.000	-0.005	0.000	0.000	-0.015	0.420	1.768	1.094	1.094	1.094	1.108	1.104	1.099
0.000	-0.010	-0.005	0.000	-0.005	-0.010	0.420	1.758	1.099	1.094	1.094	1.108	1.108	1.104
0.000	0.005	0.000	0.000	-0.005	0.005	0.420	1.768	1.104	1.099	1.094	1.113	1.108	1.108
-0.005	0.000	-0.005	0.000	-0.005	0.000	0.415	1.797	1.104	1.099	1.094	1.108	1.108	1.108
-0.005	-0.005	-0.005	-0.010	-0.005	-0.010	0.415	1.748	1.099	1.099	1.094	1.108	1.108	1.099
0.000	0.000	0.000	-0.005	0.000	0.010	0.420	1.792	1.099	1.099	1.094	1.113	1.108	1.108
-0.010	0.005	0.000	-0.010	0.000	-0.015	0.420	1.777	1.094	1.099	1.099	1.108	1.104	1.104
-0.005	0.010	0.000	-0.005	0.000	-0.005	0.425	1.797	1.099	1.094	1.094	1.113	1.104	1.108
0.010	-0.005	0.000	-0.005	0.000	0.015	0.415	1.758	1.099	1.094	1.094	1.113	1.104	1.108
0.005	-0.005	-0.005	-0.005	-0.005	0.005	0.420	1.797	1.094	1.094	1.094	1.113	1.104	1.108
0.010	0.000	0.000	0.000	-0.005	0.010	0.415	1.758	1.094	1.094	1.089	1.108	1.108	1.104
-0.010	-0.005	0.005	0.000	-0.005	0.005	0.420	1.758	1.084	1.089	1.094	1.113	1.104	1.104
-0.005	-0.005	0.000	0.000	-0.005	0.000	0.415	1.807	1.089	1.089	1.084	1.104	1.104	1.099
0.010	-0.005	0.000	0.000	0.000	0.005	0.420	1.816	1.099	1.094	1.089	1.108	1.104	1.104
0.000	0.005	0.000	0.005	0.000	-0.005	0.420	1.777	1.104	1.094	1.094	1.108	1.104	1.099
0.005	0.005	-0.005	0.005	0.000	-0.005	0.425	1.787	1.104	1.099	1.094	1.108	1.108	1.104
0.000	-0.005	0.000	0.005	-0.005	0.000	0.420	1.816	1.108	1.099	1.094	1.113	1.104	1.104
0.000	0.000	-0.005	0.000	0.000	-0.005	0.420	1.763	1.099	1.099	1.099	1.113	1.104	1.104
-0.005	0.000	0.000	0.000	0.000	0.000	0.420	1.797	1.104	1.099	1.099	1.113	1.108	1.104
-0.005	0.005	0.000	0.000	-0.005	-0.015	0.420	1.743	1.099	1.104	1.099	1.113	1.108	1.104
-0.005	-0.024	0.005	-0.005	0.000	0.015	0.420	1.787	1.104	1.094	1.104	1.113	1.113	1.113
0.010	0.005	-0.005	-0.005	0.000	0.000	0.420	1.748	1.099	1.104	1.099	1.113	1.108	1.108
0.000	-0.010	0.005	0.000	0.000	0.000	0.420	1.802	1.094	1.094	1.099	1.118	1.113	1.108
0.000	-0.005	-0.005	0.000	0.000	-0.005	0.420	1.768	1.099	1.099	1.094	1.113	1.108	1.108
-0.020	-0.005	0.000	-0.005	0.000	0.000	0.425	1.719	1.094	1.099	1.094	1.113	1.108	1.108
0.005	0.015	0.000	0.000	-0.010	-0.029	0.420	1.816	1.099	1.099	1.094	1.113	1.104	1.099
-0.010	0.005	0.005	-0.005	0.000	0.000	0.420	1.792	1.094	1.094	1.099	1.113	1.108	1.108
0.000	0.010	0.000	0.005	-0.005	0.015	0.425	1.797	1.094	1.094	1.094	1.113	1.108	1.113
0.000	0.015	-0.005	-0.005	0.000	0.010	0.420	1.724	1.089	1.089	1.094	1.108	1.104	1.108
-0.010	0.010	-0.005	-0.005	0.000	0.000	0.415	1.787	1.094	1.089	1.089	1.108	1.108	1.104
0.005	0.010	0.000	0.005	-0.005	0.000	0.420	1.772	1.094	1.094	1.089	1.108	1.108	1.104
0.015	0.005	0.000	-0.005	-0.005	-0.005	0.420	1.763	1.099	1.094	1.094	1.108	1.108	1.104
0.005	-0.005	0.000	0.000	0.000	-0.010	0.425	1.792	1.099	1.094	1.089	1.108	1.108	1.104
0.005	-0.005	0.000	0.000	0.000	0.010	0.420	1.777	1.104	1.094	1.094	1.113	1.108	1.108
0.000	-0.010	0.000	0.000	0.005	0.005	0.425	1.738	1.094	1.094	1.094	1.113	1.108	1.108
0.000	-0.010	-0.005	0.005	0.005	0.005	0.420	1.758	1.099	1.099	1.094	1.113	1.108	1.108
0.005	-0.005	0.000	0.005	0.020	0.005	0.425	1.792	1.104	1.099	1.099	1.113	1.118	1.113
-0.005	-0.005	0.000	0.000	0.020	0.015	0.420	1.807	1.104	1.099	1.099	1.113	1.113	1.113
-0.010	-0.005	0.000	0.005	0.020	-0.024	0.425	1.797	1.108	1.099	1.099	1.113	1.113	1.104
0.000	-0.005	-0.005	0.000	0.015	0.020	0.415	1.792	1.104	1.099	1.099	1.113	1.113	1.118
-0.005	-0.010	0.000	0.005	0.020	0.024	0.425	1.699	1.094	1.094	1.094	1.113	1.113	1.113
-0.005	-0.010	-0.005	0.000	0.015	0.005	0.420	1.772	1.094	1.099	1.094	1.113	1.108	1.113
-0.005	-0.010	0.005	0.000	0.015	0.020	0.425	1.797	1.099	1.094	1.094	1.108	1.108	1.108
