0.010	0.005	0.005	0.000	0.005	-0.024	0.435	2.715	2.222	2.007	1.943	1.899	1.899	1.895
0.010	-0.005	0.000	0.000	0.015	-0.015	0.435	2.832	2.153	2.046	1.968	1.924	1.909	1.904
-0.005	0.005	0.005	0.000	0.000	-0.029	0.430	2.739	2.090	2.065	1.997	1.948	1.914	1.904
0.000	-0.005	0.005	0.000	0.005	-0.029	0.435	2.749	2.051	2.056	2.012	1.973	1.929	1.909
-0.005	-0.005	0.000	0.005	-0.005	-0.015	0.435	2.637	2.007	2.041	2.021	1.992	1.943	1.924
0.000	0.005	0.000	0.010	-0.015	-0.005	0.439	2.637	1.973	2.026	2.026	2.007	1.958	1.934
0.005	0.020	-0.005	0.005	-0.029	0.005	0.435	2.690	1.958	2.012	2.021	2.012	1.968	1.948
0.000	-0.005	0.000	0.010	-0.029	0.029	0.435	2.690	1.948	1.987	2.012	2.017	1.978	1.958
0.005	-0.005	0.000	0.000	-0.015	0.024	0.435	2.681	1.938	1.973	2.002	2.021	1.992	1.973
0.000	-0.005	0.005	0.000	-0.020	0.034	0.439	2.705	1.929	1.958	1.987	2.012	1.997	1.973
0.005	-0.005	0.005	0.005	-0.005	0.044	0.435	2.661	1.924	1.948	1.978	2.007	2.002	1.987
-0.005	-0.010	0.005	0.000	0.005	0.034	0.439	2.681	1.924	1.938	1.963	2.002	2.002	1.982
0.005	0.000	0.000	0.000	0.020	0.015	0.435	2.690	1.929	1.934	1.958	1.992	1.997	1.987
0.005	0.000	0.005	0.000	0.010	-0.020	0.435	2.695	1.929	1.934	1.948	1.987	1.992	1.978
0.010	0.005	0.005	0.000	-0.005	-0.029	0.430	2.690	1.929	1.934	1.948	1.978	1.982	1.978
0.000	0.005	0.005	0.000	-0.005	-0.005	0.439	2.695	1.934	1.934	1.938	1.973	1.978	1.982
0.000	-0.005	0.005	-0.005	-0.015	-0.010	0.435	2.705	1.938	1.934	1.938	1.968	1.973	1.982
0.005	0.005	0.000	-0.005	-0.005	-0.020	0.435	2.676	1.929	1.938	1.938	1.968	1.973	1.973
0.000	0.010	0.000	0.000	0.005	-0.020	0.435	2.695	1.934	1.938	1.938	1.968	1.973	1.978
0.000	0.005	0.000	0.000	0.015	-0.029	0.435	2.686	1.934	1.938	1.938	1.963	1.973	1.978
-0.005	0.005	0.005	0.000	0.010	-0.005	0.439	2.700	1.938	1.938	1.938	1.963	1.968	1.978
-0.005	0.005	0.000	-0.005	0.015	-0.029	0.430	2.681	1.934	1.938	1.938	1.958	1.968	1.968
0.000	0.029	0.005	-0.005	0.010	0.015	0.439	2.695	1.934	1.943	1.938	1.958	1.963	1.982
0.000	0.015	0.005	-0.005	0.010	0.015	0.439	2.705	1.934	1.934	1.938	1.958	1.963	1.973
-0.010	0.020	0.000	-0.015	0.005	0.020	0.439	2.690	1.934	1.934	1.934	1.953	1.953	1.973
-0.005	0.010	0.005	-0.010	-0.005	0.020	0.435	2.671	1.929	1.929	1.929	1.953	1.948	1.963
0.000	0.010	-0.005	0.000	0.000	0.029	0.435	2.686	1.929	1.929	1.929	1.953	1.948	1.963
-0.005	0.005	-0.005	0.010	0.010	0.020	0.435	2.666	1.924	1.924	1.924	1.953	1.948	1.953
0.000	0.005	0.005	0.010	0.005	0.024	0.435	2.690	1.924	1.924	1.924	1.948	1.948	1.953
0.005	0.000	0.000	0.015	0.010	0.000	0.430	2.690	1.929	1.924	1.924	1.948	1.948	1.948
0.000	0.005	-0.005	0.010	-0.005	0.005	0.439	2.681	1.929	1.924	1.919	1.943	1.943	1.943
0.005	0.000	0.005	0.015	-0.020	-0.015	0.435	2.700	1.929	1.924	1.924	1.943	1.934	1.934
0.000	0.000	0.005	0.005	-0.024	-0.015	0.444	2.681	1.924	1.924	1.924	1.943	1.938	1.938
0.005	0.005	0.000	0.005	-0.020	-0.005	0.435	2.700	1.929	1.929	1.924	1.943	1.938	1.938
0.000	0.000	0.000	0.000	-0.010	-0.010	0.439	2.681	1.929	1.929	1.924	1.943	1.943	1.943
0.005	-0.005	0.000	-0.005	0.000	-0.010	0.435	2.690	1.929	1.929	1.924	1.943	1.948	1.943
0.005	0.000	0.005	0.000	0.039	-0.020	0.435	2.700	1.934	1.929	1.929	1.948	1.953	1.943
0.000	-0.010	0.005	-0.005	0.044	0.000	0.435	2.690	1.929	1.929	1.924	1.943	1.948	1.948
0.005	-0.005	0.000	0.010	0.029	-0.005	0.435	2.690	1.929	1.929	1.924	1.948	1.943	1.953
0.000	-0.005	0.000	0.000	0.015	-0.005	0.435	2.695	1.929	1.929	1.924	1.943	1.938	1.943
0.000	-0.005	0.005	0.010	0.029	0.015	0.439	2.681	1.924	1.924	1.924	1.943	1.943	1.953
0.010	-0.005	0.000	0.005	0.024	0.020	0.435	2.686	1.924	1.924	1.919	1.943	1.938	1.948
0.005	-0.005	-0.005	0.000	0.020	0.010	0.435	2.686	1.924	1.924	1.924	1.943	1.934	1.943
0.005	0.005	0.000	0.005	0.024	0.005	0.435	2.676	1.924	1.924	1.924	1.943	1.938	1.934
0.010	-0.005	0.000	0.010	0.029	0.024	0.435	2.695	1.914	1.914	1.919	1.938	1.938	1.943
0.005	0.000	0.005	0.005	0.029	0.010	0.435	2.686	1.914	1.914	1.919	1.934	1.934	1.938
0.005	-0.010	0.005	0.000	0.029	0.029	0.439	2.690	1.914	1.914	1.914	1.938	1.934	1.934
0.005	-0.010	0.000	0.005	0.024	0.034	0.435	2.686	1.919	1.914	1.914	1.934	1.934	1.943
0.005	0.000	0.000	0.000	0.024	0.020	0.430	2.681	1.919	1.919	1.914	1.934	1.934	1.934
0.005	-0.010	0.000	0.000	0.020	-0.005	0.435	2.676	1.919	1.919	1.914	1.934	1.934	1.929
-0.005	0.000	0.000	0.000	0.010	0.020	0.430	2.676	1.919	1.919	1.919	1.934	1.929	1.934
0.010	0.010	0.010	0.000	0.000	0.024	0.444	2.681	1.924	1.924	1.919	1.938	1.929	1.934
0.005	0.015	0.000	0.000	-0.005	0.000	0.435	2.686	1.919	1.924	1.919	1.938	1.924	1.929
0.000	0.005	0.000	0.000	-0.024	-0.020	0.444	2.681	1.919	1.919	1.924	1.938	1.924	1.924
-0.010	0.000	0.005	0.015	-0.029	-0.005	0.435	2.695	1.919	1.914	1.919	1.943	1.929	1.924
0.000	0.005	0.000	0.005	-0.034	-0.010	0.439	2.686	1.919	1.919	1.919	1.938	1.929	1.924
0.005	0.010	-0.005	0.000	-0.015	-0.005	0.430	2.690	1.919	1.919	1.914	1.938	1.934	1.924
0.005	0.000	0.005	0.000	-0.015	0.005	0.439	2.690	1.914	1.914	1.919	1.934	1.934	1.934
0.000	0.010	0.000	-0.005	-0.015	-0.010	0.430	2.690	1.914	1.914	1.914	1.934	1.929	1.929
-0.010	0.000	0.000	0.005	-0.020	0.005	0.435	2.695	1.909	1.904	1.909	1.934	1.929	1.929
0.000	0.000	0.000	0.000	-0.010	-0.005	0.430	2.690	1.909	1.909	1.909	1.929	1.929	1.924
0.000	0.015	0.005	-0.005	-0.015	0.015	0.439	2.690	1.909	1.909	1.909	1.929	1.929	1.929
0.000	0.005	-0.005	0.000	-0.020	-0.005	0.435	2.695	1.909	1.904	1.909	1.929	1.924	1.919
0.000	0.000	0.000	0.000	-0.015	0.005	0.435	2.681	1.904	1.904	1.904	1.929	1.924	1.924
0.005	0.000	0.005	0.000	-0.010	0.005	0.435	2.695	1.909	1.904	1.904	1.929	1.924	1.929
-0.005	0.000	0.005	0.000	-0.005	-0.029	0.435	2.686	1.909	1.909	1.904	1.924	1.929	1.919
0.000	0.000	0.005	0.005	-0.010	-0.029	0.435	2.666	1.909	1.904	1.904	1.924	1.924	1.919
0.000	0.005	0.000	0.000	-0.010	-0.029	0.435	2.700	1.909	1.909	1.909	1.929	1.924	1.924
0.005	0.005	0.000	0.000	-0.005	0.000	0.435	2.690	1.914	1.914	1.909	1.929	1.924	1.934
0.000	0.010	0.000	0.000	-0.005	0.015	0.439	2.686	1.909	1.914	1.909	1.924	1.924	1.934
0.005	0.010	0.000	0.005	-0.010	0.010	0.439	2.690	1.914	1.914	1.909	1.929	1.924	1.924
0.005	0.015	0.005	0.010	-0.005	0.015	0.435	2.705	1.914	1.914	1.909	1.934	1.929	1.934
0.005	0.005	0.000	0.010	0.000	0.005	0.439	2.695	1.914	1.909	1.909	1.929	1.924	1.924
0.005	0.000	0.005	0.010	0.000	0.039	0.435	2.686	1.909	1.909	1.909	1.929	1.929	1.938
-0.005	0.000	0.005	0.010	0.005	0.015	0.435	2.695	1.909	1.909	1.909	1.929	1.929	1.929
0.000	-0.005	-0.005	0.010	0.015	0.034	0.435	2.686	1.904	1.904	1.904	1.924	1.929	1.929
0.000	-0.005	-0.005	0.005	0.010	0.005	0.435	2.695	1.904	1.904	1.904	1.919	1.919	1.919
0.005	-0.005	0.000	0.000	0.010	0.020	0.430	2.681	1.904	1.904	1.904	1.919	1.919	1.924
-0.010	-0.005	0.010	0.000	0.005	-0.020	0.435	2.666	1.899	1.899	1.899	1.924	1.914	1.909
0.000	0.000	0.000	0.000	-0.010	-0.005	0.435	2.690	1.899	1.904	1.895	1.919	1.914	1.909
0.005	0.024	0.005	-0.005	-0.010	-0.005	0.439	2.700	1.899	1.909	1.899	1.919	1.909	1.914
0.000	0.020	0.005	0.000	-0.010	-0.005	0.435	2.676	1.899	1.904	1.904	1.919	1.914	1.914
0.000	0.015	0.005	0.000	0.015	0.005	0.444	2.681	1.909	1.904	1.904	1.924	1.919	1.919
0.015	0.005	0.000	0.000	0.005	-0.010	0.435	2.700	1.909	1.904	1.899	1.924	1.919	1.914
0.015	0.000	0.000	-0.005	0.010	-0.015	0.439	2.695	1.909	1.899	1.904	1.919	1.919	1.914
0.005	-0.005	0.000	-0.005	0.010	-0.044	0.439	2.690	1.909	1.904	1.904	1.919	1.919	1.909
0.005	0.000	0.000	-0.005	0.005	-0.029	0.439	2.700	1.909	1.904	1.904	1.919	1.914	1.914
0.000	-0.010	-0.005	-0.005	-0.005	-0.024	0.430	2.695	1.909	1.904	1.904	1.919	1.914	1.914
0.010	-0.005	0.000	0.000	0.000	-0.005	0.435	2.690	1.909	1.904	1.904	1.924	1.919	1.924
0.000	-0.005	0.000	-0.005	0.005	-0.005	0.439	2.690	1.904	1.904	1.904	1.924	1.919	1.919
0.000	-0.010	0.005	0.000	0.015	0.020	0.444	2.676	1.904	1.904	1.904	1.924	1.919	1.924
-0.005	-0.005	0.005	0.000	0.005	0.020	0.439	2.700	1.904	1.899	1.904	1.919	1.919	1.924
-0.005	0.005	0.000	-0.005	0.005	0.024	0.435	2.695	1.899	1.904	1.899	1.919	1.914	1.924
-0.005	0.005	0.005	0.000	0.005	0.020	0.430	2.690	1.904	1.899	1.899	1.919	1.914	1.914
-0.005	-0.005	0.000	-0.005	-0.005	0.020	0.435	2.705	1.899	1.895	1.899	1.914	1.909	1.914
-0.010	0.000	0.005	-0.005	0.000	0.020	0.435	2.695	1.895	1.899	1.895	1.914	1.909	1.909
-0.005	0.005	0.000	0.000	0.000	-0.020	0.435	2.681	1.899	1.895	1.895	1.914	1.909	1.904
-0.010	0.005	0.000	0.005	0.000	0.020	0.439	2.695	1.895	1.899	1.895	1.914	1.909	1.914
0.005	0.005	0.000	0.010	0.000	-0.005	0.439	2.690	1.904	1.899	1.899	1.919	1.909	1.909
-0.005	0.000	0.000	0.005	0.000	0.010	0.439	2.700	1.904	1.899	1.899	1.919	1.909	1.909
0.000	0.005	0.005	0.005	0.005	-0.005	0.435	2.686	1.904	1.899	1.899	1.919	1.914	1.909
0.010	0.000	0.000	0.005	0.005	0.005	0.439	2.690	1.909	1.904	1.899	1.919	1.914	1.914
0.000	0.005	0.000	0.005	0.000	-0.015	0.435	2.686	1.904	1.904	1.904	1.924	1.914	1.909
0.005	-0.005	-0.005	0.005	0.000	-0.024	0.435	2.676	1.899	1.899	1.904	1.919	1.914	1.909
0.000	0.000	0.000	0.010	0.005	-0.005	0.430	2.686	1.904	1.899	1.904	1.924	1.919	1.919
0.000	-0.005	0.000	0.005	0.010	-0.005	0.435	2.681	1.899	1.899	1.904	1.919	1.919	1.919
0.010	-0.005	0.000	0.000	0.005	0.005	0.435	2.651	1.899	1.899	1.899	1.919	1.914	1.919
0.000	0.000	0.000	0.005	0.005	0.000	0.439	2.671	1.895	1.899	1.899	1.914	1.914	1.914
0.005	0.000	0.010	-0.005	0.005	0.005	0.435	2.695	1.899	1.895	1.895	1.914	1.914	1.914
-0.005	-0.005	-0.005	0.000	0.000	-0.010	0.439	2.681	1.895	1.895	1.895	1.914	1.909	1.904
0.000	0.000	0.000	-0.005	0.005	0.005	0.425	2.690	1.895	1.890	1.895	1.909	1.909	1.914
0.000	-0.005	-0.005	0.005	0.000	-0.010	0.439	2.676	1.890	1.890	1.890	1.914	1.909	1.904
0.000	-0.005	0.000	0.015	0.000	0.000	0.435	2.671	1.895	1.890	1.890	1.914	1.904	1.909
0.000	0.000	0.005	0.010	-0.005	0.005	0.439	2.695	1.895	1.890	1.890	1.909	1.904	1.904
0.000	0.010	0.005	0.010	0.005	-0.010	0.435	2.695	1.895	1.895	1.890	1.909	1.909	1.909
0.000	-0.005	0.005	0.010	0.000	-0.005	0.444	2.686	1.895	1.890	1.890	1.909	1.904	1.904
0.005	-0.010	0.000	0.000	-0.005	0.000	0.435	2.695	1.899	1.890	1.890	1.909	1.904	1.909
0.005	0.005	0.000	0.000	-0.005	-0.010	0.444	2.700	1.904	1.904	1.895	1.909	1.904	1.904
-0.005	0.005	0.005	-0.005	0.000	0.010	0.435	2.690	1.899	1.899	1.895	1.909	1.909	1.909
0.010	0.000	0.005	-0.005	0.000	-0.005	0.439	2.690	1.899	1.899	1.895	1.914	1.909	1.909
0.000	0.005	0.005	-0.010	0.005	0.039	0.435	2.695	1.904	1.899	1.895	1.909	1.914	1.924
0.005	0.005	0.000	0.000	0.010	0.044	0.435	2.690	1.909	1.904	1.899	1.914	1.914	1.919
-0.005	0.000	0.000	0.000	0.015	0.015	0.435	2.656	1.899	1.899	1.899	1.914	1.914	1.909
0.000	-0.010	-0.005	0.000	0.010	0.015	0.435	2.695	1.895	1.895	1.895	1.914	1.909	1.909
0.005	-0.005	0.005	0.000	0.005	0.029	0.430	2.700	1.895	1.895	1.895	1.914	1.909	1.909
0.000	-0.010	0.000	0.000	0.005	0.000	0.435	2.666	1.890	1.890	1.895	1.914	1.909	1.899
0.000	0.010	0.000	0.000	0.005	0.020	0.435	2.690	1.890	1.890	1.895	1.909	1.909	1.909
0.000	0.010	0.005	0.000	-0.005	0.020	0.430	2.681	1.890	1.890	1.890	1.909	1.904	1.904
-0.005	0.005	0.000	0.005	0.000	0.000	0.435	2.700	1.895	1.890	1.890	1.909	1.904	1.899
0.000	0.010	0.005	0.005	0.000	0.000	0.439	2.690	1.890	1.895	1.890	1.909	1.904	1.899
0.010	0.000	0.005	0.005	0.005	-0.039	0.439	2.690	1.895	1.890	1.890	1.909	1.904	1.890
0.000	-0.005	0.000	0.010	0.005	-0.005	0.435	2.686	1.890	1.890	1.885	1.904	1.904	1.904
-0.005	0.000	0.000	0.005	-0.005	-0.005	0.439	2.700	1.890	1.890	1.885	1.904	1.904	1.899
-0.010	0.005	0.005	0.005	0.000	-0.029	0.435	2.686	1.890	1.890	1.890	1.909	1.904	1.895
0.000	0.000	0.000	0.000	0.000	-0.005	0.439	2.695	1.895	1.890	1.890	1.904	1.904	1.904
-0.010	-0.005	0.000	0.000	-0.005	-0.005	0.430	2.686	1.899	1.895	1.890	1.909	1.904	1.904
0.005	0.005	0.000	0.000	0.000	0.000	0.435	2.681	1.899	1.899	1.895	1.909	1.909	1.909
0.000	0.000	0.005	0.005	0.010	-0.005	0.435	2.690	1.899	1.895	1.895	1.914	1.909	1.909
0.000	0.015	0.005	0.000	0.010	-0.010	0.439	2.695	1.899	1.899	1.895	1.909	1.909	1.904
-0.005	0.015	0.005	0.000	0.005	0.024	0.435	2.686	1.895	1.895	1.895	1.914	1.909	1.914
-0.010	0.010	0.005	0.005	0.005	0.029	0.439	2.695	1.895	1.895	1.895	1.909	1.904	1.914
-0.005	0.000	0.000	0.000	-0.005	0.020	0.435	2.681	1.895	1.890	1.890	1.909	1.904	1.904
-0.005	0.005	0.005	0.005	-0.005	0.020	0.444	2.661	1.885	1.890	1.890	1.909	1.899	1.904
0.000	0.005	-0.005	0.005	-0.005	0.015	0.435	2.690	1.885	1.885	1.885	1.909	1.899	1.899
0.000	-0.005	0.000	0.000	0.005	0.005	0.439	2.681	1.885	1.885	1.885	1.904	1.904	1.899
0.000	-0.005	0.000	0.000	0.000	-0.010	0.430	2.690	1.890	1.880	1.885	1.904	1.899	1.895
0.000	0.015	0.000	0.000	0.010	-0.015	0.439	2.651	1.899	1.890	1.885	1.904	1.904	1.890
0.005	0.010	0.000	0.000	-0.005	-0.020	0.435	2.686	1.899	1.890	1.885	1.899	1.895	1.895
0.000	0.005	0.000	-0.005	-0.044	-0.015	0.439	2.700	1.895	1.890	1.885	1.904	1.885	1.890
0.010	-0.005	0.000	0.000	-0.044	-0.005	0.435	2.676	1.899	1.895	1.885	1.904	1.890	1.895
0.000	-0.005	0.000	0.005	-0.020	-0.015	0.435	2.690	1.895	1.890	1.890	1.909	1.899	1.899
0.000	0.010	0.005	0.000	-0.015	-0.010	0.439	2.700	1.899	1.899	1.895	1.909	1.904	1.899
0.005	-0.010	0.000	0.000	-0.005	0.020	0.435	2.690	1.899	1.895	1.895	1.909	1.909	1.909
0.000	0.010	0.000	-0.005	0.015	0.020	0.435	2.690	1.895	1.899	1.895	1.909	1.914	1.914
0.000	0.010	0.005	0.000	0.039	0.020	0.435	2.695	1.895	1.899	1.895	1.914	1.919	1.914
0.015	0.005	0.005	0.005	0.005	0.024	0.439	2.681	1.899	1.895	1.895	1.914	1.909	1.914
0.000	0.010	-0.005	0.000	0.005	0.010	0.435	2.681	1.895	1.895	1.895	1.909	1.904	1.904
-0.005	0.000	0.000	0.000	0.010	0.000	0.435	2.695	1.895	1.895	1.895	1.914	1.909	1.904
0.005	0.005	0.000	0.000	0.015	-0.005	0.430	2.695	1.895	1.890	1.890	1.909	1.909	1.904
0.010	0.000	0.000	0.000	0.010	-0.034	0.439	2.661	1.885	1.890	1.890	1.904	1.904	1.895
-0.005	0.000	0.000	0.000	0.005	-0.015	0.435	2.676	1.880	1.885	1.885	1.904	1.899	1.899
0.000	0.000	0.005	0.005	0.005	0.000	0.435	2.690	1.885	1.885	1.885	1.904	1.899	1.904
0.010	-0.005	0.000	0.005	0.005	0.010	0.430	2.666	1.885	1.885	1.880	1.904	1.899	1.904
0.005	-0.005	0.005	0.005	-0.005	0.020	0.439	2.695	1.880	1.885	1.880	1.899	1.899	1.904
0.005	-0.005	0.000	0.010	0.000	0.010	0.435	2.686	1.885	1.885	1.880	1.904	1.899	1.899
0.010	0.000	0.000	0.000	0.000	-0.010	0.435	2.695	1.890	1.890	1.885	1.899	1.895	1.895
0.000	-0.005	0.000	-0.005	0.000	-0.005	0.430	2.690	1.890	1.885	1.885	1.899	1.899	1.899
0.000	-0.005	0.005	-0.005	-0.005	0.010	0.435	2.681	1.890	1.890	1.885	1.904	1.899	1.904
0.000	-0.005	0.000	0.000	-0.010	0.010	0.430	2.686	1.890	1.890	1.890	1.904	1.899	1.899
0.000	0.000	0.005	-0.005	-0.005	0.005	0.439	2.686	1.895	1.895	1.890	1.904	1.899	1.899
0.000	0.000	0.005	-0.005	-0.005	-0.015	0.435	2.686	1.895	1.895	1.890	1.909	1.895	1.895
-0.005	0.000	0.005	0.000	-0.005	-0.005	0.439	2.686	1.895	1.895	1.890	1.909	1.904	1.899
-0.005	0.000	0.005	0.005	-0.010	-0.015	0.435	2.700	1.895	1.890	1.890	1.909	1.899	1.895
-0.005	0.000	0.000	0.010	-0.005	-0.005	0.439	2.690	1.895	1.890	1.885	1.909	1.904	1.904
0.000	-0.005	-0.005	0.010	0.000	-0.024	0.435	2.695	1.895	1.890	1.885	1.909	1.904	1.895
0.000	-0.005	0.000	0.000	0.010	0.000	0.439	2.695	1.890	1.885	1.885	1.904	1.904	1.899
0.000	0.005	0.000	-0.005	-0.005	0.015	0.439	2.686	1.890	1.885	1.885	1.899	1.895	1.904
0.000	0.005	0.005	-0.005	0.005	-0.005	0.439	2.686	1.885	1.885	1.885	1.899	1.899	1.899
0.000	0.005	0.005	0.000	0.034	0.020	0.435	2.695	1.885	1.880	1.880	1.899	1.904	1.904
0.000	0.005	0.010	0.005	0.059	0.015	0.439	2.700	1.890	1.885	1.880	1.904	1.909	1.904
0.005	0.005	0.000	0.010	0.034	-0.005	0.439	2.690	1.890	1.885	1.880	1.904	1.899	1.895
0.005	-0.005	0.000	0.015	0.010	-0.010	0.435	2.690	1.890	1.885	1.885	1.904	1.895	1.899
0.010	0.005	0.005	0.010	0.010	-0.010	0.444	2.690	1.895	1.890	1.885	1.904	1.895	1.895
-0.010	-0.005	-0.005	0.010	0.020	0.000	0.435	2.676	1.885	1.885	1.885	1.904	1.899	1.899
0.000	-0.005	-0.005	0.010	-0.005	-0.010	0.435	2.700	1.895	1.885	1.885	1.904	1.895	1.895
0.005	0.005	-0.005	0.005	-0.010	-0.010	0.430	2.690	1.895	1.895	1.890	1.904	1.895	1.899
0.010	0.000	0.000	0.000	-0.015	0.005	0.444	2.681	1.899	1.895	1.890	1.904	1.895	1.899
0.000	0.005	0.000	0.000	-0.005	0.000	0.435	2.690	1.890	1.895	1.890	1.904	1.899	1.904
-0.005	0.005	0.005	-0.005	-0.010	0.010	0.439	2.695	1.890	1.890	1.890	1.904	1.895	1.904
-0.005	0.010	0.000	0.000	-0.010	0.029	0.435	2.681	1.890	1.895	1.890	1.904	1.904	1.909
0.005	0.000	0.000	0.000	-0.010	0.024	0.435	2.690	1.895	1.890	1.890	1.904	1.899	1.904
0.000	-0.010	0.000	0.000	-0.005	0.000	0.435	2.695	1.890	1.885	1.885	1.904	1.899	1.895
-0.005	0.005	0.000	0.000	-0.005	0.044	0.439	2.686	1.890	1.890	1.885	1.904	1.904	1.909
0.000	-0.005	0.005	-0.005	-0.010	0.054	0.439	2.671	1.890	1.885	1.885	1.899	1.899	1.904
0.000	-0.005	0.005	0.000	-0.010	0.039	0.439	2.690	1.885	1.880	1.885	1.899	1.895	1.895
-0.005	0.005	0.000	0.000	-0.005	0.005	0.435	2.695	1.880	1.880	1.880	1.899	1.895	1.885
0.005	0.000	-0.005	0.000	0.000	-0.020	0.439	2.686	1.885	1.885	1.880	1.899	1.895	1.885
-0.005	0.005	0.000	0.000	-0.005	-0.029	0.435	2.686	1.885	1.885	1.880	1.899	1.895	1.880
0.005	0.000	0.005	-0.005	0.000	-0.034	0.439	2.705	1.890	1.880	1.885	1.899	1.895	1.885
0.005	0.005	0.000	0.000	-0.005	-0.020	0.435	2.700	1.890	1.885	1.885	1.899	1.895	1.895
0.005	0.005	0.000	0.005	0.000	-0.024	0.439	2.700	1.890	1.885	1.885	1.904	1.899	1.895
0.005	0.000	-0.005	0.000	0.005	0.005	0.439	2.686	1.895	1.890	1.885	1.904	1.899	1.904
-0.005	0.005	0.005	0.000	0.005	0.000	0.435	2.695	1.890	1.890	1.890	1.904	1.899	1.904
0.000	0.010	0.005	0.005	0.005	0.005	0.435	2.681	1.890	1.890	1.885	1.904	1.899	1.904
0.000	-0.005	0.000	0.005	0.005	-0.029	0.439	2.690	1.895	1.890	1.890	1.909	1.899	1.890
0.000	-0.010	0.005	0.010	0.005	-0.005	0.435	2.690	1.895	1.890	1.885	1.909	1.904	1.904
-0.005	-0.005	0.000	0.005	0.010	-0.005	0.435	2.676	1.885	1.890	1.885	1.904	1.899	1.899
0.005	0.000	0.005	0.005	0.010	-0.029	0.430	2.690	1.890	1.885	1.885	1.904	1.899	1.899
-0.005	-0.005	0.000	0.005	0.010	0.000	0.430	2.686	1.885	1.885	1.885	1.904	1.899	1.904
-0.005	-0.005	0.000	0.000	0.005	0.000	0.435	2.686	1.890	1.880	1.880	1.899	1.899	1.899
-0.005	0.020	0.010	-0.005	0.005	-0.010	0.435	2.690	1.890	1.890	1.885	1.904	1.895	1.895
0.000	0.024	-0.005	0.000	0.000	0.015	0.435	2.690	1.885	1.885	1.880	1.899	1.890	1.899
0.000	0.010	0.000	0.000	0.000	-0.005	0.435	2.690	1.885	1.880	1.880	1.899	1.895	1.895
0.005	0.010	0.005	0.005	0.000	0.020	0.439	2.686	1.890	1.880	1.880	1.899	1.895	1.899
0.015	0.010	0.000	0.000	-0.005	0.010	0.435	2.690	1.890	1.885	1.880	1.899	1.895	1.895
0.010	0.015	0.000	0.005	0.000	0.010	0.439	2.695	1.890	1.890	1.885	1.904	1.899	1.895
0.005	0.005	0.005	0.005	0.005	0.005	0.430	2.686	1.890	1.885	1.885	1.899	1.895	1.895
0.010	0.010	0.005	0.005	0.010	-0.005	0.439	2.705	1.895	1.890	1.885	1.904	1.899	1.895
0.005	0.010	0.010	0.000	0.015	0.010	0.430	2.690	1.895	1.890	1.890	1.904	1.904	1.899
0.005	0.000	0.000	0.000	0.015	0.015	0.444	2.686	1.895	1.890	1.885	1.904	1.899	1.899
0.000	0.005	0.005	0.000	0.015	0.020	0.435	2.695	1.895	1.890	1.890	1.904	1.904	1.904
0.005	-0.005	0.005	0.000	0.015	0.029	0.439	2.715	1.899	1.890	1.890	1.909	1.899	1.904
-0.005	0.000	0.000	0.005	0.010	0.005	0.435	2.690	1.890	1.890	1.890	1.909	1.899	1.899
-0.005	0.000	0.000	0.000	0.005	0.015	0.439	2.681	1.895	1.890	1.890	1.904	1.899	1.899
0.000	0.005	0.005	0.000	-0.005	0.024	0.435	2.690	1.890	1.890	1.890	1.904	1.895	1.899
0.000	0.000	0.000	0.005	-0.005	-0.005	0.439	2.817	1.899	1.885	1.885	1.904	1.895	1.890
0.010	-0.005	0.000	0.000	-0.005	-0.029	0.435	2.676	1.895	1.890	1.885	1.899	1.895	1.885
0.000	0.000	0.000	0.000	-0.010	-0.010	0.435	2.690	1.890	1.890	1.885	1.899	1.895	1.890
0.005	-0.005	0.000	0.000	-0.020	-0.010	0.435	2.700	1.885	1.885	1.885	1.899	1.895	1.890
0.000	-0.005	0.000	0.005	0.005	0.000	0.439	2.676	1.885	1.885	1.885	1.904	1.899	1.899
-0.005	-0.005	0.000	0.000	0.024	-0.005	0.430	2.681	1.880	1.885	1.880	1.899	1.904	1.899
0.005	0.010	0.005	0.000	0.024	-0.005	0.435	2.676	1.890	1.890	1.885	1.899	1.904	1.899
0.000	0.000	0.000	0.000	-0.005	0.010	0.435	2.686	1.885	1.885	1.885	1.899	1.895	1.904
0.005	0.000	0.000	0.000	0.005	0.010	0.439	2.690	1.890	1.885	1.885	1.904	1.895	1.899
0.005	-0.005	0.005	0.005	-0.005	0.010	0.435	2.695	1.890	1.885	1.885	1.904	1.895	1.895
0.000	0.000	0.000	0.005	0.000	0.015	0.435	2.681	1.890	1.890	1.885	1.904	1.904	1.904
-0.010	0.005	0.000	0.000	0.000	0.015	0.439	2.686	1.890	1.890	1.890	1.904	1.899	1.899
0.005	0.000	0.005	0.005	-0.005	-0.015	0.430	2.686	1.895	1.895	1.890	1.909	1.904	1.895
0.010	0.000	0.000	0.005	0.000	0.000	0.439	2.690	1.890	1.890	1.890	1.909	1.899	1.895
0.000	0.000	0.000	0.005	-0.010	0.005	0.435	2.695	1.890	1.890	1.890	1.909	1.899	1.899
0.005	0.000	0.005	0.005	-0.024	0.000	0.439	2.686	1.890	1.890	1.890	1.904	1.895	1.899
-0.005	0.000	-0.005	0.005	-0.029	-0.010	0.435	2.661	1.885	1.885	1.885	1.904	1.895	1.890
0.000	0.005	0.000	0.005	-0.010	-0.020	0.435	2.690	1.880	1.885	1.885	1.904	1.899	1.890
0.000	0.000	0.000	0.005	0.005	-0.005	0.425	2.671	1.880	1.880	1.880	1.904	1.904	1.899
-0.005	0.005	0.000	0.005	0.015	-0.005	0.439	2.686	1.885	1.880	1.880	1.899	1.904	1.899
0.000	-0.005	0.000	0.005	0.024	0.000	0.435	2.695	1.885	1.880	1.880	1.899	1.899	1.899
0.000	-0.005	0.000	0.010	0.015	0.005	0.439	2.700	1.885	1.880	1.880	1.899	1.899	1.899
0.005	0.010	0.005	0.000	0.015	0.000	0.435	2.700	1.890	1.885	1.880	1.895	1.895	1.899
0.005	0.010	0.000	0.000	0.005	0.015	0.444	2.695	1.890	1.890	1.880	1.899	1.895	1.899
0.005	0.000	0.000	0.000	0.005	0.010	0.430	2.671	1.885	1.885	1.880	1.899	1.895	1.895
-0.005	0.000	0.005	0.000	-0.005	-0.005	0.439	2.690	1.890	1.890	1.885	1.904	1.895	1.895
0.000	0.005	0.010	0.010	0.005	-0.005	0.435	2.695	1.890	1.890	1.885	1.904	1.899	1.895
0.000	0.010	0.005	0.005	0.005	0.015	0.439	2.690	1.890	1.890	1.890	1.904	1.899	1.904
0.005	0.000	0.005	0.005	0.000	0.020	0.439	2.700	1.895	1.890	1.885	1.904	1.899	1.904
0.000	0.000	0.000	0.000	0.000	0.000	0.444	2.695	1.890	1.885	1.885	1.904	1.899	1.899
0.000	-0.005	0.000	0.000	0.010	0.010	0.435	2.690	1.890	1.885	1.890	1.904	1.899	1.899
0.010	-0.005	0.000	0.000	0.000	-0.024	0.435	2.695	1.890	1.885	1.885	1.904	1.899	1.885
0.000	0.000	0.000	0.000	0.005	-0.005	0.430	2.705	1.890	1.890	1.885	1.899	1.899	1.895
0.000	0.000	0.000	0.000	0.005	-0.010	0.435	2.695	1.890	1.890	1.885	1.904	1.899	1.895
-0.010	0.000	0.000	0.000	0.005	-0.005	0.435	2.700	1.885	1.890	1.885	1.904	1.899	1.895
-0.005	0.015	0.005	-0.005	0.005	-0.005	0.435	2.681	1.880	1.885	1.885	1.899	1.895	1.895
0.000	-0.020	0.000	0.000	0.010	0.005	0.430	2.686	1.880	1.875	1.880	1.899	1.895	1.899
0.005	-0.010	0.000	0.000	0.010	0.005	0.430	2.690	1.885	1.875	1.875	1.899	1.895	1.895
-0.005	0.000	0.000	-0.005	0.010	0.010	0.435	2.695	1.885	1.885	1.880	1.899	1.895	1.895
0.005	0.005	0.005	0.000	0.000	0.015	0.435	2.681	1.885	1.885	1.880	1.899	1.895	1.899
0.000	0.000	0.005	0.000	0.005	0.024	0.435	2.676	1.904	1.885	1.880	1.899	1.895	1.899
0.000	0.000	0.000	0.005	0.000	0.024	0.430	2.695	1.904	1.890	1.885	1.899	1.895	1.899
-0.005	0.000	0.000	0.005	0.000	0.024	0.439	2.690	1.899	1.895	1.885	1.899	1.899	1.899
0.000	0.005	-0.005	0.000	0.000	0.015	0.435	2.671	1.899	1.899	1.890	1.904	1.899	1.899
0.015	0.005	0.000	0.005	-0.005	0.000	0.444	2.686	1.899	1.899	1.890	1.904	1.895	1.890
0.010	0.005	0.000	0.005	-0.005	0.029	0.435	2.686	1.899	1.899	1.895	1.909	1.899	1.899
0.010	0.000	0.005	0.005	-0.005	0.020	0.439	2.695	1.895	1.895	1.895	1.909	1.899	1.895
0.000	0.000	0.005	0.005	-0.024	0.015	0.430	2.690	1.890	1.890	1.890	1.909	1.899	1.899
-0.010	0.005	-0.005	0.005	-0.015	0.015	0.435	2.676	1.885	1.890	1.890	1.909	1.899	1.899
0.000	0.010	0.000	0.005	-0.010	0.005	0.430	2.686	1.885	1.890	1.890	1.909	1.904	1.895
-0.010	0.000	0.000	0.005	-0.010	-0.005	0.439	2.705	1.890	1.885	1.890	1.909	1.904	1.895
0.000	0.005	0.005	0.000	-0.015	-0.005	0.435	2.700	1.890	1.885	1.885	1.904	1.899	1.895
0.010	-0.005	0.000	0.005	-0.015	-0.005	0.439	2.764	1.899	1.885	1.885	1.904	1.895	1.895
0.005	0.024	0.000	0.005	-0.010	-0.010	0.435	2.686	1.895	1.895	1.880	1.904	1.899	1.895
0.005	0.020	0.000	0.005	0.015	-0.010	0.439	2.686	1.885	1.890	1.885	1.904	1.904	1.899
0.005	0.010	0.005	0.005	0.015	-0.010	0.435	2.686	1.890	1.885	1.880	1.904	1.904	1.899
-0.010	0.015	0.000	0.000	0.020	-0.024	0.439	2.666	1.885	1.885	1.880	1.904	1.899	1.895
0.000	0.000	-0.005	0.000	0.015	-0.015	0.430	2.676	1.880	1.880	1.880	1.899	1.899	1.899
0.015	0.005	-0.005	0.000	0.015	-0.015	0.439	2.690	1.890	1.885	1.880	1.899	1.899	1.899
0.000	-0.005	0.000	-0.005	0.000	-0.005	0.435	2.681	1.890	1.880	1.885	1.899	1.895	1.899
0.000	-0.005	0.000	0.000	0.000	-0.005	0.435	2.676	1.890	1.890	1.885	1.904	1.899	1.899
-0.005	-0.005	0.000	0.000	0.020	-0.010	0.435	2.695	1.890	1.885	1.885	1.909	1.904	1.899
0.000	0.000	-0.005	0.010	0.029	-0.010	0.435	2.695	1.890	1.890	1.885	1.904	1.909	1.904
0.005	-0.005	0.005	0.005	0.020	0.034	0.435	2.695	1.890	1.890	1.885	1.904	1.904	1.914
-0.005	-0.015	0.005	0.010	0.005	0.034	0.435	2.695	1.890	1.890	1.885	1.904	1.899	1.909
-0.010	-0.005	0.000	0.010	-0.005	0.010	0.435	2.642	1.899	1.890	1.885	1.904	1.895	1.899
0.000	0.000	0.005	0.005	0.000	0.034	0.439	2.651	1.890	1.890	1.885	1.904	1.895	1.904
-0.005	0.005	0.000	0.000	-0.020	0.029	0.435	2.720	1.895	1.890	1.885	1.899	1.890	1.895
-0.010	-0.005	0.000	-0.005	-0.005	0.000	0.435	2.808	1.880	1.885	1.880	1.899	1.895	1.885
-0.005	-0.005	0.005	-0.005	0.000	0.005	0.439	2.744	1.890	1.880	1.885	1.899	1.895	1.890
0.010	0.000	0.005	0.005	-0.010	-0.015	0.435	2.627	1.880	1.885	1.880	1.899	1.895	1.890
0.000	0.000	0.005	0.000	0.000	-0.010	0.439	2.642	1.875	1.880	1.880	1.899	1.895	1.890
0.005	0.005	0.000	0.005	-0.005	-0.010	0.430	2.739	1.885	1.885	1.880	1.899	1.895	1.890
-0.005	0.005	0.005	0.000	0.005	0.010	0.435	2.725	1.885	1.880	1.880	1.899	1.899	1.899
0.000	0.000	-0.005	0.000	0.005	0.005	0.435	2.642	1.885	1.880	1.880	1.899	1.899	1.899
0.005	-0.005	0.000	0.005	0.005	0.005	0.444	2.632	1.880	1.880	1.880	1.899	1.899	1.899
0.005	-0.005	0.000	-0.005	0.000	0.000	0.430	2.729	1.875	1.880	1.880	1.899	1.895	1.899
0.005	0.000	0.005	0.005	0.000	-0.015	0.435	2.637	1.880	1.885	1.885	1.899	1.899	1.890
-0.015	0.000	0.005	0.000	0.000	-0.010	0.435	2.651	1.875	1.880	1.880	1.904	1.899	1.899
0.000	0.000	0.000	0.005	0.005	0.010	0.435	2.793	1.895	1.885	1.885	1.904	1.899	1.904
-0.010	0.005	0.000	0.000	0.015	0.005	0.430	2.798	1.904	1.890	1.885	1.904	1.899	1.899
0.010	0.000	0.000	-0.005	0.005	0.010	0.435	2.661	1.899	1.890	1.885	1.899	1.895	1.899
-0.005	-0.005	0.005	-0.005	0.005	0.000	0.435	2.715	1.895	1.890	1.885	1.899	1.895	1.895
-0.005	-0.005	0.000	0.005	0.005	0.000	0.439	2.793	1.904	1.890	1.885	1.899	1.895	1.895
0.005	0.005	0.000	0.005	0.005	-0.034	0.435	2.739	1.899	1.895	1.885	1.899	1.890	1.885
0.005	0.000	0.000	0.000	0.000	-0.005	0.435	2.681	1.899	1.890	1.885	1.899	1.895	1.895
0.000	-0.005	-0.005	0.005	0.005	-0.005	0.435	2.754	1.899	1.890	1.885	1.899	1.895	1.895
-0.005	-0.005	0.000	0.000	0.005	0.000	0.439	2.720	1.895	1.890	1.885	1.899	1.895	1.895
0.005	0.000	-0.005	0.005	0.005	-0.029	0.435	2.632	1.885	1.890	1.885	1.904	1.895	1.885
0.005	-0.010	0.005	0.005	0.000	0.005	0.435	2.661	1.880	1.885	1.885	1.904	1.895	1.895
0.005	0.000	0.010	0.000	0.000	-0.005	0.435	2.656	1.885	1.890	1.890	1.904	1.899	1.899
0.000	0.005	0.005	0.000	0.005	0.034	0.435	2.656	1.880	1.885	1.885	1.904	1.899	1.909
0.000	0.005	0.005	0.000	0.000	0.034	0.439	2.681	1.885	1.890	1.890	1.904	1.899	1.909
0.000	0.005	0.000	0.005	0.005	0.034	0.435	2.744	1.890	1.890	1.890	1.904	1.904	1.904
0.010	0.015	0.005	0.000	-0.005	0.029	0.435	2.671	1.895	1.895	1.890	1.909	1.899	1.904
0.005	0.015	0.000	0.005	0.000	0.015	0.430	2.656	1.895	1.890	1.890	1.909	1.904	1.899
0.000	0.000	0.005	0.000	0.005	0.000	0.430	2.705	1.890	1.885	1.890	1.909	1.904	1.895
0.005	0.015	0.005	-0.005	0.010	-0.005	0.435	2.705	1.895	1.890	1.890	1.904	1.904	1.895
-0.005	0.005	0.005	0.000	0.005	0.000	0.430	2.710	1.890	1.885	1.890	1.904	1.904	1.895
0.000	0.005	0.000	0.000	0.005	-0.010	0.435	2.686	1.890	1.885	1.885	1.904	1.899	1.895
-0.005	0.000	0.000	0.005	0.005	-0.005	0.430	2.686	1.890	1.880	1.885	1.904	1.899	1.899
0.000	0.000	0.000	0.010	0.000	-0.005	0.435	2.705	1.890	1.880	1.885	1.904	1.899	1.899
0.000	0.000	0.005	0.015	0.000	-0.010	0.439	2.710	1.890	1.880	1.880	1.904	1.895	1.890
-0.005	0.005	0.000	0.015	0.005	-0.010	0.444	2.695	1.890	1.885	1.880	1.899	1.895	1.895
0.000	0.010	0.005	0.010	0.000	-0.010	0.439	2.690	1.890	1.885	1.880	1.899	1.895	1.899
0.005	0.010	0.005	0.005	-0.005	0.000	0.439	2.686	1.885	1.885	1.880	1.899	1.895	1.899
0.005	0.005	0.000	0.000	-0.005	0.005	0.439	2.695	1.885	1.885	1.880	1.899	1.895	1.899
0.000	0.005	0.005	-0.005	0.005	-0.005	0.435	2.710	1.895	1.890	1.880	1.895	1.899	1.895
0.000	0.005	0.000	-0.005	0.000	0.024	0.439	2.705	1.895	1.885	1.880	1.899	1.895	1.904
0.005	0.005	0.005	-0.010	0.000	0.029	0.435	2.690	1.890	1.890	1.885	1.899	1.899	1.904
0.005	0.005	0.005	-0.005	-0.005	0.029	0.435	2.690	1.895	1.890	1.890	1.904	1.895	1.899
0.000	0.015	0.000	-0.005	0.000	0.020	0.439	2.705	1.895	1.895	1.890	1.904	1.899	1.895
0.000	0.005	0.000	0.000	0.000	-0.015	0.435	2.700	1.895	1.895	1.890	1.904	1.899	1.890
0.000	0.005	0.005	0.000	0.000	0.015	0.435	2.705	1.895	1.895	1.890	1.909	1.904	1.904
0.010	0.005	0.005	0.005	0.000	-0.005	0.435	2.705	1.899	1.895	1.890	1.909	1.904	1.895
0.000	0.005	0.000	0.000	0.000	0.010	0.435	2.700	1.890	1.890	1.885	1.904	1.904	1.895
0.000	-0.005	0.005	0.000	0.000	0.010	0.439	2.700	1.890	1.885	1.885	1.904	1.904	1.899
-0.005	-0.005	-0.005	0.005	0.010	0.000	0.435	2.690	1.885	1.885	1.885	1.904	1.904	1.895
-0.005	-0.005	0.000	0.000	0.010	-0.005	0.444	2.695	1.885	1.885	1.885	1.899	1.899	1.899
0.005	-0.010	0.005	0.005	0.005	-0.029	0.435	2.812	1.904	1.885	1.880	1.899	1.895	1.890
0.005	-0.010	0.005	0.010	0.000	-0.024	0.435	2.803	1.909	1.890	1.885	1.899	1.895	1.890
0.000	0.010	-0.005	0.005	0.015	0.000	0.435	2.661	1.895	1.895	1.885	1.899	1.899	1.899
0.010	0.005	0.005	0.005	0.010	0.010	0.430	2.710	1.899	1.895	1.890	1.899	1.895	1.899
0.005	-0.005	0.000	0.000	0.005	0.029	0.439	2.642	1.895	1.895	1.890	1.904	1.899	1.909
0.000	0.005	0.005	0.005	-0.010	0.020	0.430	2.744	1.899	1.895	1.890	1.904	1.895	1.899
-0.005	-0.010	0.000	0.000	-0.015	0.005	0.439	2.686	1.895	1.890	1.890	1.904	1.895	1.895
0.000	-0.015	0.000	0.000	-0.010	-0.005	0.425	2.749	1.904	1.895	1.895	1.909	1.899	1.895
-0.005	-0.005	0.000	0.000	-0.015	-0.005	0.439	2.734	1.904	1.899	1.899	1.909	1.899	1.895
0.000	0.005	0.005	0.005	-0.010	0.005	0.439	2.739	1.909	1.904	1.899	1.914	1.904	1.904
0.010	0.005	0.005	0.000	0.000	0.015	0.439	2.646	1.899	1.899	1.899	1.919	1.909	1.909
0.000	-0.010	0.005	0.000	0.015	0.000	0.435	2.637	1.890	1.895	1.899	1.919	1.914	1.904
0.005	0.000	0.000	0.000	0.020	-0.005	0.439	2.705	1.895	1.895	1.895	1.914	1.914	1.904
0.010	-0.010	0.005	-0.005	0.015	0.005	0.430	2.681	1.895	1.890	1.890	1.914	1.909	1.909
0.000	-0.010	-0.005	0.000	0.034	-0.005	0.435	2.744	1.895	1.890	1.890	1.914	1.914	1.909
-0.005	0.000	0.000	0.000	0.034	-0.010	0.435	2.676	1.890	1.895	1.890	1.909	1.909	1.909
-0.005	0.010	-0.005	0.000	0.000	0.000	0.439	2.637	1.885	1.895	1.890	1.904	1.895	1.904
-0.005	0.015	0.005	0.000	-0.039	0.010	0.435	2.705	1.885	1.890	1.885	1.904	1.885	1.899
0.000	0.005	0.000	0.000	-0.029	0.000	0.439	2.681	1.885	1.885	1.885	1.904	1.895	1.895
-0.005	-0.005	0.000	0.005	0.015	0.010	0.435	2.690	1.885	1.880	1.885	1.904	1.909	1.904
0.000	0.005	0.000	0.000	0.020	0.000	0.439	2.700	1.890	1.885	1.885	1.904	1.909	1.899
0.005	0.000	0.000	0.005	0.005	-0.020	0.439	2.695	1.890	1.885	1.880	1.909	1.904	1.895
0.010	0.005	0.000	0.000	0.000	-0.005	0.444	2.686	1.890	1.885	1.885	1.904	1.899	1.899
0.005	0.000	0.000	0.000	-0.005	0.005	0.444	2.710	1.895	1.890	1.885	1.904	1.899	1.899
0.000	0.000	0.000	0.000	-0.015	0.010	0.430	2.695	1.895	1.890	1.890	1.909	1.899	1.909
0.000	0.005	0.005	0.000	-0.020	0.015	0.439	2.705	1.899	1.895	1.890	1.904	1.899	1.899
0.010	-0.005	0.005	0.005	-0.005	0.024	0.439	2.690	1.899	1.890	1.895	1.909	1.904	1.909
-0.005	0.000	0.005	0.000	0.005	0.015	0.430	2.686	1.890	1.890	1.890	1.909	1.909	1.904
0.000	0.000	0.005	0.005	0.005	0.005	0.439	2.695	1.899	1.895	1.890	1.909	1.904	1.899
0.000	-0.005	0.000	0.010	0.000	-0.005	0.439	2.705	1.899	1.895	1.890	1.909	1.904	1.899
0.005	-0.005	0.000	0.010	0.010	-0.020	0.439	2.681	1.890	1.890	1.890	1.909	1.904	1.899
-0.005	0.000	0.000	0.005	0.010	-0.024	0.439	2.676	1.885	1.890	1.890	1.909	1.904	1.895
0.000	0.005	0.000	0.005	0.010	-0.015	0.435	2.690	1.890	1.890	1.890	1.904	1.904	1.899
-0.005	0.005	-0.005	0.005	0.005	-0.010	0.439	2.681	1.890	1.885	1.885	1.904	1.899	1.899
-0.010	0.010	0.005	0.000	0.010	-0.010	0.430	2.690	1.890	1.885	1.885	1.904	1.899	1.895
-0.005	0.005	0.005	0.010	0.005	-0.024	0.435	2.690	1.890	1.885	1.885	1.904	1.899	1.895
0.000	0.005	0.005	0.005	0.005	-0.015	0.430	2.705	1.890	1.885	1.880	1.899	1.899	1.895
0.005	0.000	0.000	0.000	0.010	0.010	0.435	2.705	1.895	1.890	1.885	1.899	1.899	1.904
0.000	0.000	0.005	0.000	0.010	0.010	0.430	2.695	1.890	1.885	1.885	1.904	1.899	1.904
0.000	-0.010	0.005	0.000	0.000	0.010	0.435	2.700	1.895	1.885	1.885	1.904	1.899	1.904
0.005	-0.010	0.000	-0.005	0.000	0.015	0.439	2.803	1.909	1.895	1.890	1.904	1.899	1.899
0.005	0.005	0.005	-0.005	0.000	0.000	0.439	2.808	1.919	1.904	1.895	1.904	1.899	1.899
0.005	0.000	0.005	0.000	0.010	0.024	0.439	2.666	1.909	1.904	1.895	1.909	1.904	1.909
0.000	0.010	0.000	0.000	0.000	0.015	0.439	2.720	1.909	1.909	1.899	1.914	1.904	1.899
0.000	0.029	0.000	0.000	0.000	0.024	0.435	2.700	1.914	1.914	1.899	1.919	1.909	1.909
0.010	0.010	0.005	0.005	0.010	0.024	0.439	2.734	1.909	1.904	1.904	1.919	1.909	1.904
0.000	0.005	0.000	0.000	-0.005	-0.005	0.435	2.676	1.904	1.904	1.904	1.914	1.904	1.899
0.000	0.000	0.000	0.005	0.010	0.000	0.430	2.744	1.890	1.899	1.899	1.914	1.909	1.899
0.010	0.010	0.005	0.000	0.000	0.000	0.435	2.734	1.899	1.895	1.899	1.919	1.909	1.899
0.005	0.000	0.005	0.000	-0.005	0.000	0.439	2.725	1.890	1.890	1.895	1.914	1.904	1.899
0.000	0.005	0.000	0.005	0.000	-0.029	0.435	2.739	1.895	1.890	1.895	1.909	1.904	1.895
0.000	-0.005	0.005	0.005	0.000	0.000	0.435	2.646	1.890	1.890	1.890	1.909	1.904	1.899
0.005	-0.005	0.000	0.005	0.005	0.000	0.430	2.744	1.895	1.890	1.890	1.909	1.909	1.904
0.010	0.005	0.010	0.000	0.000	0.010	0.435	2.681	1.895	1.890	1.890	1.909	1.904	1.904
0.000	0.005	0.000	0.000	0.000	-0.015	0.439	2.739	1.895	1.895	1.890	1.909	1.904	1.899
0.000	-0.005	0.000	0.005	0.000	0.000	0.439	2.686	1.895	1.890	1.890	1.909	1.909	1.909
0.000	-0.005	0.005	0.000	-0.005	0.005	0.435	2.651	1.895	1.890	1.890	1.909	1.904	1.904
0.010	-0.005	0.005	0.000	-0.005	0.020	0.439	2.715	1.899	1.895	1.890	1.909	1.904	1.909
0.015	0.000	0.010	0.000	-0.020	0.010	0.439	2.700	1.899	1.899	1.895	1.914	1.904	1.904
0.000	0.010	0.000	0.000	-0.005	-0.015	0.439	2.695	1.899	1.899	1.899	1.914	1.909	1.904
-0.005	0.015	0.005	0.005	0.005	0.000	0.444	2.705	1.899	1.899	1.895	1.914	1.909	1.909
-0.005	0.015	0.000	0.000	0.005	0.010	0.439	2.690	1.895	1.895	1.895	1.914	1.914	1.914
0.000	0.015	-0.005	0.005	0.005	0.020	0.439	2.681	1.895	1.895	1.895	1.914	1.909	1.909
0.005	0.005	0.000	0.010	0.010	0.015	0.439	2.671	1.895	1.895	1.895	1.909	1.909	1.909
0.005	0.005	0.000	0.005	0.010	0.015	0.444	2.686	1.885	1.890	1.895	1.909	1.904	1.909
-0.010	0.005	0.000	0.000	0.010	0.005	0.430	2.705	1.890	1.885	1.890	1.909	1.904	1.904
0.000	0.000	0.005	-0.005	0.015	0.005	0.439	2.705	1.890	1.880	1.885	1.909	1.904	1.904
0.005	0.005	0.000	0.000	0.000	-0.005	0.435	2.681	1.885	1.885	1.885	1.904	1.899	1.899
0.005	0.000	0.005	0.005	0.010	-0.024	0.439	2.695	1.890	1.880	1.885	1.904	1.899	1.895
-0.005	-0.005	0.000	0.000	0.005	0.010	0.430	2.700	1.890	1.885	1.880	1.899	1.899	1.904
0.010	0.005	0.005	0.000	0.000	0.015	0.435	2.690	1.895	1.885	1.885	1.899	1.899	1.904
0.005	0.000	0.000	0.000	0.000	0.005	0.425	2.686	1.895	1.890	1.885	1.904	1.895	1.899
0.000	0.000	0.005	0.000	0.005	0.000	0.435	2.710	1.899	1.895	1.890	1.904	1.899	1.899
0.005	-0.005	0.005	-0.005	0.000	0.000	0.435	2.690	1.895	1.890	1.890	1.904	1.899	1.904
0.005	-0.005	-0.005	0.000	-0.005	-0.010	0.439	2.686	1.895	1.895	1.890	1.909	1.899	1.899
0.000	0.000	0.000	-0.005	0.000	0.000	0.425	2.686	1.895	1.895	1.895	1.909	1.904	1.904
0.000	-0.005	0.000	0.000	0.000	-0.015	0.435	2.715	1.895	1.895	1.890	1.909	1.904	1.899
0.005	-0.005	0.005	0.000	0.005	-0.005	0.435	2.695	1.895	1.895	1.895	1.909	1.904	1.904
0.000	0.010	0.000	0.000	0.000	0.010	0.435	2.686	1.890	1.895	1.895	1.909	1.904	1.909
0.000	0.000	-0.005	-0.005	0.000	0.015	0.430	2.690	1.895	1.890	1.895	1.914	1.904	1.904
0.005	0.005	0.000	-0.005	0.000	0.010	0.430	2.803	1.904	1.890	1.890	1.909	1.904	1.899
0.000	0.000	0.000	0.000	0.000	0.015	0.435	2.788	1.909	1.895	1.890	1.909	1.904	1.904
0.010	0.000	0.000	0.000	0.005	0.000	0.435	2.656	1.904	1.895	1.895	1.909	1.904	1.899
-0.005	0.005	0.005	0.005	0.005	-0.015	0.435	2.715	1.899	1.895	1.895	1.909	1.899	1.890
-0.005	0.000	0.000	0.005	0.000	0.000	0.435	2.651	1.899	1.895	1.890	1.909	1.899	1.899
-0.005	0.000	0.000	0.010	0.005	0.000	0.435	2.749	1.904	1.895	1.890	1.909	1.904	1.899
0.005	0.005	0.005	0.015	0.005	0.000	0.430	2.700	1.904	1.895	1.895	1.909	1.904	1.899
0.005	0.000	0.005	0.010	0.010	-0.005	0.435	2.661	1.899	1.895	1.895	1.909	1.904	1.895
0.000	0.005	0.000	0.005	0.010	0.010	0.430	2.729	1.899	1.899	1.895	1.909	1.904	1.909
0.010	0.000	0.005	0.005	0.000	0.005	0.444	2.739	1.904	1.899	1.895	1.909	1.904	1.904
0.005	0.000	0.005	0.000	0.000	0.015	0.435	2.642	1.895	1.899	1.895	1.909	1.909	1.909
0.000	0.005	0.000	-0.005	0.005	0.005	0.439	2.749	1.904	1.899	1.899	1.914	1.909	1.904
0.005	0.000	0.005	-0.005	0.000	0.015	0.439	2.754	1.909	1.904	1.899	1.914	1.909	1.909
-0.005	0.005	0.000	-0.005	0.000	0.005	0.439	2.671	1.899	1.899	1.899	1.914	1.909	1.904
0.010	0.000	0.005	0.000	-0.005	-0.020	0.430	2.651	1.899	1.899	1.899	1.919	1.909	1.904
0.005	0.000	-0.005	0.000	0.005	0.000	0.435	2.681	1.895	1.899	1.895	1.919	1.914	1.909
-0.005	-0.005	0.000	0.005	0.005	0.000	0.435	2.627	1.880	1.895	1.895	1.914	1.914	1.909
0.000	0.020	0.000	0.005	0.005	-0.024	0.430	2.671	1.880	1.890	1.895	1.914	1.909	1.899
0.000	0.010	0.000	0.000	0.005	0.005	0.435	2.686	1.880	1.885	1.890	1.909	1.909	1.914
0.000	0.000	0.000	0.005	0.005	0.005	0.435	2.700	1.885	1.880	1.885	1.909	1.904	1.904
-0.015	-0.010	0.000	0.005	-0.005	0.034	0.439	2.705	1.890	1.880	1.880	1.909	1.909	1.914
0.005	0.000	0.000	0.010	0.000	0.029	0.439	2.681	1.890	1.885	1.885	1.904	1.904	1.909
-0.005	-0.005	0.000	0.005	0.005	0.010	0.435	2.690	1.890	1.885	1.880	1.904	1.904	1.904
0.005	0.000	0.000	0.005	0.005	-0.005	0.430	2.681	1.890	1.890	1.880	1.899	1.899	1.899
0.005	0.005	0.005	0.005	0.000	0.005	0.435	2.690	1.890	1.890	1.885	1.899	1.899	1.899
0.005	0.005	0.005	0.000	0.005	-0.015	0.430	2.700	1.895	1.890	1.885	1.904	1.904	1.895
0.005	0.005	0.005	0.005	-0.005	-0.034	0.435	2.720	1.899	1.895	1.890	1.904	1.899	1.890
0.000	0.015	0.000	0.005	-0.005	0.000	0.439	2.686	1.890	1.895	1.890	1.909	1.904	1.904
0.005	0.020	0.005	0.000	0.000	0.000	0.439	2.700	1.899	1.895	1.890	1.904	1.904	1.904
0.000	-0.015	0.005	0.005	0.000	0.020	0.435	2.705	1.899	1.890	1.890	1.909	1.904	1.909
0.005	-0.010	0.000	0.000	-0.010	0.024	0.439	2.705	1.899	1.890	1.890	1.904	1.904	1.909
0.005	-0.005	0.005	-0.005	0.000	0.020	0.435	2.681	1.895	1.895	1.895	1.904	1.904	1.909
0.005	-0.010	0.000	0.000	0.000	0.039	0.439	2.676	1.895	1.895	1.890	1.909	1.904	1.909
-0.005	-0.005	0.005	0.000	0.005	0.039	0.439	2.690	1.895	1.895	1.890	1.909	1.904	1.909
0.005	-0.005	0.000	0.000	0.005	0.015	0.439	2.686	1.895	1.890	1.885	1.904	1.899	1.899
-0.005	-0.010	0.000	0.005	0.000	0.000	0.430	2.686	1.890	1.890	1.885	1.904	1.899	1.895
0.005	0.005	0.005	0.005	0.010	-0.010	0.435	2.700	1.890	1.890	1.890	1.909	1.904	1.895
0.010	0.024	0.005	0.000	0.005	-0.005	0.439	2.715	1.890	1.895	1.890	1.904	1.904	1.895
-0.005	0.015	0.005	0.000	0.015	0.000	0.444	2.695	1.885	1.890	1.890	1.904	1.904	1.899
0.005	0.015	0.000	0.005	0.015	-0.005	0.439	2.695	1.895	1.890	1.885	1.904	1.899	1.899
0.000	0.020	0.005	0.000	0.010	-0.005	0.435	2.822	1.904	1.890	1.885	1.904	1.899	1.895
0.000	0.010	0.000	-0.005	0.010	-0.010	0.439	2.808	1.914	1.895	1.890	1.904	1.899	1.895
-0.005	0.000	0.000	-0.005	0.000	-0.010	0.439	2.671	1.909	1.899	1.895	1.904	1.899	1.899
-0.010	-0.015	0.000	-0.005	-0.005	-0.039	0.435	2.729	1.904	1.895	1.895	1.909	1.899	1.890
0.000	-0.015	0.005	0.000	-0.005	-0.005	0.444	2.666	1.899	1.895	1.895	1.909	1.899	1.899
0.000	0.000	0.000	-0.005	0.000	-0.029	0.439	2.749	1.904	1.904	1.895	1.909	1.904	1.899
0.010	0.000	0.000	0.000	0.010	-0.005	0.435	2.700	1.904	1.904	1.899	1.914	1.909	1.909
0.000	0.000	0.000	0.005	0.010	0.000	0.435	2.651	1.899	1.904	1.899	1.919	1.909	1.909
0.005	0.000	0.005	0.000	0.005	0.010	0.435	2.734	1.899	1.899	1.899	1.919	1.909	1.909
0.005	0.005	0.000	0.000	0.010	0.005	0.430	2.720	1.899	1.904	1.899	1.914	1.909	1.909
0.005	0.005	0.000	0.000	0.005	-0.005	0.435	2.632	1.890	1.895	1.895	1.914	1.909	1.904
0.005	0.010	0.005	0.005	0.005	0.005	0.435	2.729	1.895	1.895	1.895	1.914	1.909	1.909
0.000	-0.010	0.000	0.005	0.005	0.000	0.439	2.725	1.885	1.885	1.890	1.914	1.909	1.909
-0.005	0.000	0.000	0.005	0.005	0.015	0.430	2.676	1.885	1.885	1.890	1.909	1.909	1.909
-0.005	0.000	0.000	0.010	0.010	-0.010	0.435	2.744	1.890	1.885	1.885	1.909	1.909	1.904
-0.005	0.010	0.000	0.005	0.000	0.015	0.435	2.690	1.895	1.885	1.885	1.909	1.904	1.909
-0.005	0.000	0.000	0.010	-0.020	-0.020	0.435	2.749	1.895	1.885	1.885	1.904	1.895	1.895
0.000	0.005	0.000	0.010	-0.020	0.005	0.439	2.700	1.895	1.890	1.885	1.904	1.899	1.904
0.005	0.005	0.000	0.005	-0.015	-0.005	0.430	2.700	1.895	1.890	1.885	1.904	1.899	1.899
0.005	0.000	0.000	0.000	-0.005	-0.020	0.435	2.710	1.899	1.895	1.885	1.904	1.904	1.899
0.000	0.000	-0.005	-0.005	0.000	-0.020	0.435	2.700	1.899	1.895	1.890	1.904	1.904	1.899
0.005	0.000	0.000	0.005	0.005	-0.005	0.439	2.700	1.899	1.895	1.890	1.909	1.909	1.909
0.005	0.005	0.005	0.000	0.005	-0.010	0.425	2.705	1.899	1.899	1.895	1.909	1.909	1.909
0.005	-0.005	0.005	0.000	0.005	-0.005	0.430	2.710	1.904	1.895	1.899	1.914	1.909	1.909
0.005	0.015	0.005	0.000	0.010	0.015	0.435	2.695	1.899	1.904	1.899	1.914	1.909	1.914
0.000	0.015	0.010	0.000	0.010	0.024	0.435	2.705	1.899	1.899	1.895	1.914	1.909	1.914
0.005	0.010	0.010	0.000	0.005	0.020	0.439	2.720	1.899	1.899	1.895	1.914	1.909	1.909
0.000	0.010	0.005	0.000	0.015	0.029	0.435	2.710	1.895	1.895	1.895	1.914	1.909	1.909
-0.005	-0.010	0.000	0.000	0.010	0.015	0.435	2.700	1.899	1.890	1.890	1.909	1.909	1.904
-0.005	0.005	-0.005	0.000	0.010	0.010	0.430	2.705	1.895	1.890	1.890	1.909	1.904	1.904
-0.005	-0.005	0.000	0.000	0.000	0.000	0.435	2.705	1.895	1.890	1.885	1.909	1.899	1.899
0.005	0.005	0.000	0.000	-0.015	0.005	0.435	2.705	1.895	1.890	1.890	1.909	1.899	1.899
0.005	0.000	-0.005	-0.005	-0.005	0.000	0.435	2.681	1.890	1.890	1.885	1.904	1.899	1.899
-0.005	-0.005	0.000	-0.005	-0.005	-0.020	0.435	2.710	1.895	1.890	1.890	1.904	1.899	1.895
0.000	-0.005	0.000	0.000	-0.005	-0.010	0.430	2.710	1.899	1.890	1.890	1.909	1.904	1.899
0.005	0.005	0.005	0.005	0.005	0.000	0.439	2.690	1.899	1.895	1.895	1.909	1.909	1.904
0.005	0.005	0.005	-0.005	0.005	0.000	0.430	2.710	1.904	1.899	1.895	1.909	1.909	1.904
-0.005	0.000	0.000	0.000	0.005	0.005	0.435	2.690	1.899	1.895	1.895	1.914	1.909	1.909
0.000	0.000	0.005	0.000	0.005	0.015	0.430	2.686	1.899	1.899	1.895	1.909	1.909	1.909
0.000	-0.005	0.005	0.005	0.000	-0.024	0.435	2.695	1.899	1.895	1.895	1.914	1.904	1.895
-0.005	-0.005	0.000	0.005	0.005	-0.015	0.430	2.812	1.909	1.899	1.895	1.914	1.909	1.904
0.000	0.005	0.000	0.000	0.010	0.000	0.435	2.788	1.919	1.909	1.899	1.914	1.909	1.909
0.000	0.000	0.000	0.005	0.005	-0.015	0.435	2.666	1.909	1.904	1.899	1.914	1.909	1.904
0.000	0.005	0.005	0.010	0.005	-0.010	0.430	2.715	1.899	1.899	1.899	1.919	1.909	1.909
-0.005	0.010	0.005	0.000	0.000	-0.005	0.439	2.656	1.909	1.904	1.899	1.914	1.909	1.909
-0.005	0.005	0.005	0.000	0.000	0.005	0.435	2.729	1.904	1.899	1.899	1.914	1.909	1.909
0.000	-0.005	0.000	0.000	0.005	0.024	0.444	2.681	1.904	1.899	1.899	1.914	1.909	1.914
0.000	0.000	0.000	0.000	0.000	0.034	0.430	2.651	1.895	1.890	1.890	1.909	1.904	1.909
0.000	0.000	0.000	0.000	0.005	0.029	0.444	2.729	1.895	1.895	1.890	1.909	1.904	1.909
0.005	0.000	0.000	0.000	0.005	0.024	0.435	2.651	1.890	1.890	1.895	1.909	1.904	1.909
-0.005	0.000	0.005	0.005	0.005	0.020	0.435	2.739	1.899	1.895	1.890	1.914	1.909	1.904
-0.005	0.000	0.000	0.000	0.000	0.005	0.430	2.651	1.895	1.895	1.890	1.909	1.904	1.904
0.010	0.000	0.000	0.005	0.000	0.024	0.439	2.744	1.904	1.895	1.895	1.909	1.904	1.909
0.010	0.000	0.000	0.000	-0.010	0.015	0.430	2.671	1.899	1.899	1.895	1.914	1.904	1.904
0.000	0.000	0.000	-0.005	-0.020	0.000	0.439	2.759	1.904	1.899	1.895	1.914	1.904	1.899
0.000	-0.005	0.005	0.010	-0.024	-0.020	0.430	2.666	1.899	1.899	1.895	1.919	1.904	1.899
0.005	0.005	0.005	0.005	-0.015	-0.024	0.435	2.646	1.895	1.899	1.899	1.919	1.909	1.899
0.005	-0.005	0.000	0.000	-0.005	-0.044	0.430	2.700	1.895	1.895	1.895	1.914	1.914	1.895
0.005	-0.005	0.000	0.000	0.000	-0.005	0.435	2.705	1.895	1.895	1.899	1.919	1.914	1.909
0.000	0.000	0.000	-0.010	0.005	0.000	0.430	2.710	1.895	1.899	1.895	1.909	1.914	1.914
-0.005	0.005	0.000	-0.005	0.010	-0.020	0.444	2.695	1.899	1.895	1.895	1.914	1.909	1.909
-0.005	0.000	0.000	0.000	0.000	0.000	0.430	2.710	1.890	1.890	1.890	1.914	1.909	1.914
0.005	0.000	0.000	0.005	0.015	-0.005	0.439	2.710	1.899	1.890	1.890	1.909	1.909	1.909
0.000	0.005	0.000	0.010	0.020	-0.005	0.430	2.700	1.895	1.895	1.890	1.909	1.909	1.909
-0.005	0.000	0.000	0.010	0.020	-0.015	0.439	2.686	1.890	1.890	1.890	1.909	1.909	1.909
0.000	0.010	0.005	0.010	0.015	0.000	0.430	2.690	1.890	1.890	1.890	1.909	1.904	1.909
0.005	0.005	0.000	0.005	0.010	-0.005	0.439	2.705	1.895	1.890	1.890	1.909	1.904	1.904
0.005	0.005	0.000	0.005	0.010	0.005	0.435	2.690	1.890	1.885	1.890	1.909	1.904	1.909
0.005	0.005	0.000	-0.005	0.000	-0.024	0.444	2.695	1.899	1.895	1.890	1.904	1.899	1.899
0.005	0.015	-0.005	0.000	0.000	0.024	0.435	2.710	1.899	1.895	1.895	1.909	1.904	1.914
0.000	-0.015	0.005	0.000	0.000	0.015	0.439	2.705	1.899	1.890	1.895	1.909	1.904	1.904
0.000	-0.010	0.000	-0.005	-0.005	0.039	0.435	2.690	1.899	1.890	1.895	1.909	1.904	1.914
0.005	0.000	0.005	0.000	-0.005	0.024	0.439	2.710	1.904	1.895	1.895	1.914	1.904	1.904
-0.005	0.000	0.005	0.005	0.015	0.010	0.435	2.690	1.904	1.899	1.895	1.919	1.909	1.904
-0.005	0.010	0.005	0.005	0.010	0.024	0.435	2.690	1.899	1.904	1.899	1.914	1.909	1.909
-0.005	0.020	0.005	0.005	0.010	0.005	0.439	2.690	1.899	1.904	1.899	1.914	1.909	1.904
-0.005	-0.005	0.000	0.005	0.000	0.005	0.430	2.710	1.899	1.895	1.895	1.914	1.909	1.904
-0.005	0.005	0.000	0.005	0.000	-0.029	0.439	2.710	1.895	1.890	1.895	1.909	1.904	1.895
-0.005	0.005	0.005	0.005	0.005	0.015	0.439	2.700	1.895	1.895	1.890	1.909	1.904	1.904
0.005	0.015	0.005	0.005	0.005	-0.005	0.435	2.700	1.890	1.890	1.890	1.909	1.904	1.904
0.000	0.005	0.000	0.000	-0.005	0.010	0.435	2.812	1.904	1.890	1.885	1.904	1.899	1.904
0.000	0.005	0.005	0.005	-0.005	0.010	0.439	2.793	1.914	1.895	1.890	1.909	1.899	1.904
0.000	0.000	0.000	0.015	0.000	0.010	0.435	2.666	1.904	1.895	1.890	1.909	1.904	1.904
-0.005	0.000	0.000	0.000	0.000	0.005	0.439	2.715	1.899	1.899	1.890	1.904	1.904	1.904
0.005	0.000	0.000	0.000	-0.005	-0.005	0.435	2.646	1.895	1.899	1.890	1.909	1.904	1.899
-0.005	0.000	0.005	0.005	-0.005	-0.020	0.444	2.744	1.899	1.899	1.895	1.909	1.904	1.899
0.000	0.000	0.000	0.005	-0.005	-0.005	0.430	2.690	1.904	1.904	1.895	1.909	1.909	1.899
0.000	0.000	0.000	0.005	0.000	-0.034	0.435	2.676	1.895	1.899	1.899	1.909	1.909	1.895
0.005	0.010	0.000	0.000	0.005	-0.020	0.430	2.734	1.904	1.904	1.899	1.914	1.909	1.904
0.010	0.000	0.000	0.000	0.000	-0.005	0.435	2.734	1.904	1.899	1.899	1.919	1.909	1.914
-0.005	0.000	0.005	0.000	0.005	-0.005	0.435	2.642	1.895	1.899	1.899	1.919	1.914	1.909
0.005	0.000	0.005	0.000	0.005	-0.015	0.435	2.637	1.890	1.899	1.895	1.914	1.914	1.904
0.000	-0.005	-0.005	0.000	0.005	0.010	0.430	2.651	1.885	1.890	1.895	1.914	1.914	1.914
-0.005	-0.010	0.005	0.000	0.010	0.015	0.425	2.651	1.885	1.890	1.890	1.914	1.909	1.914
0.005	0.010	0.000	0.000	0.000	0.000	0.439	2.656	1.890	1.895	1.890	1.914	1.909	1.909
0.005	0.000	0.005	0.000	0.000	0.000	0.439	2.690	1.890	1.885	1.890	1.909	1.904	1.904
0.000	0.005	0.005	-0.005	0.000	0.005	0.435	2.632	1.885	1.890	1.885	1.904	1.904	1.904
0.005	-0.005	0.000	0.000	0.005	-0.005	0.439	2.676	1.880	1.880	1.880	1.904	1.904	1.904
0.000	0.000	0.000	-0.005	0.000	-0.010	0.435	2.695	1.890	1.885	1.880	1.899	1.899	1.899
-0.005	0.005	0.000	-0.005	0.000	-0.005	0.435	2.700	1.890	1.885	1.885	1.899	1.899	1.904
-0.005	-0.005	0.000	0.005	0.015	-0.005	0.439	2.710	1.895	1.890	1.885	1.899	1.904	1.904
0.015	0.005	0.005	0.005	0.005	0.005	0.435	2.681	1.899	1.890	1.890	1.904	1.899	1.904
0.000	0.010	0.005	0.000	-0.010	0.015	0.435	2.715	1.895	1.890	1.885	1.904	1.895	1.904
0.010	0.000	0.000	0.005	-0.024	0.015	0.435	2.710	1.899	1.895	1.890	1.904	1.895	1.904
0.000	-0.005	0.000	0.005	-0.020	0.024	0.444	2.690	1.899	1.895	1.890	1.909	1.899	1.904
0.000	-0.005	0.000	0.000	-0.010	0.034	0.425	2.705	1.899	1.899	1.890	1.909	1.904	1.904
0.000	-0.010	-0.005	0.000	0.000	0.010	0.435	2.695	1.899	1.895	1.895	1.909	1.909	1.904
0.000	0.000	0.000	0.015	0.020	0.015	0.435	2.686	1.899	1.899	1.895	1.909	1.909	1.904
0.000	0.000	-0.005	0.000	0.024	-0.005	0.439	2.700	1.899	1.899	1.895	1.909	1.909	1.904
0.000	0.000	0.005	0.005	0.015	0.015	0.435	2.710	1.899	1.895	1.895	1.909	1.909	1.904
0.005	0.000	0.005	-0.005	0.010	-0.015	0.444	2.686	1.895	1.895	1.895	1.909	1.904	1.895
0.000	-0.005	0.000	0.000	0.000	0.010	0.435	2.686	1.890	1.890	1.890	1.909	1.899	1.904
0.005	0.005	0.000	-0.005	0.010	-0.005	0.439	2.700	1.895	1.890	1.890	1.909	1.904	1.899
-0.005	0.010	0.005	-0.005	0.010	0.005	0.435	2.690	1.890	1.890	1.890	1.909	1.904	1.904
0.000	0.000	0.000	0.000	0.010	0.010	0.439	2.700	1.890	1.885	1.885	1.904	1.899	1.899
0.010	0.010	0.000	0.005	0.010	-0.005	0.439	2.695	1.890	1.885	1.890	1.909	1.899	1.899
-0.005	0.005	0.000	0.000	0.005	-0.010	0.430	2.710	1.890	1.885	1.885	1.904	1.895	1.895
0.000	0.010	0.000	0.005	0.000	-0.010	0.435	2.705	1.890	1.890	1.885	1.904	1.899	1.899
0.015	0.000	0.005	0.005	0.000	-0.005	0.439	2.686	1.890	1.890	1.890	1.904	1.899	1.899
0.005	0.005	-0.005	0.000	0.000	-0.015	0.439	2.695	1.890	1.890	1.885	1.904	1.899	1.899
0.005	0.000	0.005	0.000	-0.005	0.005	0.439	2.808	1.904	1.890	1.890	1.909	1.899	1.904
-0.005	0.000	0.005	0.000	0.005	0.010	0.435	2.788	1.914	1.899	1.890	1.909	1.904	1.904
0.005	0.005	0.005	0.005	0.010	-0.020	0.430	2.661	1.909	1.904	1.895	1.914	1.904	1.899
0.005	0.000	0.005	0.005	0.000	-0.005	0.435	2.729	1.909	1.899	1.895	1.914	1.904	1.904
0.000	-0.005	0.000	0.010	-0.005	0.015	0.435	2.651	1.899	1.899	1.899	1.914	1.904	1.909
0.000	-0.005	0.000	0.005	0.005	0.005	0.444	2.749	1.899	1.899	1.895	1.909	1.904	1.904
-0.005	-0.005	0.000	0.010	0.000	-0.020	0.435	2.700	1.895	1.899	1.895	1.909	1.904	1.899
0.000	0.005	0.000	0.000	0.005	0.010	0.435	2.622	1.885	1.895	1.895	1.909	1.909	1.909
0.000	0.000	0.000	0.000	0.000	0.000	0.435	2.725	1.885	1.890	1.890	1.909	1.904	1.899
-0.005	-0.005	0.005	0.005	-0.015	0.015	0.430	2.725	1.890	1.885	1.890	1.909	1.899	1.904
0.000	0.000	0.000	0.000	-0.029	0.005	0.430	2.637	1.880	1.890	1.885	1.909	1.895	1.895
-0.005	0.000	0.005	0.000	-0.020	0.020	0.439	2.759	1.890	1.885	1.885	1.909	1.899	1.904
0.000	-0.005	0.005	0.005	-0.010	-0.005	0.435	2.671	1.895	1.885	1.885	1.909	1.904	1.899
0.005	0.000	0.000	0.005	0.000	0.010	0.439	2.661	1.895	1.890	1.885	1.904	1.904	1.904
0.005	0.000	0.005	0.010	0.005	-0.005	0.430	2.651	1.890	1.890	1.885	1.904	1.904	1.899
0.000	0.005	0.000	-0.005	0.010	0.010	0.439	2.681	1.890	1.890	1.885	1.904	1.909	1.904
0.005	0.005	0.000	-0.005	0.000	-0.010	0.430	2.646	1.890	1.890	1.885	1.899	1.899	1.899
0.010	0.005	0.005	-0.005	0.010	0.015	0.435	2.705	1.895	1.890	1.890	1.904	1.904	1.909
-0.005	0.000	0.000	0.000	0.005	0.015	0.430	2.686	1.895	1.895	1.890	1.909	1.904	1.904
0.000	0.005	-0.005	0.010	0.015	-0.010	0.435	2.705	1.899	1.895	1.895	1.909	1.904	1.899
0.010	0.000	0.000	0.005	0.010	0.020	0.435	2.686	1.895	1.895	1.895	1.909	1.904	1.909
0.005	0.010	0.000	0.010	0.015	0.015	0.435	2.695	1.895	1.895	1.895	1.914	1.909	1.909
0.005	-0.005	0.000	0.010	0.005	0.015	0.435	2.690	1.890	1.890	1.890	1.909	1.904	1.904
0.010	0.005	0.000	0.005	0.010	-0.005	0.439	2.700	1.895	1.890	1.890	1.909	1.904	1.899
0.000	-0.010	0.000	0.005	0.010	-0.020	0.430	2.681	1.890	1.885	1.885	1.904	1.899	1.895
0.005	-0.005	0.005	0.000	0.010	0.005	0.430	2.686	1.885	1.890	1.885	1.904	1.904	1.899
-0.005	-0.005	-0.005	-0.005	0.005	0.015	0.430	2.690	1.880	1.885	1.885	1.904	1.899	1.904
0.005	-0.010	0.000	-0.005	0.005	0.015	0.435	2.676	1.885	1.885	1.880	1.899	1.899	1.904
-0.005	0.000	0.000	-0.005	0.010	0.010	0.430	2.690	1.885	1.885	1.880	1.899	1.895	1.899
0.005	0.000	0.005	-0.005	0.005	0.010	0.435	2.710	1.890	1.885	1.885	1.899	1.895	1.895
0.005	0.005	0.005	0.000	0.005	0.005	0.435	2.690	1.890	1.890	1.880	1.904	1.899	1.895
0.000	0.005	0.000	0.005	0.000	-0.034	0.430	2.686	1.890	1.885	1.885	1.899	1.895	1.885
0.005	0.005	0.000	0.005	0.000	-0.005	0.435	2.705	1.895	1.890	1.885	1.904	1.899	1.899
0.010	0.005	0.005	0.010	0.000	0.000	0.444	2.681	1.895	1.895	1.890	1.904	1.899	1.899
0.005	0.010	0.000	0.005	0.000	0.000	0.439	2.681	1.895	1.895	1.890	1.909	1.899	1.899
0.000	0.010	0.005	0.000	-0.005	0.010	0.439	2.690	1.895	1.890	1.895	1.909	1.899	1.904
-0.005	0.005	0.000	0.005	-0.010	0.000	0.439	2.710	1.899	1.895	1.890	1.914	1.904	1.899
0.000	0.010	0.000	0.005	-0.005	-0.005	0.430	2.705	1.895	1.895	1.890	1.909	1.904	1.904
-0.005	0.010	0.000	0.010	0.000	0.010	0.444	2.695	1.895	1.890	1.890	1.914	1.904	1.904
-0.005	0.010	0.005	0.005	-0.005	-0.005	0.430	2.695	1.895	1.895	1.890	1.909	1.904	1.899
0.000	0.010	0.005	0.005	0.000	0.000	0.430	2.808	1.909	1.890	1.885	1.909	1.904	1.899
-0.005	-0.005	0.000	0.005	0.000	0.005	0.435	2.788	1.909	1.890	1.890	1.909	1.904	1.899
-0.010	0.005	0.000	0.005	0.000	-0.005	0.435	2.656	1.895	1.890	1.890	1.904	1.899	1.899
0.000	-0.005	0.000	0.000	0.005	-0.010	0.430	2.720	1.895	1.890	1.885	1.904	1.899	1.895
0.005	0.000	0.010	0.000	0.000	0.000	0.439	2.651	1.890	1.890	1.885	1.904	1.899	1.899
0.005	0.005	0.005	-0.005	0.000	0.010	0.439	2.744	1.895	1.890	1.885	1.899	1.899	1.899
-0.005	0.015	0.000	-0.005	0.000	0.000	0.439	2.690	1.895	1.895	1.885	1.904	1.899	1.899
0.000	0.010	0.000	-0.005	-0.005	0.010	0.435	2.627	1.885	1.890	1.885	1.904	1.895	1.899
0.010	-0.005	0.005	-0.005	0.000	-0.015	0.435	2.720	1.895	1.885	1.890	1.904	1.899	1.895
0.000	0.000	-0.005	0.000	0.000	0.010	0.430	2.744	1.895	1.895	1.890	1.909	1.899	1.904
0.000	-0.005	0.005	0.000	-0.005	0.010	0.439	2.646	1.899	1.895	1.890	1.909	1.904	1.899
0.005	0.005	-0.005	-0.005	-0.010	-0.005	0.435	2.739	1.899	1.895	1.890	1.909	1.899	1.899
0.010	-0.015	0.005	0.000	-0.010	0.000	0.435	2.749	1.904	1.895	1.895	1.909	1.904	1.899
0.010	0.005	-0.005	-0.005	-0.005	0.000	0.435	2.666	1.899	1.904	1.895	1.909	1.904	1.904
0.000	-0.005	0.005	-0.005	-0.005	-0.010	0.435	2.661	1.890	1.895	1.895	1.909	1.904	1.899
0.005	0.005	0.005	-0.005	0.000	0.010	0.435	2.690	1.899	1.895	1.895	1.914	1.909	1.904
0.005	0.000	0.010	0.005	0.005	0.000	0.439	2.646	1.885	1.890	1.895	1.914	1.909	1.904
-0.005	0.015	0.005	-0.005	0.005	0.005	0.430	2.690	1.880	1.890	1.890	1.909	1.909	1.909
-0.010	0.010	0.000	0.005	0.010	-0.005	0.430	2.686	1.880	1.885	1.885	1.909	1.904	1.904
-0.005	0.020	0.000	-0.005	0.005	-0.029	0.435	2.705	1.890	1.885	1.885	1.904	1.904	1.895
0.000	0.005	0.000	0.000	0.000	-0.005	0.430	2.705	1.885	1.880	1.880	1.904	1.904	1.904
0.000	0.000	0.005	0.000	0.010	0.005	0.430	2.700	1.890	1.880	1.885	1.904	1.904	1.909
0.000	0.010	0.000	0.005	0.010	0.005	0.435	2.681	1.885	1.885	1.880	1.904	1.899	1.904
-0.005	0.005	0.000	0.005	0.015	0.000	0.435	2.710	1.890	1.880	1.880	1.899	1.899	1.899
0.000	-0.005	0.005	0.000	0.020	0.000	0.435	2.681	1.890	1.885	1.885	1.904	1.904	1.899
0.010	-0.005	0.005	0.005	0.020	0.015	0.435	2.700	1.890	1.885	1.885	1.904	1.904	1.909
0.005	0.000	0.000	0.005	0.024	0.024	0.430	2.686	1.895	1.890	1.885	1.904	1.904	1.909
0.005	0.000	0.010	0.010	0.020	0.020	0.435	2.690	1.895	1.895	1.885	1.904	1.904	1.904
0.005	-0.005	0.000	0.005	0.024	0.029	0.430	2.705	1.899	1.895	1.890	1.904	1.904	1.909
-0.005	-0.005	-0.005	0.000	0.029	0.015	0.439	2.705	1.899	1.890	1.895	1.904	1.899	1.904
0.005	-0.010	0.000	0.000	0.020	0.020	0.435	2.715	1.904	1.899	1.895	1.909	1.904	1.904
0.000	0.000	0.005	0.005	0.020	0.010	0.444	2.681	1.899	1.899	1.895	1.909	1.904	1.904
0.000	0.005	-0.005	0.000	0.020	0.010	0.430	2.695	1.899	1.899	1.895	1.909	1.899	1.899
-0.005	0.000	0.005	0.000	0.015	0.005	0.435	2.695	1.899	1.895	1.895	1.909	1.899	1.899
0.005	-0.010	0.010	0.005	0.010	-0.015	0.430	2.700	1.890	1.890	1.890	1.909	1.899	1.890
0.005	0.000	0.005	0.010	0.010	-0.005	0.435	2.686	1.890	1.895	1.890	1.909	1.899	1.895
0.005	0.000	0.000	0.010	0.020	0.010	0.435	2.700	1.895	1.890	1.890	1.909	1.899	1.899
-0.005	-0.005	0.005	0.015	0.005	0.020	0.439	2.705	1.885	1.885	1.890	1.904	1.899	1.904
0.010	0.000	-0.005	0.010	0.000	0.005	0.439	2.686	1.890	1.885	1.890	1.904	1.895	1.899
0.010	0.000	0.000	0.010	-0.005	0.029	0.439	2.700	1.890	1.885	1.885	1.904	1.895	1.899
0.005	-0.005	0.000	0.010	-0.010	0.024	0.439	2.808	1.909	1.890	1.885	1.904	1.895	1.899
0.005	0.000	0.005	0.005	-0.015	0.020	0.435	2.798	1.909	1.895	1.890	1.904	1.895	1.895
0.010	-0.005	0.000	0.005	-0.015	0.005	0.435	2.666	1.899	1.895	1.890	1.904	1.895	1.890
0.005	0.005	0.005	-0.005	-0.015	-0.020	0.439	2.715	1.904	1.904	1.895	1.904	1.895	1.890
0.010	0.000	0.000	0.000	-0.020	0.010	0.439	2.651	1.895	1.899	1.895	1.909	1.899	1.899
0.010	0.000	0.000	-0.005	-0.010	0.010	0.435	2.749	1.904	1.899	1.895	1.909	1.904	1.895
0.000	0.010	0.000	-0.005	-0.020	0.005	0.444	2.715	1.899	1.899	1.895	1.914	1.904	1.899
0.000	0.000	0.000	-0.005	-0.020	-0.005	0.435	2.759	1.904	1.899	1.899	1.914	1.904	1.899
-0.005	0.010	0.000	0.000	-0.010	-0.005	0.430	2.744	1.904	1.904	1.899	1.914	1.909	1.904
0.000	0.005	0.005	0.005	-0.005	-0.005	0.435	2.749	1.909	1.899	1.899	1.919	1.909	1.904
0.005	0.000	0.000	0.000	-0.010	0.000	0.439	2.646	1.899	1.895	1.899	1.914	1.909	1.909
0.005	0.000	0.005	0.000	-0.010	-0.010	0.430	2.749	1.899	1.895	1.895	1.914	1.904	1.899
0.005	0.000	0.000	-0.005	-0.005	-0.010	0.439	2.686	1.899	1.895	1.890	1.909	1.904	1.904
0.010	0.000	-0.005	-0.010	-0.005	-0.020	0.439	2.676	1.895	1.895	1.890	1.909	1.909	1.899
-0.005	-0.005	0.000	-0.005	-0.005	-0.015	0.435	2.651	1.885	1.890	1.890	1.909	1.904	1.904
0.000	-0.005	0.000	0.000	-0.010	-0.010	0.435	2.671	1.880	1.885	1.890	1.909	1.904	1.904
-0.005	0.005	0.005	0.005	-0.005	-0.005	0.439	2.661	1.880	1.885	1.890	1.909	1.909	1.904
0.005	0.000	0.005	0.015	0.000	0.000	0.435	2.686	1.885	1.885	1.890	1.909	1.909	1.904
-0.005	0.000	0.005	0.015	-0.005	0.005	0.444	2.690	1.890	1.885	1.885	1.909	1.909	1.909
-0.005	0.005	0.005	0.015	-0.005	0.000	0.435	2.710	1.895	1.890	1.890	1.909	1.909	1.909
0.000	-0.005	0.000	0.010	-0.005	0.010	0.444	2.695	1.895	1.890	1.890	1.909	1.909	1.909
0.005	0.010	0.000	0.010	-0.005	0.005	0.435	2.700	1.895	1.895	1.890	1.904	1.904	1.904
0.005	0.010	0.010	0.000	0.005	0.015	0.444	2.705	1.904	1.895	1.890	1.909	1.909	1.914
-0.005	-0.005	0.000	0.000	0.005	0.005	0.430	2.700	1.904	1.895	1.890	1.909	1.909	1.909
0.005	0.000	0.000	0.000	0.005	0.000	0.439	2.686	1.899	1.890	1.890	1.909	1.909	1.909
0.000	0.000	0.005	-0.005	0.010	-0.005	0.430	2.695	1.895	1.895	1.890	1.904	1.904	1.904
0.000	-0.005	0.000	-0.005	0.010	-0.005	0.439	2.700	1.895	1.890	1.890	1.909	1.904	1.904
0.000	0.005	0.000	0.000	0.010	-0.005	0.435	2.681	1.885	1.890	1.890	1.904	1.904	1.904
0.000	0.000	-0.005	0.005	0.005	-0.010	0.439	2.681	1.890	1.885	1.885	1.904	1.904	1.899
0.000	0.000	0.000	0.005	0.000	-0.005	0.430	2.705	1.890	1.885	1.890	1.904	1.899	1.899
0.000	-0.010	0.005	0.005	0.005	0.000	0.439	2.700	1.885	1.880	1.880	1.904	1.899	1.899
0.015	0.000	0.005	0.005	0.005	-0.010	0.430	2.690	1.895	1.890	1.885	1.904	1.899	1.895
0.005	0.005	0.005	0.005	0.005	-0.015	0.435	2.681	1.890	1.885	1.880	1.899	1.895	1.895
0.000	0.010	0.000	0.010	-0.005	-0.044	0.430	2.686	1.885	1.890	1.880	1.899	1.895	1.890
0.000	0.000	0.005	0.005	0.015	0.000	0.435	2.686	1.885	1.885	1.885	1.904	1.904	1.904
0.005	0.015	0.005	0.010	0.000	0.010	0.435	2.690	1.895	1.890	1.885	1.904	1.899	1.904
0.005	0.015	0.005	0.005	0.000	0.015	0.439	2.700	1.899	1.895	1.890	1.904	1.904	1.904
0.005	0.005	0.000	0.005	0.000	0.029	0.435	2.705	1.899	1.895	1.890	1.904	1.904	1.909
0.010	0.000	0.000	0.005	0.000	0.034	0.435	2.686	1.899	1.895	1.890	1.909	1.904	1.909
0.000	-0.010	0.000	0.000	0.005	0.029	0.439	2.690	1.895	1.890	1.890	1.904	1.904	1.904
0.000	-0.005	0.000	0.000	0.000	0.010	0.435	2.808	1.909	1.895	1.890	1.904	1.904	1.899
0.005	-0.015	0.005	-0.005	0.000	0.000	0.435	2.642	1.914	1.899	1.895	1.904	1.904	1.895
0.005	-0.005	0.000	-0.005	0.005	0.005	0.435	2.651	1.899	1.899	1.895	1.904	1.904	1.899
0.000	-0.010	0.000	-0.005	-0.005	0.005	0.439	2.729	1.899	1.899	1.895	1.909	1.899	1.899
0.000	-0.005	0.000	0.000	-0.005	0.005	0.435	2.651	1.890	1.895	1.890	1.909	1.899	1.899
0.000	0.005	0.000	0.000	0.005	0.005	0.439	2.734	1.899	1.895	1.890	1.909	1.904	1.899
0.000	0.000	0.005	0.000	0.000	0.000	0.435	2.705	1.895	1.895	1.890	1.909	1.899	1.899
0.000	0.005	0.005	0.005	0.000	-0.015	0.439	2.715	1.890	1.890	1.890	1.909	1.899	1.895
0.005	0.010	0.000	0.000	0.005	-0.005	0.435	2.744	1.899	1.895	1.890	1.909	1.904	1.899
0.000	0.005	0.005	-0.005	0.015	-0.024	0.444	2.651	1.890	1.890	1.890	1.909	1.904	1.890
0.000	0.005	0.000	-0.005	0.015	-0.005	0.430	2.651	1.890	1.890	1.890	1.909	1.904	1.904
0.005	0.005	0.000	-0.005	0.010	0.005	0.439	2.646	1.890	1.890	1.890	1.909	1.904	1.899
0.000	0.024	0.005	-0.005	0.005	-0.020	0.435	2.734	1.895	1.895	1.895	1.909	1.899	1.904
0.000	0.020	0.005	0.005	0.000	0.015	0.439	2.681	1.895	1.895	1.895	1.914	1.904	1.909
0.000	0.010	0.000	0.005	-0.010	0.010	0.435	2.651	1.895	1.895	1.895	1.914	1.904	1.909
0.000	0.010	0.005	0.000	-0.005	0.000	0.435	2.690	1.899	1.895	1.895	1.914	1.909	1.904
0.000	0.005	0.000	0.005	0.000	-0.005	0.430	2.744	1.899	1.895	1.895	1.914	1.909	1.904
0.000	0.000	0.005	0.010	0.000	0.010	0.435	2.705	1.899	1.895	1.895	1.914	1.914	1.914
0.005	-0.005	0.005	0.005	0.000	0.010	0.435	2.700	1.899	1.895	1.895	1.914	1.914	1.909
0.005	0.000	0.000	0.005	0.005	-0.005	0.435	2.695	1.899	1.895	1.895	1.914	1.909	1.904
0.000	0.000	-0.005	0.010	0.010	0.005	0.435	2.681	1.895	1.895	1.895	1.909	1.909	1.909
0.000	0.000	0.005	0.010	0.010	-0.005	0.439	2.690	1.890	1.890	1.890	1.909	1.909	1.904
0.000	0.000	0.000	0.000	0.005	0.005	0.435	2.695	1.890	1.890	1.890	1.909	1.904	1.904
-0.005	-0.020	0.005	0.000	0.005	-0.005	0.425	2.686	1.890	1.880	1.885	1.909	1.904	1.904
0.000	-0.005	0.005	0.000	0.010	0.015	0.439	2.700	1.890	1.885	1.885	1.904	1.904	1.904
0.005	-0.010	0.005	-0.005	0.010	0.000	0.425	2.695	1.890	1.880	1.880	1.904	1.904	1.904
0.000	-0.010	0.005	-0.005	0.005	-0.015	0.439	2.695	1.895	1.885	1.885	1.899	1.895	1.899
0.000	0.000	0.000	-0.005	0.005	-0.005	0.430	2.686	1.890	1.890	1.885	1.904	1.899	1.899
0.005	0.005	0.000	0.000	0.000	0.005	0.444	2.700	1.895	1.890	1.885	1.904	1.899	1.899
0.005	0.010	0.000	0.000	0.000	0.005	0.430	2.695	1.895	1.895	1.890	1.904	1.899	1.899
0.005	0.005	0.000	0.000	0.000	-0.005	0.439	2.681	1.895	1.895	1.890	1.909	1.904	1.895
0.000	-0.005	0.000	0.005	-0.005	0.010	0.435	2.681	1.890	1.890	1.890	1.909	1.904	1.904
0.010	0.005	0.005	0.005	-0.005	-0.015	0.439	2.690	1.899	1.895	1.895	1.909	1.904	1.899
0.000	0.000	0.005	0.005	0.005	0.024	0.435	2.705	1.899	1.895	1.895	1.909	1.909	1.914
0.005	0.005	0.005	0.000	-0.005	0.020	0.435	2.690	1.895	1.899	1.895	1.909	1.909	1.909
0.005	0.000	0.005	0.005	0.005	0.015	0.435	2.681	1.895	1.895	1.890	1.909	1.909	1.904
0.005	0.000	0.000	0.005	0.005	0.010	0.430	2.700	1.895	1.895	1.890	1.909	1.909	1.904
0.005	0.000	0.000	0.000	0.005	-0.015	0.439	2.666	1.895	1.890	1.890	1.904	1.904	1.895
0.000	0.000	0.005	0.005	0.010	-0.005	0.435	2.681	1.885	1.890	1.890	1.909	1.904	1.899
-0.005	0.000	0.000	0.005	0.000	0.020	0.435	2.686	1.885	1.885	1.885	1.909	1.899	1.909
0.000	-0.005	0.000	0.005	0.005	0.010	0.435	2.798	1.899	1.885	1.885	1.904	1.899	1.899
0.000	0.000	0.000	0.005	0.005	0.024	0.439	2.788	1.904	1.890	1.885	1.899	1.899	1.904
0.005	0.005	0.000	0.005	-0.005	0.010	0.439	2.656	1.899	1.895	1.885	1.904	1.895	1.899
0.015	0.005	0.010	0.005	0.000	0.000	0.435	2.720	1.899	1.895	1.890	1.904	1.899	1.895
0.005	0.000	0.005	0.005	-0.005	0.000	0.435	2.642	1.890	1.895	1.890	1.904	1.895	1.895
0.010	0.020	0.005	0.005	-0.010	-0.005	0.430	2.739	1.899	1.904	1.895	1.909	1.899	1.895
0.005	0.015	0.000	0.000	-0.005	-0.010	0.430	2.700	1.890	1.895	1.895	1.909	1.899	1.895
-0.005	0.015	-0.005	0.000	0.000	-0.010	0.439	2.651	1.885	1.895	1.895	1.909	1.904	1.899
0.000	0.010	0.000	-0.005	-0.010	-0.029	0.435	2.734	1.895	1.895	1.895	1.914	1.904	1.890
0.010	0.010	0.000	-0.005	-0.005	0.000	0.430	2.744	1.899	1.895	1.895	1.914	1.909	1.909
0.005	-0.015	0.010	-0.005	0.020	-0.020	0.439	2.651	1.895	1.890	1.895	1.914	1.914	1.904
0.010	-0.015	0.000	0.000	0.024	0.015	0.439	2.734	1.899	1.890	1.890	1.914	1.914	1.914
0.005	-0.010	0.005	0.005	0.024	0.010	0.439	2.651	1.890	1.895	1.890	1.914	1.909	1.914
0.000	-0.010	0.005	0.000	0.015	-0.020	0.435	2.661	1.885	1.890	1.890	1.909	1.904	1.904
-0.010	-0.010	-0.005	0.000	0.005	0.005	0.435	2.744	1.890	1.885	1.885	1.909	1.899	1.909
0.000	-0.005	-0.005	0.005	0.010	0.010	0.444	2.671	1.890	1.890	1.885	1.904	1.904	1.909
0.005	0.000	0.000	0.000	0.000	0.010	0.430	2.651	1.880	1.885	1.880	1.904	1.899	1.904
0.010	-0.005	0.000	0.000	0.000	0.005	0.444	2.690	1.880	1.885	1.885	1.904	1.895	1.899
0.000	0.010	0.000	0.005	-0.005	0.005	0.435	2.695	1.885	1.890	1.885	1.904	1.899	1.899
0.000	0.020	0.000	0.005	-0.005	0.005	0.435	2.700	1.885	1.885	1.885	1.899	1.895	1.899
0.005	0.010	0.005	-0.005	-0.005	-0.005	0.435	2.705	1.890	1.885	1.885	1.899	1.895	1.890
0.000	0.010	0.000	0.000	-0.005	0.005	0.439	2.695	1.890	1.885	1.885	1.904	1.899	1.895
0.005	0.010	0.000	0.000	0.000	0.000	0.435	2.681	1.890	1.890	1.885	1.904	1.899	1.899
0.005	0.005	0.005	0.000	0.005	0.000	0.444	2.681	1.895	1.890	1.885	1.904	1.904	1.899
0.000	0.005	0.005	0.000	0.000	-0.020	0.435	2.686	1.895	1.890	1.890	1.904	1.899	1.895
0.000	0.005	0.000	0.000	-0.015	-0.005	0.439	2.690	1.890	1.890	1.890	1.904	1.899	1.899
0.005	0.000	0.005	0.005	-0.015	0.000	0.439	2.676	1.890	1.890	1.890	1.904	1.899	1.904
-0.005	-0.005	0.000	0.000	0.000	-0.015	0.439	2.686	1.890	1.890	1.890	1.909	1.904	1.899
-0.010	0.005	0.005	0.000	0.005	0.005	0.439	2.710	1.895	1.890	1.890	1.909	1.904	1.909
0.010	0.005	0.005	0.005	0.005	0.010	0.444	2.705	1.895	1.890	1.890	1.909	1.904	1.904
0.000	0.000	-0.005	0.005	-0.005	-0.005	0.439	2.700	1.895	1.890	1.890	1.904	1.899	1.899
0.000	0.005	0.005	0.005	0.000	0.024	0.435	2.686	1.895	1.890	1.885	1.904	1.904	1.909
-0.005	-0.005	0.005	0.010	0.000	0.024	0.435	2.681	1.885	1.885	1.885	1.904	1.904	1.904
0.005	-0.005	0.000	0.005	0.015	0.015	0.425	2.690	1.890	1.880	1.885	1.899	1.899	1.899
0.000	0.000	0.000	0.000	0.020	0.010	0.435	2.686	1.890	1.880	1.885	1.899	1.899	1.899
0.010	0.005	-0.005	0.000	0.015	0.005	0.439	2.690	1.890	1.890	1.880	1.899	1.899	1.895
0.000	0.000	0.000	0.005	0.020	0.010	0.439	2.710	1.890	1.890	1.885	1.904	1.899	1.899
0.000	0.005	0.010	0.005	0.020	0.020	0.439	2.710	1.895	1.885	1.885	1.904	1.899	1.899
0.005	-0.005	0.005	0.010	0.000	0.010	0.444	2.686	1.890	1.885	1.885	1.904	1.895	1.895
0.005	0.005	0.000	0.010	0.005	0.000	0.430	2.700	1.890	1.890	1.890	1.904	1.895	1.895
0.005	0.000	0.005	0.005	0.000	-0.015	0.439	2.812	1.909	1.890	1.890	1.904	1.895	1.890
0.000	0.000	0.005	0.005	0.000	0.005	0.430	2.773	1.914	1.904	1.890	1.904	1.899	1.895
0.005	0.000	0.000	-0.005	0.000	-0.010	0.439	2.661	1.904	1.899	1.895	1.904	1.899	1.895
0.000	0.005	0.000	0.000	-0.005	0.000	0.430	2.700	1.899	1.899	1.895	1.909	1.899	1.899
0.000	0.000	0.000	-0.005	0.000	-0.020	0.435	2.646	1.895	1.899	1.899	1.909	1.904	1.895
0.000	0.000	0.000	-0.005	0.000	-0.024	0.435	2.734	1.899	1.899	1.895	1.909	1.904	1.895
0.000	0.000	0.000	-0.005	0.005	0.005	0.444	2.681	1.890	1.899	1.895	1.909	1.904	1.904
0.000	-0.010	0.000	0.000	0.005	0.005	0.439	2.744	1.895	1.890	1.890	1.909	1.909	1.904
-0.005	0.010	-0.005	0.010	0.010	0.010	0.444	2.729	1.899	1.895	1.895	1.909	1.904	1.909
0.000	0.000	0.000	0.010	0.005	0.015	0.435	2.744	1.899	1.895	1.895	1.909	1.904	1.909
0.000	0.005	0.000	0.005	0.000	0.010	0.439	2.646	1.890	1.890	1.890	1.909	1.904	1.904
0.005	-0.005	0.000	0.005	-0.005	0.005	0.435	2.734	1.890	1.890	1.890	1.909	1.904	1.904
0.000	0.005	0.005	0.005	-0.010	0.020	0.444	2.676	1.895	1.895	1.890	1.909	1.899	1.904
0.010	-0.005	0.000	0.005	-0.005	0.005	0.439	2.656	1.895	1.890	1.890	1.909	1.899	1.895
0.005	0.000	0.000	0.005	-0.005	0.024	0.435	2.661	1.895	1.890	1.890	1.904	1.904	1.904
0.000	0.010	0.005	0.005	-0.010	0.020	0.435	2.671	1.890	1.895	1.890	1.909	1.904	1.904
0.015	0.005	0.005	0.005	0.000	-0.020	0.439	2.656	1.885	1.890	1.890	1.909	1.909	1.890
0.005	0.000	0.005	0.010	0.000	-0.005	0.430	2.681	1.885	1.890	1.890	1.909	1.909	1.899
0.000	0.005	0.000	0.010	0.005	0.000	0.435	2.686	1.895	1.895	1.895	1.914	1.909	1.904
-0.005	0.000	0.005	0.010	0.005	-0.015	0.430	2.715	1.895	1.885	1.890	1.914	1.909	1.904
0.005	0.010	0.005	0.010	0.010	0.005	0.435	2.700	1.899	1.895	1.890	1.914	1.909	1.909
0.000	0.005	0.000	0.010	0.015	0.005	0.430	2.686	1.899	1.890	1.890	1.909	1.909	1.914
-0.005	0.005	0.005	0.005	0.020	0.000	0.435	2.686	1.899	1.890	1.890	1.909	1.909	1.909
0.000	0.000	-0.005	0.005	0.015	0.005	0.439	2.700	1.899	1.895	1.890	1.909	1.904	1.909
0.000	0.000	0.000	0.000	0.010	-0.010	0.435	2.690	1.895	1.890	1.890	1.904	1.899	1.899
0.000	0.005	-0.005	-0.005	0.005	0.000	0.435	2.695	1.885	1.890	1.890	1.904	1.899	1.904
0.005	-0.005	0.000	-0.005	0.005	-0.010	0.430	2.700	1.895	1.885	1.885	1.904	1.899	1.899
-0.005	-0.005	0.005	0.000	0.000	0.000	0.435	2.681	1.885	1.885	1.885	1.899	1.895	1.899
0.000	-0.005	0.005	0.000	0.005	-0.005	0.430	2.710	1.885	1.885	1.885	1.904	1.899	1.899
0.000	0.000	0.005	0.000	-0.005	-0.010	0.439	2.700	1.890	1.885	1.885	1.899	1.895	1.895
0.015	0.010	0.000	0.000	-0.010	-0.005	0.430	2.705	1.899	1.890	1.885	1.899	1.895	1.895
0.005	0.010	0.005	-0.005	0.000	0.000	0.439	2.705	1.895	1.895	1.890	1.904	1.899	1.899
0.015	0.005	0.000	-0.005	0.005	-0.005	0.435	2.700	1.895	1.895	1.885	1.904	1.899	1.895
0.000	0.000	0.005	-0.005	0.000	0.000	0.435	2.676	1.885	1.890	1.890	1.904	1.899	1.899
0.010	-0.005	0.000	-0.005	-0.005	-0.005	0.435	2.676	1.885	1.890	1.890	1.909	1.899	1.899
0.005	0.000	0.005	-0.005	-0.005	-0.020	0.439	2.690	1.890	1.890	1.890	1.909	1.899	1.895
0.000	0.005	0.005	0.000	0.005	0.010	0.435	2.705	1.895	1.895	1.890	1.909	1.909	1.909
0.005	-0.005	0.005	0.000	0.005	0.010	0.435	2.705	1.895	1.890	1.890	1.909	1.909	1.909
0.005	0.000	0.010	0.005	0.005	0.015	0.439	2.695	1.895	1.895	1.895	1.909	1.904	1.904
0.005	0.005	0.005	0.005	-0.005	0.000	0.439	2.686	1.890	1.895	1.890	1.909	1.904	1.904
-0.010	0.000	0.005	0.005	0.005	0.000	0.439	2.803	1.899	1.890	1.890	1.909	1.904	1.899
-0.005	-0.005	0.000	0.005	0.005	0.005	0.435	2.783	1.909	1.890	1.885	1.909	1.904	1.899
0.010	0.010	0.000	0.005	0.000	0.010	0.435	2.642	1.899	1.895	1.890	1.904	1.899	1.899
0.005	0.000	0.005	0.000	0.000	0.010	0.439	2.715	1.895	1.890	1.890	1.904	1.899	1.899
0.005	0.000	0.000	0.000	0.005	-0.020	0.439	2.656	1.890	1.890	1.885	1.904	1.899	1.890
0.000	0.000	0.000	0.000	0.010	0.029	0.435	2.744	1.895	1.890	1.885	1.904	1.904	1.909
-0.005	0.010	0.000	0.000	0.005	0.044	0.439	2.700	1.895	1.890	1.885	1.904	1.904	1.909
0.000	0.005	0.005	0.005	0.005	0.049	0.435	2.637	1.885	1.890	1.890	1.909	1.904	1.909
0.005	0.000	0.005	0.000	0.000	0.010	0.439	2.725	1.895	1.890	1.890	1.904	1.899	1.899
0.000	0.000	0.000	0.005	-0.010	0.020	0.430	2.720	1.895	1.890	1.890	1.909	1.899	1.899
-0.005	-0.005	0.000	0.005	-0.010	0.000	0.435	2.651	1.890	1.890	1.890	1.909	1.904	1.895
0.005	0.005	0.000	0.000	0.005	-0.005	0.430	2.646	1.885	1.890	1.890	1.909	1.904	1.899
0.005	0.005	0.005	0.005	0.000	-0.005	0.439	2.666	1.895	1.895	1.890	1.909	1.904	1.899
0.000	0.000	0.000	0.000	0.000	-0.005	0.439	2.656	1.895	1.895	1.890	1.914	1.909	1.904
0.005	-0.005	0.000	0.005	0.000	-0.005	0.435	2.754	1.899	1.895	1.890	1.909	1.904	1.899
0.010	0.000	0.000	0.015	-0.010	0.000	0.435	2.690	1.895	1.895	1.890	1.909	1.904	1.904
0.010	0.000	0.010	0.000	-0.010	-0.010	0.439	2.646	1.890	1.890	1.890	1.909	1.904	1.895
-0.015	0.010	0.000	0.000	-0.015	-0.005	0.435	2.681	1.885	1.890	1.890	1.909	1.899	1.899
-0.005	-0.005	0.005	0.000	-0.015	-0.005	0.435	2.700	1.885	1.880	1.885	1.904	1.899	1.899
-0.005	0.005	0.000	0.000	0.000	-0.024	0.430	2.705	1.890	1.885	1.885	1.904	1.904	1.895
0.000	0.005	0.005	0.000	0.010	0.005	0.449	2.695	1.890	1.885	1.885	1.904	1.904	1.904
0.005	0.005	0.000	0.005	0.015	0.000	0.435	2.700	1.890	1.885	1.880	1.904	1.904	1.904
0.005	-0.010	0.000	0.005	0.020	-0.005	0.435	2.681	1.885	1.880	1.880	1.899	1.899	1.904
0.000	0.005	0.000	0.005	0.015	-0.005	0.430	2.695	1.885	1.885	1.880	1.899	1.899	1.899
0.015	0.005	0.005	0.005	0.015	-0.010	0.444	2.695	1.890	1.885	1.885	1.899	1.899	1.895
0.005	0.000	0.000	0.010	0.020	0.000	0.435	2.705	1.890	1.890	1.885	1.904	1.899	1.904
0.010	0.010	0.005	0.005	0.010	0.000	0.439	2.700	1.899	1.890	1.885	1.904	1.895	1.899
0.005	0.010	0.000	0.000	0.010	0.000	0.435	2.690	1.899	1.890	1.890	1.904	1.899	1.904
0.005	0.010	0.005	0.005	-0.005	0.000	0.435	2.705	1.895	1.895	1.890	1.909	1.899	1.899
0.005	0.000	0.000	0.005	0.005	0.005	0.435	2.695	1.895	1.890	1.890	1.909	1.904	1.904
0.000	-0.005	0.000	0.005	0.005	-0.010	0.430	2.681	1.895	1.890	1.890	1.909	1.899	1.895
-0.005	0.000	0.000	0.000	0.000	0.015	0.439	2.705	1.899	1.890	1.890	1.909	1.899	1.904
0.000	0.005	0.005	0.000	-0.005	0.020	0.435	2.710	1.899	1.895	1.885	1.909	1.899	1.904
0.000	0.000	0.005	0.010	-0.015	0.029	0.435	2.681	1.895	1.890	1.890	1.904	1.899	1.904
-0.005	0.010	0.005	0.000	-0.010	0.029	0.430	2.690	1.890	1.895	1.890	1.904	1.899	1.904
0.000	0.005	0.000	0.005	-0.015	0.020	0.435	2.686	1.890	1.890	1.885	1.904	1.895	1.899
0.005	0.000	0.000	0.000	-0.010	0.005	0.439	2.710	1.899	1.890	1.885	1.904	1.899	1.890
0.000	0.000	0.000	0.005	0.000	0.034	0.439	2.715	1.890	1.890	1.885	1.904	1.899	1.899
0.010	-0.005	0.005	0.005	0.000	0.029	0.439	2.681	1.885	1.885	1.885	1.904	1.899	1.899
0.005	0.005	0.000	0.005	0.000	0.024	0.444	2.700	1.890	1.885	1.885	1.899	1.899	1.899
-0.005	0.000	0.010	-0.005	0.000	0.015	0.439	2.822	1.904	1.890	1.885	1.904	1.899	1.890
-0.005	0.000	0.005	0.000	0.015	-0.010	0.439	2.773	1.909	1.895	1.885	1.899	1.899	1.890
0.005	-0.005	0.000	0.005	0.029	-0.024	0.435	2.656	1.899	1.895	1.890	1.904	1.909	1.895
0.000	0.005	0.000	0.000	0.029	-0.039	0.439	2.720	1.904	1.899	1.890	1.909	1.904	1.890
0.000	0.000	0.000	0.000	0.024	-0.024	0.435	2.661	1.899	1.899	1.895	1.909	1.904	1.904
0.005	0.000	0.000	-0.005	0.005	0.000	0.439	2.734	1.904	1.904	1.895	1.909	1.899	1.904
0.000	-0.005	0.000	0.000	-0.010	-0.024	0.439	2.681	1.899	1.899	1.895	1.909	1.895	1.895
0.005	0.000	0.000	0.000	-0.005	-0.029	0.444	2.734	1.899	1.899	1.899	1.914	1.899	1.899
0.005	0.005	0.000	0.005	-0.005	0.000	0.430	2.734	1.899	1.899	1.899	1.914	1.904	1.904
-0.010	0.005	0.000	-0.005	-0.005	0.005	0.439	2.734	1.899	1.899	1.895	1.909	1.909	1.909
0.010	-0.005	0.000	0.000	-0.005	0.005	0.435	2.651	1.895	1.895	1.895	1.909	1.904	1.904
0.005	-0.005	0.010	0.000	0.000	0.010	0.435	2.642	1.885	1.890	1.895	1.909	1.909	1.904
0.005	-0.005	0.000	0.005	0.000	-0.010	0.430	2.749	1.890	1.890	1.895	1.909	1.904	1.899
0.005	0.000	0.000	0.000	0.000	0.010	0.439	2.671	1.890	1.890	1.890	1.909	1.904	1.904
0.005	0.000	0.005	0.000	0.005	0.000	0.430	2.642	1.880	1.885	1.890	1.909	1.904	1.904
0.000	0.000	0.005	0.000	0.000	0.000	0.444	2.690	1.885	1.885	1.885	1.904	1.904	1.899
0.005	0.005	0.005	0.005	0.000	0.000	0.435	2.656	1.880	1.880	1.885	1.904	1.904	1.904
0.000	0.005	0.000	0.005	0.015	0.024	0.444	2.695	1.885	1.885	1.885	1.904	1.904	1.909
0.000	-0.005	-0.005	0.005	-0.005	0.020	0.430	2.710	1.890	1.880	1.885	1.904	1.904	1.909
0.005	-0.005	0.000	0.005	0.000	-0.005	0.439	2.710	1.895	1.885	1.885	1.904	1.899	1.899
-0.005	-0.010	0.005	0.000	0.010	-0.005	0.435	2.705	1.895	1.890	1.885	1.904	1.904	1.899
0.000	0.010	0.000	0.010	0.015	-0.005	0.435	2.705	1.899	1.895	1.890	1.909	1.909	1.904
0.000	0.010	0.005	0.005	0.005	-0.010	0.439	2.686	1.899	1.895	1.890	1.909	1.904	1.904
0.000	0.015	0.005	0.000	-0.005	0.005	0.435	2.710	1.899	1.899	1.895	1.909	1.904	1.904
0.005	0.010	0.005	0.005	0.000	0.005	0.444	2.695	1.899	1.899	1.895	1.909	1.904	1.899
0.005	0.005	0.005	0.000	0.005	-0.005	0.430	2.686	1.895	1.895	1.895	1.909	1.904	1.904
0.000	0.000	0.000	-0.005	0.005	0.024	0.435	2.705	1.895	1.895	1.890	1.909	1.904	1.909
-0.010	-0.005	0.000	-0.005	-0.005	0.034	0.430	2.690	1.890	1.890	1.890	1.909	1.904	1.909
0.005	-0.005	0.000	-0.005	0.000	0.024	0.439	2.700	1.890	1.885	1.885	1.904	1.904	1.904
0.000	0.005	0.000	0.000	0.005	0.010	0.435	2.690	1.885	1.890	1.885	1.904	1.904	1.895
0.000	0.000	0.000	0.010	0.010	0.010	0.439	2.700	1.890	1.885	1.885	1.904	1.904	1.899
0.000	0.005	0.000	0.020	0.000	-0.029	0.435	2.686	1.890	1.885	1.880	1.904	1.899	1.890
-0.005	0.005	-0.005	0.010	0.000	-0.010	0.435	2.690	1.890	1.885	1.885	1.904	1.899	1.895
0.010	0.005	0.005	0.015	0.000	0.024	0.439	2.690	1.890	1.885	1.885	1.904	1.899	1.909
0.005	0.000	0.000	0.010	-0.005	0.010	0.435	2.686	1.890	1.885	1.880	1.904	1.899	1.899
0.005	0.010	0.005	0.010	0.000	-0.005	0.435	2.681	1.890	1.890	1.885	1.904	1.899	1.895
0.010	-0.005	0.000	0.005	0.000	-0.020	0.435	2.695	1.895	1.890	1.885	1.899	1.899	1.895
0.010	0.005	0.000	0.000	0.005	-0.005	0.430	2.705	1.895	1.890	1.890	1.904	1.899	1.899
0.005	0.000	0.005	-0.010	0.005	-0.005	0.439	2.686	1.895	1.890	1.890	1.899	1.899	1.899
0.000	-0.005	0.005	-0.010	0.005	-0.015	0.425	2.695	1.899	1.890	1.890	1.904	1.899	1.895
0.005	0.005	0.005	-0.005	0.005	0.010	0.439	2.808	1.914	1.899	1.890	1.909	1.904	1.904
0.005	0.005	0.005	0.000	0.005	-0.015	0.430	2.783	1.914	1.899	1.890	1.909	1.899	1.899
0.000	0.000	0.000	0.005	0.000	0.000	0.435	2.666	1.899	1.899	1.895	1.909	1.904	1.904
-0.010	-0.005	0.005	0.000	0.000	-0.005	0.430	2.715	1.895	1.895	1.895	1.909	1.899	1.899
-0.010	-0.005	-0.005	0.000	0.000	0.005	0.435	2.651	1.890	1.895	1.890	1.909	1.899	1.904
-0.005	-0.005	0.000	0.000	-0.005	0.005	0.435	2.744	1.895	1.890	1.890	1.909	1.904	1.899
0.005	-0.005	0.000	0.005	0.000	0.015	0.435	2.690	1.895	1.890	1.890	1.909	1.899	1.904
0.010	0.005	0.000	0.010	0.005	0.015	0.439	2.720	1.895	1.890	1.890	1.904	1.904	1.904
0.010	-0.005	0.005	0.005	0.000	0.020	0.435	2.725	1.895	1.895	1.890	1.909	1.904	1.904
0.000	0.005	0.005	0.000	0.005	-0.020	0.439	2.739	1.899	1.899	1.890	1.904	1.899	1.890
0.005	0.005	-0.005	0.000	0.000	-0.015	0.430	2.646	1.885	1.895	1.890	1.904	1.899	1.895
0.000	0.015	0.000	-0.005	0.005	0.010	0.435	2.734	1.895	1.895	1.895	1.909	1.904	1.904
-0.005	0.010	0.005	-0.005	0.005	0.005	0.439	2.725	1.890	1.895	1.895	1.909	1.904	1.904
-0.005	-0.005	0.000	-0.005	-0.005	-0.005	0.435	2.666	1.895	1.895	1.890	1.909	1.904	1.899
0.000	-0.005	0.000	0.005	0.000	0.000	0.439	2.666	1.890	1.890	1.895	1.914	1.909	1.904
0.005	0.005	0.005	0.005	0.000	0.010	0.435	2.690	1.890	1.895	1.895	1.914	1.909	1.909
0.000	0.000	0.005	0.005	0.000	0.015	0.435	2.656	1.890	1.890	1.895	1.914	1.909	1.909
0.005	0.000	0.005	0.005	0.005	0.015	0.439	2.705	1.895	1.890	1.895	1.914	1.909	1.909
0.005	-0.015	0.000	0.000	0.010	-0.010	0.430	2.690	1.895	1.890	1.890	1.909	1.909	1.899
-0.005	-0.005	0.000	0.005	0.015	-0.005	0.439	2.705	1.890	1.890	1.890	1.909	1.909	1.904
0.005	-0.005	0.005	0.000	0.010	0.015	0.435	2.681	1.890	1.890	1.890	1.909	1.904	1.909
0.005	0.000	0.000	0.005	0.010	0.005	0.439	2.690	1.890	1.890	1.885	1.904	1.904	1.899
0.000	-0.005	0.000	0.000	0.015	-0.015	0.435	2.681	1.890	1.890	1.885	1.909	1.904	1.899
0.000	0.000	-0.005	0.000	0.000	-0.005	0.439	2.705	1.890	1.890	1.885	1.904	1.895	1.899
-0.010	0.000	0.000	0.000	0.000	-0.024	0.439	2.690	1.890	1.885	1.885	1.899	1.895	1.890
-0.005	0.010	0.005	0.000	0.000	0.000	0.439	2.695	1.885	1.885	1.885	1.899	1.895	1.899
0.000	0.024	0.005	0.000	-0.005	0.005	0.435	2.710	1.895	1.890	1.885	1.904	1.895	1.895
0.000	0.029	0.000	0.000	-0.005	-0.005	0.435	2.690	1.890	1.890	1.890	1.904	1.899	1.899
0.010	0.010	0.005	0.000	-0.005	0.020	0.435	2.695	1.890	1.885	1.890	1.904	1.899	1.904
0.010	0.010	0.005	0.000	0.005	0.020	0.435	2.720	1.899	1.890	1.890	1.909	1.904	1.899
-0.010	0.005	0.010	0.000	0.010	0.005	0.435	2.695	1.890	1.890	1.890	1.909	1.904	1.899
-0.005	-0.005	0.005	-0.005	0.005	0.000	0.439	2.710	1.899	1.890	1.890	1.904	1.904	1.899
0.005	0.005	0.000	0.000	-0.005	0.005	0.435	2.715	1.909	1.899	1.890	1.909	1.904	1.899
0.010	-0.005	0.005	0.000	0.000	-0.015	0.430	2.695	1.904	1.899	1.895	1.909	1.904	1.895
0.000	-0.005	0.000	0.000	0.005	0.010	0.439	2.710	1.899	1.895	1.890	1.909	1.909	1.904
0.000	0.000	0.005	0.000	0.000	0.005	0.435	2.690	1.899	1.899	1.895	1.909	1.904	1.899
-0.005	0.000	0.005	0.000	0.005	-0.020	0.435	2.705	1.895	1.895	1.890	1.909	1.904	1.895
-0.005	-0.005	0.000	-0.005	0.005	-0.015	0.430	2.705	1.895	1.890	1.890	1.909	1.904	1.899
0.000	-0.005	0.000	-0.005	0.005	0.015	0.435	2.686	1.890	1.890	1.890	1.909	1.904	1.909
-0.005	0.000	0.000	0.000	0.020	0.015	0.435	2.695	1.885	1.890	1.890	1.909	1.909	1.909
-0.005	0.000	0.005	0.000	0.005	0.024	0.439	2.808	1.899	1.890	1.885	1.909	1.899	1.904
-0.005	0.005	0.000	0.000	0.000	0.015	0.439	2.642	1.890	1.890	1.885	1.904	1.895	1.904
0.000	0.005	0.000	0.000	-0.005	0.005	0.439	2.656	1.890	1.890	1.890	1.904	1.899	1.899
0.005	0.000	0.000	0.000	0.000	0.000	0.430	2.739	1.895	1.885	1.890	1.904	1.899	1.895
-0.005	0.005	0.010	0.005	0.005	0.010	0.435	2.803	1.895	1.890	1.890	1.909	1.904	1.899
0.000	0.005	0.005	0.005	0.010	0.005	0.435	2.744	1.899	1.895	1.890	1.909	1.904	1.904
0.010	0.010	0.005	0.000	0.000	-0.005	0.439	2.700	1.899	1.899	1.895	1.909	1.899	1.899
0.005	0.010	0.005	0.000	-0.005	-0.020	0.430	2.734	1.890	1.895	1.895	1.909	1.899	1.895
-0.005	0.000	0.005	0.000	-0.015	-0.020	0.439	2.729	1.890	1.895	1.890	1.909	1.899	1.895
0.005	-0.005	0.000	-0.005	0.000	-0.010	0.430	2.632	1.890	1.890	1.890	1.914	1.909	1.899
0.005	0.000	-0.005	0.005	0.000	0.000	0.439	2.642	1.885	1.890	1.890	1.909	1.909	1.909
0.000	0.010	0.005	0.005	0.000	0.015	0.435	2.661	1.885	1.890	1.890	1.914	1.909	1.909
0.005	-0.010	0.000	0.005	0.000	0.015	0.439	2.646	1.880	1.885	1.885	1.909	1.909	1.909
0.000	-0.010	0.000	0.000	0.000	0.010	0.435	2.671	1.885	1.880	1.885	1.909	1.904	1.904
0.000	-0.010	0.000	0.005	0.010	0.010	0.439	2.632	1.880	1.880	1.880	1.904	1.904	1.904
-0.005	0.000	0.000	0.005	0.005	0.010	0.430	2.671	1.880	1.875	1.880	1.904	1.899	1.904
-0.005	0.005	0.005	0.005	0.005	0.000	0.439	2.749	1.890	1.880	1.880	1.899	1.899	1.899
0.000	-0.005	0.005	0.000	0.005	0.000	0.430	2.686	1.890	1.880	1.875	1.895	1.899	1.895
-0.005	0.010	0.000	0.000	0.005	0.000	0.430	2.705	1.890	1.880	1.880	1.895	1.895	1.895
0.000	0.000	0.000	0.000	0.005	-0.005	0.430	2.681	1.890	1.885	1.880	1.895	1.890	1.890
0.000	0.005	0.000	0.000	0.010	-0.005	0.435	2.715	1.895	1.885	1.880	1.899	1.895	1.895
0.000	-0.005	0.000	0.005	-0.005	-0.010	0.435	2.705	1.895	1.885	1.880	1.899	1.895	1.890
0.000	0.005	-0.005	0.005	0.010	0.005	0.444	2.676	1.890	1.890	1.885	1.899	1.899	1.899
0.000	0.010	0.000	0.000	0.000	-0.010	0.439	2.690	1.895	1.890	1.890	1.899	1.895	1.895
0.005	0.010	0.005	0.000	0.000	0.010	0.430	2.700	1.895	1.890	1.895	1.904	1.895	1.904
0.000	0.000	0.000	0.005	0.000	0.010	0.430	2.695	1.899	1.890	1.890	1.909	1.899	1.899
0.000	0.005	0.000	0.005	0.005	0.000	0.435	2.690	1.899	1.890	1.890	1.909	1.899	1.895
0.010	0.000	0.000	0.005	0.000	-0.024	0.435	2.681	1.895	1.890	1.895	1.909	1.899	1.890
0.005	0.005	-0.005	0.010	-0.005	0.005	0.430	2.700	1.895	1.895	1.890	1.909	1.899	1.904
0.010	0.005	0.005	0.000	0.000	0.010	0.435	2.690	1.895	1.895	1.890	1.909	1.904	1.904
0.000	0.010	0.000	0.000	0.005	0.005	0.435	2.700	1.895	1.895	1.890	1.909	1.904	1.899
-0.005	0.005	0.000	0.000	0.005	0.005	0.430	2.686	1.885	1.890	1.890	1.904	1.904	1.904
0.000	0.005	0.000	0.000	0.010	0.005	0.430	2.705	1.890	1.885	1.885	1.904	1.899	1.899
-0.010	-0.010	0.000	0.005	0.000	0.010	0.435	2.700	1.890	1.885	1.885	1.904	1.899	1.899
0.005	-0.005	0.000	0.005	-0.005	0.010	0.430	2.681	1.885	1.885	1.880	1.904	1.895	1.899
0.010	0.005	0.000	0.005	0.000	0.020	0.439	2.690	1.895	1.885	1.885	1.904	1.899	1.899
0.000	0.000	0.000	0.005	0.000	0.024	0.439	2.700	1.885	1.885	1.885	1.899	1.895	1.899
0.005	0.029	0.000	0.000	0.000	0.005	0.439	2.695	1.890	1.895	1.885	1.899	1.899	1.895
0.000	0.010	0.000	0.010	0.000	0.005	0.435	2.686	1.885	1.890	1.885	1.904	1.895	1.895
0.000	0.010	0.000	0.005	0.000	0.000	0.444	2.695	1.890	1.885	1.890	1.904	1.899	1.899
-0.005	0.005	0.005	0.000	0.000	-0.005	0.439	2.808	1.904	1.890	1.890	1.904	1.899	1.890
0.000	0.005	0.005	0.000	0.000	0.010	0.439	2.666	1.914	1.895	1.890	1.904	1.904	1.899
0.010	0.005	0.005	0.005	0.005	-0.010	0.435	2.656	1.904	1.895	1.890	1.904	1.899	1.899
0.005	0.000	0.000	0.000	0.000	-0.015	0.435	2.725	1.899	1.899	1.895	1.909	1.899	1.895
0.005	0.000	-0.005	0.005	0.005	0.000	0.435	2.646	1.895	1.899	1.890	1.909	1.904	1.899
0.005	0.000	-0.005	0.000	0.005	0.000	0.430	2.744	1.899	1.895	1.895	1.909	1.904	1.904
0.005	-0.010	0.010	0.005	0.000	-0.005	0.435	2.681	1.895	1.895	1.895	1.909	1.904	1.904
-0.005	0.000	0.000	0.005	0.010	0.000	0.439	2.759	1.895	1.895	1.890	1.909	1.904	1.899
-0.005	-0.005	0.005	-0.005	0.005	-0.005	0.425	2.734	1.895	1.890	1.890	1.904	1.899	1.899
-0.005	-0.005	-0.005	-0.005	0.010	-0.034	0.435	2.744	1.899	1.890	1.890	1.904	1.899	1.890
0.000	-0.010	0.000	-0.005	0.000	-0.005	0.435	2.656	1.885	1.890	1.885	1.904	1.899	1.899
-0.005	0.000	0.000	-0.005	0.000	-0.005	0.435	2.661	1.885	1.890	1.890	1.904	1.895	1.899
0.005	-0.005	0.000	-0.005	0.000	-0.005	0.435	2.656	1.890	1.885	1.885	1.904	1.899	1.895
-0.005	0.000	-0.005	0.000	0.005	-0.010	0.439	2.656	1.880	1.890	1.885	1.904	1.899	1.899
-0.005	0.000	0.000	0.000	0.000	0.000	0.439	2.764	1.895	1.885	1.885	1.904	1.899	1.899
0.010	0.005	0.005	0.000	0.005	-0.005	0.439	2.676	1.895	1.890	1.890	1.909	1.899	1.904
0.020	0.000	0.005	0.000	0.000	0.005	0.435	2.651	1.895	1.890	1.890	1.909	1.904	1.904
0.010	-0.005	0.000	0.000	0.005	0.015	0.439	2.690	1.890	1.895	1.890	1.909	1.904	1.909
-0.005	-0.005	0.000	0.010	0.000	0.010	0.444	2.681	1.890	1.890	1.890	1.909	1.904	1.904
0.010	0.000	0.005	0.000	0.000	0.024	0.439	2.715	1.899	1.890	1.890	1.909	1.904	1.909
-0.005	0.005	0.005	0.000	0.000	0.015	0.439	2.686	1.890	1.890	1.890	1.909	1.909	1.909
0.005	-0.005	0.005	0.000	0.000	0.034	0.430	2.695	1.895	1.890	1.890	1.909	1.904	1.909
-0.005	-0.005	-0.005	0.000	0.005	0.020	0.439	2.705	1.895	1.890	1.890	1.909	1.904	1.904
-0.005	0.000	0.005	-0.005	0.005	0.000	0.430	2.705	1.895	1.895	1.890	1.909	1.904	1.899
0.005	0.005	-0.005	0.000	0.005	0.005	0.439	2.681	1.890	1.895	1.890	1.904	1.904	1.899
0.005	0.005	0.000	0.000	0.005	0.005	0.425	2.695	1.890	1.890	1.890	1.909	1.899	1.899
-0.005	0.005	0.005	0.005	-0.005	0.005	0.430	2.690	1.890	1.885	1.890	1.904	1.899	1.899
-0.005	-0.005	0.000	0.010	-0.005	0.010	0.430	2.681	1.885	1.880	1.885	1.904	1.899	1.899
0.000	-0.005	0.000	0.010	-0.005	0.005	0.444	2.681	1.885	1.885	1.885	1.904	1.899	1.895
0.010	0.000	0.000	0.010	0.000	-0.005	0.435	2.705	1.890	1.885	1.880	1.904	1.899	1.895
0.005	0.010	0.005	0.005	0.000	-0.005	0.439	2.700	1.895	1.885	1.885	1.904	1.895	1.895
0.000	0.005	0.005	0.010	0.000	-0.010	0.435	2.686	1.890	1.885	1.885	1.904	1.899	1.895
0.000	0.000	0.005	0.005	0.000	0.015	0.439	2.715	1.895	1.890	1.885	1.904	1.904	1.904
0.005	-0.005	0.005	0.000	0.000	0.005	0.435	2.686	1.895	1.890	1.885	1.904	1.899	1.899
0.005	0.005	0.000	0.000	0.000	-0.034	0.435	2.686	1.895	1.890	1.890	1.904	1.899	1.895
0.005	-0.005	0.005	-0.005	0.000	-0.010	0.435	2.690	1.895	1.890	1.890	1.904	1.899	1.899
0.015	-0.005	0.000	-0.005	0.000	0.005	0.439	2.700	1.899	1.895	1.890	1.904	1.904	1.904
0.000	0.005	0.000	0.005	0.005	0.005	0.435	2.710	1.890	1.895	1.890	1.909	1.904	1.904
0.000	0.000	0.000	0.005	0.005	0.005	0.435	2.686	1.890	1.890	1.890	1.909	1.904	1.899
0.000	-0.005	0.005	0.010	0.005	0.000	0.435	2.690	1.890	1.890	1.890	1.909	1.904	1.899
-0.005	0.005	0.005	0.005	0.010	0.000	0.430	2.812	1.904	1.895	1.890	1.909	1.904	1.899
-0.005	0.000	0.000	0.000	0.005	0.000	0.435	2.778	1.909	1.895	1.890	1.904	1.899	1.904
0.005	0.010	0.000	0.005	0.000	-0.005	0.430	2.661	1.899	1.895	1.890	1.904	1.899	1.899
0.010	0.000	0.000	0.005	0.000	0.005	0.435	2.720	1.895	1.890	1.890	1.904	1.895	1.899
-0.015	-0.005	0.005	0.005	0.005	0.010	0.435	2.651	1.885	1.890	1.885	1.904	1.899	1.895
0.000	0.000	0.005	0.000	0.000	0.005	0.439	2.739	1.895	1.890	1.885	1.904	1.899	1.895
0.005	0.000	0.000	0.010	0.000	-0.005	0.430	2.690	1.890	1.890	1.885	1.904	1.899	1.895
-0.005	0.005	0.000	0.005	-0.005	-0.029	0.435	2.646	1.875	1.890	1.885	1.904	1.899	1.885
-0.010	0.005	0.000	0.005	-0.005	-0.029	0.425	2.720	1.885	1.890	1.890	1.904	1.899	1.895
-0.005	0.000	0.000	0.010	0.000	0.010	0.439	2.725	1.895	1.890	1.890	1.909	1.904	1.904
0.000	0.010	0.000	0.005	0.000	0.015	0.435	2.642	1.890	1.890	1.890	1.909	1.904	1.909
0.005	0.005	0.005	0.005	-0.005	0.015	0.439	2.744	1.895	1.890	1.890	1.909	1.904	1.904
0.005	0.010	0.000	0.005	0.000	0.015	0.439	2.739	1.895	1.895	1.890	1.909	1.904	1.909
0.000	0.000	0.000	0.000	0.000	0.020	0.444	2.676	1.890	1.890	1.890	1.909	1.909	1.909
-0.005	0.000	-0.005	0.005	0.005	-0.005	0.439	2.749	1.895	1.890	1.890	1.909	1.909	1.904
0.000	0.005	0.000	0.000	0.005	0.020	0.444	2.695	1.895	1.890	1.890	1.909	1.909	1.909
0.000	0.000	0.010	-0.005	0.010	0.015	0.435	2.651	1.890	1.890	1.890	1.909	1.909	1.904
-0.005	-0.015	0.005	0.000	0.005	-0.020	0.444	2.690	1.890	1.885	1.885	1.904	1.904	1.895
0.000	-0.015	0.000	0.000	0.005	-0.010	0.430	2.695	1.890	1.885	1.885	1.899	1.899	1.899
0.000	-0.005	0.005	0.000	0.010	0.005	0.435	2.700	1.890	1.885	1.885	1.904	1.899	1.904
0.005	-0.005	0.005	0.000	0.005	0.015	0.435	2.686	1.890	1.885	1.885	1.899	1.899	1.904
0.005	0.005	0.000	0.000	0.010	-0.005	0.435	2.690	1.890	1.885	1.880	1.899	1.899	1.895
0.000	0.005	0.005	0.000	0.005	0.005	0.439	2.681	1.885	1.885	1.885	1.895	1.895	1.899
0.000	-0.005	0.010	-0.005	0.000	0.000	0.439	2.710	1.890	1.885	1.885	1.899	1.890	1.895
0.000	0.005	0.005	0.000	0.000	0.010	0.435	2.710	1.895	1.890	1.885	1.899	1.895	1.895
0.010	0.015	0.000	0.005	0.000	0.000	0.439	2.681	1.895	1.899	1.890	1.904	1.895	1.899
0.005	0.010	-0.005	0.000	0.000	0.005	0.439	2.686	1.904	1.895	1.890	1.904	1.895	1.895
0.005	0.005	0.005	0.000	0.005	0.005	0.439	2.690	1.899	1.899	1.890	1.904	1.899	1.895
0.005	0.010	-0.005	0.000	-0.005	0.010	0.435	2.690	1.895	1.899	1.895	1.909	1.899	1.899
-0.005	0.010	0.000	0.000	0.000	0.000	0.430	2.700	1.890	1.895	1.895	1.909	1.904	1.904
0.005	0.000	0.000	0.000	0.000	0.010	0.435	2.695	1.899	1.895	1.895	1.909	1.904	1.904
0.005	0.000	0.000	0.000	0.000	0.005	0.439	2.686	1.899	1.895	1.895	1.914	1.904	1.904
-0.005	-0.010	0.005	0.005	0.000	-0.005	0.444	2.700	1.890	1.890	1.890	1.909	1.904	1.899
0.005	0.000	0.005	0.005	0.005	0.000	0.435	2.686	1.890	1.895	1.890	1.909	1.904	1.899
0.000	0.000	0.005	0.005	0.005	-0.005	0.435	2.700	1.890	1.890	1.890	1.909	1.904	1.899
-0.005	0.000	0.000	0.000	0.005	-0.024	0.435	2.690	1.890	1.885	1.890	1.909	1.904	1.895
0.000	0.000	0.000	0.000	0.010	-0.005	0.435	2.705	1.890	1.885	1.885	1.904	1.904	1.899
0.005	0.000	0.005	0.005	0.000	-0.005	0.439	2.700	1.890	1.885	1.885	1.904	1.899	1.899
0.000	0.000	0.000	0.005	0.010	-0.034	0.435	2.690	1.880	1.885	1.885	1.904	1.899	1.895
0.000	0.000	0.005	0.000	0.010	0.005	0.435	2.681	1.885	1.885	1.880	1.899	1.899	1.904
0.005	0.005	0.005	0.005	0.000	0.010	0.435	2.808	1.904	1.885	1.885	1.904	1.895	1.899
0.005	0.005	0.000	0.000	0.000	0.000	0.439	2.661	1.909	1.895	1.885	1.904	1.895	1.895
0.005	0.020	-0.005	0.000	-0.005	0.010	0.439	2.661	1.899	1.899	1.890	1.904	1.899	1.904
0.000	0.010	0.000	0.000	-0.005	0.010	0.435	2.720	1.904	1.895	1.895	1.909	1.899	1.904
0.000	-0.010	0.000	0.005	0.000	0.029	0.439	2.656	1.899	1.895	1.895	1.909	1.904	1.909
0.000	-0.005	0.000	0.005	0.005	0.034	0.435	2.749	1.904	1.895	1.895	1.914	1.904	1.909
0.005	-0.005	0.000	0.005	0.000	0.059	0.435	2.695	1.904	1.899	1.895	1.914	1.909	1.914
0.005	0.005	0.005	0.005	0.000	0.039	0.430	2.646	1.895	1.904	1.899	1.914	1.909	1.909
0.005	-0.010	0.000	0.005	0.005	0.024	0.439	2.729	1.899	1.895	1.895	1.914	1.904	1.904
0.000	0.005	0.000	0.005	-0.005	0.020	0.435	2.754	1.909	1.899	1.899	1.914	1.904	1.899
0.000	0.005	0.000	0.005	0.005	0.000	0.435	2.690	1.890	1.899	1.895	1.909	1.909	1.899
0.000	0.000	0.005	0.000	0.000	0.015	0.430	2.646	1.885	1.890	1.895	1.909	1.904	1.899
-0.010	0.010	0.005	0.005	-0.005	-0.015	0.435	2.656	1.880	1.895	1.890	1.909	1.904	1.895
0.000	0.000	0.005	0.000	-0.005	0.005	0.439	2.666	1.885	1.885	1.885	1.904	1.904	1.899
0.005	0.000	0.000	0.005	0.005	-0.005	0.439	2.754	1.890	1.885	1.885	1.904	1.904	1.899
0.010	0.005	0.005	0.005	0.005	-0.010	0.439	2.695	1.885	1.885	1.885	1.904	1.904	1.899
0.005	0.010	0.010	0.005	0.000	-0.020	0.439	2.661	1.880	1.885	1.890	1.904	1.899	1.895
-0.005	0.010	0.000	-0.005	0.010	-0.015	0.435	2.695	1.885	1.885	1.885	1.904	1.899	1.899
0.005	0.005	-0.005	0.000	0.000	-0.015	0.435	2.705	1.895	1.880	1.880	1.904	1.899	1.899
0.000	0.000	0.000	0.000	0.000	-0.005	0.435	2.720	1.895	1.880	1.880	1.904	1.899	1.904
0.000	0.005	0.005	0.000	0.000	-0.020	0.439	2.695	1.899	1.885	1.885	1.904	1.899	1.899
0.015	0.005	0.000	0.000	0.005	-0.005	0.439	2.710	1.904	1.890	1.885	1.904	1.899	1.904
-0.005	0.005	0.000	0.000	0.000	-0.005	0.439	2.695	1.899	1.895	1.890	1.904	1.899	1.899
0.000	0.010	0.000	0.000	0.000	0.000	0.435	2.705	1.899	1.899	1.890	1.909	1.904	1.904
-0.005	-0.005	0.000	0.000	-0.010	0.010	0.439	2.700	1.895	1.895	1.890	1.909	1.904	1.904
0.005	-0.010	0.005	0.000	0.000	-0.024	0.430	2.690	1.899	1.895	1.890	1.904	1.904	1.895
0.000	-0.010	0.005	0.005	0.000	0.000	0.430	2.695	1.895	1.895	1.890	1.909	1.904	1.904
-0.005	0.000	0.000	0.000	0.005	-0.005	0.439	2.695	1.890	1.895	1.890	1.909	1.904	1.904
0.005	-0.005	0.005	0.000	0.005	0.000	0.435	2.695	1.890	1.890	1.890	1.909	1.904	1.904
0.005	0.005	0.005	0.000	0.010	0.000	0.439	2.710	1.890	1.890	1.890	1.904	1.904	1.904
-0.005	0.005	0.005	0.000	0.010	0.000	0.435	2.681	1.890	1.890	1.885	1.904	1.899	1.895
0.000	-0.005	0.005	0.000	0.000	-0.015	0.439	2.700	1.885	1.885	1.885	1.899	1.899	1.895
0.005	0.000	0.000	0.005	0.005	0.015	0.435	2.695	1.890	1.885	1.880	1.904	1.899	1.904
0.005	0.010	0.005	0.005	0.000	-0.005	0.435	2.686	1.890	1.890	1.885	1.904	1.895	1.899
0.005	-0.010	-0.005	0.000	0.005	0.000	0.444	2.686	1.890	1.885	1.880	1.899	1.895	1.899
0.010	0.015	0.000	-0.005	-0.005	0.024	0.435	2.681	1.895	1.895	1.885	1.904	1.895	1.904
0.005	0.000	-0.005	0.005	-0.005	0.005	0.439	2.695	1.895	1.890	1.890	1.904	1.899	1.899
-0.005	-0.005	-0.005	0.010	-0.005	0.020	0.430	2.695	1.885	1.885	1.890	1.909	1.899	1.899
0.000	-0.005	0.005	0.015	-0.005	0.024	0.439	2.686	1.895	1.890	1.890	1.909	1.904	1.904
0.005	0.005	0.000	0.015	-0.005	0.020	0.425	2.690	1.895	1.890	1.890	1.909	1.904	1.899
0.010	-0.005	-0.005	0.015	-0.005	0.005	0.435	2.803	1.909	1.895	1.890	1.909	1.904	1.895
0.000	-0.005	0.000	0.005	-0.005	0.005	0.430	2.769	1.909	1.895	1.895	1.909	1.904	1.904
-0.005	-0.010	0.005	0.005	0.000	0.005	0.435	2.671	1.904	1.899	1.895	1.909	1.904	1.904
0.005	0.000	0.005	0.000	0.010	-0.020	0.435	2.720	1.904	1.899	1.895	1.904	1.904	1.899
0.000	0.005	0.000	-0.005	0.005	-0.024	0.435	2.642	1.890	1.899	1.890	1.909	1.899	1.895
0.000	0.000	0.000	-0.005	0.005	-0.020	0.435	2.739	1.895	1.895	1.890	1.904	1.899	1.895
-0.010	0.005	0.000	-0.010	0.000	0.005	0.435	2.681	1.890	1.890	1.890	1.904	1.899	1.904
-0.005	0.015	0.000	-0.005	0.005	0.010	0.435	2.739	1.895	1.895	1.890	1.904	1.899	1.904
-0.005	0.015	0.000	0.000	-0.005	0.010	0.439	2.739	1.895	1.895	1.885	1.904	1.899	1.899
0.000	0.010	-0.005	0.010	0.000	-0.005	0.430	2.734	1.899	1.890	1.890	1.909	1.899	1.899
0.000	0.015	0.005	0.005	0.000	0.000	0.439	2.646	1.890	1.895	1.895	1.904	1.904	1.899
0.005	0.005	0.005	0.000	0.005	0.000	0.435	2.661	1.885	1.890	1.890	1.909	1.899	1.899
0.000	0.000	0.005	-0.005	-0.005	0.000	0.435	2.764	1.899	1.890	1.890	1.909	1.904	1.899
0.010	-0.005	0.005	-0.005	0.000	0.024	0.439	2.681	1.899	1.890	1.890	1.909	1.909	1.909
0.005	0.000	0.005	0.005	0.000	0.005	0.439	2.759	1.904	1.895	1.895	1.914	1.904	1.904
-0.005	0.005	0.000	0.005	0.000	0.010	0.435	2.681	1.899	1.895	1.895	1.914	1.909	1.904
0.005	-0.005	0.000	0.005	0.000	-0.010	0.435	2.651	1.895	1.895	1.895	1.914	1.909	1.904
0.005	-0.015	0.005	0.005	0.010	0.020	0.430	2.710	1.899	1.890	1.895	1.914	1.909	1.914
0.000	0.000	0.005	0.005	0.000	0.010	0.439	2.700	1.899	1.904	1.895	1.914	1.909	1.904
0.005	0.010	0.000	0.005	0.015	0.020	0.435	2.681	1.895	1.899	1.895	1.914	1.909	1.909
0.000	0.010	0.010	0.010	0.010	0.010	0.444	2.690	1.895	1.899	1.895	1.914	1.909	1.909
0.000	0.005	0.005	0.000	0.015	0.010	0.435	2.686	1.890	1.890	1.890	1.909	1.909	1.904
0.005	0.000	0.000	0.005	0.005	0.005	0.444	2.700	1.890	1.885	1.890	1.909	1.904	1.909
0.000	-0.015	0.000	0.010	0.000	0.010	0.430	2.700	1.885	1.880	1.885	1.909	1.899	1.899
0.000	-0.010	0.000	0.005	0.005	0.005	0.439	2.695	1.890	1.880	1.880	1.899	1.899	1.899
0.010	-0.005	0.000	0.005	0.005	-0.020	0.435	2.690	1.890	1.885	1.885	1.904	1.899	1.890
0.000	-0.005	0.000	0.000	0.000	0.005	0.439	2.705	1.890	1.885	1.885	1.899	1.899	1.904
0.010	0.000	-0.005	0.005	0.000	0.010	0.430	2.676	1.890	1.890	1.885	1.899	1.899	1.899
0.000	0.000	0.000	0.000	0.000	0.005	0.439	2.705	1.890	1.890	1.885	1.904	1.899	1.899
0.010	-0.005	0.005	0.000	0.000	0.000	0.435	2.705	1.895	1.890	1.890	1.904	1.899	1.899
0.005	0.010	0.005	0.010	0.000	0.000	0.435	2.686	1.895	1.895	1.890	1.904	1.899	1.899
0.015	0.000	0.005	0.005	-0.010	-0.005	0.439	2.676	1.899	1.895	1.890	1.909	1.899	1.899
0.010	-0.005	0.000	0.000	-0.005	-0.005	0.430	2.700	1.895	1.895	1.890	1.909	1.899	1.899
0.000	0.005	0.000	0.005	0.005	-0.005	0.439	2.686	1.890	1.895	1.895	1.909	1.904	1.904
0.000	0.000	0.000	0.005	0.005	0.000	0.435	2.690	1.895	1.890	1.895	1.909	1.904	1.904
-0.005	0.000	0.005	0.000	0.000	0.005	0.439	2.690	1.895	1.890	1.890	1.909	1.904	1.904
-0.005	0.005	0.000	-0.005	0.005	-0.015	0.430	2.700	1.890	1.890	1.890	1.909	1.904	1.899
0.000	0.010	0.005	-0.005	0.005	0.010	0.444	2.705	1.890	1.890	1.890	1.904	1.904	1.904
0.005	0.005	0.000	-0.005	0.005	0.005	0.435	2.686	1.890	1.885	1.885	1.909	1.899	1.904
0.000	0.000	0.000	-0.005	0.010	0.005	0.435	2.700	1.890	1.885	1.885	1.904	1.899	1.899
-0.005	0.005	0.000	-0.005	0.010	-0.024	0.439	2.808	1.895	1.885	1.885	1.904	1.899	1.890
0.000	0.010	-0.005	0.005	0.010	-0.020	0.439	2.651	1.909	1.890	1.885	1.904	1.899	1.895
0.010	0.005	0.005	0.000	-0.005	0.020	0.430	2.661	1.899	1.895	1.885	1.904	1.895	1.904
-0.005	0.020	0.000	0.000	-0.005	0.015	0.435	2.715	1.895	1.895	1.890	1.904	1.895	1.899
0.000	0.005	0.005	0.005	0.005	0.010	0.435	2.656	1.890	1.890	1.890	1.904	1.899	1.899
0.000	0.015	0.000	0.005	0.000	-0.020	0.435	2.744	1.899	1.899	1.895	1.909	1.899	1.890
0.010	0.010	0.000	0.005	-0.005	0.010	0.425	2.690	1.899	1.895	1.895	1.909	1.904	1.904
0.000	0.005	0.000	0.005	0.000	0.015	0.430	2.646	1.890	1.895	1.895	1.914	1.904	1.904
0.000	-0.005	0.005	0.005	-0.005	-0.005	0.430	2.729	1.895	1.895	1.895	1.909	1.904	1.899
0.005	0.000	0.000	0.005	0.000	0.015	0.439	2.651	1.895	1.895	1.895	1.914	1.909	1.909
0.005	0.000	0.000	0.005	-0.005	-0.005	0.435	2.642	1.899	1.895	1.895	1.914	1.904	1.904
0.005	0.000	0.000	0.000	0.000	0.005	0.435	2.646	1.890	1.895	1.895	1.914	1.909	1.904
-0.005	-0.005	0.000	0.005	0.005	0.005	0.435	2.749	1.899	1.899	1.895	1.914	1.909	1.909
0.000	0.000	0.005	0.005	0.000	-0.005	0.439	2.686	1.895	1.895	1.890	1.914	1.909	1.899
0.005	0.000	0.000	0.005	0.000	0.010	0.439	2.729	1.895	1.890	1.890	1.909	1.904	1.909
0.005	0.010	0.000	0.005	0.005	0.015	0.435	2.671	1.890	1.895	1.890	1.909	1.904	1.909
-0.005	0.005	0.000	0.000	0.005	0.015	0.444	2.646	1.885	1.890	1.885	1.904	1.904	1.899
-0.005	0.000	0.000	0.000	0.000	-0.015	0.430	2.695	1.890	1.885	1.885	1.904	1.899	1.890
0.000	0.005	-0.005	-0.005	0.000	0.015	0.430	2.690	1.890	1.890	1.885	1.899	1.899	1.904
0.000	0.000	0.000	-0.005	0.000	0.010	0.430	2.700	1.890	1.885	1.885	1.904	1.899	1.899
0.005	0.005	0.005	-0.010	-0.005	0.000	0.439	2.710	1.895	1.890	1.885	1.904	1.899	1.899
0.005	-0.020	0.005	-0.005	0.000	-0.020	0.435	2.695	1.895	1.880	1.885	1.904	1.899	1.890
0.000	-0.015	0.000	0.005	0.000	0.015	0.439	2.710	1.890	1.885	1.885	1.904	1.899	1.904
0.005	-0.005	0.000	0.005	0.000	0.015	0.435	2.715	1.899	1.890	1.890	1.909	1.904	1.904
0.005	-0.005	0.010	0.005	0.000	0.010	0.439	2.705	1.899	1.895	1.890	1.909	1.904	1.899
0.005	0.000	0.005	0.000	-0.005	0.005	0.430	2.681	1.899	1.899	1.890	1.904	1.904	1.899
0.005	0.005	0.005	0.000	0.000	0.010	0.444	2.690	1.899	1.895	1.895	1.909	1.904	1.904
0.010	0.000	0.000	0.000	0.005	0.000	0.430	2.686	1.895	1.895	1.895	1.914	1.909	1.904
-0.005	0.005	0.000	-0.005	0.000	0.000	0.444	2.695	1.895	1.899	1.895	1.909	1.909	1.904
0.000	0.000	0.000	0.010	0.005	-0.020	0.439	2.690	1.890	1.895	1.895	1.914	1.904	1.899
0.005	0.005	0.000	0.005	0.010	-0.005	0.439	2.676	1.890	1.890	1.890	1.909	1.909	1.904
0.005	0.005	0.005	0.005	0.005	0.000	0.439	2.705	1.890	1.885	1.890	1.909	1.904	1.904
0.000	0.000	0.005	0.015	0.000	0.000	0.444	2.700	1.890	1.885	1.885	1.909	1.904	1.904
0.000	0.000	-0.005	0.010	0.000	-0.005	0.435	2.690	1.885	1.885	1.885	1.904	1.899	1.899
0.005	0.015	0.000	0.005	0.005	-0.010	0.439	2.690	1.890	1.890	1.885	1.904	1.899	1.899
-0.010	0.010	0.000	0.000	-0.005	-0.020	0.435	2.690	1.890	1.885	1.880	1.904	1.899	1.890
0.015	-0.005	0.005	0.000	0.000	0.005	0.444	2.695	1.890	1.885	1.885	1.899	1.899	1.904
0.005	-0.005	0.000	-0.005	0.005	0.005	0.435	2.710	1.895	1.885	1.880	1.899	1.899	1.904
0.005	0.000	0.000	0.000	0.000	-0.015	0.439	2.690	1.899	1.890	1.885	1.904	1.899	1.895
-0.010	0.000	0.000	0.005	0.005	0.005	0.435	2.695	1.890	1.890	1.885	1.904	1.899	1.899
0.000	0.000	0.000	-0.005	0.000	0.010	0.435	2.812	1.909	1.895	1.890	1.904	1.899	1.904
0.000	0.010	0.005	0.000	0.005	0.015	0.444	2.656	1.899	1.899	1.890	1.909	1.904	1.904
-0.005	-0.005	0.005	0.000	0.000	0.000	0.435	2.671	1.895	1.895	1.890	1.909	1.904	1.899
0.005	0.000	0.000	0.000	0.000	-0.010	0.435	2.739	1.899	1.899	1.895	1.909	1.904	1.899
0.000	0.005	0.005	0.005	0.005	-0.005	0.435	2.783	1.909	1.899	1.895	1.909	1.904	1.904
-0.010	0.005	0.000	0.005	0.005	-0.005	0.439	2.734	1.909	1.899	1.895	1.914	1.904	1.904
0.000	-0.005	0.005	0.005	0.000	-0.015	0.430	2.686	1.904	1.899	1.890	1.914	1.909	1.899
0.000	0.000	0.000	0.010	-0.005	0.000	0.435	2.729	1.904	1.904	1.895	1.909	1.904	1.904
0.010	0.000	0.000	0.010	0.000	0.015	0.435	2.729	1.904	1.899	1.899	1.909	1.904	1.904
0.010	0.005	0.005	0.005	0.000	0.005	0.444	2.739	1.904	1.899	1.895	1.914	1.904	1.909
0.010	0.005	0.005	0.005	0.000	0.000	0.435	2.651	1.890	1.899	1.895	1.914	1.904	1.904
-0.005	0.015	0.005	0.000	0.005	0.015	0.439	2.637	1.880	1.895	1.890	1.909	1.904	1.904
0.005	0.010	0.000	0.000	-0.005	-0.015	0.435	2.734	1.890	1.890	1.890	1.909	1.904	1.895
-0.005	0.005	0.000	0.000	0.000	-0.005	0.439	2.661	1.885	1.890	1.890	1.909	1.904	1.904
-0.005	0.000	0.000	0.005	0.000	0.005	0.435	2.646	1.880	1.885	1.890	1.909	1.909	1.909
0.000	0.000	0.000	0.000	0.000	0.005	0.435	2.695	1.885	1.885	1.890	1.909	1.904	1.904
0.000	0.000	0.005	0.000	0.005	-0.005	0.435	2.754	1.899	1.885	1.885	1.909	1.904	1.904
0.005	-0.010	0.000	-0.005	0.005	0.015	0.435	2.705	1.904	1.890	1.885	1.909	1.909	1.909
0.015	0.010	0.005	-0.005	0.000	0.010	0.430	2.695	1.904	1.899	1.890	1.909	1.904	1.909
0.005	-0.005	0.000	-0.005	0.000	0.020	0.435	2.690	1.899	1.895	1.890	1.909	1.904	1.909
0.000	0.000	-0.005	-0.005	0.000	0.015	0.430	2.695	1.899	1.895	1.895	1.909	1.904	1.909
-0.010	-0.005	0.005	0.000	0.000	0.015	0.430	2.690	1.895	1.895	1.895	1.909	1.909	1.904
0.005	-0.005	0.000	0.000	0.000	0.015	0.435	2.695	1.899	1.895	1.890	1.909	1.909	1.909
0.005	0.000	0.005	0.000	0.005	-0.010	0.430	2.705	1.895	1.895	1.890	1.909	1.909	1.899
0.005	0.005	0.005	0.005	0.000	-0.024	0.430	2.686	1.890	1.895	1.890	1.909	1.904	1.899
0.005	0.005	0.010	0.000	0.000	0.005	0.439	2.666	1.885	1.890	1.890	1.904	1.904	1.904
-0.010	0.005	0.005	-0.005	0.000	0.000	0.435	2.705	1.885	1.885	1.890	1.904	1.904	1.899
0.005	0.005	0.000	0.000	0.005	0.015	0.435	2.690	1.890	1.880	1.885	1.909	1.904	1.909
0.000	0.005	0.000	0.005	0.005	0.005	0.430	2.686	1.890	1.885	1.885	1.904	1.904	1.904
-0.010	0.010	0.005	0.000	0.005	0.005	0.430	2.705	1.890	1.885	1.885	1.904	1.899	1.904
0.005	-0.005	0.010	0.010	0.000	-0.005	0.439	2.700	1.899	1.885	1.885	1.904	1.899	1.899
0.005	-0.005	0.000	0.005	0.005	0.010	0.435	2.690	1.890	1.890	1.885	1.904	1.899	1.899
0.000	0.000	-0.005	0.010	0.005	0.015	0.444	2.690	1.895	1.890	1.885	1.904	1.899	1.904
-0.005	0.000	0.000	0.005	-0.005	0.010	0.430	2.710	1.895	1.890	1.885	1.904	1.904	1.904
0.005	0.005	0.000	0.005	0.000	-0.010	0.430	2.676	1.895	1.895	1.890	1.904	1.904	1.895
0.000	0.000	0.000	0.000	0.000	0.010	0.430	2.686	1.895	1.899	1.895	1.909	1.899	1.909
0.005	0.000	0.000	0.000	0.005	-0.010	0.439	2.715	1.899	1.895	1.890	1.909	1.904	1.899
0.005	0.000	0.000	0.000	0.005	0.020	0.435	2.695	1.895	1.895	1.890	1.904	1.904	1.904
0.010	-0.005	-0.010	-0.005	0.000	0.015	0.435	2.686	1.899	1.895	1.890	1.909	1.904	1.904
0.005	-0.010	0.000	-0.005	0.005	0.005	0.430	2.686	1.895	1.890	1.890	1.909	1.904	1.899
-0.005	-0.015	0.005	0.000	0.005	-0.020	0.435	2.808	1.904	1.890	1.890	1.909	1.899	1.890
0.000	0.000	0.005	0.005	0.005	0.005	0.439	2.646	1.895	1.895	1.890	1.909	1.904	1.904
0.005	0.000	0.000	0.000	0.010	0.000	0.439	2.651	1.890	1.890	1.885	1.904	1.904	1.904
-0.005	0.000	0.005	0.005	0.005	0.000	0.435	2.715	1.890	1.890	1.885	1.904	1.899	1.899
-0.005	0.005	-0.005	0.000	-0.005	-0.015	0.444	2.656	1.880	1.885	1.885	1.899	1.895	1.895
0.000	0.005	0.000	0.005	0.000	0.000	0.435	2.739	1.885	1.885	1.885	1.904	1.899	1.895
0.000	0.000	0.005	0.005	0.000	-0.005	0.444	2.705	1.890	1.885	1.885	1.904	1.899	1.895
0.000	0.005	0.005	0.005	-0.005	0.015	0.439	2.661	1.890	1.890	1.890	1.904	1.899	1.904
-0.005	0.005	0.005	0.005	-0.005	-0.005	0.439	2.739	1.895	1.890	1.885	1.904	1.899	1.895
0.005	0.005	0.005	0.005	-0.005	0.000	0.430	2.754	1.904	1.895	1.890	1.904	1.899	1.899
0.000	0.000	0.005	0.000	-0.005	0.010	0.435	2.739	1.904	1.895	1.890	1.909	1.899	1.904
0.005	0.000	0.005	-0.005	-0.005	0.015	0.435	2.661	1.904	1.899	1.890	1.909	1.899	1.904
-0.005	0.010	0.000	0.000	0.000	0.005	0.439	2.666	1.895	1.904	1.895	1.909	1.904	1.899
0.005	0.005	0.005	0.000	0.005	0.000	0.444	2.676	1.895	1.895	1.895	1.909	1.909	1.899
-0.010	0.005	0.000	0.000	0.000	0.000	0.435	2.725	1.885	1.895	1.895	1.909	1.904	1.904
0.005	0.010	0.005	0.005	0.000	0.005	0.439	2.690	1.890	1.895	1.895	1.909	1.904	1.904
-0.010	0.000	0.000	-0.005	-0.005	0.005	0.444	2.656	1.885	1.890	1.895	1.909	1.904	1.899
-0.005	-0.005	0.005	0.000	0.000	0.000	0.435	2.676	1.885	1.885	1.890	1.909	1.904	1.904
-0.005	0.010	0.005	0.000	0.000	-0.005	0.430	2.695	1.885	1.885	1.890	1.909	1.899	1.899
-0.005	0.010	0.005	0.005	0.005	-0.029	0.435	2.700	1.885	1.885	1.885	1.909	1.904	1.895
-0.005	0.005	-0.005	0.005	0.000	0.000	0.435	2.690	1.885	1.880	1.880	1.899	1.899	1.899
0.005	-0.010	0.005	0.005	-0.005	0.000	0.444	2.681	1.890	1.880	1.880	1.904	1.899	1.904
0.015	0.010	0.000	0.005	0.000	-0.010	0.435	2.700	1.895	1.885	1.880	1.904	1.899	1.899
0.015	0.005	0.000	0.005	0.000	0.005	0.439	2.686	1.890	1.885	1.885	1.904	1.899	1.904
0.024	0.000	0.005	0.005	0.000	-0.020	0.430	2.705	1.899	1.890	1.880	1.904	1.895	1.895
0.020	0.005	0.005	0.000	0.010	-0.005	0.439	2.690	1.890	1.890	1.885	1.904	1.899	1.904
0.010	0.005	0.000	-0.005	0.005	0.005	0.430	2.686	1.895	1.890	1.885	1.904	1.899	1.904
0.015	-0.005	0.000	0.000	0.000	0.000	0.439	2.690	1.890	1.890	1.885	1.904	1.899	1.899
0.005	0.010	0.000	0.000	0.010	-0.029	0.439	2.700	1.895	1.899	1.890	1.904	1.899	1.895
0.005	0.005	0.000	0.000	0.005	-0.029	0.435	2.700	1.895	1.890	1.890	1.909	1.899	1.899
0.000	-0.015	0.005	0.000	0.005	-0.005	0.430	2.690	1.895	1.890	1.890	1.909	1.904	1.899
0.000	-0.010	0.000	0.000	0.010	0.015	0.435	2.705	1.895	1.890	1.890	1.909	1.904	1.909
0.010	0.005	0.000	0.005	0.020	0.010	0.425	2.705	1.899	1.895	1.890	1.909	1.904	1.909
-0.005	-0.010	0.000	0.005	0.020	0.020	0.435	2.681	1.890	1.890	1.885	1.904	1.904	1.904
-0.010	0.000	0.000	0.000	0.015	0.024	0.430	2.705	1.890	1.895	1.890	1.904	1.904	1.904
0.000	0.005	0.000	0.005	0.015	0.024	0.439	2.681	1.890	1.890	1.885	1.904	1.904	1.904
0.000	0.000	0.000	0.005	0.020	0.029	0.435	2.695	1.890	1.885	1.885	1.904	1.899	1.904
-0.005	0.015	0.000	0.000	0.020	0.029	0.435	2.705	1.890	1.890	1.885	1.904	1.899	1.899
-0.005	0.005	0.000	0.005	0.020	0.010	0.435	2.695	1.885	1.885	1.885	1.904	1.899	1.895
0.000	-0.005	0.005	0.005	0.020	0.010	0.430	2.690	1.890	1.885	1.885	1.899	1.895	1.895
0.005	-0.005	0.005	-0.005	0.015	0.005	0.430	2.817	1.904	1.890	1.890	1.899	1.895	1.895
0.000	0.005	0.000	0.005	0.005	0.000	0.430	2.651	1.909	1.895	1.890	1.904	1.895	1.895
0.010	0.005	0.000	0.005	0.010	-0.005	0.439	2.661	1.904	1.899	1.895	1.904	1.899	1.895
0.000	0.000	0.005	0.005	0.005	0.015	0.439	2.720	1.909	1.899	1.899	1.909	1.899	1.899
0.000	0.010	0.005	0.005	0.010	0.015	0.439	2.651	1.899	1.904	1.895	1.914	1.904	1.904
0.010	0.005	0.000	0.005	0.010	0.005	0.430	2.729	1.904	1.904	1.895	1.909	1.904	1.899
0.005	0.010	0.000	0.005	0.010	0.010	0.439	2.686	1.899	1.904	1.899	1.914	1.904	1.904
0.000	0.005	0.000	0.000	0.005	0.000	0.435	2.671	1.895	1.895	1.899	1.914	1.904	1.899
0.005	0.000	0.005	0.005	0.005	-0.005	0.444	2.729	1.899	1.899	1.899	1.919	1.909	1.899
-0.005	0.005	0.000	0.000	0.005	-0.020	0.435	2.646	1.899	1.895	1.895	1.914	1.909	1.899
0.000	0.000	0.000	0.000	0.000	-0.020	0.439	2.720	1.890	1.895	1.890	1.909	1.909	1.895
-0.005	-0.005	0.005	0.005	0.000	-0.005	0.439	2.646	1.880	1.890	1.895	1.909	1.904	1.904
-0.005	0.005	0.005	0.005	0.000	0.000	0.439	2.754	1.890	1.890	1.890	1.909	1.904	1.904
0.005	-0.005	0.000	0.000	0.000	-0.020	0.430	2.666	1.890	1.885	1.885	1.909	1.904	1.899
0.000	0.000	0.005	0.005	-0.005	0.015	0.439	2.739	1.890	1.885	1.885	1.909	1.904	1.904
0.000	0.000	0.000	-0.005	-0.020	0.029	0.430	2.671	1.890	1.890	1.885	1.904	1.895	1.909
0.000	0.010	0.000	0.000	-0.020	0.024	0.439	2.676	1.885	1.885	1.890	1.904	1.899	1.904
0.000	0.015	0.005	0.005	-0.015	0.039	0.444	2.695	1.885	1.890	1.885	1.904	1.899	1.909
0.005	0.010	0.000	0.005	-0.020	0.024	0.435	2.681	1.890	1.885	1.885	1.904	1.899	1.904
0.000	0.000	0.005	0.005	-0.015	0.005	0.439	2.705	1.895	1.890	1.885	1.904	1.899	1.895
0.000	0.005	0.005	0.010	-0.010	-0.034	0.435	2.695	1.895	1.895	1.890	1.909	1.904	1.890
0.005	0.020	0.005	0.005	-0.005	-0.015	0.444	2.695	1.899	1.899	1.895	1.909	1.904	1.899
0.005	0.010	0.000	0.005	0.000	-0.005	0.430	2.705	1.899	1.895	1.895	1.909	1.909	1.904
0.005	0.010	-0.005	0.005	-0.005	-0.010	0.439	2.681	1.895	1.895	1.890	1.909	1.904	1.904
-0.005	0.005	0.000	0.005	-0.005	0.005	0.430	2.695	1.895	1.890	1.890	1.909	1.904	1.909
-0.005	0.000	0.000	0.000	-0.010	0.015	0.439	2.676	1.890	1.890	1.890	1.904	1.904	1.909
0.000	-0.005	0.000	0.005	-0.010	0.005	0.435	2.700	1.895	1.890	1.890	1.909	1.904	1.904
0.000	-0.010	0.000	0.005	-0.010	0.029	0.435	2.686	1.885	1.885	1.885	1.904	1.904	1.909
0.000	0.000	0.005	0.000	-0.015	0.020	0.435	2.686	1.890	1.885	1.885	1.904	1.899	1.904
0.000	0.000	0.005	0.005	-0.005	0.034	0.439	2.700	1.890	1.885	1.885	1.904	1.904	1.904
-0.005	-0.005	0.000	0.000	0.005	0.000	0.430	2.705	1.885	1.880	1.885	1.904	1.904	1.895
-0.005	0.000	0.000	0.000	0.005	0.010	0.439	2.700	1.890	1.885	1.880	1.899	1.899	1.899
0.000	0.015	0.000	0.000	0.005	-0.020	0.439	2.710	1.890	1.885	1.880	1.899	1.899	1.890
0.005	-0.005	0.000	0.000	0.005	-0.039	0.435	2.690	1.890	1.885	1.880	1.899	1.899	1.890
0.005	0.005	0.010	0.000	0.005	-0.063	0.439	2.715	1.895	1.890	1.885	1.899	1.895	1.880
0.010	0.000	0.005	0.000	0.010	-0.039	0.435	2.705	1.895	1.890	1.885	1.904	1.899	1.895
0.005	0.010	0.005	0.005	0.005	-0.024	0.444	2.700	1.895	1.895	1.885	1.904	1.899	1.904
0.005	0.005	0.000	-0.005	0.010	-0.005	0.435	2.705	1.895	1.895	1.885	1.904	1.899	1.909
0.000	0.015	0.005	0.000	0.000	0.000	0.439	2.695	1.899	1.895	1.890	1.909	1.899	1.904
-0.005	0.005	0.000	-0.005	0.005	0.005	0.435	2.700	1.895	1.890	1.890	1.909	1.904	1.904
0.005	-0.005	0.000	0.000	0.005	-0.005	0.439	2.812	1.909	1.895	1.890	1.909	1.899	1.899
0.000	0.005	0.000	0.000	0.005	-0.015	0.435	2.656	1.899	1.899	1.895	1.909	1.904	1.899
0.010	0.000	0.000	0.005	0.010	-0.029	0.430	2.651	1.895	1.895	1.890	1.909	1.904	1.895
-0.005	-0.005	0.005	0.000	0.015	0.005	0.435	2.725	1.895	1.890	1.890	1.909	1.904	1.909
0.000	0.005	0.005	0.000	0.015	0.015	0.435	2.651	1.885	1.895	1.895	1.909	1.904	1.909
-0.005	0.000	0.005	0.005	0.010	0.015	0.439	2.739	1.890	1.890	1.885	1.909	1.904	1.909
0.005	0.005	0.000	0.000	0.015	0.010	0.435	2.700	1.899	1.890	1.885	1.904	1.899	1.899
-0.010	-0.005	0.000	-0.005	0.015	-0.005	0.435	2.744	1.895	1.885	1.885	1.899	1.899	1.895
0.005	-0.005	0.000	0.005	0.010	0.034	0.439	2.725	1.899	1.890	1.885	1.904	1.899	1.909
0.000	0.010	0.010	-0.005	0.010	-0.010	0.435	2.749	1.899	1.890	1.885	1.899	1.895	1.895
0.000	0.010	0.005	-0.005	0.005	0.024	0.439	2.744	1.904	1.895	1.890	1.904	1.899	1.904
0.005	0.010	0.000	0.000	0.000	-0.015	0.435	2.651	1.899	1.895	1.890	1.909	1.895	1.890
0.005	-0.005	0.005	0.005	-0.015	0.005	0.439	2.666	1.895	1.895	1.890	1.909	1.899	1.899
0.000	0.010	0.005	0.010	-0.024	-0.005	0.435	2.661	1.885	1.895	1.895	1.909	1.895	1.895
-0.005	0.000	0.000	0.015	-0.024	0.005	0.444	2.754	1.885	1.890	1.890	1.914	1.899	1.899
0.000	0.000	0.005	0.010	-0.039	-0.020	0.430	2.700	1.890	1.885	1.895	1.914	1.899	1.895
-0.010	0.005	0.005	0.010	-0.029	0.000	0.435	2.759	1.890	1.885	1.890	1.914	1.904	1.899
0.000	0.000	0.000	0.005	-0.034	-0.024	0.435	2.700	1.895	1.890	1.890	1.909	1.904	1.895
0.010	0.005	0.000	0.000	-0.024	-0.010	0.435	2.700	1.890	1.890	1.890	1.909	1.904	1.899
0.000	0.005	0.000	-0.005	0.000	-0.010	0.435	2.705	1.890	1.890	1.890	1.904	1.909	1.904
0.000	-0.005	0.000	-0.005	0.024	0.005	0.435	2.700	1.890	1.885	1.890	1.904	1.914	1.909
-0.005	0.005	-0.005	-0.010	0.020	0.029	0.430	2.705	1.895	1.890	1.885	1.904	1.909	1.919
0.005	0.000	0.000	-0.010	0.020	0.015	0.435	2.710	1.895	1.890	1.885	1.904	1.904	1.909
0.005	0.010	0.000	-0.005	0.034	0.010	0.439	2.710	1.895	1.890	1.885	1.904	1.909	1.909
0.000	0.000	0.005	0.000	0.034	0.010	0.430	2.686	1.890	1.885	1.885	1.904	1.904	1.904
0.000	0.010	0.000	0.000	0.034	-0.010	0.435	2.690	1.890	1.890	1.880	1.899	1.899	1.895
0.000	0.000	0.005	0.000	0.024	0.015	0.435	2.700	1.895	1.890	1.885	1.904	1.899	1.904
0.015	0.000	0.005	0.005	0.010	0.010	0.439	2.695	1.890	1.890	1.885	1.904	1.895	1.899
0.000	0.000	0.005	0.000	0.005	-0.020	0.444	2.690	1.895	1.890	1.890	1.904	1.895	1.890
0.000	0.000	0.005	0.005	0.000	-0.005	0.430	2.705	1.895	1.890	1.890	1.909	1.899	1.899
-0.005	0.005	0.000	0.000	-0.005	-0.024	0.439	2.705	1.895	1.890	1.890	1.904	1.895	1.890
0.005	-0.005	-0.005	0.005	-0.005	0.000	0.430	2.695	1.899	1.890	1.890	1.909	1.899	1.904
0.005	0.000	0.005	0.005	0.000	0.000	0.439	2.700	1.904	1.899	1.895	1.909	1.904	1.904
0.005	-0.005	0.005	0.000	0.005	-0.005	0.430	2.686	1.895	1.890	1.890	1.909	1.909	1.904
0.000	-0.005	0.005	0.005	0.015	0.015	0.439	2.695	1.895	1.890	1.890	1.909	1.909	1.909
0.000	0.000	0.000	0.000	0.000	0.015	0.430	2.690	1.895	1.895	1.890	1.909	1.904	1.904
0.005	0.005	0.005	0.010	-0.005	0.005	0.439	2.686	1.895	1.895	1.890	1.909	1.904	1.904
0.000	0.000	0.000	0.005	0.000	0.010	0.430	2.700	1.890	1.890	1.890	1.909	1.904	1.904
-0.010	0.005	0.000	0.005	0.000	0.005	0.444	2.686	1.890	1.890	1.885	1.904	1.899	1.899
0.010	0.005	0.005	0.005	0.005	-0.005	0.430	2.695	1.890	1.890	1.885	1.904	1.899	1.895
-0.005	0.000	-0.005	0.005	0.005	-0.024	0.430	2.808	1.895	1.885	1.885	1.904	1.899	1.890
0.000	0.005	0.000	0.000	0.000	0.000	0.439	2.656	1.890	1.890	1.885	1.904	1.895	1.899
0.005	0.005	0.005	0.000	-0.010	0.005	0.435	2.661	1.885	1.890	1.885	1.904	1.895	1.899
0.010	0.000	0.005	0.005	0.000	0.005	0.435	2.720	1.890	1.885	1.885	1.909	1.899	1.899
0.000	-0.005	0.010	0.000	0.015	0.010	0.439	2.651	1.890	1.885	1.885	1.909	1.904	1.904
0.005	0.000	0.000	0.000	0.015	0.010	0.435	2.749	1.904	1.890	1.885	1.904	1.904	1.899
0.000	0.005	-0.005	0.000	0.015	0.010	0.435	2.690	1.899	1.895	1.885	1.904	1.899	1.904
-0.005	0.005	0.000	0.010	0.010	-0.010	0.439	2.725	1.899	1.895	1.890	1.909	1.899	1.899
0.000	0.005	0.000	0.000	0.005	0.005	0.439	2.729	1.909	1.899	1.895	1.909	1.899	1.904
-0.005	0.010	0.005	0.000	0.005	-0.005	0.439	2.744	1.909	1.899	1.895	1.909	1.904	1.904
0.010	0.000	0.005	0.010	0.010	0.000	0.430	2.725	1.904	1.904	1.895	1.914	1.909	1.904
0.000	0.010	0.000	0.010	0.015	-0.005	0.439	2.656	1.895	1.899	1.899	1.914	1.909	1.904
0.000	0.000	0.000	0.010	0.000	0.005	0.439	2.666	1.890	1.895	1.895	1.914	1.904	1.909
0.000	-0.005	0.000	0.010	0.000	0.005	0.439	2.676	1.885	1.890	1.890	1.914	1.904	1.904
0.005	0.000	0.000	0.010	0.000	0.005	0.430	2.744	1.895	1.890	1.890	1.909	1.904	1.904
-0.005	-0.005	0.005	0.015	0.000	-0.005	0.444	2.681	1.890	1.885	1.890	1.909	1.904	1.899
0.005	0.015	0.000	0.010	-0.005	0.015	0.435	2.690	1.885	1.890	1.890	1.909	1.904	1.909
0.005	0.000	0.005	0.005	0.000	0.010	0.435	2.666	1.880	1.880	1.885	1.904	1.899	1.904
0.000	0.000	-0.005	0.000	0.000	0.010	0.439	2.695	1.885	1.880	1.880	1.904	1.899	1.899
0.000	-0.005	0.000	0.000	0.005	0.015	0.439	2.700	1.890	1.885	1.885	1.899	1.899	1.904
0.005	-0.005	0.000	-0.005	0.005	0.000	0.439	2.671	1.890	1.885	1.880	1.899	1.899	1.895
0.005	0.000	0.005	0.000	0.000	-0.015	0.435	2.710	1.895	1.890	1.880	1.899	1.895	1.895
0.010	0.005	0.005	-0.010	-0.005	-0.005	0.435	2.695	1.895	1.890	1.885	1.904	1.895	1.895
0.000	0.005	0.000	-0.005	-0.005	-0.010	0.435	2.690	1.890	1.890	1.885	1.899	1.895	1.895
0.000	0.015	0.000	-0.005	0.000	-0.020	0.430	2.705	1.895	1.895	1.890	1.904	1.899	1.895
0.000	0.015	0.005	-0.005	0.000	0.000	0.444	2.686	1.895	1.899	1.895	1.909	1.899	1.899
0.005	0.000	0.005	0.000	0.000	-0.005	0.439	2.705	1.895	1.890	1.890	1.909	1.904	1.904
0.000	-0.010	0.005	0.000	0.010	-0.010	0.435	2.700	1.895	1.890	1.890	1.909	1.904	1.899
-0.010	-0.010	0.005	0.010	0.005	0.020	0.435	2.705	1.895	1.890	1.890	1.914	1.904	1.909
-0.005	0.005	0.005	0.005	0.010	0.015	0.430	2.695	1.895	1.890	1.890	1.909	1.904	1.909
0.000	-0.005	0.000	0.005	0.010	0.020	0.430	2.676	1.895	1.890	1.890	1.904	1.904	1.904
-0.005	-0.005	0.000	0.015	0.005	0.024	0.435	2.715	1.895	1.885	1.885	1.909	1.904	1.904
0.000	0.000	0.000	0.015	0.010	0.020	0.435	2.671	1.890	1.890	1.885	1.904	1.904	1.904
0.005	0.005	-0.005	0.010	0.005	0.010	0.430	2.695	1.890	1.890	1.885	1.904	1.904	1.899
-0.005	0.024	0.000	0.010	0.010	0.010	0.435	2.690	1.890	1.895	1.885	1.904	1.899	1.895
0.000	0.015	0.000	0.005	0.015	-0.005	0.430	2.686	1.880	1.890	1.885	1.899	1.899	1.895
0.005	0.020	0.000	0.005	0.010	-0.010	0.439	2.686	1.885	1.885	1.885	1.899	1.899	1.895
0.000	0.005	0.000	0.005	0.005	-0.010	0.439	2.715	1.890	1.880	1.885	1.904	1.895	1.890
-0.005	0.005	0.005	0.005	0.000	-0.020	0.444	2.695	1.890	1.885	1.885	1.904	1.895	1.890
0.020	0.005	0.005	0.000	0.000	-0.020	0.435	2.700	1.895	1.890	1.885	1.904	1.895	1.895
0.005	0.000	0.010	0.000	-0.010	-0.039	0.439	2.808	1.904	1.890	1.890	1.904	1.890	1.890
0.010	0.005	0.000	-0.005	-0.020	0.005	0.435	2.651	1.899	1.895	1.890	1.904	1.895	1.904
0.005	0.020	0.000	0.000	-0.010	0.000	0.439	2.666	1.895	1.899	1.890	1.909	1.899	1.899
0.005	-0.005	0.000	0.000	-0.010	0.005	0.435	2.720	1.895	1.890	1.890	1.909	1.899	1.899
0.005	-0.015	0.000	0.000	-0.010	0.015	0.444	2.651	1.890	1.890	1.890	1.909	1.904	1.904
