0.010	0.000	-0.005	0.000	0.005	0.020	0.425	2.729	5.352	3.169	2.749	2.187	2.358	1.929
0.000	0.010	-0.005	0.005	-0.005	0.020	0.420	2.671	4.502	3.560	2.964	2.402	2.363	2.051
-0.005	0.010	-0.005	0.000	0.000	0.015	0.415	2.749	3.892	3.672	3.159	2.607	2.427	2.153
-0.005	0.015	0.000	0.000	0.005	-0.010	0.425	2.681	3.442	3.623	3.291	2.798	2.520	2.246
0.010	0.010	0.000	0.005	0.000	0.010	0.430	2.632	3.130	3.491	3.354	2.954	2.637	2.358
-0.010	0.005	0.000	0.000	0.010	0.024	0.415	2.686	2.905	3.340	3.359	3.071	2.759	2.466
0.010	0.000	0.000	0.000	0.005	0.020	0.420	2.646	2.744	3.184	3.315	3.145	2.861	2.568
-0.010	0.005	-0.005	0.000	0.000	0.010	0.415	2.700	2.637	3.037	3.242	3.179	2.944	2.661
0.000	-0.005	0.000	0.000	0.000	0.010	0.420	2.681	2.563	2.910	3.154	3.179	3.008	2.759
0.000	0.000	0.000	0.005	0.010	-0.005	0.420	2.681	2.524	2.808	3.062	3.154	3.047	2.832
0.005	0.005	0.005	0.010	0.005	-0.020	0.415	2.676	2.500	2.725	2.969	3.115	3.066	2.891
0.000	-0.005	0.005	0.005	0.005	0.010	0.415	2.695	2.490	2.661	2.886	3.057	3.066	2.949
0.005	0.000	0.005	0.015	0.005	-0.024	0.420	2.690	2.485	2.617	2.808	2.998	3.047	2.969
-0.005	0.005	0.000	0.005	0.005	0.010	0.415	2.710	2.485	2.583	2.749	2.935	3.018	2.988
0.000	0.000	-0.010	0.000	0.000	0.015	0.420	2.686	2.495	2.563	2.695	2.871	2.979	2.988
0.000	0.010	-0.020	0.005	0.000	0.015	0.410	2.715	2.500	2.554	2.651	2.817	2.935	2.974
0.000	0.010	-0.029	0.000	-0.005	0.010	0.420	2.671	2.495	2.544	2.622	2.769	2.891	2.954
-0.015	0.010	-0.020	0.000	0.000	0.005	0.415	2.690	2.495	2.534	2.603	2.729	2.842	2.925
0.005	0.020	0.000	0.000	0.000	0.000	0.425	2.705	2.510	2.534	2.588	2.695	2.803	2.891
0.000	0.015	0.015	0.000	0.005	0.005	0.420	2.710	2.505	2.529	2.573	2.671	2.773	2.861
0.010	0.010	0.034	0.000	-0.005	0.000	0.420	2.695	2.505	2.524	2.563	2.646	2.729	2.827
0.010	0.005	0.049	0.000	0.000	-0.015	0.420	2.681	2.495	2.515	2.554	2.627	2.705	2.793
0.005	-0.005	0.039	0.005	0.005	0.000	0.420	2.681	2.485	2.510	2.539	2.607	2.676	2.764
0.005	-0.020	0.024	0.000	0.010	0.010	0.420	2.710	2.485	2.495	2.524	2.588	2.651	2.734
0.000	-0.034	0.020	0.000	0.005	-0.005	0.415	2.690	2.471	2.490	2.510	2.568	2.622	2.700
0.010	-0.029	-0.005	0.000	0.000	0.010	0.425	2.690	2.466	2.480	2.495	2.554	2.603	2.676
0.000	-0.024	-0.020	0.005	-0.005	0.010	0.425	2.686	2.451	2.480	2.485	2.539	2.583	2.651
0.005	-0.020	-0.034	0.005	0.005	-0.005	0.420	2.686	2.441	2.466	2.480	2.524	2.563	2.622
-0.005	-0.015	-0.029	0.000	0.000	-0.020	0.415	2.715	2.441	2.466	2.471	2.515	2.549	2.593
-0.005	-0.005	-0.015	0.005	0.000	0.005	0.420	2.700	2.427	2.461	2.471	2.505	2.539	2.588
0.000	0.005	0.000	0.005	0.005	0.010	0.420	2.695	2.427	2.461	2.476	2.505	2.529	2.578
-0.005	0.015	0.010	0.005	0.000	0.005	0.425	2.769	2.432	2.456	2.471	2.495	2.520	2.559
0.000	0.024	0.020	0.005	0.005	0.010	0.415	2.651	2.422	2.451	2.466	2.495	2.510	2.544
-0.015	0.020	0.015	0.000	0.000	0.000	0.425	2.803	2.422	2.441	2.461	2.495	2.505	2.529
0.010	0.024	0.015	0.005	0.000	0.000	0.415	2.646	2.412	2.437	2.451	2.485	2.500	2.524
0.000	0.010	0.010	0.000	0.000	0.020	0.425	2.725	2.402	2.422	2.441	2.480	2.495	2.520
0.005	0.005	0.010	0.000	0.005	0.010	0.415	2.749	2.402	2.417	2.432	2.476	2.490	2.515
0.005	0.005	0.000	0.000	0.000	0.005	0.420	2.651	2.388	2.407	2.427	2.466	2.480	2.505
0.010	0.024	0.000	0.005	0.000	0.010	0.420	2.646	2.373	2.407	2.422	2.456	2.476	2.495
0.010	0.015	-0.005	0.005	0.000	-0.005	0.420	2.749	2.368	2.393	2.412	2.451	2.466	2.485
0.005	0.000	-0.005	0.000	0.000	-0.020	0.420	2.729	2.358	2.378	2.402	2.441	2.456	2.476
0.005	0.010	-0.005	0.000	0.000	0.005	0.420	2.676	2.349	2.373	2.393	2.432	2.451	2.471
-0.010	-0.005	-0.005	-0.005	0.005	0.000	0.415	2.656	2.334	2.358	2.383	2.422	2.441	2.461
-0.015	0.005	-0.005	0.005	0.005	0.005	0.420	2.700	2.334	2.354	2.373	2.412	2.432	2.456
0.000	-0.024	-0.005	0.000	0.005	0.015	0.415	2.734	2.329	2.339	2.363	2.402	2.422	2.446
-0.005	-0.005	0.000	0.000	0.005	0.024	0.420	2.686	2.324	2.344	2.358	2.397	2.412	2.441
0.010	-0.005	0.005	0.000	0.000	0.000	0.420	2.749	2.319	2.339	2.349	2.388	2.407	2.427
0.010	-0.005	-0.015	0.000	0.005	0.020	0.420	2.686	2.314	2.334	2.344	2.383	2.397	2.422
0.005	0.005	0.005	0.005	0.000	-0.005	0.415	2.686	2.305	2.329	2.344	2.378	2.388	2.407
0.015	0.000	-0.005	0.005	0.000	0.005	0.420	2.681	2.305	2.324	2.339	2.373	2.383	2.407
0.000	0.000	-0.005	0.005	0.000	-0.005	0.425	2.681	2.300	2.314	2.334	2.368	2.378	2.397
0.000	-0.005	-0.010	0.005	-0.005	0.000	0.415	2.705	2.295	2.314	2.329	2.363	2.373	2.388
0.010	0.020	0.000	0.005	0.000	-0.005	0.425	2.686	2.290	2.314	2.324	2.358	2.368	2.383
0.005	0.024	0.005	0.005	0.000	-0.010	0.410	2.695	2.280	2.305	2.324	2.354	2.363	2.378
0.015	0.010	0.010	0.000	0.005	0.005	0.420	2.700	2.280	2.300	2.319	2.349	2.358	2.378
0.000	-0.005	0.015	0.000	0.000	0.000	0.410	2.695	2.271	2.290	2.310	2.344	2.354	2.368
0.005	-0.005	0.020	0.000	0.000	0.000	0.425	2.686	2.266	2.280	2.300	2.334	2.344	2.363
0.005	0.000	0.015	0.000	0.000	0.000	0.415	2.686	2.256	2.275	2.290	2.329	2.339	2.354
-0.010	-0.020	0.005	-0.005	0.005	0.005	0.420	2.686	2.246	2.261	2.280	2.319	2.329	2.349
-0.010	-0.020	0.005	0.000	0.005	-0.010	0.420	2.700	2.241	2.256	2.271	2.310	2.324	2.339
-0.010	-0.010	0.000	-0.005	0.005	-0.015	0.420	2.695	2.236	2.251	2.266	2.300	2.319	2.334
-0.015	0.000	0.005	0.005	0.005	-0.010	0.420	2.690	2.227	2.251	2.256	2.295	2.310	2.324
-0.005	0.000	-0.010	0.000	0.000	0.010	0.415	2.690	2.227	2.241	2.246	2.285	2.300	2.319
0.005	0.000	-0.029	0.000	0.000	0.000	0.420	2.705	2.227	2.236	2.241	2.280	2.295	2.314
-0.005	0.010	-0.010	-0.005	0.000	0.000	0.420	2.681	2.222	2.241	2.246	2.275	2.290	2.310
0.005	0.010	-0.015	0.000	0.000	-0.005	0.425	2.700	2.222	2.236	2.241	2.271	2.280	2.300
-0.005	0.000	-0.010	0.000	0.000	-0.010	0.420	2.710	2.212	2.227	2.236	2.271	2.280	2.295
0.005	-0.005	0.005	0.005	0.000	0.000	0.420	2.720	2.217	2.222	2.241	2.271	2.275	2.295
0.000	0.005	0.005	0.005	0.000	0.000	0.420	2.686	2.212	2.227	2.236	2.266	2.271	2.285
0.010	0.005	0.015	0.000	0.000	-0.005	0.415	2.686	2.207	2.222	2.236	2.261	2.271	2.285
0.024	0.005	0.024	0.000	0.000	0.015	0.420	2.666	2.202	2.217	2.236	2.261	2.266	2.280
0.015	0.005	0.029	0.005	0.000	0.015	0.420	2.788	2.197	2.212	2.227	2.256	2.261	2.275
-0.010	-0.005	0.029	0.000	0.000	0.010	0.420	2.671	2.187	2.202	2.222	2.251	2.256	2.271
-0.015	-0.005	0.020	0.005	0.005	0.005	0.425	2.783	2.187	2.197	2.212	2.241	2.251	2.261
-0.010	0.005	0.015	0.000	0.000	0.005	0.415	2.651	2.183	2.192	2.202	2.236	2.246	2.256
-0.005	0.015	0.005	0.005	0.010	-0.024	0.425	2.729	2.178	2.192	2.197	2.231	2.241	2.246
-0.005	0.010	-0.005	0.005	0.000	-0.020	0.420	2.637	2.178	2.187	2.187	2.222	2.231	2.241
-0.005	0.010	-0.010	0.005	0.005	-0.010	0.415	2.729	2.178	2.187	2.183	2.217	2.227	2.241
0.005	0.000	-0.015	0.005	0.000	0.010	0.415	2.754	2.178	2.183	2.183	2.212	2.222	2.241
0.010	0.000	-0.015	-0.005	-0.005	0.015	0.420	2.656	2.163	2.178	2.183	2.207	2.217	2.236
0.015	0.005	-0.015	0.000	0.000	0.015	0.420	2.646	2.158	2.178	2.178	2.207	2.212	2.231
0.010	0.020	-0.015	-0.005	0.005	0.005	0.425	2.681	2.153	2.173	2.183	2.202	2.212	2.222
0.010	0.015	-0.005	-0.005	0.005	-0.015	0.420	2.734	2.158	2.168	2.183	2.197	2.207	2.212
0.015	0.010	-0.005	-0.005	0.000	0.015	0.425	2.705	2.148	2.163	2.178	2.197	2.202	2.222
0.000	0.000	0.000	0.000	-0.005	0.000	0.415	2.725	2.144	2.158	2.173	2.197	2.202	2.212
0.005	-0.005	0.005	0.000	0.000	0.005	0.415	2.710	2.148	2.158	2.168	2.192	2.197	2.207
-0.005	0.010	0.010	0.000	0.005	0.010	0.415	2.646	2.134	2.153	2.163	2.192	2.197	2.207
0.010	0.015	0.005	0.005	0.005	0.005	0.420	2.676	2.134	2.148	2.158	2.187	2.197	2.207
-0.005	0.005	0.005	0.000	0.005	-0.005	0.420	2.686	2.124	2.144	2.158	2.183	2.187	2.197
-0.010	0.005	0.005	0.000	0.005	-0.024	0.420	2.690	2.119	2.134	2.148	2.183	2.183	2.187
-0.010	0.000	0.005	0.000	0.000	-0.015	0.425	2.690	2.124	2.134	2.144	2.178	2.178	2.187
0.000	0.000	0.005	0.000	-0.005	0.024	0.420	2.700	2.124	2.129	2.139	2.168	2.178	2.192
-0.005	0.000	0.005	0.005	0.000	0.015	0.420	2.690	2.114	2.124	2.134	2.163	2.173	2.187
0.000	0.005	0.015	0.000	0.005	0.000	0.420	2.695	2.114	2.124	2.129	2.158	2.163	2.178
0.000	0.000	0.005	0.000	0.000	0.015	0.420	2.690	2.109	2.119	2.124	2.153	2.158	2.178
-0.005	0.005	-0.005	0.005	0.000	0.010	0.420	2.710	2.109	2.114	2.119	2.148	2.153	2.168
0.000	-0.005	-0.010	0.000	0.000	0.005	0.420	2.686	2.104	2.109	2.114	2.144	2.153	2.163
-0.005	0.005	-0.005	0.005	0.000	0.005	0.420	2.686	2.095	2.104	2.109	2.139	2.148	2.158
0.005	-0.010	-0.010	0.000	0.000	-0.020	0.420	2.676	2.095	2.100	2.109	2.139	2.144	2.148
0.010	0.000	0.000	0.005	0.005	0.000	0.420	2.690	2.100	2.109	2.109	2.134	2.144	2.153
0.015	0.000	0.000	0.010	0.005	0.005	0.420	2.690	2.104	2.109	2.109	2.134	2.139	2.153
0.005	-0.005	-0.005	0.010	0.000	0.010	0.420	2.690	2.095	2.104	2.109	2.134	2.134	2.148
0.005	-0.005	-0.005	0.005	0.000	-0.005	0.420	2.700	2.090	2.104	2.104	2.129	2.134	2.139
0.000	0.005	-0.005	0.005	0.000	-0.005	0.415	2.700	2.085	2.100	2.104	2.129	2.134	2.139
0.000	0.005	0.010	0.000	0.005	0.005	0.425	2.676	2.085	2.095	2.109	2.129	2.129	2.139
0.000	0.015	0.020	0.000	0.000	0.005	0.420	2.695	2.075	2.090	2.104	2.124	2.124	2.139
0.005	-0.005	0.024	0.000	0.005	0.000	0.420	2.695	2.070	2.080	2.100	2.124	2.124	2.129
-0.005	-0.005	0.024	0.000	0.005	0.000	0.410	2.705	2.070	2.080	2.095	2.119	2.124	2.129
-0.005	0.015	0.020	0.000	0.000	-0.010	0.420	2.676	2.065	2.080	2.090	2.109	2.119	2.124
0.010	0.005	0.015	0.000	0.010	0.005	0.415	2.690	2.065	2.075	2.080	2.109	2.114	2.124
0.000	-0.010	-0.005	0.000	0.010	0.000	0.425	2.671	2.061	2.061	2.070	2.100	2.109	2.114
0.005	-0.010	-0.005	0.000	0.005	0.000	0.420	2.778	2.070	2.065	2.061	2.095	2.100	2.109
-0.005	-0.024	-0.024	0.000	0.000	0.000	0.425	2.656	2.056	2.056	2.056	2.090	2.095	2.104
0.000	-0.005	-0.034	0.005	0.000	0.000	0.425	2.798	2.070	2.065	2.056	2.085	2.095	2.104
0.015	-0.010	-0.029	0.005	0.005	0.000	0.425	2.646	2.061	2.065	2.061	2.085	2.090	2.100
0.000	0.000	-0.015	0.000	-0.005	0.005	0.415	2.729	2.065	2.070	2.065	2.085	2.085	2.095
0.000	-0.010	0.005	0.005	0.000	0.005	0.415	2.646	2.061	2.070	2.075	2.090	2.090	2.100
0.000	0.000	0.015	0.010	0.005	0.000	0.420	2.725	2.061	2.070	2.075	2.090	2.090	2.095
0.010	0.010	0.029	0.000	0.000	-0.005	0.420	2.666	2.061	2.065	2.075	2.095	2.085	2.095
-0.005	0.005	0.034	0.000	0.000	-0.029	0.420	2.754	2.056	2.065	2.075	2.095	2.090	2.090
0.000	0.000	0.034	0.010	0.005	-0.015	0.420	2.754	2.061	2.061	2.070	2.095	2.090	2.090
-0.005	0.005	0.029	0.005	0.000	-0.010	0.420	2.666	2.056	2.065	2.065	2.090	2.085	2.095
0.000	-0.005	0.020	0.000	0.000	0.010	0.420	2.725	2.051	2.051	2.061	2.085	2.090	2.095
-0.005	0.005	0.010	0.000	0.005	0.005	0.415	2.695	2.041	2.046	2.056	2.080	2.085	2.085
0.005	0.020	0.005	0.000	0.000	-0.005	0.415	2.734	2.046	2.051	2.051	2.075	2.080	2.080
0.005	0.005	-0.005	0.000	0.000	-0.015	0.425	2.695	2.041	2.046	2.046	2.070	2.075	2.075
0.000	0.000	-0.010	-0.005	-0.005	0.015	0.415	2.715	2.036	2.041	2.041	2.070	2.070	2.080
0.005	0.005	-0.020	0.000	0.000	0.010	0.420	2.686	2.031	2.036	2.036	2.065	2.070	2.080
0.005	0.000	-0.034	0.000	0.000	0.000	0.410	2.690	2.026	2.031	2.031	2.061	2.065	2.070
0.005	-0.010	-0.029	0.000	0.005	0.005	0.420	2.681	2.026	2.026	2.031	2.056	2.061	2.070
0.010	0.000	-0.029	0.005	0.000	0.005	0.410	2.705	2.026	2.031	2.031	2.056	2.056	2.065
0.000	-0.005	-0.024	0.000	0.000	-0.005	0.420	2.715	2.026	2.026	2.031	2.056	2.056	2.061
0.015	0.010	-0.024	0.000	0.000	0.015	0.420	2.690	2.026	2.036	2.031	2.056	2.056	2.065
0.005	0.015	-0.010	0.000	0.000	0.010	0.425	2.705	2.026	2.036	2.036	2.056	2.056	2.065
0.010	0.020	0.005	0.005	0.000	0.000	0.420	2.686	2.026	2.031	2.041	2.061	2.056	2.056
0.000	0.015	0.020	0.005	0.005	0.005	0.425	2.695	2.026	2.031	2.046	2.061	2.056	2.061
0.010	0.005	0.034	0.000	0.000	0.005	0.420	2.681	2.021	2.031	2.041	2.061	2.056	2.065
0.005	0.010	0.044	0.005	0.000	-0.010	0.420	2.676	2.017	2.026	2.036	2.056	2.056	2.056
0.000	0.010	0.039	0.000	0.005	0.015	0.415	2.700	2.017	2.021	2.036	2.056	2.056	2.061
0.005	0.005	0.029	0.000	0.005	0.010	0.415	2.710	2.017	2.021	2.026	2.056	2.056	2.056
0.000	-0.005	0.020	0.000	0.000	0.000	0.415	2.676	2.012	2.012	2.017	2.046	2.051	2.051
0.010	-0.020	0.010	0.000	0.005	0.005	0.420	2.686	2.007	2.007	2.012	2.041	2.046	2.056
0.000	-0.024	0.005	0.000	0.000	0.005	0.410	2.676	2.002	2.002	2.007	2.036	2.041	2.046
-0.015	-0.010	0.000	0.000	0.000	-0.015	0.415	2.700	1.997	2.002	2.002	2.031	2.036	2.036
-0.010	-0.020	-0.005	0.005	0.000	-0.005	0.415	2.676	1.997	1.997	1.997	2.026	2.031	2.041
-0.005	-0.015	-0.015	0.000	0.000	-0.015	0.425	2.710	2.002	1.997	1.997	2.026	2.026	2.036
-0.005	-0.005	0.000	0.000	0.000	-0.020	0.420	2.715	2.007	2.007	2.002	2.021	2.026	2.026
0.000	0.005	-0.010	0.005	0.000	-0.010	0.420	2.686	2.002	2.007	2.002	2.021	2.026	2.031
-0.005	0.010	-0.015	0.000	0.005	0.005	0.415	2.700	2.002	2.007	2.002	2.026	2.026	2.026
0.005	0.010	-0.005	0.000	0.000	-0.010	0.415	2.710	2.007	2.007	2.007	2.021	2.021	2.021
0.000	0.010	-0.010	0.000	0.000	0.005	0.415	2.690	1.997	2.007	2.007	2.021	2.026	2.026
0.024	0.015	0.000	0.005	0.005	0.015	0.415	2.661	2.007	2.012	2.007	2.026	2.026	2.031
0.010	0.010	0.005	0.005	0.000	0.000	0.420	2.661	1.997	2.002	2.012	2.026	2.021	2.026
0.010	0.010	0.005	0.010	0.000	0.015	0.420	2.808	2.007	2.002	2.007	2.026	2.026	2.031
0.000	0.010	-0.005	0.005	0.005	0.020	0.425	2.646	1.997	2.002	2.002	2.026	2.021	2.026
-0.005	0.005	-0.024	0.005	0.005	0.015	0.425	2.739	1.997	1.997	1.997	2.017	2.021	2.026
-0.005	0.015	-0.020	0.005	0.005	0.000	0.420	2.720	1.992	1.992	1.997	2.017	2.017	2.017
-0.005	0.000	-0.005	0.000	0.005	0.000	0.415	2.754	1.992	1.987	1.997	2.017	2.017	2.017
0.005	-0.010	0.005	0.005	0.005	0.010	0.420	2.739	1.997	1.987	1.997	2.017	2.012	2.021
-0.005	-0.005	0.010	0.000	0.000	0.015	0.420	2.754	1.987	1.987	1.992	2.012	2.012	2.021
0.005	-0.010	0.005	0.005	0.000	0.015	0.425	2.666	1.982	1.987	1.987	2.012	2.012	2.012
0.000	-0.005	0.010	0.000	0.000	-0.015	0.420	2.676	1.978	1.982	1.992	2.007	2.007	2.007
0.000	0.000	0.015	0.000	-0.005	0.010	0.425	2.725	1.978	1.982	1.987	2.007	2.007	2.012
0.005	0.000	0.015	0.000	0.000	0.005	0.420	2.700	1.982	1.982	1.982	2.007	2.007	2.012
0.010	0.010	0.015	0.005	-0.005	0.005	0.425	2.642	1.973	1.982	1.982	2.007	2.002	2.007
-0.005	0.005	0.015	0.000	0.000	-0.005	0.430	2.695	1.978	1.982	1.982	2.007	2.007	2.007
0.000	0.015	0.010	0.000	0.000	-0.005	0.430	2.637	1.973	1.982	1.982	2.002	2.007	2.007
0.015	0.029	0.000	0.005	0.000	-0.020	0.415	2.715	1.982	1.987	1.982	2.007	2.007	2.002
0.020	0.015	0.000	0.005	0.000	-0.020	0.420	2.686	1.973	1.982	1.982	2.002	2.002	2.002
0.015	-0.005	-0.005	0.005	0.000	0.005	0.415	2.681	1.978	1.978	1.978	2.002	2.002	2.007
-0.010	0.005	0.005	-0.005	0.000	0.005	0.415	2.690	1.973	1.973	1.982	2.002	2.002	2.007
0.010	0.010	0.005	-0.005	-0.005	0.020	0.415	2.676	1.973	1.978	1.978	1.997	1.997	2.012
-0.005	-0.010	0.005	-0.005	0.000	-0.005	0.420	2.690	1.963	1.968	1.973	1.997	1.997	2.002
-0.005	0.005	0.000	-0.005	0.005	0.010	0.420	2.695	1.973	1.968	1.973	1.997	1.997	2.002
-0.005	-0.005	0.005	0.005	0.005	-0.015	0.420	2.690	1.973	1.973	1.968	1.992	1.992	1.997
0.000	-0.005	-0.010	0.005	0.005	0.005	0.425	2.700	1.968	1.963	1.963	1.992	1.992	1.997
0.010	-0.005	-0.024	0.010	0.000	0.005	0.420	2.695	1.963	1.963	1.958	1.987	1.987	1.992
0.005	-0.010	-0.024	0.005	0.005	-0.010	0.420	2.690	1.958	1.963	1.958	1.982	1.982	1.982
0.005	0.000	-0.015	0.005	0.005	0.000	0.415	2.695	1.958	1.963	1.963	1.982	1.982	1.987
0.000	0.000	-0.005	0.005	0.010	0.015	0.420	2.686	1.958	1.958	1.963	1.982	1.982	1.987
0.005	-0.005	0.015	0.010	-0.005	0.010	0.420	2.690	1.958	1.963	1.968	1.987	1.982	1.987
-0.005	0.000	0.024	0.010	-0.005	-0.020	0.425	2.686	1.958	1.958	1.968	1.987	1.978	1.978
0.000	0.010	0.029	0.010	0.000	-0.005	0.425	2.676	1.958	1.963	1.968	1.987	1.982	1.982
-0.005	0.010	0.034	0.005	0.000	0.000	0.430	2.715	1.963	1.968	1.968	1.987	1.982	1.987
0.005	0.010	0.029	0.000	0.000	0.010	0.410	2.686	1.963	1.963	1.968	1.987	1.987	1.987
0.005	0.000	0.020	-0.005	0.000	0.015	0.420	2.700	1.963	1.958	1.963	1.982	1.982	1.987
-0.005	0.000	0.005	0.000	0.000	0.015	0.410	2.710	1.963	1.958	1.958	1.982	1.982	1.987
0.000	-0.010	0.000	-0.005	0.005	0.005	0.420	2.690	1.963	1.958	1.958	1.982	1.982	1.982
-0.005	-0.010	0.000	0.000	0.005	0.020	0.420	2.681	1.958	1.958	1.958	1.978	1.978	1.987
-0.005	-0.010	-0.005	-0.005	0.005	0.015	0.425	2.690	1.958	1.953	1.953	1.978	1.978	1.982
0.000	-0.020	-0.005	0.000	0.000	0.010	0.420	2.676	1.958	1.953	1.953	1.973	1.973	1.978
0.000	-0.005	-0.010	0.005	0.000	0.000	0.420	2.764	1.963	1.953	1.953	1.973	1.973	1.973
0.000	0.005	-0.010	0.005	-0.005	0.000	0.420	2.651	1.953	1.958	1.953	1.973	1.968	1.968
-0.005	0.010	-0.005	0.005	0.005	0.005	0.425	2.793	1.963	1.958	1.953	1.973	1.968	1.973
0.000	0.010	-0.010	0.000	0.000	-0.015	0.420	2.656	1.953	1.958	1.948	1.968	1.968	1.958
0.005	0.000	-0.020	0.000	0.000	-0.020	0.420	2.734	1.958	1.948	1.948	1.968	1.968	1.963
-0.005	0.000	-0.020	-0.005	0.000	0.000	0.415	2.646	1.963	1.953	1.948	1.968	1.968	1.973
0.005	0.005	-0.015	0.000	0.005	0.015	0.415	2.744	1.968	1.958	1.953	1.968	1.968	1.973
0.000	0.005	-0.005	0.000	0.005	0.010	0.425	2.729	1.968	1.958	1.958	1.973	1.968	1.973
0.000	0.000	0.005	0.000	0.000	0.005	0.425	2.749	1.968	1.963	1.963	1.978	1.968	1.968
0.010	0.000	0.010	0.005	-0.005	0.010	0.420	2.744	1.973	1.963	1.968	1.982	1.968	1.973
0.005	0.005	0.015	0.005	-0.005	0.000	0.420	2.671	1.958	1.968	1.968	1.982	1.973	1.973
0.005	0.005	0.020	0.000	0.000	-0.005	0.420	2.744	1.963	1.968	1.968	1.982	1.978	1.968
0.000	0.010	0.010	0.000	0.005	0.005	0.410	2.705	1.958	1.968	1.963	1.982	1.982	1.978
0.010	0.010	0.015	0.005	0.005	0.000	0.420	2.651	1.953	1.963	1.968	1.982	1.978	1.973
0.005	0.010	0.010	0.005	0.005	-0.005	0.415	2.695	1.953	1.958	1.963	1.987	1.978	1.978
0.000	0.005	-0.005	0.005	0.005	0.000	0.425	2.632	1.943	1.948	1.953	1.978	1.978	1.973
0.005	-0.005	-0.020	0.010	0.000	-0.005	0.415	2.690	1.943	1.943	1.943	1.973	1.973	1.973
0.000	-0.010	-0.024	0.005	0.005	0.005	0.430	2.686	1.934	1.938	1.943	1.968	1.968	1.973
-0.005	-0.020	-0.015	0.005	0.005	0.000	0.415	2.686	1.934	1.929	1.938	1.963	1.968	1.973
-0.015	-0.015	0.000	0.005	0.005	-0.010	0.420	2.695	1.934	1.934	1.938	1.963	1.968	1.968
-0.005	0.000	0.010	0.000	0.005	0.010	0.410	2.705	1.938	1.938	1.943	1.963	1.963	1.973
-0.010	0.000	0.015	0.000	0.000	0.005	0.415	2.690	1.943	1.938	1.938	1.963	1.958	1.968
-0.005	-0.005	0.020	0.000	0.000	0.010	0.415	2.700	1.943	1.938	1.943	1.958	1.958	1.963
-0.005	0.015	0.020	0.000	0.005	0.000	0.415	2.690	1.943	1.943	1.943	1.963	1.958	1.958
-0.005	0.010	0.020	0.000	0.000	-0.005	0.420	2.700	1.938	1.943	1.943	1.963	1.958	1.958
0.000	0.005	0.020	0.000	0.000	0.010	0.430	2.695	1.943	1.943	1.943	1.963	1.958	1.963
0.010	0.010	0.015	0.005	0.005	0.005	0.420	2.695	1.943	1.943	1.943	1.963	1.963	1.963
0.020	0.000	0.015	0.005	0.005	0.000	0.430	2.686	1.948	1.943	1.943	1.963	1.958	1.958
0.005	0.000	0.005	0.005	0.005	-0.005	0.420	2.695	1.943	1.943	1.943	1.963	1.963	1.963
0.000	0.005	-0.005	-0.005	0.005	0.005	0.410	2.681	1.938	1.938	1.938	1.958	1.958	1.963
0.000	0.005	-0.005	-0.005	0.005	0.010	0.410	2.690	1.938	1.938	1.938	1.958	1.958	1.963
0.005	-0.005	-0.015	0.000	0.000	-0.005	0.425	2.686	1.943	1.938	1.934	1.958	1.958	1.958
-0.005	-0.010	-0.010	0.000	-0.005	0.005	0.415	2.681	1.934	1.934	1.934	1.953	1.953	1.958
0.000	0.000	-0.015	0.000	0.000	0.000	0.415	2.681	1.934	1.934	1.934	1.953	1.953	1.953
0.000	0.000	-0.020	0.000	0.005	0.005	0.415	2.695	1.934	1.934	1.929	1.948	1.948	1.953
0.005	0.010	-0.015	0.000	0.005	0.000	0.415	2.700	1.934	1.934	1.929	1.948	1.948	1.948
0.005	-0.005	-0.010	0.000	0.000	0.010	0.420	2.695	1.934	1.929	1.929	1.948	1.948	1.948
-0.005	0.005	-0.005	0.000	0.005	0.005	0.410	2.681	1.929	1.929	1.934	1.948	1.943	1.948
-0.005	0.020	0.005	-0.005	0.000	-0.015	0.415	2.700	1.934	1.934	1.934	1.948	1.943	1.938
0.005	0.010	0.010	0.005	0.000	-0.015	0.420	2.666	1.929	1.934	1.934	1.953	1.943	1.943
0.015	0.000	0.010	0.005	0.000	-0.005	0.425	2.651	1.948	1.934	1.934	1.953	1.943	1.948
0.015	0.005	0.010	0.000	-0.005	-0.010	0.420	2.671	1.943	1.938	1.934	1.953	1.948	1.943
0.000	-0.005	0.010	0.005	0.000	0.005	0.425	2.793	1.948	1.938	1.934	1.953	1.948	1.953
0.000	-0.005	0.005	0.005	0.000	0.005	0.420	2.651	1.938	1.934	1.934	1.953	1.948	1.953
0.000	-0.005	0.000	0.000	0.000	0.005	0.420	2.646	1.938	1.938	1.938	1.953	1.948	1.953
-0.005	0.005	0.000	0.000	0.000	-0.005	0.415	2.632	1.934	1.938	1.938	1.953	1.948	1.948
0.005	-0.005	0.000	0.000	0.000	0.005	0.425	2.759	1.943	1.938	1.938	1.958	1.953	1.953
0.005	-0.015	0.000	0.000	0.005	-0.015	0.410	2.637	1.934	1.929	1.934	1.953	1.948	1.948
-0.005	-0.010	0.000	0.005	-0.005	-0.005	0.420	2.749	1.934	1.934	1.934	1.953	1.948	1.953
0.000	0.000	0.000	0.005	0.000	0.010	0.420	2.676	1.929	1.934	1.934	1.953	1.948	1.953
-0.005	-0.005	0.000	0.010	0.005	0.005	0.425	2.671	1.924	1.929	1.929	1.953	1.948	1.948
-0.010	0.005	0.005	0.000	0.005	0.000	0.415	2.749	1.929	1.924	1.924	1.948	1.948	1.943
-0.005	0.000	0.000	-0.005	0.005	0.000	0.415	2.700	1.924	1.924	1.924	1.943	1.943	1.948
0.000	0.005	-0.005	-0.005	0.000	0.020	0.420	2.656	1.929	1.924	1.924	1.943	1.943	1.948
0.000	0.020	0.005	0.000	0.000	-0.005	0.425	2.700	1.919	1.929	1.929	1.943	1.943	1.938
0.000	0.015	0.000	0.000	-0.005	0.010	0.425	2.729	1.929	1.924	1.919	1.943	1.938	1.943
-0.010	0.015	0.000	0.000	-0.005	0.010	0.420	2.686	1.924	1.924	1.919	1.943	1.938	1.948
0.000	0.000	0.000	0.005	-0.005	0.015	0.425	2.690	1.929	1.924	1.929	1.943	1.943	1.943
0.010	-0.005	0.000	0.000	0.000	0.005	0.425	2.686	1.934	1.924	1.924	1.943	1.938	1.943
0.000	-0.005	0.000	0.005	0.000	0.010	0.410	2.710	1.929	1.924	1.929	1.943	1.943	1.938
0.010	-0.015	0.005	0.000	0.005	-0.020	0.420	2.705	1.934	1.924	1.924	1.943	1.943	1.934
0.005	0.005	0.010	0.000	0.005	0.005	0.425	2.695	1.929	1.934	1.929	1.948	1.943	1.943
0.000	0.005	0.005	0.000	0.005	0.015	0.415	2.715	1.934	1.929	1.929	1.948	1.943	1.943
0.000	0.005	0.005	0.000	0.005	0.000	0.420	2.705	1.929	1.934	1.929	1.948	1.943	1.943
0.000	0.015	-0.020	0.005	0.000	-0.005	0.415	2.705	1.929	1.934	1.924	1.948	1.943	1.943
0.005	0.000	-0.029	0.005	0.005	0.015	0.425	2.690	1.929	1.924	1.919	1.943	1.943	1.943
0.000	0.010	-0.010	0.010	0.005	0.010	0.415	2.690	1.924	1.929	1.924	1.943	1.943	1.938
0.000	0.010	0.000	0.005	0.005	-0.020	0.425	2.686	1.924	1.924	1.929	1.943	1.938	1.934
0.010	0.005	0.005	0.005	0.005	-0.010	0.410	2.705	1.919	1.919	1.924	1.943	1.938	1.938
0.010	0.010	-0.005	0.005	0.000	0.015	0.420	2.690	1.919	1.924	1.924	1.943	1.938	1.943
-0.005	0.020	0.005	0.000	0.000	0.015	0.420	2.676	1.914	1.924	1.924	1.938	1.938	1.938
0.000	0.000	0.015	0.005	-0.005	0.005	0.415	2.671	1.914	1.914	1.924	1.938	1.934	1.934
-0.005	0.005	0.020	0.000	-0.005	-0.005	0.425	2.681	1.914	1.914	1.924	1.938	1.934	1.934
0.010	-0.005	0.024	0.005	0.000	-0.005	0.420	2.681	1.919	1.914	1.924	1.938	1.938	1.934
0.005	-0.005	0.020	0.005	0.005	0.000	0.425	2.695	1.924	1.914	1.919	1.938	1.938	1.938
0.015	-0.005	0.020	0.005	0.000	-0.005	0.420	2.681	1.929	1.924	1.919	1.938	1.938	1.938
0.005	-0.005	0.015	0.000	0.005	0.005	0.420	2.705	1.924	1.919	1.919	1.943	1.938	1.938
-0.005	-0.005	0.005	0.000	0.005	0.010	0.425	2.690	1.924	1.924	1.914	1.938	1.934	1.943
0.000	0.029	-0.005	0.000	0.000	-0.010	0.415	2.700	1.929	1.929	1.919	1.938	1.934	1.934
0.005	0.010	0.000	0.000	-0.005	-0.024	0.425	2.705	1.929	1.924	1.924	1.938	1.934	1.934
0.005	0.005	-0.005	0.005	0.000	0.000	0.415	2.744	1.934	1.929	1.924	1.938	1.934	1.943
0.000	0.015	-0.005	0.005	0.000	0.010	0.420	2.661	1.924	1.929	1.924	1.938	1.934	1.938
0.000	0.005	0.000	0.000	0.000	0.005	0.420	2.793	1.934	1.929	1.924	1.938	1.934	1.934
0.005	0.010	0.000	0.000	0.005	0.000	0.425	2.646	1.924	1.924	1.924	1.938	1.934	1.934
0.005	0.005	0.005	0.000	0.000	-0.020	0.420	2.661	1.929	1.924	1.924	1.938	1.934	1.924
-0.005	0.000	0.000	0.000	0.000	0.015	0.425	2.646	1.914	1.919	1.919	1.938	1.934	1.938
-0.005	0.000	-0.005	0.000	0.005	0.010	0.425	2.749	1.924	1.919	1.919	1.938	1.934	1.934
-0.005	-0.010	-0.015	0.000	0.005	0.000	0.415	2.646	1.914	1.914	1.914	1.934	1.929	1.929
-0.010	-0.005	-0.029	-0.005	0.000	0.005	0.420	2.739	1.919	1.914	1.909	1.929	1.929	1.929
-0.005	-0.005	-0.020	0.000	0.000	-0.005	0.420	2.646	1.914	1.914	1.914	1.934	1.929	1.929
0.000	0.000	-0.020	0.000	0.000	-0.005	0.420	2.671	1.914	1.919	1.914	1.929	1.929	1.929
0.005	-0.005	-0.024	0.000	0.000	0.005	0.420	2.749	1.924	1.919	1.914	1.934	1.929	1.934
0.005	0.010	-0.005	0.000	0.000	-0.010	0.415	2.700	1.924	1.924	1.924	1.934	1.929	1.929
0.000	0.005	0.010	0.000	0.000	0.010	0.415	2.642	1.914	1.924	1.924	1.938	1.934	1.934
-0.010	0.010	0.015	0.000	0.000	-0.015	0.425	2.700	1.919	1.924	1.929	1.943	1.934	1.929
-0.010	-0.005	0.034	0.005	0.000	0.010	0.420	2.729	1.919	1.919	1.929	1.943	1.938	1.938
0.000	0.000	0.044	0.000	0.000	0.015	0.420	2.681	1.924	1.924	1.929	1.948	1.934	1.938
-0.005	0.000	0.039	0.005	0.000	0.005	0.420	2.681	1.919	1.919	1.929	1.948	1.938	1.934
-0.005	0.000	0.034	0.005	0.000	-0.010	0.420	2.676	1.914	1.919	1.924	1.943	1.938	1.934
-0.005	0.000	0.024	0.000	0.000	0.005	0.420	2.695	1.909	1.914	1.914	1.938	1.934	1.934
0.005	-0.005	0.020	0.005	0.000	-0.010	0.415	2.700	1.919	1.914	1.914	1.938	1.934	1.934
0.000	0.005	0.005	0.005	0.000	-0.005	0.420	2.681	1.909	1.914	1.909	1.934	1.934	1.934
0.005	0.005	-0.005	0.005	-0.005	-0.005	0.425	2.700	1.914	1.909	1.904	1.929	1.929	1.934
0.005	-0.010	-0.020	0.000	0.000	-0.029	0.420	2.681	1.914	1.904	1.899	1.924	1.924	1.919
0.020	-0.005	-0.020	0.005	0.000	0.000	0.420	2.700	1.914	1.909	1.904	1.924	1.924	1.929
0.024	0.000	-0.020	0.005	0.010	-0.010	0.420	2.690	1.919	1.914	1.904	1.924	1.924	1.924
0.010	0.005	-0.020	0.000	0.010	0.020	0.420	2.676	1.909	1.914	1.909	1.924	1.929	1.934
0.010	-0.005	-0.015	0.000	0.015	0.020	0.415	2.686	1.914	1.909	1.909	1.929	1.929	1.934
0.015	0.005	-0.005	0.000	0.024	0.029	0.420	2.695	1.919	1.919	1.914	1.934	1.929	1.929
0.020	-0.005	-0.005	0.005	0.020	0.034	0.425	2.695	1.924	1.914	1.914	1.934	1.929	1.938
0.010	-0.005	0.000	0.005	0.020	0.029	0.415	2.690	1.919	1.914	1.914	1.938	1.929	1.934
-0.010	-0.005	-0.005	0.005	0.020	0.024	0.430	2.710	1.919	1.914	1.914	1.934	1.929	1.934
-0.039	0.000	0.000	0.000	0.015	0.020	0.415	2.710	1.914	1.914	1.914	1.934	1.929	1.929
-0.029	-0.005	0.005	0.005	0.015	0.024	0.425	2.690	1.914	1.914	1.914	1.934	1.929	1.929
-0.024	0.005	-0.005	0.005	0.015	0.010	0.415	2.705	1.919	1.919	1.914	1.934	1.929	1.929
0.005	0.015	0.005	0.000	0.015	-0.010	0.425	2.676	1.929	1.924	1.914	1.934	1.929	1.919
0.020	-0.015	0.000	0.000	0.005	0.020	0.410	2.695	1.924	1.914	1.914	1.929	1.924	1.929
0.029	-0.010	0.005	0.010	0.005	0.015	0.420	2.700	1.924	1.914	1.914	1.929	1.924	1.924
0.024	0.000	0.005	0.005	0.005	-0.024	0.415	2.690	1.919	1.919	1.914	1.929	1.924	1.909
0.010	-0.005	0.005	0.010	0.010	-0.010	0.425	2.661	1.904	1.914	1.909	1.934	1.924	1.919
-0.005	0.005	0.005	0.005	0.005	-0.005	0.415	2.637	1.904	1.909	1.909	1.929	1.924	1.924
-0.010	0.005	0.010	0.005	0.000	0.010	0.425	2.661	1.899	1.904	1.909	1.929	1.924	1.929
-0.010	0.005	0.005	0.010	0.000	0.015	0.425	2.793	1.919	1.909	1.909	1.929	1.924	1.924
0.000	0.000	0.005	0.005	-0.005	0.015	0.420	2.661	1.914	1.909	1.909	1.929	1.924	1.924
0.015	0.000	0.005	0.000	0.000	-0.020	0.420	2.646	1.929	1.914	1.909	1.929	1.924	1.914
0.015	0.010	0.005	0.005	-0.010	0.010	0.425	2.646	1.919	1.924	1.914	1.929	1.924	1.929
0.000	0.000	0.005	0.005	-0.010	0.015	0.415	2.744	1.919	1.919	1.914	1.929	1.924	1.924
0.010	0.000	0.000	0.000	-0.005	0.015	0.420	2.710	1.924	1.919	1.919	1.934	1.924	1.934
-0.005	0.010	0.000	0.000	-0.010	0.000	0.420	2.759	1.914	1.919	1.919	1.934	1.929	1.924
0.000	0.000	0.000	-0.005	-0.010	-0.010	0.425	2.642	1.909	1.914	1.914	1.934	1.924	1.924
0.005	0.010	0.005	0.000	-0.010	0.005	0.420	2.676	1.909	1.919	1.919	1.934	1.929	1.929
0.015	0.010	0.000	0.005	-0.005	0.005	0.420	2.729	1.914	1.919	1.919	1.934	1.929	1.929
0.020	-0.005	0.005	0.005	-0.010	-0.005	0.420	2.705	1.914	1.914	1.914	1.934	1.929	1.924
0.024	-0.005	-0.005	-0.005	-0.010	-0.010	0.415	2.651	1.909	1.904	1.909	1.929	1.929	1.924
0.044	0.005	-0.005	0.000	-0.010	-0.005	0.415	2.695	1.919	1.914	1.909	1.934	1.924	1.924
0.059	-0.015	0.000	0.000	-0.005	-0.005	0.415	2.754	1.924	1.904	1.904	1.924	1.924	1.919
0.063	-0.010	0.000	0.000	-0.010	-0.005	0.420	2.676	1.914	1.909	1.909	1.924	1.924	1.919
0.054	-0.005	0.005	0.000	0.000	-0.010	0.415	2.681	1.909	1.909	1.909	1.924	1.924	1.924
0.059	0.005	0.005	0.005	-0.005	-0.034	0.430	2.690	1.914	1.909	1.914	1.929	1.919	1.914
0.049	0.000	0.015	0.005	0.000	-0.015	0.415	2.695	1.909	1.909	1.909	1.929	1.924	1.919
0.029	0.010	0.015	0.005	-0.005	0.010	0.425	2.710	1.909	1.919	1.909	1.929	1.929	1.929
0.020	0.010	0.010	0.005	0.000	0.000	0.425	2.686	1.904	1.914	1.914	1.929	1.929	1.929
-0.034	0.015	0.010	0.000	-0.005	-0.015	0.420	2.705	1.890	1.904	1.909	1.934	1.924	1.924
-0.083	0.000	0.010	-0.005	0.005	-0.020	0.415	2.715	1.890	1.895	1.904	1.929	1.924	1.924
-0.098	-0.005	0.000	0.000	-0.005	-0.005	0.420	2.695	1.895	1.895	1.899	1.929	1.929	1.929
-0.088	0.000	-0.005	0.000	0.000	-0.005	0.415	2.681	1.895	1.895	1.899	1.924	1.924	1.924
-0.068	0.005	-0.010	0.000	0.005	0.010	0.420	2.690	1.909	1.899	1.895	1.924	1.924	1.929
-0.063	0.015	-0.005	0.005	0.005	0.010	0.410	2.686	1.914	1.904	1.895	1.919	1.919	1.929
-0.059	0.010	-0.005	0.005	0.005	0.000	0.425	2.686	1.909	1.904	1.899	1.919	1.919	1.924
-0.049	0.005	-0.005	0.000	0.000	0.000	0.415	2.681	1.909	1.904	1.899	1.919	1.914	1.919
-0.039	0.005	0.000	0.000	0.005	-0.005	0.415	2.681	1.909	1.904	1.899	1.919	1.914	1.914
-0.020	0.000	0.005	0.005	0.000	-0.015	0.410	2.690	1.914	1.909	1.904	1.914	1.914	1.909
0.005	0.000	0.000	0.000	0.005	0.005	0.425	2.681	1.919	1.909	1.904	1.919	1.914	1.914
0.034	-0.005	0.005	0.000	0.005	0.005	0.420	2.681	1.919	1.909	1.904	1.919	1.909	1.914
0.054	0.005	0.005	-0.005	0.000	-0.010	0.420	2.710	1.924	1.914	1.909	1.919	1.909	1.904
0.068	0.005	0.005	-0.005	0.005	0.015	0.415	2.710	1.924	1.919	1.909	1.919	1.914	1.919
0.088	0.005	0.005	-0.005	0.005	0.010	0.425	2.681	1.924	1.924	1.914	1.924	1.919	1.919
0.083	0.000	-0.005	0.000	0.010	0.005	0.420	2.686	1.919	1.919	1.914	1.929	1.924	1.919
0.049	0.010	0.000	0.005	0.000	-0.005	0.410	2.690	1.909	1.919	1.914	1.929	1.919	1.914
0.044	0.005	0.000	0.005	0.005	0.000	0.415	2.671	1.904	1.914	1.914	1.934	1.924	1.919
0.010	0.005	0.005	0.010	0.000	0.005	0.420	2.769	1.909	1.909	1.914	1.934	1.924	1.919
-0.005	-0.005	0.005	0.010	0.010	0.000	0.420	2.661	1.904	1.909	1.909	1.934	1.929	1.924
-0.020	0.005	0.005	0.010	0.005	-0.005	0.420	2.793	1.914	1.909	1.909	1.934	1.929	1.924
-0.034	0.005	-0.005	0.000	0.005	0.010	0.420	2.646	1.909	1.909	1.909	1.929	1.929	1.929
-0.029	0.010	0.000	0.000	0.005	-0.005	0.420	2.715	1.909	1.909	1.909	1.929	1.929	1.924
-0.049	-0.005	0.000	-0.005	0.010	0.015	0.420	2.642	1.899	1.899	1.909	1.929	1.929	1.929
-0.034	-0.005	0.005	-0.005	0.010	-0.005	0.420	2.729	1.909	1.899	1.904	1.924	1.924	1.919
-0.015	-0.005	-0.005	-0.005	0.005	0.010	0.420	2.642	1.904	1.899	1.899	1.924	1.924	1.924
0.000	-0.005	0.005	-0.005	0.000	0.005	0.410	2.754	1.909	1.904	1.899	1.919	1.919	1.924
0.000	-0.005	0.000	-0.005	0.010	0.000	0.415	2.661	1.909	1.904	1.899	1.919	1.914	1.919
-0.005	0.010	0.000	0.000	0.000	-0.020	0.415	2.671	1.904	1.909	1.904	1.919	1.914	1.914
0.005	0.000	0.005	0.005	0.005	-0.005	0.425	2.749	1.914	1.904	1.904	1.924	1.914	1.914
0.005	0.015	-0.005	0.005	0.005	0.005	0.425	2.686	1.909	1.909	1.904	1.924	1.919	1.919
0.005	0.010	-0.005	0.005	0.005	-0.010	0.425	2.739	1.914	1.909	1.904	1.919	1.914	1.919
0.000	0.010	0.000	0.000	0.005	-0.005	0.420	2.695	1.914	1.909	1.909	1.924	1.914	1.914
-0.015	-0.005	-0.005	0.000	0.000	0.015	0.430	2.734	1.919	1.904	1.909	1.924	1.919	1.924
-0.020	-0.010	0.005	0.000	0.000	0.015	0.420	2.700	1.919	1.909	1.909	1.929	1.919	1.919
-0.005	0.005	0.005	0.005	0.000	0.015	0.425	2.681	1.919	1.919	1.914	1.929	1.924	1.924
-0.020	0.005	0.005	0.005	0.000	0.005	0.420	2.681	1.914	1.914	1.914	1.934	1.919	1.924
-0.015	-0.005	0.010	0.005	0.005	0.000	0.420	2.710	1.919	1.909	1.909	1.934	1.929	1.919
-0.005	-0.005	0.005	0.005	0.010	-0.020	0.425	2.705	1.914	1.914	1.914	1.929	1.924	1.919
-0.005	-0.005	0.000	0.005	0.005	0.015	0.425	2.690	1.914	1.909	1.914	1.929	1.924	1.929
-0.005	-0.005	0.005	0.005	0.005	0.010	0.420	2.695	1.914	1.909	1.909	1.929	1.924	1.924
-0.005	0.020	0.005	0.000	0.005	0.000	0.420	2.681	1.909	1.919	1.909	1.924	1.924	1.924
-0.005	0.010	-0.005	0.005	0.000	0.010	0.425	2.695	1.909	1.909	1.904	1.924	1.919	1.924
-0.005	0.010	0.005	-0.005	0.005	-0.010	0.415	2.690	1.909	1.909	1.909	1.924	1.919	1.914
0.005	0.010	0.000	0.000	0.005	0.005	0.415	2.686	1.904	1.904	1.904	1.924	1.919	1.924
0.010	0.000	0.000	0.000	0.000	0.000	0.420	2.686	1.904	1.899	1.904	1.924	1.919	1.919
0.005	0.010	-0.005	-0.005	0.005	0.000	0.420	2.686	1.904	1.904	1.904	1.924	1.919	1.919
0.015	0.005	0.005	0.000	0.000	0.005	0.415	2.690	1.904	1.899	1.904	1.924	1.919	1.919
0.015	0.010	0.005	0.005	0.000	0.005	0.425	2.681	1.904	1.904	1.904	1.924	1.919	1.924
0.000	0.000	0.000	0.000	-0.005	-0.005	0.410	2.686	1.904	1.899	1.904	1.924	1.919	1.919
-0.005	0.000	0.005	0.000	0.000	-0.005	0.420	2.686	1.909	1.904	1.904	1.924	1.919	1.919
0.010	0.005	0.010	-0.005	0.000	0.015	0.425	2.686	1.914	1.909	1.909	1.924	1.919	1.924
0.010	0.000	0.005	0.000	0.000	0.005	0.430	2.695	1.909	1.909	1.904	1.929	1.919	1.919
0.000	-0.015	-0.010	0.000	0.000	0.000	0.425	2.700	1.909	1.904	1.899	1.924	1.919	1.924
0.000	-0.010	-0.010	0.005	0.000	-0.015	0.425	2.690	1.909	1.904	1.899	1.924	1.919	1.919
0.000	0.005	-0.005	0.005	0.005	0.010	0.420	2.700	1.909	1.909	1.909	1.924	1.924	1.924
0.000	-0.005	0.005	0.005	0.005	0.015	0.420	2.700	1.909	1.909	1.909	1.929	1.919	1.924
0.000	-0.010	0.005	0.005	0.000	-0.020	0.420	2.690	1.909	1.909	1.909	1.924	1.919	1.909
0.000	0.000	0.020	0.005	0.010	0.010	0.420	2.651	1.904	1.904	1.909	1.929	1.924	1.924
0.010	-0.005	0.010	0.005	0.005	-0.005	0.425	2.661	1.899	1.904	1.904	1.924	1.919	1.919
0.010	-0.005	0.010	0.005	0.000	0.000	0.425	2.788	1.909	1.899	1.899	1.919	1.914	1.914
0.015	0.000	0.015	0.000	0.005	0.005	0.420	2.646	1.909	1.899	1.899	1.919	1.919	1.919
0.000	0.005	0.005	0.000	0.000	0.010	0.425	2.744	1.909	1.904	1.899	1.919	1.914	1.919
0.000	0.005	0.005	0.000	0.000	0.015	0.420	2.725	1.914	1.909	1.899	1.919	1.914	1.919
0.005	0.015	0.005	0.000	-0.005	0.005	0.420	2.671	1.909	1.909	1.904	1.919	1.914	1.914
0.005	0.005	0.000	0.005	0.000	0.010	0.425	2.651	1.909	1.909	1.899	1.919	1.919	1.919
0.005	0.015	0.000	0.005	0.000	-0.005	0.425	2.759	1.919	1.914	1.904	1.924	1.919	1.909
0.010	0.005	0.000	0.000	0.005	0.005	0.420	2.661	1.914	1.914	1.904	1.924	1.919	1.924
-0.005	0.000	0.000	0.000	0.000	0.000	0.415	2.676	1.909	1.909	1.909	1.924	1.919	1.914
0.005	0.005	-0.010	0.000	0.000	-0.010	0.420	2.749	1.914	1.914	1.909	1.924	1.919	1.914
0.005	0.005	-0.005	0.005	0.000	-0.034	0.420	2.690	1.909	1.914	1.909	1.924	1.924	1.914
-0.005	0.000	-0.005	0.005	0.005	0.005	0.425	2.632	1.904	1.909	1.909	1.929	1.924	1.924
0.000	-0.010	-0.015	0.000	0.000	-0.005	0.425	2.690	1.909	1.904	1.904	1.929	1.919	1.919
0.005	0.005	-0.010	0.000	0.000	-0.010	0.420	2.637	1.909	1.909	1.904	1.924	1.919	1.919
0.005	0.005	0.000	0.005	0.000	0.020	0.420	2.690	1.909	1.909	1.904	1.924	1.924	1.924
0.005	0.005	0.005	0.000	0.005	-0.010	0.425	2.681	1.904	1.904	1.909	1.924	1.919	1.909
0.005	-0.005	0.010	0.000	0.000	0.020	0.425	2.681	1.904	1.899	1.904	1.924	1.919	1.924
0.010	-0.015	0.020	0.000	0.005	0.010	0.420	2.695	1.904	1.899	1.904	1.919	1.919	1.919
0.000	-0.005	0.015	0.000	0.000	-0.010	0.415	2.686	1.904	1.899	1.899	1.924	1.914	1.914
-0.005	-0.005	0.020	0.000	-0.005	0.020	0.420	2.700	1.899	1.899	1.899	1.924	1.919	1.919
-0.010	-0.005	0.015	0.005	0.010	0.000	0.420	2.681	1.895	1.895	1.895	1.919	1.919	1.914
-0.039	-0.005	0.005	-0.005	0.000	-0.005	0.425	2.690	1.895	1.895	1.895	1.919	1.914	1.914
-0.015	-0.005	0.000	0.000	-0.005	0.010	0.415	2.700	1.909	1.904	1.895	1.914	1.914	1.919
0.015	0.005	-0.005	0.000	0.000	0.010	0.415	2.686	1.909	1.909	1.899	1.914	1.914	1.914
0.039	0.029	-0.005	0.000	0.005	0.010	0.420	2.705	1.924	1.919	1.904	1.919	1.919	1.914
0.049	0.034	-0.005	0.000	0.005	-0.015	0.415	2.700	1.924	1.924	1.909	1.924	1.919	1.909
0.068	0.010	-0.005	0.000	0.005	0.015	0.420	2.700	1.924	1.914	1.914	1.924	1.919	1.924
0.059	-0.010	-0.005	0.000	0.000	0.020	0.425	2.690	1.919	1.909	1.909	1.929	1.919	1.924
0.049	-0.010	0.000	0.000	0.000	0.015	0.425	2.690	1.914	1.914	1.909	1.929	1.924	1.919
0.044	-0.010	0.005	0.010	0.005	0.000	0.425	2.690	1.909	1.914	1.909	1.929	1.924	1.919
0.029	-0.005	-0.005	0.005	0.010	0.000	0.420	2.686	1.904	1.909	1.909	1.929	1.924	1.919
0.029	-0.005	0.000	0.005	0.005	0.005	0.415	2.681	1.899	1.904	1.909	1.924	1.924	1.919
0.010	-0.005	0.005	0.010	0.000	0.010	0.425	2.695	1.895	1.899	1.904	1.924	1.919	1.919
-0.029	0.005	0.000	0.010	0.000	-0.020	0.425	2.686	1.885	1.895	1.899	1.919	1.919	1.914
-0.054	0.000	0.000	0.005	0.005	0.015	0.420	2.686	1.885	1.890	1.895	1.919	1.919	1.924
-0.044	0.005	0.000	0.000	0.000	0.005	0.420	2.705	1.890	1.890	1.895	1.914	1.914	1.914
-0.039	0.005	0.005	0.005	-0.005	0.010	0.420	2.695	1.895	1.890	1.890	1.914	1.909	1.919
-0.029	-0.005	0.000	-0.005	0.000	0.015	0.420	2.666	1.899	1.895	1.890	1.914	1.909	1.919
-0.015	0.005	0.005	-0.005	-0.005	0.010	0.425	2.651	1.904	1.899	1.895	1.909	1.909	1.914
-0.010	0.015	0.005	0.000	0.000	0.015	0.415	2.666	1.904	1.899	1.899	1.914	1.909	1.914
-0.005	0.015	0.005	0.005	0.000	0.010	0.425	2.808	1.924	1.909	1.899	1.919	1.914	1.909
0.020	0.005	0.005	0.005	-0.005	0.000	0.420	2.656	1.919	1.909	1.904	1.919	1.914	1.909
0.015	0.015	0.005	0.010	0.000	0.010	0.420	2.661	1.909	1.914	1.904	1.924	1.919	1.914
0.005	-0.005	0.000	0.015	0.010	0.015	0.420	2.661	1.904	1.904	1.904	1.924	1.919	1.919
0.020	-0.005	0.000	0.010	0.010	-0.005	0.425	2.720	1.909	1.909	1.904	1.924	1.919	1.909
0.000	-0.005	0.000	0.010	0.010	-0.020	0.415	2.637	1.895	1.899	1.904	1.919	1.914	1.914
-0.010	0.000	0.005	0.005	0.000	-0.024	0.420	2.749	1.904	1.904	1.904	1.919	1.919	1.909
-0.010	-0.005	0.005	0.000	0.005	-0.005	0.415	2.749	1.909	1.899	1.904	1.919	1.914	1.919
-0.005	0.000	0.005	0.000	0.005	0.015	0.425	2.671	1.909	1.904	1.899	1.919	1.919	1.919
-0.010	0.015	0.000	-0.005	0.005	0.010	0.420	2.734	1.909	1.904	1.899	1.914	1.914	1.914
-0.020	0.000	0.005	-0.005	-0.005	0.005	0.420	2.690	1.899	1.899	1.899	1.914	1.909	1.914
-0.020	0.000	0.000	-0.005	0.000	-0.005	0.420	2.666	1.904	1.895	1.895	1.914	1.909	1.909
-0.020	0.000	-0.005	0.000	0.000	-0.010	0.420	2.700	1.909	1.899	1.895	1.914	1.909	1.904
-0.015	0.000	-0.005	0.000	0.000	0.015	0.425	2.651	1.904	1.899	1.899	1.914	1.909	1.914
-0.005	0.005	0.005	0.000	0.000	0.024	0.420	2.695	1.904	1.904	1.899	1.919	1.909	1.914
0.005	0.005	0.000	0.000	0.000	-0.005	0.425	2.686	1.914	1.909	1.899	1.919	1.909	1.909
0.010	0.000	0.005	0.010	0.000	0.005	0.420	2.695	1.914	1.909	1.904	1.919	1.919	1.914
0.015	-0.005	0.000	0.005	0.000	0.010	0.425	2.690	1.909	1.904	1.904	1.924	1.914	1.914
0.024	-0.005	0.005	0.005	0.005	0.000	0.420	2.715	1.914	1.909	1.909	1.924	1.919	1.914
0.039	0.000	0.000	0.005	-0.005	-0.005	0.425	2.690	1.919	1.914	1.909	1.929	1.919	1.914
0.020	-0.010	0.005	0.005	0.000	-0.005	0.420	2.695	1.909	1.909	1.909	1.929	1.919	1.914
0.000	0.000	0.000	0.000	0.000	-0.005	0.415	2.705	1.904	1.909	1.909	1.924	1.919	1.914
0.005	-0.005	0.005	0.000	0.000	-0.024	0.420	2.700	1.899	1.904	1.909	1.924	1.919	1.909
-0.010	0.005	-0.005	0.000	0.005	-0.010	0.420	2.681	1.899	1.904	1.904	1.924	1.919	1.919
-0.015	0.010	0.000	0.005	0.000	-0.005	0.430	2.681	1.895	1.904	1.899	1.924	1.919	1.919
-0.024	0.005	0.000	0.000	0.005	0.000	0.420	2.695	1.899	1.899	1.899	1.919	1.914	1.919
-0.010	0.005	0.000	0.000	0.000	0.005	0.420	2.676	1.899	1.899	1.899	1.919	1.914	1.919
-0.015	0.000	0.005	0.000	0.005	0.010	0.425	2.681	1.899	1.895	1.899	1.914	1.914	1.919
-0.010	0.000	0.000	0.000	0.005	0.005	0.425	2.686	1.899	1.895	1.895	1.919	1.914	1.914
-0.010	0.010	0.000	-0.005	0.000	0.000	0.425	2.686	1.895	1.899	1.895	1.914	1.909	1.914
-0.015	0.015	0.000	0.000	0.005	0.000	0.420	2.705	1.899	1.899	1.899	1.914	1.914	1.914
-0.020	0.005	0.000	0.005	0.005	0.005	0.425	2.686	1.895	1.895	1.895	1.914	1.909	1.909
-0.024	0.000	0.000	-0.005	0.000	0.005	0.415	2.705	1.899	1.895	1.899	1.919	1.909	1.914
-0.024	0.005	0.005	-0.005	0.005	-0.005	0.430	2.715	1.909	1.899	1.895	1.919	1.914	1.914
-0.024	0.005	0.000	-0.005	0.005	0.000	0.415	2.700	1.909	1.904	1.899	1.919	1.914	1.914
-0.010	0.000	-0.005	0.000	0.000	0.010	0.425	2.686	1.914	1.899	1.899	1.919	1.914	1.914
0.005	0.000	-0.005	0.000	0.005	0.005	0.425	2.690	1.914	1.904	1.899	1.919	1.914	1.914
0.020	0.005	-0.005	0.000	0.000	-0.010	0.420	2.676	1.914	1.909	1.904	1.919	1.914	1.914
0.015	0.000	0.000	0.005	0.005	0.015	0.420	2.651	1.919	1.909	1.904	1.924	1.914	1.919
0.024	0.000	0.005	0.000	0.000	0.000	0.425	2.656	1.914	1.914	1.909	1.919	1.914	1.909
0.044	-0.005	0.010	0.005	0.005	0.000	0.425	2.788	1.924	1.909	1.909	1.924	1.914	1.914
0.044	-0.005	0.010	0.005	0.010	-0.010	0.425	2.642	1.909	1.909	1.904	1.924	1.914	1.909
0.049	-0.005	0.015	0.000	0.005	0.010	0.420	2.651	1.909	1.904	1.909	1.924	1.919	1.914
0.029	-0.005	0.010	0.005	0.005	0.005	0.425	2.744	1.909	1.909	1.904	1.924	1.914	1.919
0.034	0.000	0.005	0.005	-0.005	0.010	0.420	2.661	1.899	1.904	1.899	1.924	1.914	1.919
0.034	0.005	0.010	0.005	-0.005	-0.010	0.420	2.734	1.904	1.904	1.904	1.919	1.914	1.909
0.034	-0.005	0.000	0.005	0.000	-0.005	0.430	2.686	1.914	1.904	1.899	1.919	1.914	1.909
0.020	0.000	-0.005	0.000	-0.005	-0.005	0.420	2.759	1.914	1.904	1.899	1.919	1.914	1.914
0.015	0.000	-0.005	0.000	0.000	0.010	0.425	2.681	1.909	1.904	1.904	1.919	1.914	1.919
0.015	0.010	0.000	-0.005	0.000	-0.005	0.415	2.720	1.914	1.909	1.904	1.924	1.914	1.914
0.010	-0.005	0.000	0.000	0.000	-0.010	0.430	2.690	1.909	1.904	1.909	1.924	1.914	1.914
-0.020	0.000	0.005	0.000	0.000	0.000	0.420	2.744	1.904	1.909	1.909	1.924	1.919	1.919
-0.015	0.000	0.015	0.000	0.005	0.005	0.425	2.695	1.909	1.909	1.909	1.929	1.919	1.919
-0.005	-0.005	0.010	0.005	0.005	0.005	0.425	2.651	1.909	1.909	1.904	1.929	1.919	1.919
-0.020	-0.010	0.010	0.000	0.005	0.010	0.425	2.681	1.904	1.904	1.904	1.929	1.924	1.924
-0.015	0.000	0.005	0.000	0.005	0.005	0.420	2.681	1.904	1.909	1.904	1.929	1.924	1.924
-0.010	0.005	0.005	0.005	0.000	0.015	0.430	2.676	1.904	1.909	1.904	1.924	1.919	1.919
-0.010	-0.010	0.000	0.010	0.000	0.000	0.420	2.690	1.904	1.899	1.899	1.924	1.919	1.919
-0.010	-0.010	-0.005	0.015	0.005	0.010	0.425	2.705	1.904	1.899	1.899	1.924	1.919	1.919
-0.063	0.010	-0.005	0.005	0.005	0.015	0.420	2.686	1.885	1.899	1.899	1.919	1.914	1.919
-0.049	0.010	-0.005	0.005	0.005	0.015	0.425	2.700	1.895	1.890	1.895	1.914	1.914	1.919
-0.020	0.005	0.000	0.005	0.000	0.015	0.435	2.710	1.914	1.899	1.895	1.914	1.909	1.914
0.005	0.000	0.005	0.005	0.000	-0.005	0.420	2.700	1.919	1.899	1.895	1.914	1.909	1.909
0.015	0.000	-0.005	0.000	0.000	0.005	0.415	2.695	1.914	1.904	1.895	1.914	1.909	1.909
0.029	0.000	0.005	0.005	0.000	-0.010	0.425	2.686	1.914	1.909	1.899	1.914	1.909	1.904
0.029	0.000	0.000	0.000	0.000	0.010	0.430	2.686	1.914	1.909	1.904	1.919	1.914	1.914
0.015	0.000	0.005	0.005	0.000	0.005	0.420	2.686	1.909	1.909	1.909	1.919	1.914	1.914
0.015	0.005	0.000	0.000	0.000	0.005	0.415	2.690	1.904	1.909	1.909	1.924	1.919	1.919
0.020	0.000	-0.005	-0.005	0.010	-0.024	0.420	2.686	1.909	1.904	1.909	1.924	1.914	1.909
0.020	0.015	0.000	-0.005	-0.005	-0.015	0.425	2.700	1.909	1.914	1.909	1.924	1.914	1.919
0.015	-0.005	0.000	0.000	0.005	-0.005	0.420	2.690	1.909	1.904	1.909	1.929	1.919	1.919
0.024	0.000	0.005	0.005	0.005	0.029	0.425	2.690	1.909	1.909	1.909	1.929	1.924	1.924
0.024	0.015	0.005	0.000	0.005	-0.020	0.415	2.705	1.914	1.909	1.904	1.929	1.919	1.909
0.024	0.005	0.000	0.005	0.000	-0.005	0.425	2.690	1.909	1.909	1.904	1.924	1.919	1.919
-0.010	0.005	0.005	0.000	-0.005	0.005	0.415	2.705	1.899	1.904	1.904	1.919	1.919	1.919
0.005	0.000	0.005	0.005	0.000	-0.015	0.435	2.676	1.895	1.899	1.904	1.919	1.919	1.914
-0.015	0.000	0.000	0.010	0.000	-0.015	0.415	2.695	1.895	1.895	1.895	1.919	1.914	1.909
-0.029	0.005	-0.005	0.005	0.005	0.005	0.420	2.690	1.895	1.895	1.895	1.914	1.914	1.914
-0.024	0.000	-0.010	0.000	0.005	0.015	0.415	2.637	1.890	1.890	1.890	1.914	1.909	1.919
-0.010	0.005	-0.005	0.000	0.005	0.020	0.425	2.651	1.890	1.895	1.895	1.909	1.914	1.919
-0.010	0.010	0.000	0.000	0.000	-0.005	0.420	2.788	1.909	1.899	1.895	1.914	1.909	1.909
-0.005	0.005	0.000	0.000	0.000	0.020	0.425	2.646	1.904	1.899	1.895	1.914	1.914	1.919
-0.015	0.015	0.005	0.000	-0.005	0.020	0.415	2.642	1.895	1.904	1.899	1.914	1.909	1.914
0.000	0.010	0.000	0.005	0.000	0.010	0.425	2.637	1.899	1.899	1.899	1.919	1.914	1.914
0.000	-0.010	0.005	0.005	0.005	0.000	0.430	2.734	1.909	1.895	1.899	1.919	1.914	1.909
0.020	-0.010	0.010	0.000	0.000	-0.024	0.420	2.661	1.909	1.899	1.899	1.919	1.914	1.899
0.020	-0.005	0.000	0.000	-0.005	-0.005	0.415	2.754	1.919	1.909	1.899	1.919	1.914	1.909
0.029	-0.005	0.015	0.000	-0.005	-0.005	0.420	2.646	1.914	1.914	1.904	1.924	1.914	1.914
0.024	0.000	0.000	0.000	-0.005	0.000	0.420	2.671	1.904	1.909	1.904	1.919	1.914	1.914
0.039	-0.005	-0.005	0.005	0.000	0.010	0.420	2.734	1.914	1.904	1.904	1.924	1.919	1.919
0.029	0.000	0.000	0.005	0.000	0.000	0.425	2.700	1.909	1.909	1.909	1.924	1.914	1.914
0.015	0.000	-0.005	0.010	0.005	-0.010	0.425	2.637	1.904	1.904	1.899	1.919	1.919	1.914
0.005	0.015	0.000	0.000	0.010	0.020	0.420	2.690	1.904	1.909	1.904	1.919	1.919	1.924
-0.005	0.010	0.000	0.000	0.005	0.010	0.415	2.622	1.890	1.899	1.899	1.919	1.914	1.914
-0.015	0.005	0.005	0.000	0.010	0.005	0.420	2.695	1.890	1.895	1.899	1.919	1.914	1.914
-0.024	0.000	0.005	0.000	0.010	0.000	0.415	2.690	1.890	1.890	1.895	1.914	1.909	1.909
-0.015	-0.005	0.000	0.000	0.005	0.005	0.420	2.681	1.895	1.890	1.890	1.914	1.909	1.914
-0.020	-0.005	0.010	-0.005	0.005	0.010	0.425	2.695	1.895	1.890	1.890	1.914	1.909	1.909
-0.020	0.010	0.000	0.005	0.000	0.015	0.425	2.700	1.899	1.899	1.895	1.909	1.909	1.914
-0.015	0.000	0.005	0.000	-0.010	0.005	0.420	2.695	1.904	1.899	1.895	1.914	1.909	1.909
-0.029	0.005	0.000	0.000	-0.005	-0.020	0.430	2.710	1.899	1.895	1.899	1.914	1.909	1.904
-0.020	-0.005	0.005	0.005	0.005	0.005	0.425	2.715	1.914	1.904	1.899	1.914	1.919	1.914
-0.005	0.000	0.005	0.000	0.000	0.000	0.425	2.695	1.914	1.909	1.904	1.919	1.914	1.914
0.005	0.000	0.000	0.005	0.000	0.005	0.420	2.681	1.914	1.909	1.904	1.919	1.914	1.914
0.005	0.015	-0.005	-0.010	0.005	0.005	0.435	2.671	1.914	1.914	1.904	1.914	1.914	1.914
0.015	0.000	-0.005	-0.005	0.010	-0.010	0.425	2.681	1.909	1.904	1.904	1.919	1.914	1.914
0.024	0.000	0.000	-0.005	0.000	0.020	0.425	2.705	1.909	1.909	1.904	1.919	1.914	1.914
0.024	-0.010	-0.005	0.005	-0.005	0.010	0.415	2.676	1.904	1.899	1.904	1.919	1.914	1.914
0.015	0.000	-0.005	0.005	0.005	0.005	0.425	2.686	1.899	1.899	1.899	1.924	1.914	1.914
0.015	0.000	-0.005	0.010	0.000	-0.010	0.425	2.695	1.904	1.899	1.899	1.919	1.909	1.904
0.005	-0.005	0.000	0.010	-0.005	-0.020	0.420	2.695	1.895	1.895	1.899	1.919	1.909	1.904
0.000	0.000	0.000	0.010	-0.005	0.005	0.415	2.671	1.890	1.895	1.895	1.914	1.909	1.919
-0.005	-0.005	0.000	0.005	0.005	0.010	0.425	2.705	1.890	1.890	1.895	1.914	1.909	1.914
-0.010	0.000	0.010	0.000	0.024	0.000	0.430	2.705	1.899	1.895	1.895	1.914	1.919	1.909
-0.024	0.005	0.010	0.000	0.029	-0.010	0.430	2.690	1.895	1.895	1.895	1.914	1.914	1.914
-0.029	0.015	0.005	0.005	0.015	-0.029	0.425	2.690	1.895	1.899	1.895	1.914	1.909	1.904
-0.015	0.015	-0.005	-0.005	0.010	-0.015	0.425	2.695	1.904	1.899	1.895	1.914	1.909	1.914
-0.020	0.005	-0.005	-0.005	-0.010	-0.005	0.425	2.661	1.904	1.899	1.895	1.909	1.904	1.909
-0.015	0.000	0.000	-0.005	-0.024	-0.005	0.420	2.656	1.909	1.899	1.899	1.914	1.899	1.909
-0.005	-0.010	0.000	0.005	-0.024	-0.015	0.420	2.676	1.909	1.899	1.899	1.914	1.904	1.904
-0.005	-0.005	-0.005	-0.005	-0.010	0.005	0.420	2.778	1.914	1.904	1.899	1.914	1.914	1.914
0.020	0.000	-0.015	0.000	0.000	0.010	0.420	2.642	1.919	1.909	1.899	1.914	1.914	1.914
0.024	0.000	-0.010	0.000	0.010	0.024	0.425	2.637	1.909	1.909	1.899	1.914	1.919	1.919
0.029	0.000	0.000	0.000	0.015	0.034	0.425	2.734	1.914	1.914	1.909	1.919	1.919	1.924
0.049	0.000	0.005	0.000	0.010	0.049	0.415	2.749	1.919	1.909	1.909	1.919	1.919	1.924
0.034	0.000	0.005	0.000	0.010	0.029	0.435	2.656	1.899	1.904	1.909	1.919	1.914	1.919
0.039	0.005	0.010	0.005	0.000	0.010	0.420	2.749	1.909	1.909	1.909	1.924	1.914	1.909
0.015	-0.010	0.020	0.000	0.000	0.005	0.425	2.749	1.904	1.895	1.909	1.924	1.914	1.904
0.015	-0.005	0.024	0.005	0.000	-0.010	0.420	2.671	1.895	1.899	1.904	1.924	1.914	1.904
-0.005	0.000	0.020	0.000	0.000	-0.005	0.425	2.744	1.895	1.899	1.899	1.919	1.914	1.909
-0.015	0.000	0.010	0.005	0.000	-0.020	0.420	2.705	1.895	1.899	1.895	1.919	1.914	1.904
-0.029	0.000	0.005	0.005	0.010	-0.005	0.425	2.739	1.899	1.895	1.899	1.919	1.919	1.914
-0.024	0.000	-0.005	0.010	0.005	-0.005	0.425	2.690	1.899	1.895	1.895	1.919	1.914	1.914
-0.044	0.000	-0.005	0.005	0.005	0.000	0.430	2.637	1.895	1.895	1.895	1.914	1.914	1.914
-0.010	0.005	-0.015	0.000	0.005	0.005	0.420	2.681	1.909	1.904	1.890	1.914	1.919	1.919
0.005	0.005	-0.010	0.000	0.005	0.010	0.430	2.681	1.914	1.909	1.899	1.919	1.914	1.924
0.015	0.000	-0.005	0.005	0.000	0.010	0.430	2.686	1.914	1.909	1.904	1.919	1.914	1.919
0.044	0.005	0.005	0.000	0.000	0.005	0.430	2.715	1.924	1.914	1.904	1.919	1.914	1.914
0.039	0.015	0.000	0.000	0.000	-0.029	0.420	2.710	1.914	1.914	1.909	1.924	1.914	1.909
0.039	0.000	0.010	0.000	0.000	-0.005	0.415	2.686	1.909	1.909	1.909	1.924	1.919	1.914
0.010	-0.005	0.010	0.000	-0.005	0.000	0.420	2.705	1.904	1.904	1.904	1.924	1.914	1.914
0.010	0.000	0.015	0.000	0.005	0.000	0.420	2.710	1.904	1.904	1.904	1.924	1.919	1.914
-0.005	-0.005	0.010	0.000	0.005	0.010	0.425	2.705	1.895	1.895	1.899	1.924	1.919	1.919
-0.020	0.000	0.005	0.000	0.000	-0.010	0.415	2.686	1.890	1.895	1.899	1.919	1.914	1.909
-0.024	0.000	0.000	0.000	-0.005	0.000	0.425	2.681	1.885	1.890	1.895	1.914	1.909	1.909
-0.039	0.005	-0.005	0.000	-0.005	0.000	0.420	2.700	1.890	1.890	1.890	1.914	1.914	1.914
-0.020	0.005	-0.005	0.000	0.000	0.005	0.430	2.695	1.899	1.895	1.890	1.914	1.914	1.914
-0.024	0.005	-0.005	0.010	0.000	0.015	0.425	2.681	1.895	1.895	1.890	1.914	1.914	1.919
-0.024	0.015	-0.005	0.005	0.010	0.005	0.430	2.681	1.899	1.899	1.895	1.914	1.914	1.914
-0.020	0.005	0.000	0.000	0.005	0.005	0.425	2.710	1.914	1.899	1.895	1.914	1.914	1.914
-0.005	0.010	-0.005	0.005	-0.005	-0.029	0.430	2.705	1.914	1.909	1.895	1.914	1.909	1.904
-0.005	-0.005	-0.005	0.000	0.000	-0.015	0.425	2.681	1.909	1.904	1.899	1.914	1.909	1.909
0.000	0.000	-0.005	0.000	0.010	-0.020	0.430	2.695	1.909	1.909	1.904	1.919	1.914	1.909
0.010	0.005	0.000	0.000	0.005	-0.024	0.425	2.705	1.919	1.909	1.904	1.919	1.914	1.904
0.024	0.000	0.005	0.000	0.005	-0.015	0.430	2.705	1.919	1.909	1.904	1.919	1.914	1.914
0.039	-0.010	0.005	0.000	0.005	-0.034	0.420	2.690	1.919	1.909	1.909	1.919	1.914	1.909
0.049	0.000	0.005	0.000	0.005	-0.020	0.425	2.700	1.914	1.914	1.909	1.924	1.914	1.914
0.029	0.010	-0.005	0.005	0.000	0.015	0.415	2.656	1.899	1.909	1.904	1.924	1.914	1.924
0.015	0.005	-0.020	0.000	0.010	0.039	0.425	2.651	1.890	1.904	1.899	1.919	1.914	1.924
0.015	0.005	-0.015	0.000	0.000	0.039	0.420	2.666	1.895	1.899	1.899	1.919	1.914	1.924
0.005	0.010	-0.020	0.005	0.005	0.020	0.425	2.773	1.895	1.895	1.895	1.919	1.914	1.919
0.005	0.005	-0.020	0.000	0.005	0.049	0.425	2.651	1.895	1.895	1.895	1.914	1.914	1.919
-0.010	0.005	-0.005	0.005	-0.005	0.034	0.425	2.642	1.890	1.890	1.899	1.914	1.909	1.914
-0.010	0.000	0.015	0.010	-0.005	0.015	0.415	2.646	1.885	1.890	1.899	1.919	1.909	1.904
-0.005	-0.005	0.024	0.005	-0.024	-0.010	0.420	2.739	1.899	1.895	1.899	1.919	1.909	1.904
-0.010	0.010	0.024	0.005	-0.020	0.010	0.420	2.661	1.899	1.895	1.899	1.919	1.909	1.909
-0.005	0.005	0.029	0.000	-0.010	-0.005	0.415	2.661	1.899	1.899	1.899	1.919	1.914	1.909
-0.015	0.005	0.034	0.005	-0.015	0.000	0.420	2.646	1.895	1.895	1.899	1.919	1.914	1.909
-0.005	0.005	0.029	0.000	-0.005	0.005	0.420	2.686	1.899	1.899	1.895	1.919	1.919	1.914
-0.005	0.000	0.015	0.000	0.005	0.000	0.430	2.749	1.904	1.899	1.899	1.919	1.919	1.919
0.005	0.000	0.010	0.010	0.010	0.000	0.410	2.690	1.909	1.899	1.895	1.919	1.919	1.914
-0.010	-0.010	0.005	0.005	0.020	0.000	0.420	2.729	1.914	1.899	1.895	1.919	1.919	1.919
-0.005	-0.020	0.005	0.005	0.015	0.000	0.425	2.705	1.909	1.899	1.895	1.914	1.914	1.919
-0.010	-0.015	0.000	-0.005	0.015	-0.010	0.425	2.749	1.899	1.899	1.895	1.909	1.909	1.909
0.000	-0.005	-0.005	0.000	0.024	-0.039	0.415	2.686	1.899	1.904	1.895	1.909	1.909	1.904
0.005	-0.010	-0.010	0.000	0.024	-0.005	0.430	2.686	1.899	1.899	1.895	1.909	1.909	1.909
0.015	-0.005	-0.005	0.000	0.020	-0.020	0.415	2.681	1.904	1.899	1.895	1.909	1.904	1.904
0.024	0.000	-0.010	0.000	0.010	-0.020	0.430	2.686	1.899	1.899	1.895	1.909	1.899	1.904
0.005	0.010	-0.010	0.000	0.005	-0.005	0.420	2.700	1.895	1.899	1.895	1.909	1.904	1.909
0.015	0.020	-0.010	0.000	0.000	0.000	0.425	2.686	1.899	1.899	1.895	1.914	1.904	1.909
0.000	0.015	-0.010	0.000	0.000	-0.005	0.430	2.715	1.899	1.899	1.895	1.909	1.904	1.904
0.005	0.005	0.000	0.000	0.000	0.005	0.430	2.700	1.904	1.899	1.899	1.914	1.909	1.909
0.010	0.005	-0.005	0.005	-0.005	-0.010	0.420	2.700	1.904	1.899	1.899	1.914	1.904	1.909
-0.020	0.010	0.000	0.000	-0.010	0.005	0.420	2.700	1.899	1.904	1.904	1.919	1.909	1.909
-0.034	0.010	-0.005	0.005	-0.015	0.000	0.420	2.705	1.899	1.899	1.899	1.919	1.909	1.909
-0.020	0.015	0.000	0.000	0.000	-0.020	0.420	2.681	1.904	1.899	1.899	1.919	1.914	1.904
-0.010	0.005	0.000	0.000	0.000	0.015	0.425	2.695	1.904	1.899	1.899	1.919	1.919	1.919
-0.015	0.010	0.005	0.000	0.000	0.010	0.420	2.681	1.904	1.899	1.904	1.919	1.919	1.919
-0.015	0.005	0.000	0.000	0.005	-0.015	0.425	2.686	1.904	1.899	1.904	1.919	1.914	1.909
-0.010	0.010	0.010	0.000	0.000	0.010	0.420	2.686	1.909	1.904	1.899	1.919	1.919	1.919
-0.005	0.000	0.010	0.005	0.005	0.015	0.425	2.710	1.909	1.904	1.899	1.919	1.919	1.919
0.015	0.000	0.000	0.010	0.010	-0.005	0.415	2.681	1.904	1.899	1.899	1.919	1.914	1.909
0.020	0.000	-0.010	0.005	0.000	0.000	0.420	2.705	1.909	1.899	1.890	1.914	1.909	1.909
0.015	-0.005	-0.015	0.000	0.000	0.000	0.425	2.686	1.899	1.899	1.890	1.909	1.909	1.909
0.029	0.005	-0.015	-0.005	-0.005	0.005	0.425	2.690	1.899	1.895	1.895	1.909	1.909	1.909
0.024	0.010	-0.005	0.000	0.000	0.005	0.415	2.681	1.899	1.899	1.899	1.909	1.909	1.909
0.029	0.005	0.005	0.000	0.000	-0.020	0.425	2.710	1.899	1.899	1.899	1.914	1.909	1.899
0.029	0.000	0.010	0.005	0.000	0.000	0.415	2.695	1.899	1.899	1.899	1.914	1.909	1.909
0.020	-0.005	0.010	0.005	-0.005	0.020	0.425	2.661	1.899	1.899	1.899	1.919	1.909	1.909
0.020	0.000	0.020	0.010	-0.005	-0.005	0.420	2.666	1.895	1.899	1.904	1.919	1.909	1.909
0.024	0.005	0.029	0.010	-0.005	0.024	0.425	2.803	1.914	1.899	1.904	1.924	1.914	1.919
0.015	0.005	0.020	0.000	-0.005	0.015	0.420	2.651	1.909	1.904	1.904	1.919	1.914	1.919
0.000	0.005	0.010	0.000	0.000	-0.010	0.425	2.734	1.909	1.904	1.899	1.919	1.914	1.909
0.000	0.000	0.015	0.000	0.005	0.005	0.420	2.729	1.909	1.904	1.904	1.919	1.919	1.914
-0.005	-0.010	0.005	-0.005	0.010	0.005	0.425	2.754	1.909	1.904	1.904	1.919	1.919	1.919
-0.005	-0.015	0.005	0.000	0.010	0.010	0.420	2.627	1.899	1.904	1.899	1.919	1.919	1.919
-0.010	-0.015	-0.005	-0.005	0.005	0.000	0.425	2.749	1.909	1.904	1.899	1.914	1.914	1.914
-0.015	-0.015	-0.005	0.000	0.005	0.005	0.415	2.651	1.899	1.899	1.895	1.919	1.914	1.914
-0.010	-0.010	-0.010	0.005	0.010	0.010	0.430	2.671	1.899	1.895	1.895	1.914	1.914	1.914
0.010	-0.005	-0.005	0.005	0.005	-0.005	0.420	2.749	1.904	1.904	1.895	1.914	1.909	1.909
0.005	0.005	-0.010	0.005	0.005	0.000	0.420	2.705	1.904	1.904	1.895	1.914	1.909	1.909
0.005	0.020	-0.010	-0.005	0.000	-0.010	0.425	2.651	1.899	1.899	1.895	1.909	1.909	1.909
-0.010	0.015	-0.005	0.005	0.005	0.000	0.420	2.695	1.890	1.895	1.899	1.914	1.904	1.909
-0.049	0.010	0.000	0.000	0.000	-0.020	0.420	2.651	1.880	1.890	1.895	1.914	1.904	1.899
-0.044	0.010	0.000	0.000	-0.005	0.010	0.420	2.700	1.890	1.890	1.895	1.914	1.904	1.909
-0.024	0.010	0.000	0.000	-0.005	-0.010	0.425	2.681	1.899	1.895	1.899	1.914	1.909	1.909
-0.010	0.015	0.005	0.005	-0.005	0.020	0.420	2.690	1.909	1.899	1.895	1.914	1.909	1.919
0.005	0.015	-0.005	0.000	-0.005	-0.024	0.430	2.695	1.909	1.899	1.899	1.914	1.909	1.904
0.010	0.015	0.000	0.000	0.000	0.015	0.420	2.695	1.914	1.904	1.899	1.919	1.914	1.914
0.010	0.000	-0.005	0.000	0.000	0.010	0.420	2.690	1.909	1.904	1.899	1.919	1.919	1.919
-0.010	0.000	-0.005	0.000	-0.005	0.005	0.420	2.686	1.904	1.904	1.899	1.919	1.914	1.914
0.005	0.010	-0.005	0.000	0.000	0.000	0.415	2.690	1.904	1.904	1.899	1.919	1.914	1.914
-0.010	0.005	0.000	0.000	0.000	-0.024	0.425	2.705	1.899	1.899	1.904	1.919	1.914	1.909
0.000	0.005	0.005	0.000	0.005	0.010	0.420	2.690	1.904	1.904	1.904	1.919	1.914	1.914
-0.015	-0.005	0.005	0.000	0.000	-0.005	0.425	2.705	1.899	1.895	1.899	1.919	1.914	1.914
0.000	0.005	0.005	0.000	0.000	0.000	0.420	2.700	1.904	1.904	1.899	1.919	1.914	1.909
0.024	0.000	0.000	0.005	0.010	-0.020	0.420	2.681	1.904	1.899	1.899	1.914	1.909	1.904
0.020	0.010	0.005	0.000	0.010	-0.010	0.420	2.695	1.899	1.899	1.899	1.914	1.914	1.909
0.005	0.000	0.000	0.005	0.005	-0.015	0.415	2.681	1.890	1.895	1.895	1.914	1.909	1.904
-0.005	-0.005	0.000	0.000	0.005	0.005	0.425	2.690	1.895	1.895	1.895	1.914	1.909	1.909
0.000	-0.005	0.000	0.000	0.005	0.000	0.415	2.705	1.895	1.895	1.890	1.914	1.909	1.909
-0.005	-0.010	0.005	0.005	0.005	0.010	0.430	2.686	1.899	1.890	1.890	1.914	1.909	1.909
0.010	0.005	0.005	0.005	0.000	-0.015	0.415	2.681	1.904	1.899	1.895	1.914	1.909	1.909
0.005	0.000	0.005	0.005	0.005	0.005	0.425	2.690	1.904	1.899	1.899	1.914	1.914	1.914
0.015	-0.005	0.005	0.005	0.005	-0.005	0.425	2.686	1.904	1.899	1.899	1.919	1.914	1.914
0.024	0.000	0.005	0.000	0.005	0.015	0.415	2.700	1.909	1.904	1.899	1.919	1.914	1.924
0.029	0.005	0.000	0.000	-0.005	0.020	0.425	2.690	1.909	1.909	1.904	1.919	1.914	1.919
0.039	0.000	0.000	0.000	0.005	-0.005	0.420	2.671	1.909	1.904	1.904	1.919	1.914	1.909
0.044	-0.010	0.000	-0.005	0.005	0.024	0.420	2.651	1.909	1.904	1.904	1.919	1.914	1.919
0.054	-0.005	0.005	0.000	-0.005	0.015	0.425	2.671	1.904	1.904	1.904	1.924	1.914	1.914
0.044	-0.005	0.005	0.000	0.000	0.015	0.425	2.788	1.909	1.904	1.899	1.919	1.914	1.914
0.029	0.005	0.000	0.000	0.000	0.010	0.420	2.651	1.899	1.904	1.899	1.919	1.914	1.909
0.015	0.000	0.000	0.005	0.005	-0.015	0.420	2.637	1.890	1.895	1.899	1.919	1.909	1.909
0.005	-0.005	0.005	0.000	0.005	0.010	0.420	2.734	1.890	1.890	1.895	1.914	1.909	1.909
-0.024	0.005	0.005	0.000	0.005	0.005	0.425	2.729	1.880	1.890	1.890	1.914	1.909	1.909
-0.039	0.000	0.005	-0.005	-0.005	0.005	0.420	2.734	1.880	1.885	1.890	1.914	1.909	1.909
-0.034	-0.005	0.000	0.000	0.005	-0.005	0.430	2.754	1.890	1.885	1.885	1.909	1.909	1.909
-0.044	0.005	-0.005	0.000	0.005	0.000	0.420	2.729	1.895	1.890	1.885	1.909	1.909	1.909
-0.029	0.000	0.000	-0.005	0.000	0.000	0.420	2.661	1.899	1.890	1.885	1.909	1.904	1.909
-0.010	0.005	0.005	0.005	0.005	-0.005	0.410	2.651	1.899	1.895	1.890	1.909	1.909	1.909
-0.005	-0.005	0.000	0.000	0.000	0.000	0.425	2.710	1.909	1.895	1.890	1.909	1.909	1.909
-0.015	0.000	0.000	0.000	0.000	0.005	0.425	2.739	1.914	1.904	1.895	1.909	1.904	1.909
0.010	0.015	0.010	0.005	0.005	-0.020	0.420	2.690	1.919	1.909	1.904	1.914	1.909	1.909
0.005	0.000	0.010	0.005	0.005	0.000	0.420	2.754	1.914	1.909	1.909	1.914	1.909	1.914
0.000	0.000	0.015	0.000	0.005	0.015	0.430	2.686	1.909	1.909	1.909	1.924	1.914	1.914
0.000	0.000	0.010	0.000	0.005	0.015	0.410	2.686	1.909	1.909	1.904	1.919	1.914	1.914
-0.015	-0.005	0.005	0.000	0.000	0.010	0.425	2.676	1.899	1.899	1.899	1.919	1.914	1.909
-0.005	-0.020	0.005	0.000	0.005	0.000	0.420	2.686	1.899	1.899	1.899	1.919	1.909	1.904
-0.024	0.000	0.000	0.005	-0.005	0.010	0.420	2.715	1.899	1.899	1.895	1.919	1.914	1.909
-0.015	-0.005	-0.005	0.000	-0.005	0.000	0.425	2.695	1.895	1.899	1.895	1.914	1.909	1.904
-0.020	-0.005	0.000	0.005	-0.005	-0.005	0.420	2.695	1.895	1.895	1.890	1.909	1.904	1.904
-0.010	-0.010	-0.005	0.000	0.000	-0.010	0.425	2.700	1.899	1.895	1.895	1.909	1.909	1.904
0.000	0.000	0.000	0.005	0.000	-0.029	0.425	2.705	1.899	1.895	1.895	1.909	1.909	1.904
-0.010	-0.005	0.010	0.000	0.005	0.000	0.420	2.690	1.899	1.899	1.899	1.914	1.909	1.909
-0.010	0.000	0.010	0.000	0.000	0.005	0.425	2.705	1.899	1.899	1.895	1.909	1.909	1.909
0.000	0.005	0.010	0.000	0.000	0.000	0.415	2.705	1.904	1.899	1.899	1.914	1.909	1.904
0.029	0.015	0.010	0.005	0.005	0.015	0.425	2.686	1.909	1.909	1.904	1.919	1.914	1.919
0.049	0.005	-0.005	0.000	0.005	0.005	0.425	2.690	1.919	1.909	1.899	1.919	1.914	1.914
0.049	0.010	-0.005	0.000	0.000	0.000	0.415	2.681	1.914	1.909	1.904	1.919	1.914	1.914
0.049	0.005	0.000	0.000	0.005	0.020	0.425	2.695	1.909	1.909	1.909	1.924	1.919	1.919
0.044	0.000	0.000	0.000	0.005	0.010	0.415	2.686	1.909	1.909	1.909	1.924	1.919	1.919
0.020	0.000	0.000	0.000	0.000	0.010	0.430	2.690	1.895	1.904	1.904	1.924	1.919	1.914
0.010	0.000	0.000	0.005	0.005	0.000	0.420	2.700	1.899	1.899	1.899	1.924	1.919	1.909
0.000	0.010	0.000	0.005	0.010	0.005	0.425	2.700	1.899	1.904	1.899	1.924	1.919	1.919
-0.005	0.005	0.000	0.000	0.005	0.000	0.420	2.690	1.895	1.895	1.899	1.924	1.919	1.914
-0.015	0.010	0.000	-0.005	0.005	0.005	0.425	2.686	1.890	1.890	1.895	1.914	1.914	1.914
-0.015	0.010	0.005	0.000	0.005	0.015	0.415	2.695	1.895	1.890	1.895	1.914	1.914	1.914
-0.010	0.005	0.000	0.005	-0.005	0.010	0.420	2.681	1.899	1.890	1.890	1.914	1.909	1.914
-0.029	0.010	0.000	0.005	0.005	0.015	0.415	2.651	1.885	1.890	1.890	1.914	1.909	1.909
-0.029	-0.005	0.005	0.015	0.000	0.005	0.420	2.656	1.885	1.885	1.885	1.909	1.909	1.909
-0.020	0.005	0.005	0.010	0.000	0.000	0.420	2.803	1.904	1.890	1.890	1.909	1.909	1.904
-0.020	0.020	0.000	0.010	0.000	-0.015	0.425	2.646	1.899	1.899	1.890	1.909	1.909	1.909
-0.015	0.015	0.005	0.005	0.005	-0.034	0.420	2.646	1.899	1.899	1.895	1.909	1.904	1.899
-0.010	0.005	0.005	-0.005	0.000	-0.015	0.420	2.646	1.899	1.899	1.895	1.909	1.909	1.904
-0.005	0.005	0.005	-0.005	-0.005	-0.020	0.420	2.661	1.904	1.899	1.895	1.909	1.904	1.909
0.000	-0.010	0.000	-0.010	0.000	0.000	0.420	2.622	1.899	1.899	1.895	1.909	1.904	1.914
-0.005	-0.010	-0.005	-0.005	-0.005	0.015	0.415	2.656	1.899	1.899	1.895	1.914	1.909	1.914
0.010	-0.005	-0.005	-0.005	0.000	0.010	0.420	2.754	1.904	1.904	1.899	1.914	1.909	1.914
0.020	-0.010	-0.005	0.005	0.000	-0.015	0.420	2.661	1.899	1.899	1.899	1.914	1.909	1.904
0.015	-0.005	0.000	0.000	-0.005	0.020	0.410	2.739	1.909	1.899	1.899	1.919	1.914	1.914
0.020	0.000	0.000	0.000	0.005	0.020	0.425	2.700	1.909	1.904	1.899	1.914	1.909	1.914
0.005	-0.005	0.005	0.000	0.005	0.015	0.425	2.729	1.904	1.899	1.899	1.914	1.909	1.909
-0.005	0.000	0.010	0.000	0.015	0.015	0.425	2.695	1.895	1.899	1.899	1.914	1.909	1.909
-0.010	0.005	0.005	0.000	0.005	-0.010	0.420	2.637	1.885	1.895	1.895	1.914	1.904	1.904
-0.005	0.010	0.005	0.000	0.000	-0.005	0.430	2.690	1.895	1.895	1.895	1.914	1.904	1.904
-0.015	0.010	0.005	0.000	-0.005	0.020	0.425	2.690	1.890	1.890	1.895	1.909	1.904	1.909
0.005	0.005	0.000	0.005	0.000	0.010	0.430	2.690	1.899	1.890	1.890	1.909	1.904	1.909
0.005	0.005	-0.010	0.000	0.000	0.005	0.425	2.705	1.899	1.890	1.890	1.909	1.904	1.904
-0.005	-0.005	0.000	0.000	0.000	-0.010	0.425	2.715	1.899	1.895	1.890	1.909	1.909	1.904
-0.029	0.000	-0.005	0.005	0.000	0.000	0.430	2.695	1.895	1.895	1.895	1.909	1.909	1.904
-0.029	-0.010	-0.005	0.010	0.005	-0.024	0.430	2.715	1.899	1.890	1.895	1.914	1.909	1.899
0.005	0.005	0.005	0.005	0.005	0.005	0.415	2.715	1.914	1.904	1.895	1.914	1.909	1.909
0.029	0.000	0.005	0.005	0.000	-0.024	0.425	2.700	1.919	1.904	1.899	1.914	1.909	1.904
0.034	0.010	0.005	0.005	0.010	-0.015	0.425	2.690	1.914	1.914	1.904	1.919	1.914	1.914
0.044	0.000	0.010	0.000	0.015	0.005	0.420	2.710	1.919	1.909	1.904	1.919	1.914	1.914
0.039	-0.005	0.005	0.005	-0.005	0.010	0.410	2.681	1.909	1.909	1.899	1.919	1.909	1.914
0.034	-0.005	0.005	0.005	-0.010	0.005	0.420	2.686	1.899	1.904	1.904	1.919	1.909	1.914
0.010	0.000	-0.005	-0.005	0.000	0.005	0.420	2.686	1.890	1.904	1.899	1.914	1.909	1.909
0.024	-0.010	0.005	0.000	-0.005	0.010	0.420	2.690	1.895	1.895	1.895	1.919	1.909	1.909
0.029	-0.010	0.000	0.000	0.010	0.005	0.415	2.686	1.899	1.899	1.895	1.914	1.914	1.909
0.020	-0.005	-0.005	0.000	0.005	-0.005	0.425	2.686	1.890	1.895	1.890	1.914	1.914	1.909
0.015	0.000	-0.015	0.000	0.015	0.015	0.420	2.686	1.890	1.895	1.890	1.909	1.909	1.914
0.010	0.015	0.000	0.005	0.005	0.000	0.420	2.715	1.895	1.899	1.895	1.909	1.909	1.909
0.005	0.005	0.005	0.005	0.010	0.024	0.420	2.686	1.895	1.895	1.895	1.914	1.909	1.914
-0.005	0.000	0.010	0.000	0.010	-0.005	0.420	2.710	1.890	1.890	1.899	1.914	1.909	1.909
-0.010	-0.005	0.015	0.000	-0.005	0.015	0.430	2.686	1.895	1.895	1.895	1.914	1.904	1.909
-0.010	-0.015	0.015	0.005	-0.010	0.010	0.415	2.690	1.899	1.890	1.895	1.914	1.904	1.909
0.005	-0.010	0.005	0.000	-0.010	0.010	0.420	2.705	1.904	1.899	1.895	1.914	1.909	1.909
-0.005	0.010	0.005	-0.005	-0.005	0.000	0.420	2.646	1.899	1.899	1.895	1.914	1.909	1.909
-0.015	0.005	0.005	0.000	0.010	0.000	0.425	2.666	1.895	1.895	1.895	1.914	1.914	1.909
-0.024	-0.005	0.005	0.005	-0.005	0.000	0.420	2.793	1.909	1.899	1.895	1.914	1.909	1.909
-0.039	-0.005	0.000	0.000	-0.005	-0.024	0.420	2.646	1.895	1.895	1.895	1.914	1.909	1.904
-0.034	0.015	0.000	0.005	-0.005	-0.005	0.415	2.637	1.895	1.895	1.895	1.914	1.909	1.909
-0.024	0.015	-0.005	0.000	0.005	0.005	0.420	2.656	1.890	1.895	1.895	1.914	1.909	1.914
-0.039	0.005	0.000	0.000	0.005	0.029	0.420	2.646	1.885	1.890	1.890	1.914	1.909	1.919
-0.024	0.000	-0.005	0.010	0.010	0.024	0.420	2.637	1.885	1.885	1.890	1.909	1.909	1.914
-0.039	0.000	-0.005	0.005	0.015	-0.010	0.420	2.744	1.890	1.885	1.885	1.909	1.909	1.904
-0.039	0.010	-0.005	0.000	0.015	-0.020	0.420	2.744	1.899	1.890	1.880	1.904	1.904	1.899
-0.020	0.000	0.000	0.005	0.010	-0.010	0.425	2.666	1.899	1.890	1.885	1.904	1.904	1.904
0.000	-0.010	0.000	0.010	0.010	0.005	0.420	2.749	1.914	1.895	1.885	1.904	1.904	1.909
0.015	0.000	-0.005	0.005	0.015	0.000	0.420	2.686	1.909	1.899	1.890	1.904	1.904	1.909
0.029	0.000	-0.005	0.000	0.010	-0.015	0.430	2.637	1.909	1.899	1.895	1.904	1.899	1.899
0.034	-0.010	0.005	0.005	-0.005	0.000	0.420	2.700	1.909	1.904	1.895	1.909	1.899	1.904
0.044	0.015	0.010	0.005	0.000	-0.010	0.420	2.666	1.909	1.914	1.904	1.914	1.904	1.904
0.034	-0.010	0.000	0.010	-0.005	-0.010	0.415	2.690	1.904	1.904	1.904	1.914	1.904	1.904
0.029	0.015	0.000	0.005	-0.005	0.005	0.415	2.686	1.904	1.914	1.909	1.914	1.909	1.909
0.034	0.010	-0.005	-0.005	-0.005	0.020	0.415	2.690	1.904	1.909	1.904	1.919	1.909	1.914
0.029	0.015	-0.010	-0.005	0.000	0.005	0.425	2.705	1.904	1.909	1.904	1.924	1.914	1.909
0.034	0.005	-0.020	0.005	0.000	0.024	0.420	2.686	1.904	1.904	1.899	1.919	1.914	1.919
0.020	0.005	-0.015	0.000	0.000	0.010	0.420	2.686	1.899	1.899	1.899	1.919	1.914	1.914
0.029	0.005	-0.005	0.000	0.005	0.000	0.420	2.700	1.899	1.899	1.904	1.919	1.914	1.909
0.015	0.010	0.005	0.000	0.005	0.005	0.415	2.686	1.895	1.899	1.904	1.919	1.914	1.909
0.010	-0.005	0.020	0.000	0.005	-0.010	0.420	2.690	1.890	1.890	1.899	1.919	1.909	1.909
-0.010	0.000	0.029	0.005	0.000	-0.005	0.415	2.676	1.885	1.890	1.899	1.914	1.909	1.909
-0.010	-0.005	0.024	0.000	0.005	-0.005	0.420	2.710	1.890	1.885	1.890	1.914	1.909	1.909
-0.005	0.005	0.005	0.000	0.000	-0.029	0.420	2.686	1.895	1.890	1.885	1.909	1.909	1.899
0.000	0.000	0.005	0.005	0.000	-0.024	0.430	2.700	1.895	1.890	1.890	1.909	1.909	1.904
-0.010	0.005	0.010	0.000	0.000	0.010	0.420	2.690	1.895	1.890	1.890	1.909	1.909	1.914
-0.020	0.000	0.015	0.000	-0.005	0.010	0.425	2.681	1.895	1.895	1.890	1.909	1.904	1.914
-0.029	-0.005	0.020	0.005	-0.005	0.010	0.415	2.681	1.895	1.890	1.895	1.909	1.904	1.909
-0.020	-0.005	0.020	-0.005	0.000	0.010	0.420	2.686	1.904	1.895	1.890	1.909	1.909	1.909
-0.020	0.000	0.010	-0.005	0.010	-0.005	0.415	2.681	1.904	1.899	1.895	1.914	1.909	1.909
-0.015	-0.010	0.010	0.005	0.010	-0.005	0.420	2.700	1.904	1.895	1.895	1.914	1.909	1.914
-0.020	-0.015	0.010	0.000	0.000	0.020	0.425	2.695	1.904	1.899	1.890	1.914	1.909	1.914
-0.015	0.000	0.000	0.005	-0.005	0.029	0.425	2.695	1.904	1.904	1.895	1.914	1.909	1.914
-0.020	0.000	-0.005	0.010	0.005	0.024	0.425	2.710	1.899	1.899	1.895	1.914	1.909	1.914
-0.015	0.000	-0.010	0.005	0.000	0.020	0.425	2.695	1.904	1.899	1.890	1.914	1.909	1.914
-0.010	0.010	-0.010	0.005	0.010	-0.005	0.420	2.661	1.904	1.899	1.895	1.914	1.909	1.899
0.005	0.000	-0.010	0.000	0.000	0.000	0.425	2.656	1.899	1.895	1.895	1.909	1.904	1.909
0.015	0.005	-0.010	0.000	0.000	-0.010	0.420	2.651	1.895	1.895	1.895	1.909	1.899	1.904
0.015	0.000	-0.005	-0.005	-0.005	-0.010	0.425	2.783	1.904	1.899	1.890	1.904	1.899	1.899
0.015	0.000	-0.010	0.005	0.005	-0.010	0.420	2.642	1.895	1.895	1.895	1.909	1.904	1.904
0.024	0.000	-0.010	0.000	0.010	-0.015	0.425	2.632	1.890	1.895	1.895	1.904	1.904	1.899
0.024	0.015	-0.005	-0.005	0.005	0.005	0.415	2.637	1.885	1.895	1.890	1.909	1.904	1.909
0.005	0.015	-0.005	-0.005	-0.005	-0.005	0.415	2.651	1.890	1.890	1.890	1.914	1.904	1.899
-0.005	0.005	-0.005	0.010	0.000	-0.015	0.430	2.637	1.885	1.890	1.895	1.914	1.904	1.904
-0.010	0.005	0.005	0.010	0.015	-0.005	0.425	2.656	1.885	1.890	1.895	1.914	1.914	1.909
-0.010	0.005	0.005	0.005	-0.010	-0.005	0.425	2.754	1.895	1.890	1.895	1.914	1.904	1.914
-0.005	0.000	0.015	0.010	-0.005	-0.020	0.425	2.681	1.899	1.890	1.895	1.914	1.909	1.909
-0.005	0.010	0.015	0.010	-0.010	-0.005	0.425	2.754	1.914	1.899	1.895	1.914	1.909	1.914
0.005	0.005	0.010	0.000	0.005	-0.005	0.425	2.705	1.914	1.904	1.895	1.914	1.914	1.914
0.005	0.015	0.010	0.005	0.005	0.000	0.425	2.734	1.914	1.909	1.899	1.909	1.909	1.909
0.015	-0.005	0.015	0.005	0.005	0.015	0.425	2.686	1.909	1.904	1.899	1.914	1.909	1.914
0.024	0.005	0.005	0.005	-0.005	0.005	0.425	2.642	1.899	1.904	1.899	1.914	1.909	1.909
0.005	0.010	0.000	0.005	0.000	0.000	0.420	2.681	1.899	1.899	1.895	1.914	1.909	1.909
-0.005	-0.005	0.005	0.000	-0.005	0.020	0.420	2.686	1.890	1.895	1.895	1.914	1.909	1.914
0.000	-0.010	0.000	0.005	0.010	0.015	0.415	2.690	1.895	1.890	1.890	1.909	1.909	1.909
0.000	-0.005	-0.005	0.000	0.029	-0.010	0.420	2.676	1.885	1.890	1.890	1.909	1.914	1.904
0.000	-0.005	0.000	0.000	0.029	0.024	0.420	2.695	1.895	1.890	1.885	1.909	1.909	1.914
-0.005	0.010	-0.005	0.000	-0.005	0.015	0.420	2.695	1.895	1.895	1.885	1.904	1.899	1.904
-0.005	-0.005	0.000	0.005	-0.010	0.015	0.420	2.700	1.895	1.895	1.890	1.904	1.899	1.904
0.000	0.000	0.000	0.000	0.005	0.005	0.425	2.695	1.895	1.895	1.890	1.909	1.904	1.904
0.010	0.010	0.000	0.000	0.010	0.000	0.420	2.695	1.899	1.895	1.895	1.914	1.909	1.904
-0.010	0.010	0.005	0.005	0.020	0.005	0.425	2.686	1.899	1.899	1.895	1.909	1.909	1.909
-0.010	0.000	0.000	0.005	0.015	-0.020	0.420	2.700	1.899	1.899	1.895	1.914	1.909	1.895
0.020	0.000	0.000	0.000	0.010	0.000	0.420	2.695	1.909	1.899	1.899	1.914	1.909	1.909
0.039	0.000	0.005	0.005	0.005	-0.010	0.415	2.676	1.909	1.909	1.899	1.919	1.909	1.909
0.034	-0.005	0.000	0.005	0.000	-0.005	0.425	2.681	1.904	1.899	1.899	1.914	1.909	1.909
0.010	0.000	0.005	0.005	-0.010	0.005	0.425	2.690	1.895	1.899	1.899	1.919	1.909	1.909
0.000	0.000	0.005	0.000	-0.029	0.005	0.420	2.690	1.895	1.899	1.895	1.914	1.904	1.904
0.000	-0.010	0.000	0.005	-0.020	0.005	0.415	2.700	1.890	1.890	1.895	1.914	1.909	1.909
-0.010	-0.005	-0.005	0.005	-0.005	0.010	0.415	2.686	1.890	1.890	1.895	1.914	1.909	1.909
-0.020	0.000	0.005	0.005	0.005	0.024	0.430	2.715	1.895	1.890	1.890	1.914	1.914	1.909
-0.010	0.000	0.010	0.005	-0.005	-0.020	0.425	2.676	1.899	1.895	1.895	1.909	1.904	1.895
-0.010	0.005	0.005	0.005	-0.010	0.015	0.425	2.700	1.899	1.890	1.895	1.909	1.904	1.909
0.000	0.024	0.000	0.000	-0.005	0.010	0.420	2.686	1.899	1.899	1.895	1.909	1.904	1.904
0.010	0.010	0.010	0.005	-0.005	0.010	0.420	2.690	1.904	1.899	1.895	1.909	1.909	1.904
0.010	0.020	0.000	-0.005	-0.005	0.005	0.415	2.671	1.904	1.904	1.895	1.909	1.904	1.904
0.015	0.010	-0.005	0.000	0.000	-0.005	0.425	2.646	1.895	1.895	1.890	1.909	1.909	1.904
0.029	0.015	-0.005	0.005	0.010	-0.010	0.425	2.661	1.895	1.895	1.895	1.914	1.914	1.909
0.024	0.005	0.000	-0.005	0.005	-0.005	0.425	2.798	1.914	1.899	1.899	1.914	1.909	1.904
0.015	0.010	0.005	0.005	0.015	0.010	0.425	2.656	1.904	1.904	1.899	1.919	1.914	1.919
-0.005	0.005	0.005	0.000	0.020	0.010	0.420	2.642	1.895	1.899	1.899	1.919	1.914	1.914
0.000	0.000	0.000	0.010	0.010	-0.029	0.420	2.642	1.890	1.895	1.895	1.919	1.914	1.904
-0.020	0.000	0.000	0.005	0.005	0.005	0.425	2.656	1.899	1.895	1.899	1.914	1.909	1.914
-0.024	-0.005	-0.005	-0.005	0.000	-0.005	0.420	2.666	1.895	1.895	1.890	1.914	1.909	1.909
-0.024	-0.005	-0.005	0.005	0.015	0.000	0.420	2.656	1.895	1.890	1.890	1.914	1.914	1.909
-0.020	0.000	0.005	0.005	0.000	0.010	0.420	2.744	1.899	1.895	1.895	1.914	1.904	1.914
0.000	-0.005	0.000	0.000	0.000	0.010	0.425	2.661	1.899	1.890	1.890	1.909	1.904	1.909
0.005	-0.005	0.005	-0.005	0.000	0.010	0.420	2.744	1.909	1.895	1.890	1.909	1.904	1.909
0.029	-0.005	0.010	0.000	0.020	0.015	0.430	2.695	1.909	1.899	1.895	1.909	1.909	1.909
0.049	-0.010	0.005	0.005	0.015	0.000	0.420	2.720	1.914	1.899	1.890	1.909	1.909	1.904
0.054	0.000	0.010	0.000	0.010	0.034	0.425	2.705	1.914	1.904	1.895	1.909	1.909	1.914
0.039	-0.005	0.005	0.000	0.005	0.020	0.420	2.637	1.904	1.904	1.899	1.909	1.904	1.904
0.029	0.005	0.005	0.005	0.005	-0.020	0.425	2.686	1.899	1.904	1.899	1.914	1.909	1.899
0.024	0.000	0.000	0.000	-0.005	0.010	0.420	2.686	1.895	1.899	1.899	1.914	1.904	1.904
0.010	0.010	0.005	0.005	-0.005	-0.005	0.425	2.690	1.895	1.899	1.899	1.919	1.909	1.909
0.000	-0.005	-0.005	0.010	-0.024	0.000	0.420	2.705	1.895	1.895	1.895	1.914	1.904	1.909
-0.010	-0.005	-0.010	0.000	-0.024	-0.010	0.425	2.686	1.895	1.895	1.895	1.914	1.909	1.904
-0.015	-0.005	-0.005	0.000	-0.015	0.005	0.425	2.681	1.895	1.895	1.899	1.914	1.909	1.909
-0.010	0.000	0.000	0.000	-0.005	0.010	0.410	2.700	1.895	1.899	1.899	1.914	1.919	1.914
0.000	0.005	0.005	0.005	0.005	0.010	0.425	2.695	1.899	1.899	1.899	1.919	1.919	1.919
-0.015	0.000	0.005	0.005	0.024	0.015	0.415	2.700	1.899	1.899	1.899	1.919	1.919	1.919
-0.010	0.000	0.000	0.000	0.034	0.024	0.420	2.686	1.899	1.895	1.895	1.919	1.919	1.924
-0.015	0.000	0.005	0.005	0.029	0.005	0.425	2.705	1.899	1.895	1.895	1.914	1.914	1.914
-0.020	-0.005	0.005	0.005	0.005	-0.010	0.420	2.690	1.899	1.895	1.895	1.909	1.904	1.904
-0.020	0.000	0.010	0.000	0.005	-0.015	0.420	2.690	1.895	1.890	1.890	1.909	1.904	1.899
-0.010	0.000	0.010	0.000	-0.020	-0.010	0.425	2.690	1.899	1.895	1.890	1.909	1.895	1.899
-0.010	0.000	0.005	0.000	-0.015	0.000	0.420	2.686	1.895	1.895	1.890	1.909	1.904	1.904
-0.010	0.000	0.000	0.000	-0.005	0.000	0.420	2.686	1.895	1.895	1.890	1.909	1.904	1.904
-0.010	0.000	0.000	0.000	0.010	0.000	0.420	2.705	1.895	1.890	1.890	1.904	1.904	1.904
-0.010	0.000	0.005	-0.005	0.020	0.000	0.430	2.681	1.899	1.895	1.895	1.909	1.909	1.904
-0.010	0.000	-0.005	0.000	0.029	-0.005	0.420	2.686	1.899	1.895	1.890	1.909	1.909	1.909
-0.020	-0.005	-0.005	0.000	0.010	-0.024	0.430	2.681	1.899	1.899	1.890	1.909	1.904	1.899
-0.005	0.010	-0.005	0.005	0.005	-0.020	0.415	2.715	1.904	1.904	1.895	1.914	1.904	1.899
0.020	0.015	0.000	0.010	0.000	0.015	0.425	2.686	1.904	1.909	1.904	1.919	1.909	1.914
0.020	0.015	0.000	0.005	-0.005	0.015	0.410	2.690	1.909	1.904	1.904	1.919	1.909	1.914
0.015	0.010	0.000	0.000	-0.010	0.015	0.415	2.686	1.904	1.904	1.904	1.919	1.909	1.914
0.020	0.000	0.005	0.000	-0.010	0.005	0.415	2.642	1.895	1.899	1.899	1.914	1.909	1.909
0.024	0.000	0.005	0.000	-0.015	0.005	0.415	2.656	1.890	1.899	1.899	1.919	1.909	1.909
0.020	0.005	0.005	0.000	-0.024	0.005	0.420	2.788	1.904	1.895	1.899	1.919	1.909	1.904
0.015	0.000	0.000	0.005	0.015	-0.024	0.420	2.646	1.895	1.895	1.895	1.914	1.914	1.899
0.005	0.000	0.005	0.000	0.005	0.010	0.420	2.729	1.895	1.895	1.890	1.914	1.914	1.914
-0.010	-0.005	0.000	0.000	-0.005	0.010	0.420	2.729	1.895	1.890	1.890	1.909	1.904	1.914
-0.015	-0.005	-0.005	0.005	-0.010	0.024	0.415	2.729	1.899	1.890	1.890	1.909	1.904	1.914
-0.024	0.010	0.000	0.010	0.005	0.024	0.415	2.661	1.890	1.890	1.890	1.909	1.909	1.914
-0.024	0.000	-0.010	0.005	-0.005	-0.005	0.425	2.764	1.899	1.890	1.885	1.904	1.904	1.895
-0.020	-0.005	-0.010	0.000	-0.005	-0.005	0.415	2.661	1.899	1.895	1.885	1.909	1.904	1.899
-0.010	0.015	-0.010	0.005	0.005	-0.015	0.425	2.656	1.895	1.899	1.890	1.909	1.909	1.904
-0.024	0.010	0.005	0.000	0.005	-0.015	0.420	2.632	1.890	1.899	1.895	1.909	1.909	1.904
-0.010	-0.005	0.005	0.000	0.000	-0.005	0.425	2.700	1.899	1.895	1.895	1.914	1.904	1.909
-0.005	-0.010	0.015	0.000	-0.015	-0.005	0.420	2.725	1.904	1.895	1.895	1.914	1.904	1.909
0.010	-0.005	0.015	-0.005	-0.015	0.000	0.420	2.705	1.909	1.899	1.899	1.914	1.909	1.909
0.020	0.000	0.015	0.000	-0.024	-0.005	0.415	2.651	1.904	1.904	1.899	1.914	1.904	1.909
0.020	0.005	0.010	0.000	0.005	0.000	0.425	2.705	1.904	1.904	1.904	1.919	1.914	1.909
0.015	0.000	0.015	0.005	0.024	0.005	0.425	2.686	1.899	1.899	1.899	1.919	1.919	1.914
0.005	0.000	0.010	0.000	0.024	0.020	0.425	2.690	1.899	1.895	1.899	1.919	1.919	1.919
0.000	-0.005	0.005	0.000	0.029	-0.005	0.420	2.705	1.899	1.895	1.895	1.914	1.914	1.909
0.015	-0.010	-0.005	0.000	0.005	0.005	0.425	2.686	1.899	1.895	1.890	1.909	1.909	1.909
0.010	-0.005	-0.005	0.000	-0.005	0.000	0.420	2.690	1.899	1.895	1.885	1.909	1.904	1.904
-0.005	-0.005	-0.010	0.000	0.005	0.005	0.420	2.690	1.890	1.895	1.890	1.904	1.904	1.904
-0.039	0.000	-0.005	0.000	0.015	-0.015	0.420	2.686	1.880	1.885	1.890	1.909	1.904	1.904
-0.068	-0.005	0.000	0.000	0.010	0.000	0.420	2.700	1.875	1.880	1.890	1.904	1.899	1.904
-0.044	0.005	0.000	0.000	0.015	0.000	0.415	2.690	1.895	1.890	1.890	1.904	1.904	1.904
-0.005	0.000	0.005	0.000	0.010	-0.005	0.420	2.710	1.909	1.895	1.890	1.909	1.904	1.904
0.020	0.005	0.005	0.000	0.010	0.010	0.415	2.705	1.914	1.899	1.890	1.909	1.904	1.909
0.034	0.010	0.000	0.005	-0.020	0.010	0.420	2.690	1.914	1.904	1.895	1.914	1.899	1.904
0.039	0.010	0.005	0.005	-0.029	-0.010	0.415	2.690	1.914	1.909	1.899	1.914	1.899	1.899
0.034	0.015	-0.005	0.005	-0.005	-0.005	0.420	2.690	1.909	1.909	1.899	1.919	1.909	1.899
0.034	0.010	-0.005	0.005	0.010	-0.010	0.420	2.700	1.909	1.904	1.904	1.919	1.914	1.909
0.039	0.015	0.000	0.005	0.010	-0.005	0.420	2.686	1.904	1.909	1.909	1.919	1.919	1.914
0.034	0.005	0.000	0.005	0.000	-0.005	0.420	2.686	1.904	1.904	1.904	1.924	1.919	1.914
0.034	0.005	0.010	0.005	0.010	-0.005	0.415	2.686	1.904	1.904	1.904	1.919	1.919	1.919
0.024	0.005	0.010	0.000	0.005	-0.015	0.420	2.700	1.899	1.899	1.904	1.919	1.909	1.904
0.000	-0.005	0.015	0.000	-0.005	-0.005	0.420	2.710	1.890	1.895	1.899	1.919	1.909	1.914
0.000	-0.020	0.005	-0.005	-0.005	-0.005	0.420	2.690	1.890	1.885	1.895	1.914	1.909	1.909
-0.020	-0.010	0.005	-0.010	0.005	0.010	0.420	2.700	1.890	1.890	1.890	1.909	1.909	1.914
-0.010	0.000	0.000	0.000	0.020	0.015	0.425	2.676	1.899	1.890	1.890	1.909	1.909	1.914
0.000	0.000	0.000	0.005	-0.005	-0.020	0.425	2.656	1.895	1.890	1.885	1.909	1.899	1.899
-0.010	0.005	-0.005	0.005	0.005	0.000	0.430	2.651	1.880	1.895	1.890	1.909	1.909	1.909
-0.010	0.015	-0.005	0.000	0.024	0.005	0.420	2.803	1.904	1.895	1.890	1.909	1.909	1.909
-0.010	0.005	0.005	0.000	0.024	0.029	0.415	2.656	1.899	1.895	1.890	1.909	1.914	1.914
-0.005	0.010	0.000	0.005	0.010	0.024	0.415	2.646	1.895	1.895	1.890	1.909	1.909	1.909
-0.005	0.010	-0.005	0.005	-0.005	-0.005	0.430	2.642	1.895	1.895	1.895	1.909	1.899	1.904
-0.010	-0.005	0.000	0.005	0.000	0.020	0.420	2.632	1.885	1.890	1.895	1.914	1.909	1.914
0.005	0.000	0.000	0.005	0.024	0.024	0.425	2.646	1.895	1.895	1.895	1.914	1.914	1.914
-0.005	-0.005	0.000	0.005	0.010	0.015	0.415	2.739	1.899	1.890	1.895	1.914	1.904	1.909
0.005	-0.005	0.000	0.000	-0.049	0.024	0.425	2.739	1.909	1.899	1.895	1.909	1.890	1.909
0.000	0.000	-0.005	0.005	-0.063	0.020	0.425	2.661	1.899	1.899	1.895	1.909	1.895	1.899
-0.010	0.000	0.000	0.000	-0.034	0.024	0.415	2.754	1.909	1.899	1.895	1.914	1.909	1.904
-0.015	0.000	0.000	0.000	-0.010	0.015	0.420	2.700	1.899	1.899	1.895	1.914	1.909	1.904
-0.015	0.000	0.010	0.000	0.005	0.010	0.420	2.637	1.890	1.895	1.895	1.914	1.914	1.904
-0.005	0.010	-0.005	0.000	0.024	0.000	0.425	2.695	1.899	1.899	1.895	1.914	1.914	1.904
0.005	0.005	0.000	0.000	0.029	-0.005	0.425	2.637	1.890	1.895	1.890	1.909	1.914	1.904
-0.005	0.010	0.000	0.000	0.029	-0.029	0.430	2.695	1.890	1.890	1.890	1.909	1.909	1.899
0.000	0.000	0.000	0.005	0.024	-0.034	0.420	2.681	1.890	1.890	1.890	1.909	1.909	1.904
0.010	0.000	0.005	0.000	0.010	0.000	0.420	2.686	1.895	1.885	1.890	1.904	1.899	1.909
0.010	0.000	0.005	0.000	-0.010	-0.005	0.415	2.710	1.895	1.890	1.890	1.909	1.895	1.904
0.015	-0.005	0.000	0.000	-0.020	-0.005	0.415	2.686	1.895	1.890	1.890	1.909	1.899	1.904
0.005	-0.005	-0.005	0.000	-0.010	-0.024	0.415	2.690	1.899	1.895	1.890	1.909	1.904	1.899
0.000	0.010	0.000	0.000	-0.010	-0.005	0.425	2.715	1.899	1.899	1.895	1.909	1.904	1.904
0.005	0.005	0.005	0.000	-0.010	-0.020	0.415	2.686	1.899	1.899	1.895	1.909	1.904	1.904
-0.015	-0.010	0.010	0.005	-0.010	0.000	0.420	2.690	1.895	1.895	1.895	1.914	1.909	1.909
-0.015	-0.005	0.000	0.005	-0.020	-0.010	0.410	2.681	1.899	1.895	1.895	1.914	1.899	1.904
-0.005	0.000	0.000	0.005	-0.029	-0.010	0.425	2.710	1.904	1.899	1.895	1.914	1.899	1.904
0.015	0.010	0.005	0.005	-0.034	-0.015	0.420	2.690	1.904	1.904	1.899	1.914	1.904	1.899
0.000	0.000	0.005	0.005	-0.024	-0.005	0.420	2.695	1.899	1.899	1.895	1.914	1.909	1.909
-0.005	0.000	-0.005	0.000	-0.005	0.015	0.415	2.690	1.899	1.895	1.890	1.909	1.914	1.914
-0.015	0.005	-0.010	0.000	0.034	0.020	0.425	2.686	1.895	1.895	1.890	1.909	1.919	1.914
-0.010	0.000	-0.005	0.000	0.049	0.024	0.410	2.676	1.890	1.895	1.890	1.909	1.919	1.919
-0.005	0.010	0.000	0.000	0.039	0.015	0.425	2.681	1.895	1.890	1.890	1.909	1.909	1.914
-0.005	0.005	0.000	0.000	0.024	0.010	0.420	2.676	1.895	1.890	1.890	1.909	1.904	1.909
0.005	0.010	0.005	0.005	0.024	0.005	0.425	2.710	1.904	1.895	1.890	1.909	1.904	1.909
0.015	0.005	0.010	0.005	0.049	0.020	0.420	2.695	1.899	1.895	1.890	1.909	1.914	1.914
0.020	0.020	0.015	0.000	0.029	0.024	0.420	2.695	1.904	1.899	1.895	1.909	1.909	1.909
0.024	0.005	0.015	0.000	0.015	0.034	0.420	2.705	1.909	1.899	1.895	1.909	1.904	1.914
0.015	-0.010	0.015	-0.005	-0.005	0.034	0.425	2.690	1.904	1.895	1.895	1.909	1.899	1.909
0.010	0.000	0.005	-0.005	-0.010	0.015	0.425	2.666	1.904	1.899	1.895	1.914	1.895	1.904
0.024	0.010	0.005	-0.005	-0.020	-0.020	0.420	2.661	1.904	1.904	1.899	1.914	1.899	1.890
0.005	0.010	0.000	0.000	-0.020	-0.039	0.425	2.651	1.890	1.899	1.899	1.914	1.904	1.890
0.005	0.010	-0.005	0.005	-0.010	-0.010	0.415	2.793	1.904	1.904	1.899	1.914	1.909	1.904
-0.010	0.000	0.000	0.000	0.000	-0.010	0.420	2.642	1.895	1.899	1.899	1.914	1.914	1.904
-0.005	0.005	0.000	0.005	0.010	-0.024	0.420	2.637	1.885	1.895	1.899	1.914	1.914	1.904
-0.010	0.000	0.000	0.005	0.000	-0.024	0.425	2.725	1.890	1.890	1.895	1.914	1.909	1.904
-0.005	0.000	0.000	-0.005	0.010	-0.020	0.410	2.734	1.899	1.895	1.895	1.909	1.909	1.909
-0.005	-0.010	-0.005	-0.005	0.015	-0.029	0.425	2.754	1.904	1.890	1.885	1.909	1.909	1.904
0.000	-0.024	-0.005	0.005	0.010	0.000	0.420	2.651	1.899	1.890	1.885	1.909	1.909	1.914
0.015	-0.005	0.000	0.015	-0.005	0.005	0.425	2.754	1.909	1.899	1.890	1.914	1.904	1.904
0.015	0.015	0.000	0.015	-0.010	-0.015	0.425	2.651	1.899	1.904	1.895	1.909	1.904	1.904
0.024	0.005	0.000	0.010	-0.010	0.015	0.425	2.656	1.899	1.899	1.895	1.909	1.904	1.909
0.034	0.005	0.000	0.005	-0.020	0.015	0.420	2.695	1.904	1.899	1.895	1.909	1.899	1.904
0.024	0.005	0.000	0.000	-0.024	0.015	0.425	2.734	1.904	1.904	1.895	1.909	1.904	1.904
0.010	0.000	0.005	0.000	-0.015	0.010	0.415	2.700	1.899	1.899	1.899	1.914	1.904	1.909
-0.010	0.000	0.000	-0.005	-0.005	0.000	0.420	2.734	1.885	1.895	1.899	1.914	1.909	1.904
-0.015	-0.005	0.005	-0.010	0.024	0.015	0.415	2.686	1.890	1.890	1.899	1.914	1.919	1.914
-0.020	0.005	0.005	-0.005	0.054	0.005	0.420	2.681	1.890	1.895	1.895	1.919	1.924	1.914
-0.034	0.005	0.005	-0.005	0.015	0.005	0.420	2.681	1.890	1.895	1.895	1.914	1.909	1.914
-0.039	-0.024	0.000	0.000	-0.049	0.005	0.425	2.690	1.890	1.885	1.890	1.914	1.895	1.909
-0.029	-0.010	0.000	0.010	-0.034	0.000	0.425	2.681	1.895	1.890	1.890	1.914	1.904	1.904
-0.044	0.005	-0.005	0.010	0.020	-0.010	0.425	2.690	1.895	1.895	1.890	1.914	1.919	1.909
-0.034	0.005	0.000	0.005	0.024	0.005	0.415	2.710	1.899	1.895	1.890	1.909	1.914	1.909
-0.029	0.000	0.000	0.005	0.034	0.005	0.415	2.700	1.899	1.895	1.890	1.909	1.914	1.914
-0.005	0.000	0.005	0.010	0.049	-0.010	0.420	2.705	1.904	1.895	1.890	1.909	1.909	1.909
-0.015	0.020	0.005	0.000	0.039	0.000	0.415	2.695	1.904	1.904	1.890	1.909	1.909	1.909
0.010	0.020	0.005	0.005	0.020	-0.005	0.430	2.705	1.914	1.904	1.895	1.909	1.899	1.904
0.005	0.010	0.000	0.005	0.005	-0.010	0.425	2.671	1.899	1.899	1.895	1.909	1.895	1.904
0.024	0.020	0.000	0.010	0.015	0.005	0.425	2.690	1.899	1.899	1.895	1.909	1.899	1.904
0.039	0.000	0.000	0.010	0.000	0.015	0.420	2.690	1.904	1.899	1.895	1.909	1.899	1.909
0.044	-0.005	0.000	0.005	0.005	0.010	0.420	2.681	1.904	1.904	1.895	1.909	1.904	1.909
0.049	0.005	0.005	0.000	-0.015	-0.005	0.420	2.705	1.909	1.899	1.899	1.909	1.895	1.899
0.063	-0.005	0.000	0.000	-0.029	0.010	0.415	2.705	1.914	1.904	1.899	1.914	1.899	1.904
0.049	-0.005	0.000	0.000	-0.039	0.005	0.415	2.666	1.904	1.904	1.904	1.914	1.899	1.904
0.049	-0.005	-0.005	0.000	-0.034	0.010	0.420	2.695	1.904	1.904	1.904	1.919	1.904	1.909
0.054	-0.005	-0.005	0.000	-0.039	0.020	0.420	2.705	1.904	1.904	1.899	1.919	1.909	1.909
0.039	0.000	0.000	0.000	-0.034	0.020	0.415	2.690	1.899	1.904	1.904	1.919	1.914	1.909
0.015	-0.005	0.005	0.005	-0.010	0.015	0.420	2.686	1.890	1.904	1.904	1.919	1.919	1.909
0.000	0.005	-0.010	0.005	0.024	-0.010	0.425	2.690	1.890	1.895	1.899	1.919	1.929	1.909
-0.024	-0.005	0.000	0.005	0.044	0.005	0.415	2.705	1.885	1.890	1.899	1.924	1.929	1.919
-0.039	0.000	0.000	0.005	0.015	0.000	0.415	2.666	1.880	1.890	1.890	1.914	1.919	1.914
-0.029	0.000	0.000	0.000	-0.034	0.010	0.415	2.646	1.880	1.885	1.890	1.909	1.899	1.909
-0.029	-0.005	0.005	0.000	-0.015	-0.005	0.420	2.793	1.895	1.880	1.890	1.904	1.904	1.904
-0.039	-0.010	0.000	0.000	0.049	-0.005	0.420	2.642	1.885	1.880	1.880	1.904	1.919	1.909
-0.034	0.000	0.000	0.000	0.054	-0.015	0.415	2.646	1.890	1.885	1.880	1.904	1.914	1.909
-0.029	-0.005	0.000	0.005	0.034	-0.024	0.420	2.646	1.885	1.885	1.885	1.904	1.904	1.909
-0.015	0.010	0.000	0.000	0.000	0.005	0.425	2.637	1.885	1.890	1.885	1.904	1.899	1.909
-0.020	0.000	0.000	0.000	0.005	0.010	0.415	2.637	1.885	1.885	1.885	1.904	1.895	1.909
-0.005	0.000	-0.005	-0.005	0.000	-0.010	0.415	2.651	1.895	1.885	1.885	1.904	1.899	1.899
0.000	-0.005	0.005	0.000	0.000	-0.010	0.420	2.666	1.890	1.885	1.885	1.909	1.899	1.899
-0.005	0.010	0.005	0.000	0.000	0.015	0.420	2.666	1.895	1.895	1.890	1.909	1.904	1.904
0.000	0.015	0.000	0.000	0.000	-0.005	0.425	2.632	1.904	1.895	1.890	1.909	1.904	1.904
-0.005	0.000	-0.005	0.000	0.000	0.005	0.410	2.695	1.899	1.895	1.890	1.909	1.904	1.904
-0.005	0.000	0.005	0.000	-0.005	0.000	0.420	2.744	1.904	1.895	1.895	1.909	1.899	1.904
-0.010	-0.005	0.005	0.005	-0.005	0.034	0.415	2.681	1.904	1.895	1.895	1.909	1.904	1.914
-0.015	-0.005	0.010	0.005	-0.005	0.039	0.430	2.739	1.909	1.899	1.895	1.909	1.904	1.909
-0.020	0.000	0.005	0.005	-0.015	0.029	0.415	2.681	1.899	1.899	1.895	1.909	1.899	1.904
-0.015	0.000	0.000	0.010	0.000	0.020	0.420	2.686	1.899	1.899	1.895	1.909	1.904	1.904
0.000	-0.005	-0.005	0.005	0.000	0.010	0.415	2.686	1.899	1.895	1.890	1.909	1.899	1.899
0.000	-0.005	0.000	0.005	-0.005	0.000	0.430	2.715	1.899	1.895	1.890	1.909	1.899	1.895
0.000	-0.005	-0.005	0.005	-0.005	-0.005	0.420	2.671	1.899	1.895	1.890	1.904	1.899	1.895
0.020	0.010	0.000	0.005	0.000	-0.010	0.420	2.681	1.899	1.899	1.895	1.909	1.904	1.895
0.039	0.005	0.015	0.000	0.015	-0.010	0.420	2.695	1.904	1.899	1.895	1.909	1.909	1.899
0.054	-0.005	0.015	0.005	0.000	-0.005	0.425	2.695	1.909	1.899	1.899	1.909	1.904	1.904
0.059	0.000	0.015	0.000	-0.015	-0.020	0.420	2.705	1.909	1.904	1.899	1.914	1.904	1.895
0.034	-0.005	0.005	0.005	0.010	-0.005	0.415	2.695	1.904	1.904	1.899	1.919	1.909	1.904
0.029	-0.010	0.005	0.005	0.015	-0.005	0.420	2.715	1.899	1.899	1.899	1.919	1.914	1.909
0.005	-0.005	-0.005	0.000	0.000	-0.015	0.410	2.690	1.895	1.899	1.899	1.919	1.909	1.904
0.000	0.005	0.005	0.000	-0.010	-0.010	0.420	2.681	1.890	1.899	1.899	1.914	1.909	1.909
-0.020	-0.005	0.005	-0.005	-0.015	-0.020	0.415	2.690	1.895	1.895	1.899	1.919	1.909	1.909
-0.005	0.005	0.005	0.000	0.005	-0.015	0.420	2.690	1.895	1.895	1.899	1.914	1.914	1.909
-0.020	0.000	-0.005	0.005	0.005	-0.020	0.415	2.705	1.890	1.890	1.895	1.914	1.914	1.914
-0.024	0.005	0.000	-0.005	0.000	0.005	0.425	2.705	1.895	1.890	1.895	1.914	1.914	1.914
-0.010	0.000	0.000	0.000	-0.010	0.034	0.425	2.681	1.895	1.890	1.890	1.909	1.904	1.924
-0.020	0.005	0.005	-0.005	0.010	0.005	0.425	2.700	1.895	1.890	1.890	1.909	1.909	1.904
-0.034	0.010	0.005	-0.005	-0.005	0.029	0.425	2.695	1.885	1.890	1.890	1.909	1.904	1.909
-0.015	0.000	0.000	-0.005	-0.005	0.020	0.430	2.700	1.899	1.890	1.890	1.909	1.904	1.904
0.024	0.005	-0.005	-0.005	0.000	-0.010	0.420	2.695	1.904	1.890	1.885	1.904	1.899	1.899
0.034	0.010	-0.010	0.000	0.010	0.005	0.420	2.690	1.909	1.895	1.890	1.909	1.904	1.904
0.044	0.005	-0.010	0.005	0.000	-0.024	0.415	2.651	1.904	1.899	1.890	1.909	1.904	1.899
0.039	0.000	-0.005	0.015	0.015	0.015	0.420	2.651	1.895	1.899	1.895	1.909	1.909	1.914
0.020	0.010	0.000	0.010	0.010	0.010	0.415	2.661	1.890	1.895	1.899	1.914	1.904	1.909
-0.005	0.010	0.005	0.005	-0.010	-0.005	0.420	2.803	1.899	1.899	1.899	1.914	1.899	1.899
-0.005	0.005	0.015	0.000	0.005	0.005	0.420	2.646	1.895	1.899	1.904	1.914	1.909	1.909
-0.015	0.010	0.015	-0.005	0.010	-0.015	0.420	2.651	1.885	1.895	1.899	1.914	1.909	1.904
-0.024	0.015	0.020	-0.005	0.005	0.020	0.425	2.729	1.895	1.895	1.899	1.914	1.909	1.914
-0.020	0.005	0.010	0.000	0.005	0.015	0.420	2.749	1.904	1.895	1.895	1.919	1.914	1.909
-0.034	0.000	0.005	0.000	0.010	0.020	0.415	2.744	1.904	1.895	1.895	1.914	1.919	1.919
-0.024	0.000	0.000	0.000	0.039	0.034	0.415	2.656	1.904	1.895	1.895	1.914	1.919	1.924
-0.029	0.000	0.000	0.005	0.005	0.024	0.420	2.734	1.899	1.895	1.890	1.914	1.904	1.914
-0.015	-0.005	-0.005	0.005	-0.005	-0.005	0.415	2.676	1.899	1.895	1.890	1.909	1.899	1.899
0.005	-0.005	0.000	0.010	-0.039	-0.005	0.420	2.637	1.899	1.895	1.890	1.909	1.895	1.895
0.015	-0.005	0.000	0.010	-0.044	0.000	0.420	2.695	1.899	1.895	1.890	1.909	1.890	1.895
0.029	-0.005	-0.005	0.005	-0.020	-0.005	0.420	2.720	1.904	1.895	1.890	1.904	1.904	1.895
0.054	0.000	-0.005	0.010	-0.005	-0.005	0.420	2.681	1.909	1.899	1.890	1.909	1.909	1.899
0.039	0.000	-0.005	0.000	-0.020	-0.005	0.420	2.651	1.909	1.899	1.895	1.904	1.899	1.899
0.044	0.005	-0.005	-0.005	-0.020	-0.010	0.415	2.681	1.904	1.904	1.895	1.904	1.904	1.904
0.044	0.005	-0.005	-0.005	0.015	-0.020	0.420	2.681	1.904	1.904	1.899	1.914	1.914	1.904
0.024	0.000	-0.005	0.000	0.024	-0.010	0.420	2.690	1.895	1.899	1.899	1.914	1.919	1.909
-0.010	0.005	0.000	0.000	0.044	-0.015	0.425	2.686	1.885	1.899	1.904	1.919	1.919	1.914
-0.020	0.005	-0.005	0.005	0.015	-0.010	0.410	2.686	1.890	1.895	1.899	1.919	1.909	1.914
-0.034	-0.010	-0.005	0.005	-0.015	-0.010	0.430	2.690	1.890	1.890	1.895	1.919	1.904	1.909
-0.044	-0.005	-0.005	0.005	0.015	-0.005	0.415	2.700	1.895	1.890	1.895	1.919	1.919	1.919
-0.049	0.005	0.000	0.005	0.020	-0.005	0.420	2.700	1.895	1.895	1.895	1.919	1.914	1.914
-0.034	0.000	0.000	0.010	0.024	0.015	0.420	2.705	1.904	1.890	1.895	1.914	1.914	1.919
-0.029	0.000	0.005	0.010	0.010	0.020	0.420	2.695	1.904	1.895	1.895	1.914	1.909	1.919
-0.010	0.000	0.005	0.010	0.000	0.020	0.415	2.710	1.909	1.899	1.895	1.914	1.909	1.914
-0.010	0.000	0.005	0.005	0.000	0.005	0.425	2.676	1.899	1.899	1.895	1.909	1.904	1.909
-0.010	0.000	0.000	0.000	0.010	0.015	0.415	2.715	1.899	1.895	1.895	1.914	1.909	1.909
-0.015	-0.005	0.005	0.005	0.024	0.010	0.425	2.690	1.899	1.895	1.895	1.909	1.909	1.909
0.000	0.000	0.000	0.000	0.005	0.010	0.415	2.690	1.899	1.899	1.890	1.904	1.904	1.904
-0.005	0.005	0.005	0.000	0.015	0.005	0.425	2.705	1.899	1.899	1.895	1.909	1.904	1.904
-0.005	-0.005	0.000	0.000	0.015	-0.010	0.410	2.686	1.890	1.895	1.895	1.909	1.904	1.899
-0.005	-0.005	0.005	0.005	0.005	-0.010	0.425	2.681	1.895	1.895	1.895	1.909	1.904	1.899
0.010	-0.005	-0.005	0.000	0.000	-0.015	0.410	2.676	1.899	1.899	1.895	1.909	1.904	1.904
0.044	0.005	-0.005	0.010	0.005	0.000	0.420	2.690	1.909	1.909	1.895	1.914	1.909	1.904
0.063	0.010	0.000	0.010	-0.015	-0.005	0.410	2.681	1.914	1.909	1.899	1.919	1.904	1.904
0.073	-0.005	-0.005	0.005	-0.010	-0.005	0.420	2.700	1.914	1.909	1.904	1.914	1.909	1.909
0.078	0.000	-0.015	0.000	0.000	0.005	0.415	2.695	1.919	1.909	1.904	1.914	1.914	1.909
0.078	0.000	-0.005	0.000	-0.024	0.000	0.420	2.661	1.909	1.909	1.904	1.919	1.904	1.909
0.049	0.005	0.000	0.000	-0.049	0.010	0.425	2.646	1.895	1.909	1.904	1.924	1.904	1.909
0.029	0.005	0.005	-0.005	-0.044	-0.005	0.420	2.651	1.885	1.899	1.904	1.919	1.909	1.904
0.010	-0.005	0.000	-0.005	-0.024	0.000	0.420	2.803	1.895	1.890	1.899	1.919	1.914	1.909
-0.005	0.000	0.005	-0.010	0.010	0.000	0.420	2.642	1.885	1.890	1.899	1.914	1.924	1.914
-0.034	-0.005	0.015	-0.005	0.005	0.015	0.420	2.646	1.875	1.885	1.895	1.914	1.914	1.914
-0.044	-0.005	0.024	0.000	-0.015	0.024	0.415	2.725	1.880	1.880	1.890	1.914	1.909	1.914
-0.054	0.000	0.034	0.000	0.020	-0.005	0.420	2.749	1.890	1.880	1.890	1.914	1.914	1.909
-0.059	0.000	0.029	0.000	0.039	0.010	0.415	2.637	1.885	1.880	1.885	1.914	1.919	1.919
-0.044	-0.010	0.029	-0.005	0.049	0.034	0.425	2.661	1.890	1.880	1.880	1.909	1.919	1.924
-0.039	-0.020	0.010	0.000	0.054	0.024	0.425	2.759	1.899	1.885	1.880	1.904	1.914	1.919
-0.034	-0.005	0.000	0.000	0.029	0.000	0.425	2.676	1.909	1.890	1.880	1.904	1.904	1.909
-0.015	0.005	-0.005	0.000	0.000	0.010	0.420	2.656	1.904	1.899	1.885	1.899	1.895	1.909
-0.015	0.015	-0.005	0.000	-0.010	0.015	0.420	2.690	1.904	1.909	1.890	1.904	1.895	1.904
-0.020	0.005	-0.005	0.005	0.010	-0.024	0.420	2.622	1.909	1.904	1.895	1.909	1.899	1.895
-0.010	0.015	-0.010	0.005	-0.010	-0.054	0.430	2.695	1.909	1.909	1.895	1.909	1.899	1.885
-0.005	0.000	-0.005	0.000	-0.005	-0.020	0.415	2.651	1.904	1.904	1.895	1.909	1.904	1.899
-0.005	0.005	-0.010	-0.005	-0.015	-0.029	0.415	2.690	1.904	1.904	1.899	1.909	1.899	1.895
-0.005	0.000	-0.005	0.005	-0.020	-0.015	0.425	2.695	1.904	1.899	1.899	1.914	1.904	1.899
-0.005	0.005	-0.005	0.000	-0.010	-0.015	0.415	2.690	1.895	1.899	1.899	1.914	1.904	1.904
-0.010	-0.020	0.000	0.000	-0.010	0.000	0.425	2.686	1.895	1.890	1.899	1.914	1.909	1.909
-0.015	-0.010	0.000	0.000	0.029	-0.024	0.415	2.681	1.895	1.890	1.895	1.914	1.919	1.904
-0.015	-0.005	0.000	0.005	0.024	-0.015	0.420	2.686	1.890	1.890	1.890	1.914	1.914	1.909
0.000	0.000	0.000	0.010	0.024	0.010	0.420	2.695	1.895	1.895	1.895	1.914	1.914	1.914
0.000	0.015	0.005	0.010	0.015	0.015	0.420	2.690	1.895	1.895	1.890	1.914	1.909	1.914
0.005	0.024	0.005	0.010	0.015	0.015	0.420	2.710	1.899	1.899	1.895	1.914	1.909	1.914
0.000	0.015	0.005	0.015	0.005	0.020	0.415	2.690	1.904	1.895	1.895	1.914	1.904	1.914
0.029	0.000	0.000	0.005	0.005	0.005	0.425	2.700	1.909	1.895	1.890	1.909	1.904	1.909
0.039	0.010	0.000	0.005	0.010	0.034	0.415	2.686	1.909	1.904	1.899	1.914	1.909	1.914
0.054	0.005	0.005	0.010	0.010	0.020	0.420	2.681	1.914	1.904	1.899	1.914	1.909	1.909
0.059	0.000	0.005	0.010	0.015	0.010	0.420	2.686	1.914	1.904	1.904	1.914	1.909	1.909
0.039	-0.010	0.005	0.005	0.005	-0.005	0.415	2.686	1.904	1.904	1.904	1.919	1.909	1.909
0.034	-0.015	0.000	0.000	0.005	0.005	0.420	2.686	1.899	1.899	1.899	1.919	1.909	1.909
0.024	-0.010	-0.005	0.005	-0.005	0.010	0.415	2.681	1.899	1.899	1.899	1.924	1.909	1.909
0.020	0.005	-0.005	0.010	0.000	0.010	0.430	2.690	1.899	1.904	1.904	1.919	1.914	1.914
0.020	0.000	0.000	0.010	0.010	0.015	0.410	2.705	1.895	1.899	1.899	1.919	1.914	1.914
0.015	0.005	0.005	0.005	0.010	0.024	0.425	2.676	1.895	1.899	1.904	1.919	1.914	1.914
0.000	-0.005	0.000	0.000	0.010	0.000	0.415	2.676	1.895	1.895	1.895	1.914	1.914	1.909
-0.005	0.005	-0.005	-0.005	0.015	0.005	0.425	2.690	1.895	1.895	1.895	1.914	1.914	1.909
-0.005	0.010	0.000	-0.005	0.005	0.010	0.420	2.695	1.895	1.890	1.890	1.914	1.909	1.909
-0.020	0.000	0.000	0.000	-0.005	0.010	0.420	2.705	1.890	1.890	1.890	1.909	1.904	1.904
-0.010	0.000	0.005	-0.005	-0.010	0.005	0.415	2.651	1.890	1.890	1.890	1.904	1.899	1.904
0.005	-0.005	0.010	-0.005	-0.005	-0.020	0.420	2.661	1.890	1.885	1.890	1.904	1.904	1.899
-0.015	0.000	0.005	-0.005	-0.005	-0.010	0.415	2.798	1.899	1.890	1.885	1.909	1.904	1.899
-0.010	0.005	0.005	-0.010	-0.020	0.005	0.420	2.656	1.899	1.895	1.890	1.909	1.899	1.904
-0.015	0.015	0.010	-0.005	-0.005	0.000	0.415	2.646	1.895	1.895	1.890	1.909	1.904	1.904
-0.005	0.015	0.005	0.005	-0.005	-0.010	0.425	2.646	1.895	1.899	1.895	1.914	1.909	1.904
-0.010	0.020	0.005	0.005	-0.010	-0.015	0.425	2.656	1.890	1.895	1.895	1.914	1.904	1.899
-0.010	0.010	0.005	0.010	-0.005	0.000	0.415	2.661	1.895	1.895	1.895	1.919	1.909	1.909
-0.010	0.015	0.005	0.010	-0.005	0.015	0.410	2.671	1.890	1.890	1.895	1.914	1.914	1.914
-0.029	0.010	-0.005	0.015	0.005	0.005	0.415	2.734	1.895	1.890	1.890	1.914	1.914	1.909
-0.010	0.000	-0.005	0.005	0.000	0.020	0.420	2.661	1.899	1.895	1.890	1.909	1.914	1.919
-0.015	0.000	0.000	0.005	0.015	0.015	0.420	2.739	1.904	1.895	1.890	1.909	1.914	1.914
-0.010	-0.005	0.005	0.005	0.005	0.029	0.410	2.690	1.904	1.890	1.890	1.909	1.909	1.914
-0.005	-0.010	-0.005	-0.005	-0.005	0.005	0.420	2.632	1.895	1.890	1.885	1.904	1.899	1.909
0.010	-0.010	-0.015	0.000	-0.005	0.005	0.420	2.690	1.904	1.890	1.885	1.904	1.899	1.899
0.024	0.000	-0.005	0.005	-0.005	0.010	0.415	2.739	1.909	1.899	1.890	1.904	1.899	1.899
0.029	0.000	-0.010	0.000	-0.010	-0.005	0.420	2.686	1.909	1.899	1.895	1.904	1.895	1.895
0.054	0.000	0.000	0.000	-0.010	-0.010	0.415	2.686	1.909	1.899	1.895	1.909	1.899	1.895
0.054	0.010	0.000	0.000	0.000	-0.020	0.420	2.695	1.904	1.904	1.899	1.909	1.904	1.899
0.049	0.015	0.005	0.005	0.005	-0.010	0.410	2.671	1.895	1.904	1.899	1.909	1.909	1.895
0.029	-0.005	0.010	0.000	0.015	-0.020	0.425	2.686	1.890	1.890	1.899	1.914	1.909	1.904
0.005	0.000	0.010	0.000	0.010	-0.020	0.415	2.695	1.890	1.895	1.899	1.919	1.909	1.904
-0.015	0.005	0.024	0.000	0.000	-0.010	0.420	2.715	1.890	1.895	1.899	1.919	1.909	1.904
-0.049	-0.005	0.015	0.005	-0.029	0.015	0.420	2.695	1.880	1.885	1.890	1.914	1.904	1.914
-0.059	-0.005	0.005	0.000	-0.044	0.015	0.420	2.705	1.890	1.885	1.890	1.909	1.899	1.909
-0.039	-0.005	0.005	-0.005	-0.059	0.020	0.425	2.695	1.899	1.890	1.890	1.914	1.899	1.909
-0.015	0.000	0.000	0.000	-0.020	0.015	0.425	2.705	1.904	1.895	1.890	1.909	1.914	1.909
0.010	0.000	-0.005	-0.005	0.005	0.005	0.410	2.690	1.914	1.899	1.895	1.909	1.919	1.909
0.034	0.010	0.000	0.005	-0.005	0.010	0.420	2.705	1.919	1.909	1.895	1.914	1.909	1.909
0.039	0.000	0.005	0.000	0.000	0.005	0.425	2.690	1.914	1.909	1.899	1.909	1.909	1.909
0.044	-0.005	-0.005	0.000	0.015	-0.005	0.425	2.686	1.909	1.904	1.895	1.914	1.914	1.909
0.049	-0.005	-0.005	0.010	0.034	0.000	0.420	2.700	1.904	1.899	1.895	1.914	1.919	1.909
0.034	-0.005	-0.005	0.000	0.073	-0.044	0.415	2.686	1.890	1.899	1.899	1.914	1.924	1.904
0.015	-0.005	0.000	0.005	0.088	-0.005	0.420	2.686	1.890	1.890	1.895	1.914	1.919	1.914
0.010	0.000	0.000	0.005	0.029	-0.020	0.420	2.695	1.890	1.890	1.895	1.914	1.899	1.909
0.010	0.005	0.000	0.005	-0.005	-0.029	0.420	2.681	1.890	1.895	1.895	1.909	1.895	1.904
-0.020	0.000	0.000	0.000	-0.015	-0.005	0.415	2.700	1.885	1.890	1.890	1.909	1.899	1.904
-0.034	0.000	0.000	0.000	-0.010	0.010	0.415	2.690	1.890	1.890	1.890	1.909	1.899	1.909
-0.054	0.005	0.000	0.005	-0.010	0.015	0.415	2.695	1.885	1.890	1.890	1.909	1.904	1.909
-0.034	0.005	0.000	0.000	-0.005	0.005	0.420	2.676	1.899	1.895	1.895	1.914	1.909	1.909
-0.034	0.005	0.000	0.000	0.000	-0.024	0.415	2.646	1.895	1.890	1.890	1.914	1.909	1.899
-0.029	0.005	0.000	0.000	0.010	0.005	0.420	2.661	1.895	1.890	1.895	1.909	1.909	1.914
-0.034	0.000	0.000	-0.005	0.005	-0.015	0.420	2.803	1.909	1.899	1.895	1.909	1.909	1.904
-0.010	0.000	-0.005	0.005	0.020	0.010	0.425	2.651	1.904	1.899	1.895	1.914	1.914	1.914
-0.005	0.000	0.000	0.000	0.000	-0.005	0.425	2.627	1.895	1.899	1.899	1.914	1.904	1.909
-0.005	0.000	0.005	0.000	-0.015	0.015	0.420	2.642	1.890	1.895	1.895	1.909	1.904	1.909
0.000	0.010	0.005	0.000	-0.020	0.015	0.415	2.661	1.895	1.895	1.895	1.909	1.899	1.904
0.010	0.000	0.010	0.000	-0.015	-0.005	0.425	2.646	1.890	1.890	1.895	1.909	1.899	1.904
0.015	0.010	0.005	0.005	-0.020	0.024	0.415	2.666	1.885	1.890	1.890	1.909	1.899	1.909
0.015	0.005	0.000	0.000	-0.010	0.020	0.420	2.739	1.895	1.890	1.890	1.909	1.904	1.904
0.010	-0.010	-0.005	0.000	-0.015	-0.005	0.415	2.671	1.890	1.885	1.885	1.904	1.899	1.899
0.005	0.005	0.000	0.000	-0.010	-0.005	0.420	2.749	1.904	1.890	1.890	1.904	1.904	1.899
0.010	0.010	0.000	0.010	0.000	0.005	0.420	2.690	1.899	1.895	1.890	1.909	1.904	1.904
0.000	0.005	0.005	0.005	-0.010	0.005	0.420	2.632	1.890	1.890	1.890	1.909	1.904	1.904
-0.005	0.015	0.000	0.010	-0.005	0.000	0.420	2.700	1.895	1.895	1.890	1.909	1.904	1.899
-0.020	0.005	0.000	0.000	0.020	0.005	0.420	2.661	1.890	1.890	1.890	1.909	1.914	1.909
-0.020	-0.005	0.005	-0.005	0.029	0.005	0.415	2.681	1.890	1.890	1.890	1.904	1.914	1.909
-0.005	0.000	-0.005	-0.010	-0.005	-0.015	0.420	2.690	1.899	1.890	1.890	1.904	1.899	1.904
0.000	0.000	-0.005	-0.010	-0.005	0.000	0.415	2.686	1.899	1.895	1.890	1.909	1.899	1.899
0.005	0.000	0.005	-0.010	0.010	0.015	0.415	2.686	1.899	1.899	1.895	1.909	1.909	1.909
0.015	-0.005	0.010	-0.005	0.010	0.024	0.420	2.686	1.904	1.899	1.895	1.909	1.909	1.914
0.039	-0.005	0.000	-0.005	0.005	0.020	0.415	2.686	1.904	1.899	1.895	1.909	1.904	1.909
0.049	-0.005	0.005	-0.005	0.000	0.015	0.420	2.700	1.904	1.899	1.895	1.914	1.904	1.904
0.059	0.000	0.005	0.010	0.010	0.000	0.420	2.690	1.904	1.904	1.899	1.914	1.909	1.904
0.044	-0.010	0.000	0.015	0.010	0.010	0.425	2.695	1.895	1.895	1.895	1.914	1.909	1.904
0.020	-0.005	0.005	0.010	0.005	0.010	0.420	2.686	1.890	1.895	1.895	1.914	1.904	1.904
0.015	0.000	0.000	0.005	0.020	0.000	0.430	2.700	1.890	1.895	1.890	1.909	1.909	1.904
0.000	0.005	0.005	0.005	0.015	0.020	0.425	2.686	1.885	1.890	1.890	1.909	1.904	1.909
-0.010	0.024	0.000	0.005	0.015	-0.015	0.430	2.686	1.885	1.890	1.890	1.909	1.909	1.899
-0.044	0.024	-0.005	0.000	0.020	0.015	0.425	2.695	1.880	1.885	1.885	1.909	1.904	1.909
-0.034	0.015	0.000	0.000	0.015	0.010	0.425	2.690	1.885	1.885	1.885	1.909	1.904	1.909
-0.054	0.000	-0.005	0.000	0.024	0.000	0.420	2.705	1.885	1.880	1.885	1.909	1.909	1.904
-0.039	0.005	0.000	0.005	0.000	-0.005	0.415	2.700	1.899	1.890	1.890	1.909	1.899	1.904
-0.039	0.010	0.000	0.010	-0.015	-0.015	0.415	2.690	1.904	1.895	1.890	1.909	1.895	1.899
-0.044	0.000	0.005	0.010	-0.029	-0.010	0.415	2.686	1.899	1.890	1.890	1.909	1.895	1.895
-0.010	-0.005	0.010	0.005	-0.039	-0.010	0.415	2.671	1.904	1.899	1.890	1.909	1.895	1.895
0.005	-0.005	0.000	0.000	-0.015	-0.024	0.425	2.681	1.904	1.899	1.895	1.909	1.904	1.895
0.020	0.000	0.010	0.000	-0.015	0.015	0.420	2.690	1.914	1.899	1.895	1.909	1.904	1.909
0.039	0.000	0.005	0.000	-0.010	-0.015	0.415	2.700	1.914	1.909	1.899	1.914	1.909	1.904
0.054	0.010	0.000	0.000	0.005	0.015	0.420	2.666	1.909	1.909	1.899	1.909	1.909	1.909
0.073	-0.005	0.000	0.005	0.015	0.010	0.420	2.646	1.904	1.899	1.899	1.909	1.909	1.909
0.059	-0.005	-0.005	0.000	0.000	0.020	0.420	2.651	1.895	1.899	1.895	1.909	1.904	1.909
0.049	-0.005	0.000	0.000	0.005	0.020	0.415	2.798	1.899	1.895	1.895	1.909	1.909	1.909
0.015	-0.015	0.000	-0.005	0.020	0.024	0.415	2.656	1.885	1.890	1.895	1.909	1.909	1.909
0.005	-0.010	0.000	0.000	0.039	0.010	0.415	2.642	1.875	1.885	1.890	1.909	1.914	1.904
-0.010	0.000	0.000	0.000	0.024	0.010	0.420	2.642	1.875	1.890	1.890	1.909	1.909	1.904
-0.020	-0.010	0.000	0.000	0.020	-0.020	0.415	2.642	1.870	1.880	1.885	1.909	1.904	1.895
-0.015	0.015	0.000	0.005	0.015	0.005	0.415	2.642	1.875	1.885	1.885	1.904	1.904	1.904
-0.015	0.020	0.000	0.010	0.000	-0.020	0.420	2.729	1.890	1.890	1.890	1.909	1.899	1.899
-0.005	0.010	-0.005	0.005	-0.005	0.000	0.425	2.632	1.885	1.885	1.885	1.904	1.899	1.904
-0.010	0.015	0.000	0.000	-0.005	0.005	0.420	2.671	1.890	1.890	1.890	1.909	1.904	1.904
-0.010	0.000	-0.005	0.000	-0.005	-0.005	0.425	2.749	1.899	1.885	1.885	1.904	1.904	1.899
-0.005	0.005	0.000	0.000	0.000	0.000	0.420	2.695	1.904	1.890	1.890	1.904	1.904	1.904
-0.010	0.005	0.000	0.000	0.000	0.005	0.420	2.725	1.904	1.895	1.890	1.909	1.904	1.904
-0.010	-0.005	0.000	-0.005	0.000	0.010	0.425	2.700	1.904	1.890	1.885	1.909	1.904	1.904
-0.015	-0.005	0.000	-0.005	0.005	0.000	0.425	2.734	1.909	1.895	1.890	1.909	1.904	1.899
-0.005	-0.005	0.005	0.000	0.000	0.010	0.425	2.686	1.904	1.895	1.890	1.909	1.899	1.904
-0.015	0.000	0.005	0.000	-0.010	0.015	0.420	2.686	1.895	1.895	1.890	1.904	1.895	1.899
-0.005	0.000	0.000	0.000	0.000	0.005	0.420	2.695	1.895	1.890	1.890	1.904	1.899	1.899
-0.005	-0.005	-0.005	0.005	-0.010	-0.005	0.410	2.676	1.890	1.890	1.890	1.904	1.895	1.895
-0.005	0.005	0.000	0.015	-0.020	-0.005	0.415	2.686	1.895	1.890	1.890	1.909	1.895	1.899
-0.020	0.005	0.000	0.000	-0.020	0.005	0.415	2.700	1.885	1.890	1.890	1.904	1.899	1.895
-0.024	0.005	0.000	0.005	0.000	0.005	0.415	2.710	1.890	1.890	1.890	1.904	1.904	1.899
-0.005	0.000	0.005	0.005	-0.010	0.005	0.415	2.676	1.895	1.890	1.890	1.904	1.899	1.899
-0.034	0.010	0.005	0.005	-0.010	0.015	0.415	2.700	1.890	1.890	1.895	1.909	1.899	1.904
-0.034	-0.005	0.005	0.000	-0.005	0.010	0.415	2.700	1.895	1.890	1.890	1.909	1.904	1.904
-0.034	0.000	0.005	0.005	-0.010	0.010	0.420	2.681	1.895	1.895	1.890	1.909	1.904	1.904
-0.010	0.005	-0.005	0.005	-0.010	0.039	0.410	2.700	1.904	1.895	1.895	1.914	1.904	1.914
-0.020	-0.005	0.000	0.005	-0.005	0.049	0.420	2.686	1.899	1.899	1.895	1.914	1.909	1.914
0.005	0.010	0.005	0.000	0.005	0.015	0.410	2.690	1.909	1.904	1.899	1.914	1.914	1.904
0.029	-0.005	0.005	0.005	0.039	0.034	0.415	2.690	1.909	1.904	1.899	1.914	1.919	1.914
0.039	0.005	0.005	0.005	0.088	-0.005	0.410	2.676	1.909	1.909	1.899	1.914	1.929	1.909
0.054	0.010	0.000	0.000	0.078	-0.010	0.420	2.686	1.909	1.909	1.899	1.914	1.919	1.909
0.063	0.000	0.000	0.010	0.024	-0.020	0.415	2.666	1.904	1.904	1.899	1.914	1.899	1.904
0.063	0.005	0.000	0.000	-0.044	-0.024	0.420	2.681	1.899	1.899	1.899	1.909	1.880	1.895
0.063	0.010	0.000	0.000	-0.068	-0.020	0.420	2.705	1.895	1.899	1.899	1.909	1.885	1.890
0.049	0.000	0.000	0.005	-0.015	-0.015	0.425	2.695	1.895	1.890	1.895	1.914	1.904	1.895
0.034	0.000	0.005	0.000	-0.015	-0.015	0.420	2.690	1.885	1.890	1.895	1.909	1.904	1.899
0.015	-0.005	0.000	-0.005	0.000	-0.015	0.425	2.690	1.885	1.885	1.890	1.909	1.909	1.899
-0.005	-0.005	0.000	-0.005	0.005	-0.010	0.420	2.695	1.885	1.885	1.885	1.909	1.909	1.904
-0.010	-0.005	0.000	-0.005	0.015	-0.015	0.425	2.656	1.880	1.880	1.890	1.914	1.909	1.909
-0.024	0.000	0.005	-0.005	0.000	-0.024	0.420	2.661	1.880	1.885	1.885	1.909	1.909	1.909
-0.020	0.000	0.005	0.005	-0.005	0.000	0.425	2.798	1.899	1.890	1.890	1.909	1.904	1.909
-0.010	0.000	0.005	0.005	0.005	0.010	0.420	2.637	1.895	1.890	1.890	1.909	1.914	1.919
-0.020	0.000	-0.005	0.000	0.010	0.010	0.415	2.739	1.904	1.895	1.890	1.909	1.909	1.914
-0.020	0.005	0.005	0.000	0.000	0.020	0.415	2.725	1.909	1.899	1.890	1.909	1.904	1.914
-0.034	-0.005	-0.005	0.005	0.010	0.015	0.420	2.734	1.904	1.899	1.890	1.909	1.909	1.909
-0.029	-0.005	0.000	0.005	0.005	0.010	0.420	2.646	1.899	1.899	1.895	1.909	1.909	1.909
-0.020	0.005	0.000	0.000	0.010	0.015	0.420	2.744	1.904	1.904	1.895	1.909	1.909	1.909
-0.024	0.000	0.005	0.000	0.015	0.000	0.425	2.744	1.904	1.899	1.895	1.914	1.904	1.904
-0.010	0.000	0.005	0.005	0.000	0.005	0.415	2.671	1.904	1.899	1.895	1.914	1.904	1.904
-0.005	0.005	0.000	0.005	-0.015	-0.005	0.420	2.651	1.895	1.899	1.895	1.909	1.895	1.899
0.000	0.005	0.000	0.005	0.000	-0.005	0.415	2.695	1.899	1.899	1.895	1.909	1.904	1.899
-0.005	0.005	0.005	0.000	0.005	0.015	0.420	2.637	1.885	1.895	1.890	1.909	1.904	1.909
-0.005	0.005	0.000	0.000	-0.020	0.000	0.420	2.686	1.890	1.895	1.895	1.909	1.899	1.904
-0.010	0.000	0.005	0.000	-0.015	0.020	0.420	2.739	1.895	1.895	1.890	1.909	1.904	1.904
-0.005	0.005	0.000	0.005	-0.034	0.029	0.415	2.686	1.899	1.895	1.890	1.909	1.899	1.904
0.010	0.000	0.000	0.000	-0.039	0.015	0.430	2.686	1.899	1.899	1.895	1.909	1.899	1.899
0.005	0.000	0.005	0.005	-0.005	0.005	0.415	2.690	1.904	1.899	1.895	1.914	1.914	1.899
-0.005	0.005	0.005	0.010	0.005	0.000	0.420	2.705	1.899	1.899	1.899	1.919	1.914	1.904
-0.005	0.015	0.005	0.000	0.005	-0.005	0.415	2.695	1.899	1.904	1.899	1.914	1.914	1.909
0.005	0.005	0.005	0.000	0.010	0.000	0.415	2.690	1.904	1.899	1.899	1.919	1.914	1.909
0.005	-0.020	0.005	0.005	0.029	0.000	0.420	2.710	1.904	1.895	1.895	1.914	1.924	1.914
0.005	-0.010	0.000	-0.005	0.078	-0.005	0.415	2.690	1.904	1.899	1.899	1.919	1.934	1.919
0.000	0.005	0.005	0.000	0.054	-0.024	0.425	2.710	1.904	1.904	1.899	1.914	1.919	1.909
0.000	0.010	0.000	0.005	0.000	-0.020	0.415	2.690	1.904	1.899	1.899	1.919	1.899	1.909
0.000	-0.010	-0.005	0.000	-0.015	-0.015	0.420	2.676	1.895	1.895	1.895	1.914	1.899	1.909
0.010	-0.015	0.005	0.005	0.010	0.005	0.420	2.695	1.899	1.895	1.895	1.914	1.914	1.909
0.015	0.000	0.000	0.005	0.000	0.005	0.415	2.695	1.899	1.899	1.890	1.909	1.904	1.904
0.005	0.005	0.000	0.005	-0.005	-0.015	0.425	2.686	1.895	1.895	1.890	1.909	1.904	1.904
0.015	0.000	-0.005	0.005	0.005	-0.005	0.415	2.681	1.895	1.890	1.890	1.904	1.904	1.904
0.010	0.000	-0.005	0.005	0.010	0.005	0.415	2.700	1.895	1.890	1.890	1.909	1.904	1.904
0.000	0.000	0.000	0.000	0.005	0.005	0.425	2.676	1.895	1.895	1.890	1.909	1.904	1.904
0.010	0.005	-0.005	0.000	0.005	0.010	0.415	2.676	1.899	1.899	1.895	1.909	1.904	1.909
0.005	0.010	0.005	0.000	-0.005	-0.010	0.425	2.681	1.895	1.895	1.895	1.909	1.899	1.899
0.000	0.005	0.005	0.000	0.000	0.000	0.410	2.705	1.899	1.899	1.895	1.914	1.904	1.904
0.015	0.010	0.005	0.005	0.000	-0.005	0.425	2.705	1.904	1.904	1.899	1.914	1.909	1.909
0.000	0.010	-0.005	0.010	-0.005	-0.029	0.415	2.705	1.904	1.899	1.899	1.919	1.909	1.904
0.000	0.005	-0.005	0.000	0.000	-0.020	0.420	2.695	1.904	1.899	1.899	1.914	1.909	1.909
0.000	-0.005	0.000	0.000	-0.005	0.000	0.415	2.676	1.904	1.899	1.895	1.919	1.909	1.909
0.015	0.005	0.005	0.000	-0.005	0.020	0.420	2.642	1.899	1.904	1.899	1.914	1.914	1.919
0.000	0.010	-0.005	0.005	0.000	-0.015	0.415	2.656	1.895	1.895	1.895	1.914	1.909	1.904
-0.015	0.000	-0.005	-0.005	-0.005	-0.005	0.420	2.793	1.899	1.895	1.895	1.909	1.909	1.904
0.000	0.000	0.000	0.000	-0.010	0.034	0.415	2.646	1.895	1.895	1.895	1.909	1.909	1.914
0.000	0.005	-0.005	0.000	-0.010	0.029	0.420	2.734	1.899	1.890	1.890	1.909	1.904	1.909
-0.010	-0.005	0.000	0.005	0.005	0.020	0.425	2.656	1.890	1.890	1.890	1.909	1.909	1.909
-0.024	0.000	0.000	0.005	0.000	-0.020	0.420	2.651	1.885	1.890	1.890	1.909	1.904	1.899
-0.029	0.005	0.000	0.000	-0.005	0.005	0.415	2.676	1.880	1.885	1.885	1.909	1.904	1.904
-0.020	0.005	0.000	0.000	0.000	0.000	0.420	2.661	1.890	1.885	1.885	1.904	1.904	1.904
0.005	0.005	-0.005	0.005	0.000	-0.005	0.415	2.715	1.904	1.895	1.885	1.909	1.904	1.904
0.010	0.000	0.005	0.005	0.000	-0.010	0.420	2.676	1.904	1.899	1.895	1.909	1.904	1.899
0.029	-0.005	-0.005	0.005	0.005	-0.020	0.420	2.754	1.919	1.904	1.895	1.909	1.904	1.895
0.034	0.000	0.005	0.000	0.010	0.015	0.425	2.700	1.919	1.909	1.899	1.914	1.909	1.914
0.034	0.000	0.005	0.005	0.000	0.024	0.425	2.666	1.909	1.909	1.899	1.914	1.904	1.914
0.034	0.010	-0.005	0.000	0.005	-0.005	0.425	2.690	1.914	1.909	1.904	1.919	1.909	1.909
0.024	0.000	0.000	0.000	0.005	0.010	0.425	2.656	1.899	1.904	1.904	1.919	1.914	1.914
0.024	0.010	0.000	0.005	-0.005	0.015	0.420	2.681	1.899	1.909	1.904	1.919	1.909	1.914
0.034	0.005	0.000	0.005	-0.010	0.010	0.415	2.690	1.899	1.899	1.904	1.919	1.909	1.909
0.020	0.000	0.000	0.000	-0.010	0.010	0.425	2.690	1.895	1.895	1.899	1.919	1.909	1.909
0.015	-0.005	0.005	0.000	-0.005	0.005	0.420	2.715	1.895	1.895	1.899	1.919	1.909	1.909
-0.005	-0.020	0.005	0.000	-0.005	0.015	0.420	2.695	1.895	1.890	1.895	1.914	1.914	1.909
-0.015	-0.015	0.005	0.000	0.005	-0.015	0.420	2.695	1.885	1.885	1.890	1.914	1.909	1.899
-0.015	-0.010	0.005	0.000	0.005	0.015	0.415	2.700	1.890	1.885	1.885	1.909	1.909	1.914
-0.015	-0.010	0.010	0.000	0.000	-0.010	0.430	2.695	1.895	1.890	1.890	1.909	1.904	1.904
-0.015	0.000	0.005	0.000	0.005	-0.029	0.420	2.710	1.890	1.890	1.890	1.909	1.909	1.899
-0.015	0.000	0.005	0.000	0.010	-0.010	0.425	2.686	1.895	1.890	1.885	1.909	1.909	1.909
-0.010	0.020	0.000	0.000	0.010	-0.020	0.415	2.686	1.895	1.899	1.890	1.909	1.904	1.904
-0.010	0.005	-0.005	0.000	0.015	-0.029	0.425	2.686	1.899	1.895	1.890	1.909	1.904	1.899
-0.015	0.000	0.005	0.000	0.000	-0.005	0.410	2.690	1.899	1.895	1.895	1.909	1.904	1.909
-0.005	-0.005	0.005	0.000	-0.010	-0.005	0.430	2.690	1.899	1.895	1.895	1.909	1.904	1.909
0.005	0.005	0.005	0.005	-0.010	0.010	0.415	2.690	1.904	1.899	1.895	1.914	1.904	1.914
-0.010	0.010	0.000	0.005	0.005	0.000	0.425	2.686	1.899	1.904	1.895	1.914	1.909	1.909
-0.020	0.005	-0.005	0.005	0.005	0.005	0.415	2.686	1.899	1.899	1.895	1.914	1.909	1.909
-0.015	-0.005	0.000	0.005	0.005	0.010	0.425	2.676	1.899	1.899	1.899	1.914	1.909	1.914
-0.020	0.000	0.000	0.000	-0.005	0.000	0.420	2.681	1.895	1.899	1.895	1.914	1.904	1.909
-0.005	0.005	-0.005	0.005	-0.005	0.010	0.415	2.700	1.899	1.899	1.895	1.909	1.904	1.909
0.000	0.005	0.000	0.005	-0.005	0.000	0.420	2.681	1.899	1.895	1.895	1.914	1.904	1.904
0.010	0.005	0.000	0.010	0.015	0.010	0.415	2.695	1.899	1.899	1.895	1.914	1.909	1.914
0.034	0.005	0.005	0.010	0.000	0.015	0.425	2.690	1.904	1.895	1.895	1.914	1.904	1.909
0.049	0.000	0.005	0.005	-0.005	0.015	0.415	2.671	1.909	1.899	1.895	1.914	1.904	1.909
0.039	0.000	0.000	0.000	0.005	0.020	0.420	2.651	1.895	1.895	1.890	1.909	1.904	1.909
0.024	-0.005	0.005	0.000	-0.005	0.010	0.420	2.671	1.890	1.890	1.895	1.909	1.904	1.904
0.015	0.000	0.005	0.000	0.005	0.024	0.420	2.788	1.899	1.895	1.890	1.909	1.909	1.909
0.015	0.000	-0.005	0.000	0.020	0.024	0.420	2.651	1.895	1.895	1.890	1.909	1.909	1.909
-0.005	0.000	-0.005	-0.005	0.039	0.005	0.420	2.739	1.899	1.895	1.895	1.909	1.914	1.904
-0.015	0.000	0.005	0.000	0.000	0.005	0.415	2.651	1.895	1.895	1.895	1.914	1.904	1.904
-0.015	0.005	0.000	0.005	-0.010	-0.024	0.415	2.637	1.895	1.895	1.895	1.914	1.899	1.895
-0.020	0.000	0.000	0.010	-0.024	-0.020	0.415	2.734	1.885	1.895	1.895	1.914	1.904	1.899
-0.024	0.005	0.000	0.000	0.000	-0.024	0.415	2.651	1.890	1.895	1.895	1.909	1.909	1.899
-0.015	-0.005	0.000	-0.005	0.005	0.010	0.415	2.651	1.890	1.890	1.895	1.914	1.914	1.914
-0.024	0.000	0.000	0.000	0.039	0.010	0.420	2.676	1.895	1.895	1.895	1.914	1.919	1.914
-0.015	0.005	0.005	0.000	0.020	0.000	0.420	2.754	1.909	1.899	1.895	1.914	1.909	1.909
-0.005	0.000	0.000	0.005	0.000	0.000	0.425	2.676	1.899	1.895	1.890	1.909	1.899	1.909
0.005	-0.005	0.000	0.000	-0.010	-0.005	0.410	2.632	1.895	1.895	1.890	1.909	1.899	1.904
0.000	-0.010	0.000	0.005	-0.010	0.000	0.425	2.681	1.890	1.890	1.890	1.909	1.899	1.904
-0.005	-0.010	0.010	0.005	-0.005	-0.005	0.420	2.700	1.890	1.885	1.890	1.909	1.904	1.904
0.000	-0.005	0.010	0.000	-0.020	-0.010	0.420	2.686	1.890	1.885	1.890	1.904	1.895	1.895
0.000	0.000	0.005	0.000	-0.020	-0.010	0.420	2.686	1.890	1.890	1.890	1.904	1.899	1.895
0.000	0.000	0.000	0.005	-0.005	-0.005	0.425	2.690	1.890	1.890	1.885	1.904	1.904	1.899
0.000	0.010	-0.005	0.000	0.010	-0.020	0.415	2.695	1.895	1.890	1.885	1.904	1.904	1.899
0.005	0.005	0.000	0.000	0.015	0.010	0.425	2.686	1.895	1.895	1.885	1.904	1.909	1.909
0.015	0.015	0.000	0.000	0.029	0.015	0.425	2.686	1.899	1.904	1.895	1.909	1.914	1.909
0.015	0.015	0.000	0.005	0.039	0.015	0.420	2.705	1.899	1.899	1.895	1.909	1.914	1.914
0.029	0.015	0.000	0.005	0.010	0.024	0.425	2.700	1.909	1.904	1.899	1.914	1.904	1.914
0.015	0.010	0.005	0.005	-0.034	0.039	0.420	2.695	1.904	1.899	1.899	1.914	1.895	1.914
0.010	0.015	0.005	0.005	-0.034	0.049	0.415	2.686	1.899	1.899	1.895	1.914	1.899	1.914
-0.010	0.000	0.005	0.005	-0.010	0.024	0.415	2.695	1.899	1.899	1.899	1.914	1.909	1.904
0.000	0.005	0.005	0.005	0.020	0.010	0.415	2.705	1.904	1.899	1.899	1.919	1.919	1.904
-0.005	0.000	0.000	0.000	0.029	-0.010	0.420	2.686	1.895	1.895	1.895	1.914	1.914	1.899
-0.010	-0.005	-0.005	0.000	0.005	-0.005	0.415	2.686	1.895	1.890	1.890	1.914	1.909	1.904
0.000	-0.015	0.000	0.000	0.024	-0.020	0.415	2.690	1.895	1.890	1.890	1.909	1.909	1.904
0.015	0.005	0.000	0.005	0.024	0.005	0.420	2.671	1.895	1.895	1.890	1.909	1.909	1.909
0.015	0.000	0.000	0.000	0.010	0.000	0.420	2.710	1.899	1.890	1.890	1.904	1.899	1.904
0.010	-0.005	0.000	0.000	0.005	-0.015	0.420	2.686	1.895	1.890	1.890	1.904	1.899	1.895
0.020	-0.005	0.000	-0.005	0.010	0.005	0.420	2.686	1.895	1.895	1.890	1.904	1.899	1.904
0.015	0.000	0.005	0.005	0.005	0.005	0.415	2.681	1.895	1.890	1.890	1.904	1.899	1.899
0.005	-0.005	0.005	0.005	-0.005	0.000	0.415	2.715	1.895	1.895	1.890	1.909	1.899	1.899
0.010	0.000	0.000	0.010	-0.010	-0.024	0.415	2.686	1.895	1.895	1.890	1.909	1.899	1.895
0.000	0.000	0.000	0.005	-0.015	-0.015	0.415	2.686	1.895	1.895	1.895	1.909	1.899	1.899
0.000	-0.005	0.005	0.010	-0.015	-0.039	0.420	2.705	1.899	1.895	1.895	1.914	1.899	1.895
-0.005	-0.020	0.000	0.000	-0.015	-0.005	0.415	2.656	1.895	1.890	1.895	1.909	1.904	1.909
-0.010	0.000	0.000	0.005	-0.024	-0.010	0.420	2.661	1.890	1.899	1.895	1.909	1.904	1.904
-0.010	0.005	0.005	0.000	-0.020	0.005	0.425	2.651	1.890	1.895	1.895	1.914	1.909	1.909
-0.010	0.000	0.010	-0.005	0.000	0.020	0.425	2.651	1.890	1.890	1.895	1.914	1.914	1.914
-0.005	0.000	0.000	-0.005	0.005	0.015	0.420	2.651	1.885	1.890	1.890	1.909	1.909	1.909
-0.005	-0.005	0.000	0.000	-0.005	0.000	0.420	2.642	1.880	1.885	1.890	1.909	1.904	1.904
0.000	0.010	0.000	0.000	0.000	0.015	0.425	2.729	1.895	1.890	1.885	1.909	1.904	1.909
-0.005	0.020	0.005	0.000	0.015	0.020	0.415	2.729	1.899	1.895	1.890	1.909	1.909	1.914
0.010	0.020	0.005	0.005	0.010	0.024	0.420	2.729	1.904	1.895	1.890	1.909	1.904	1.909
-0.005	0.010	-0.005	0.005	-0.005	0.010	0.420	2.720	1.899	1.890	1.880	1.904	1.895	1.899
-0.005	0.005	0.000	0.000	-0.005	0.005	0.420	2.656	1.895	1.890	1.885	1.904	1.899	1.899
-0.005	0.000	-0.005	0.000	0.000	0.000	0.415	2.744	1.899	1.890	1.885	1.899	1.899	1.899
0.005	0.005	0.000	0.005	0.024	-0.010	0.425	2.695	1.899	1.895	1.890	1.904	1.904	1.895
0.005	0.000	0.005	0.000	0.024	-0.005	0.415	2.715	1.899	1.895	1.890	1.909	1.904	1.904
-0.010	0.005	0.010	0.010	0.000	0.010	0.425	2.681	1.899	1.899	1.895	1.909	1.904	1.904
-0.010	-0.005	0.000	0.000	-0.010	-0.005	0.420	2.744	1.909	1.899	1.890	1.909	1.899	1.899
-0.005	0.000	0.005	0.005	-0.029	0.015	0.420	2.695	1.904	1.899	1.899	1.909	1.895	1.904
-0.010	-0.005	0.000	0.000	-0.039	0.005	0.420	2.695	1.904	1.899	1.895	1.914	1.899	1.904
-0.010	0.000	0.000	0.000	-0.015	-0.005	0.420	2.676	1.899	1.899	1.895	1.914	1.909	1.899
-0.005	0.000	-0.005	0.005	0.000	0.000	0.420	2.700	1.899	1.899	1.899	1.914	1.914	1.909
-0.015	0.005	-0.005	0.000	-0.020	-0.005	0.425	2.676	1.899	1.899	1.899	1.914	1.909	1.909
-0.010	0.000	0.005	-0.005	0.000	0.000	0.420	2.681	1.895	1.895	1.899	1.919	1.914	1.909
-0.010	-0.010	0.000	0.005	0.029	0.005	0.420	2.690	1.895	1.895	1.895	1.914	1.924	1.914
-0.010	0.000	0.000	0.000	0.049	0.005	0.415	2.695	1.895	1.890	1.895	1.914	1.924	1.919
-0.005	0.005	0.000	0.000	0.078	-0.020	0.425	2.700	1.895	1.895	1.895	1.914	1.924	1.914
0.000	0.010	0.000	0.000	0.044	0.010	0.420	2.695	1.899	1.895	1.890	1.909	1.909	1.914
0.024	0.000	0.000	0.010	-0.005	-0.015	0.420	2.690	1.899	1.895	1.890	1.909	1.895	1.899
0.029	0.015	0.000	0.005	-0.015	-0.005	0.420	2.690	1.899	1.899	1.895	1.909	1.895	1.904
0.029	0.010	0.000	0.000	-0.005	0.005	0.425	2.705	1.904	1.899	1.895	1.909	1.904	1.904
0.044	0.000	0.000	0.005	0.010	-0.010	0.420	2.686	1.904	1.899	1.895	1.909	1.904	1.904
0.049	-0.005	0.005	0.005	0.005	0.015	0.420	2.695	1.899	1.895	1.899	1.909	1.904	1.909
0.034	0.005	0.000	0.000	0.000	0.010	0.415	2.695	1.899	1.899	1.899	1.914	1.909	1.909
