-0.005	0.010	0.005	0.005	-0.020	-0.005	0.039	3.965	3.379	3.091	3.047	2.969	2.969	2.969
0.000	-0.005	0.000	0.000	0.015	-0.024	0.039	3.960	3.276	3.145	3.071	2.998	2.983	2.969
0.005	-0.010	0.000	0.000	0.005	-0.015	0.039	3.950	3.203	3.159	3.091	3.032	2.993	2.979
0.000	-0.005	-0.005	0.000	0.005	-0.029	0.039	3.975	3.149	3.159	3.110	3.057	3.008	2.979
0.000	-0.020	-0.005	0.005	0.010	-0.010	0.039	3.975	3.120	3.145	3.120	3.081	3.027	2.993
0.000	-0.020	-0.005	0.000	0.005	0.010	0.039	3.975	3.096	3.130	3.120	3.096	3.042	3.018
0.015	0.000	0.000	0.000	-0.020	-0.005	0.039	3.975	3.081	3.120	3.120	3.105	3.047	3.022
0.010	-0.029	-0.005	0.005	-0.010	-0.005	0.039	3.921	3.057	3.096	3.115	3.115	3.071	3.032
0.000	-0.029	-0.005	-0.005	0.029	-0.024	0.039	3.965	3.047	3.081	3.105	3.120	3.091	3.047
0.005	-0.010	-0.005	0.000	0.039	0.000	0.039	3.960	3.047	3.076	3.096	3.120	3.101	3.071
0.000	0.000	0.005	0.000	0.044	0.015	0.039	3.989	3.047	3.071	3.091	3.115	3.105	3.086
0.005	0.015	0.005	0.005	0.024	0.005	0.039	3.955	3.042	3.062	3.081	3.110	3.101	3.086
0.000	0.010	0.005	0.000	0.000	0.020	0.039	3.975	3.047	3.057	3.076	3.105	3.096	3.091
0.000	0.015	0.000	0.000	-0.010	0.005	0.039	3.975	3.047	3.057	3.071	3.101	3.091	3.091
-0.005	0.005	0.000	0.000	-0.015	0.005	0.039	3.979	3.042	3.052	3.062	3.096	3.091	3.096
-0.005	0.005	0.000	0.000	-0.005	-0.015	0.039	3.984	3.042	3.047	3.057	3.091	3.096	3.086
-0.005	0.015	0.005	0.000	-0.005	0.010	0.039	3.965	3.047	3.047	3.057	3.086	3.091	3.096
-0.005	0.000	0.000	0.000	-0.005	-0.015	0.039	3.975	3.047	3.047	3.052	3.081	3.086	3.086
-0.005	0.010	0.000	0.000	-0.005	0.010	0.039	3.945	3.047	3.047	3.047	3.076	3.086	3.091
0.000	0.000	0.000	0.000	-0.010	0.015	0.039	3.975	3.047	3.042	3.047	3.071	3.076	3.091
0.005	0.010	0.000	0.000	-0.010	0.005	0.039	3.984	3.052	3.047	3.047	3.071	3.076	3.081
0.005	0.005	-0.005	0.005	0.000	0.000	0.039	3.955	3.047	3.047	3.042	3.066	3.071	3.081
0.010	-0.005	0.000	0.005	0.000	-0.005	0.039	3.970	3.047	3.042	3.047	3.066	3.071	3.081
0.005	-0.005	0.005	0.005	-0.005	0.005	0.039	3.979	3.047	3.042	3.042	3.066	3.066	3.076
0.000	-0.010	0.000	0.000	0.000	0.005	0.039	3.970	3.042	3.042	3.037	3.062	3.066	3.071
-0.005	0.000	-0.005	0.000	0.000	0.005	0.039	3.970	3.042	3.042	3.042	3.062	3.062	3.071
-0.010	0.000	0.005	0.000	0.000	0.005	0.039	3.970	3.047	3.042	3.042	3.062	3.057	3.066
0.000	0.015	0.000	-0.005	0.000	-0.005	0.034	3.970	3.047	3.047	3.042	3.062	3.057	3.062
0.000	0.015	0.005	0.000	-0.005	0.015	0.039	3.984	3.047	3.052	3.042	3.062	3.057	3.066
-0.005	0.010	0.005	0.000	0.005	0.005	0.039	3.955	3.042	3.047	3.042	3.062	3.062	3.066
-0.010	-0.005	0.005	0.000	0.005	0.010	0.034	3.965	3.042	3.037	3.042	3.062	3.057	3.062
-0.005	-0.010	0.015	0.000	-0.015	-0.024	0.039	3.950	3.042	3.037	3.042	3.062	3.052	3.052
0.000	0.020	0.005	0.000	-0.020	-0.015	0.039	3.965	3.042	3.047	3.042	3.057	3.052	3.057
-0.005	0.010	0.005	0.005	-0.039	-0.024	0.044	3.960	3.037	3.042	3.042	3.057	3.047	3.052
-0.015	0.010	0.000	-0.005	-0.020	-0.039	0.039	3.984	3.042	3.037	3.037	3.057	3.052	3.047
0.010	0.000	0.000	0.000	-0.029	-0.049	0.034	3.965	3.047	3.037	3.037	3.057	3.052	3.047
-0.005	-0.005	0.000	0.000	-0.020	-0.010	0.039	3.955	3.032	3.037	3.037	3.057	3.057	3.062
0.015	-0.010	0.000	0.000	0.010	0.015	0.039	3.970	3.042	3.037	3.037	3.057	3.062	3.066
0.005	-0.020	-0.005	0.005	0.044	0.015	0.039	3.979	3.042	3.032	3.032	3.057	3.071	3.071
0.010	-0.010	-0.005	-0.005	0.098	0.029	0.034	3.975	3.042	3.037	3.032	3.052	3.076	3.076
0.000	-0.015	0.000	0.000	0.078	0.015	0.039	3.965	3.037	3.037	3.032	3.052	3.062	3.066
0.005	-0.010	0.000	-0.005	0.039	0.005	0.039	3.965	3.042	3.042	3.032	3.052	3.047	3.062
0.000	-0.010	0.000	0.000	0.010	-0.015	0.039	3.950	3.037	3.042	3.032	3.052	3.042	3.052
0.000	-0.005	0.000	0.000	0.005	-0.010	0.039	3.970	3.037	3.037	3.037	3.052	3.042	3.052
0.000	0.010	0.000	0.000	0.015	-0.005	0.039	3.975	3.037	3.042	3.037	3.052	3.047	3.047
-0.005	-0.005	0.005	0.000	0.020	0.000	0.039	3.984	3.037	3.037	3.037	3.052	3.047	3.052
-0.005	0.000	0.000	0.000	0.000	0.005	0.039	3.965	3.037	3.037	3.037	3.052	3.042	3.047
0.000	0.015	0.000	0.000	-0.015	-0.005	0.039	3.984	3.042	3.042	3.037	3.052	3.042	3.047
-0.005	0.010	0.000	0.000	-0.034	0.010	0.039	3.975	3.037	3.037	3.037	3.052	3.037	3.047
-0.010	0.010	0.015	0.005	-0.010	0.010	0.039	3.975	3.037	3.042	3.042	3.057	3.047	3.047
-0.005	0.005	0.000	0.000	0.000	0.010	0.039	3.945	3.037	3.037	3.037	3.057	3.052	3.052
0.000	-0.005	0.005	0.005	-0.015	-0.010	0.034	3.955	3.037	3.032	3.032	3.057	3.047	3.042
0.010	-0.005	-0.005	0.005	-0.020	0.000	0.039	3.965	3.032	3.027	3.032	3.052	3.047	3.047
0.005	-0.020	-0.005	0.005	-0.020	0.005	0.039	3.955	3.032	3.027	3.027	3.047	3.047	3.052
0.000	-0.005	0.005	0.005	-0.005	-0.015	0.039	3.970	3.032	3.032	3.027	3.052	3.047	3.047
0.010	0.000	-0.005	0.000	-0.005	0.000	0.039	3.970	3.032	3.032	3.027	3.047	3.047	3.047
0.005	0.005	0.005	-0.005	-0.005	0.005	0.039	3.975	3.032	3.032	3.032	3.047	3.047	3.052
0.005	0.010	0.000	0.000	-0.005	-0.015	0.039	3.931	3.027	3.032	3.032	3.047	3.047	3.042
0.005	0.005	-0.005	0.000	-0.005	-0.015	0.039	3.960	3.032	3.027	3.027	3.047	3.047	3.047
0.010	-0.005	0.005	0.005	-0.005	-0.010	0.039	3.970	3.032	3.027	3.027	3.047	3.042	3.042
0.005	0.020	0.000	0.000	-0.015	-0.015	0.039	3.960	3.027	3.032	3.027	3.047	3.037	3.047
-0.005	0.015	0.000	0.000	-0.010	-0.005	0.039	3.979	3.027	3.032	3.027	3.047	3.042	3.047
0.000	0.015	0.005	0.000	-0.005	0.015	0.039	3.970	3.027	3.027	3.027	3.047	3.047	3.052
-0.010	0.020	0.005	0.005	0.010	0.010	0.039	3.979	3.032	3.027	3.027	3.052	3.047	3.047
-0.005	0.020	0.010	0.005	0.024	0.005	0.039	3.965	3.032	3.032	3.027	3.047	3.052	3.052
-0.005	0.015	0.000	0.000	0.024	-0.005	0.034	3.965	3.027	3.032	3.027	3.047	3.052	3.047
-0.005	0.000	0.005	0.000	0.024	0.010	0.039	3.984	3.032	3.027	3.027	3.047	3.047	3.052
-0.005	0.000	0.005	0.005	0.010	-0.010	0.039	3.975	3.032	3.027	3.022	3.047	3.042	3.042
0.010	-0.010	0.005	0.000	0.000	0.005	0.039	3.965	3.032	3.022	3.022	3.042	3.037	3.047
0.010	-0.010	0.000	0.005	0.000	0.010	0.039	3.975	3.037	3.027	3.022	3.047	3.037	3.047
0.005	-0.010	0.000	0.000	-0.005	-0.010	0.039	3.984	3.037	3.027	3.022	3.042	3.037	3.037
0.005	-0.010	-0.005	-0.005	-0.005	0.010	0.039	3.970	3.032	3.027	3.022	3.037	3.037	3.047
0.005	-0.010	-0.005	0.005	0.000	0.005	0.039	3.970	3.027	3.027	3.022	3.042	3.037	3.042
0.005	-0.015	0.000	0.000	0.005	0.000	0.039	3.984	3.032	3.027	3.022	3.042	3.037	3.037
0.005	-0.005	-0.005	0.000	0.005	0.005	0.039	3.955	3.032	3.032	3.022	3.042	3.037	3.042
0.000	-0.005	-0.005	0.000	-0.005	0.010	0.039	3.975	3.027	3.027	3.022	3.042	3.037	3.042
0.000	0.000	0.000	0.000	0.005	-0.005	0.039	3.965	3.027	3.027	3.022	3.042	3.037	3.037
0.005	0.000	0.005	0.005	-0.005	-0.020	0.039	3.965	3.022	3.027	3.027	3.042	3.037	3.032
0.000	0.015	0.005	0.005	0.000	0.010	0.039	3.975	3.022	3.032	3.027	3.042	3.037	3.042
0.000	0.015	0.010	0.005	0.000	0.010	0.039	3.960	3.022	3.032	3.032	3.047	3.037	3.042
0.005	0.020	0.010	0.000	-0.005	0.000	0.039	3.975	3.027	3.027	3.027	3.047	3.037	3.042
-0.005	0.010	0.010	0.000	0.000	-0.005	0.034	3.965	3.027	3.022	3.027	3.047	3.037	3.042
0.000	0.005	0.005	0.000	0.000	-0.010	0.039	3.960	3.027	3.022	3.027	3.042	3.042	3.037
-0.010	0.010	0.005	0.000	0.000	0.010	0.039	3.970	3.027	3.027	3.022	3.042	3.042	3.047
0.000	0.000	0.000	0.000	0.000	0.010	0.039	3.975	3.027	3.027	3.022	3.042	3.037	3.042
0.005	0.000	0.000	0.005	0.000	0.010	0.039	3.955	3.027	3.022	3.022	3.042	3.037	3.042
0.010	-0.020	0.000	0.005	0.005	-0.020	0.039	3.950	3.027	3.018	3.018	3.042	3.037	3.037
0.000	0.000	0.000	0.005	0.005	0.010	0.039	3.979	3.027	3.022	3.018	3.042	3.037	3.047
0.000	-0.010	-0.005	0.005	0.000	0.000	0.039	3.950	3.022	3.022	3.018	3.037	3.037	3.042
0.000	-0.015	-0.005	0.005	0.010	-0.015	0.039	3.950	3.022	3.018	3.018	3.037	3.037	3.032
0.010	-0.020	-0.005	0.000	0.005	0.015	0.039	3.989	3.027	3.018	3.018	3.032	3.032	3.042
0.010	-0.010	-0.005	0.000	-0.005	0.015	0.039	3.984	3.027	3.027	3.018	3.037	3.032	3.037
0.005	-0.005	0.000	0.000	0.010	-0.005	0.039	3.965	3.022	3.027	3.018	3.032	3.037	3.032
0.000	-0.005	0.000	0.005	0.010	0.010	0.039	3.975	3.022	3.022	3.022	3.037	3.037	3.037
0.000	0.005	0.005	0.005	0.000	-0.015	0.034	3.975	3.022	3.027	3.022	3.037	3.032	3.027
-0.005	0.000	0.005	0.000	-0.005	0.005	0.039	3.979	3.027	3.022	3.022	3.037	3.032	3.037
-0.005	0.005	0.005	0.000	-0.005	0.010	0.039	3.965	3.022	3.027	3.022	3.042	3.032	3.037
-0.005	0.020	0.015	0.000	0.000	0.005	0.039	3.989	3.027	3.032	3.027	3.042	3.032	3.037
-0.005	0.034	0.010	0.000	-0.005	-0.010	0.039	3.975	3.027	3.032	3.027	3.042	3.032	3.032
-0.005	0.010	0.005	0.000	0.000	0.000	0.039	3.975	3.027	3.022	3.022	3.042	3.037	3.037
-0.010	-0.010	0.000	0.000	0.000	-0.020	0.039	3.984	3.022	3.018	3.018	3.042	3.037	3.037
-0.005	0.005	0.000	0.005	0.000	0.010	0.039	3.970	3.022	3.022	3.018	3.037	3.037	3.042
0.000	-0.005	-0.005	0.000	0.000	0.000	0.039	3.965	3.027	3.018	3.018	3.037	3.037	3.037
0.005	-0.020	0.000	0.005	-0.005	0.010	0.039	3.975	3.027	3.018	3.018	3.037	3.032	3.037
0.010	0.005	0.000	0.000	-0.005	-0.015	0.039	3.965	3.027	3.027	3.022	3.037	3.032	3.032
0.015	-0.005	-0.005	0.000	0.000	0.000	0.039	3.965	3.022	3.022	3.018	3.037	3.032	3.037
0.005	-0.010	-0.005	0.005	0.010	0.000	0.039	3.975	3.022	3.018	3.018	3.037	3.037	3.037
0.000	-0.010	-0.005	0.000	0.000	0.015	0.039	3.979	3.022	3.018	3.018	3.037	3.032	3.037
0.010	-0.005	0.000	0.000	-0.005	-0.015	0.039	3.984	3.022	3.022	3.018	3.037	3.032	3.027
0.010	0.000	0.000	0.005	0.000	0.015	0.034	3.965	3.022	3.022	3.018	3.037	3.032	3.037
0.005	0.005	0.000	0.005	0.000	0.010	0.039	3.975	3.022	3.022	3.018	3.037	3.032	3.037
0.000	0.005	0.005	0.000	0.005	0.010	0.039	3.965	3.022	3.022	3.018	3.037	3.032	3.037
-0.010	0.010	0.010	0.000	0.005	0.000	0.039	3.965	3.018	3.022	3.022	3.037	3.032	3.032
-0.010	0.015	0.010	0.000	0.000	-0.020	0.039	3.989	3.022	3.022	3.022	3.037	3.032	3.027
0.000	0.015	0.005	0.000	0.005	-0.029	0.039	3.960	3.022	3.022	3.022	3.042	3.032	3.027
-0.010	0.020	0.000	0.000	0.000	0.000	0.039	3.965	3.022	3.022	3.022	3.037	3.037	3.037
0.000	0.000	0.005	0.005	0.005	0.000	0.039	3.960	3.022	3.018	3.018	3.037	3.032	3.037
0.000	-0.005	0.005	0.000	0.000	0.020	0.039	3.975	3.018	3.018	3.018	3.037	3.032	3.042
0.000	0.000	-0.005	0.005	0.000	0.010	0.039	3.975	3.022	3.018	3.018	3.037	3.032	3.037
0.000	-0.010	0.000	0.000	0.010	-0.010	0.039	3.975	3.022	3.013	3.013	3.032	3.032	3.027
0.010	-0.015	0.000	0.000	-0.005	0.015	0.039	3.984	3.022	3.018	3.013	3.032	3.027	3.037
0.000	0.010	-0.005	0.005	0.000	0.005	0.039	3.960	3.022	3.022	3.013	3.032	3.032	3.037
0.005	-0.005	-0.005	0.000	0.000	0.005	0.039	3.955	3.022	3.018	3.013	3.032	3.027	3.032
0.000	-0.005	-0.005	0.005	-0.010	0.005	0.039	3.970	3.022	3.018	3.013	3.027	3.027	3.032
0.005	-0.005	-0.005	0.000	0.000	-0.005	0.039	3.965	3.018	3.018	3.013	3.027	3.027	3.032
0.005	0.005	-0.005	0.005	0.000	0.005	0.039	3.979	3.018	3.022	3.013	3.032	3.027	3.027
0.000	0.020	0.000	0.000	-0.005	0.000	0.039	3.989	3.022	3.022	3.018	3.032	3.022	3.027
0.010	0.005	0.000	0.000	-0.020	0.015	0.039	3.965	3.022	3.022	3.018	3.032	3.022	3.032
-0.010	0.005	0.000	0.000	-0.005	0.000	0.039	3.979	3.018	3.018	3.018	3.037	3.032	3.027
-0.015	0.015	0.005	0.005	0.015	-0.015	0.039	3.950	3.018	3.018	3.018	3.032	3.032	3.022
-0.010	0.010	0.000	0.000	0.015	0.005	0.039	3.940	3.018	3.018	3.018	3.037	3.037	3.037
-0.005	0.015	0.005	0.000	0.005	0.005	0.039	3.975	3.018	3.018	3.018	3.037	3.032	3.032
-0.010	0.005	0.005	0.000	0.000	-0.005	0.039	3.975	3.018	3.013	3.018	3.037	3.027	3.032
-0.005	0.000	0.005	0.005	-0.005	0.010	0.039	3.960	3.018	3.018	3.018	3.032	3.032	3.032
0.005	0.000	0.000	0.000	0.000	-0.010	0.039	3.970	3.018	3.013	3.013	3.032	3.027	3.032
0.000	-0.010	0.000	0.000	0.005	0.000	0.039	3.970	3.018	3.013	3.013	3.032	3.027	3.032
0.000	-0.010	0.005	0.000	0.010	0.015	0.039	3.975	3.022	3.013	3.013	3.032	3.032	3.037
0.015	-0.005	-0.005	0.005	0.015	0.010	0.039	3.945	3.018	3.018	3.013	3.032	3.032	3.032
0.005	0.000	-0.005	-0.005	0.010	0.005	0.034	3.979	3.018	3.018	3.013	3.032	3.027	3.032
0.010	-0.020	-0.005	0.000	0.005	-0.005	0.034	3.975	3.018	3.013	3.008	3.032	3.027	3.022
0.015	-0.015	-0.005	0.000	0.000	0.005	0.039	3.960	3.018	3.018	3.008	3.027	3.027	3.032
0.005	-0.010	-0.005	0.000	0.005	0.010	0.039	3.975	3.018	3.018	3.013	3.027	3.027	3.027
0.005	-0.005	0.000	0.000	0.000	0.005	0.039	3.984	3.018	3.018	3.013	3.027	3.022	3.027
0.000	-0.005	0.000	0.000	0.000	0.000	0.039	3.984	3.022	3.022	3.013	3.027	3.022	3.027
-0.005	0.010	0.005	0.000	0.000	0.005	0.039	3.955	3.018	3.022	3.018	3.032	3.027	3.027
0.005	0.005	0.000	0.005	0.000	0.005	0.039	3.965	3.018	3.022	3.018	3.032	3.027	3.027
-0.005	0.015	0.005	0.000	-0.005	0.005	0.039	3.979	3.013	3.018	3.018	3.032	3.027	3.027
0.000	0.010	0.010	0.005	-0.005	0.000	0.039	3.979	3.022	3.022	3.018	3.037	3.027	3.027
-0.010	0.005	0.005	0.000	0.000	0.000	0.039	3.970	3.022	3.018	3.018	3.032	3.027	3.027
-0.005	0.005	0.005	0.005	0.000	0.000	0.039	3.970	3.018	3.018	3.018	3.032	3.032	3.027
0.005	0.005	0.005	0.000	-0.005	-0.024	0.039	3.965	3.018	3.018	3.013	3.032	3.027	3.022
-0.005	0.005	0.005	0.000	-0.010	-0.005	0.039	3.970	3.018	3.018	3.013	3.032	3.027	3.027
0.005	0.005	0.000	0.000	-0.005	0.010	0.039	3.965	3.018	3.018	3.013	3.032	3.027	3.032
0.005	0.000	0.005	0.000	-0.005	0.010	0.039	3.979	3.022	3.018	3.013	3.032	3.027	3.032
0.005	-0.005	0.005	0.005	-0.015	0.010	0.039	3.960	3.018	3.013	3.013	3.032	3.022	3.027
0.005	0.005	-0.005	0.000	-0.005	-0.005	0.039	3.965	3.018	3.018	3.008	3.032	3.027	3.027
-0.005	-0.005	-0.005	0.000	0.010	0.005	0.039	3.965	3.013	3.013	3.013	3.027	3.032	3.032
0.005	-0.005	0.000	-0.005	0.015	-0.024	0.039	3.979	3.018	3.013	3.008	3.027	3.027	3.022
0.005	-0.005	-0.005	0.000	0.010	0.010	0.039	3.965	3.018	3.013	3.013	3.027	3.027	3.032
0.010	0.010	-0.005	0.000	0.015	0.020	0.039	3.960	3.022	3.022	3.013	3.027	3.027	3.037
0.005	0.005	0.000	0.000	0.015	0.000	0.039	3.965	3.018	3.018	3.013	3.032	3.027	3.027
0.005	0.010	0.000	0.005	0.020	-0.010	0.039	3.965	3.018	3.018	3.013	3.032	3.027	3.027
0.000	-0.005	0.010	0.000	0.029	0.005	0.039	3.975	3.018	3.013	3.013	3.032	3.032	3.032
-0.005	0.005	0.005	0.000	0.039	0.005	0.039	3.979	3.018	3.018	3.013	3.032	3.032	3.037
-0.015	0.010	0.000	0.005	0.020	0.000	0.034	3.975	3.018	3.018	3.013	3.032	3.022	3.032
-0.010	0.015	0.010	0.005	-0.020	0.005	0.039	3.979	3.022	3.018	3.013	3.032	3.018	3.027
-0.005	0.000	0.005	0.000	-0.039	-0.005	0.039	3.926	3.013	3.018	3.013	3.032	3.013	3.022
0.000	0.010	0.005	0.000	-0.039	-0.020	0.039	3.984	3.018	3.018	3.013	3.032	3.018	3.018
0.005	-0.005	0.000	0.000	-0.010	0.000	0.034	3.970	3.018	3.013	3.013	3.032	3.027	3.027
0.005	0.005	-0.005	0.005	0.015	0.000	0.034	3.936	3.013	3.018	3.013	3.032	3.032	3.027
0.010	0.000	0.000	0.000	0.010	0.000	0.039	3.945	3.013	3.013	3.008	3.027	3.032	3.027
0.010	-0.005	0.000	0.000	0.010	0.005	0.039	3.984	3.018	3.013	3.008	3.032	3.027	3.032
0.000	-0.010	-0.005	0.010	0.005	0.005	0.039	3.975	3.013	3.008	3.008	3.027	3.027	3.032
0.010	-0.010	-0.010	0.000	0.000	0.010	0.039	3.965	3.018	3.008	3.008	3.027	3.022	3.032
0.005	-0.010	0.000	0.000	0.000	-0.005	0.039	3.945	3.013	3.013	3.008	3.022	3.022	3.027
0.005	-0.005	-0.005	-0.005	0.000	0.015	0.039	3.975	3.018	3.013	3.008	3.027	3.022	3.027
0.000	0.020	0.000	0.000	-0.005	0.010	0.039	3.975	3.018	3.018	3.013	3.027	3.022	3.027
0.000	0.020	0.000	0.000	0.000	0.010	0.039	3.940	3.013	3.018	3.013	3.027	3.022	3.027
-0.010	0.020	0.000	0.005	0.005	-0.005	0.039	3.960	3.008	3.013	3.013	3.032	3.022	3.022
0.000	0.005	0.005	0.000	0.000	0.000	0.039	3.979	3.013	3.008	3.013	3.027	3.022	3.022
-0.005	0.005	0.005	0.000	0.000	0.010	0.039	3.960	3.013	3.013	3.013	3.027	3.022	3.027
0.000	0.010	0.005	0.000	0.000	0.000	0.039	3.975	3.018	3.013	3.013	3.027	3.022	3.027
0.000	0.010	0.005	0.000	0.000	0.000	0.034	3.960	3.018	3.013	3.008	3.027	3.027	3.022
-0.010	0.005	0.005	0.000	-0.005	-0.010	0.039	3.965	3.018	3.013	3.008	3.027	3.022	3.022
0.000	0.000	0.005	0.000	0.005	0.005	0.039	3.970	3.018	3.013	3.008	3.027	3.027	3.027
-0.010	0.005	0.005	0.005	0.005	-0.020	0.039	3.979	3.018	3.013	3.013	3.027	3.022	3.022
0.005	-0.005	0.000	0.010	0.005	0.000	0.039	3.960	3.018	3.013	3.008	3.027	3.027	3.027
0.005	-0.010	0.000	0.000	0.005	-0.005	0.034	3.979	3.018	3.013	3.008	3.027	3.022	3.022
0.005	-0.010	-0.005	0.000	-0.005	0.010	0.039	3.975	3.018	3.013	3.008	3.022	3.022	3.027
0.005	-0.010	-0.005	0.000	0.000	-0.005	0.039	3.955	3.018	3.013	3.008	3.022	3.022	3.022
0.005	-0.015	0.000	0.000	0.005	0.005	0.039	3.945	3.013	3.008	3.008	3.022	3.022	3.027
0.015	-0.020	-0.005	0.005	0.005	0.005	0.039	3.975	3.013	3.008	3.008	3.022	3.022	3.022
-0.005	0.015	0.000	0.000	-0.005	0.005	0.039	3.979	3.018	3.018	3.013	3.022	3.018	3.027
0.000	0.005	0.005	-0.005	-0.005	0.005	0.039	3.979	3.018	3.018	3.013	3.027	3.022	3.022
0.000	0.000	0.005	0.005	0.000	-0.010	0.034	3.955	3.013	3.013	3.013	3.027	3.018	3.022
-0.005	-0.005	0.010	0.005	-0.005	0.005	0.039	3.984	3.013	3.013	3.013	3.027	3.022	3.022
-0.010	0.005	0.010	0.005	-0.005	0.010	0.039	3.960	3.013	3.018	3.013	3.027	3.022	3.027
-0.015	0.010	0.010	0.005	-0.005	0.010	0.039	3.975	3.013	3.013	3.013	3.027	3.022	3.022
-0.005	0.005	0.005	0.005	-0.005	-0.020	0.039	3.970	3.013	3.013	3.013	3.027	3.022	3.018
-0.010	0.010	0.000	0.005	-0.010	0.015	0.039	3.965	3.008	3.013	3.013	3.027	3.022	3.027
-0.010	0.005	0.010	0.000	-0.005	0.005	0.039	3.975	3.018	3.013	3.013	3.027	3.027	3.027
-0.005	-0.005	0.005	0.005	-0.005	0.005	0.039	3.979	3.022	3.008	3.008	3.027	3.027	3.027
0.000	-0.005	-0.010	0.000	0.005	-0.005	0.039	3.970	3.018	3.013	3.008	3.027	3.027	3.027
0.005	0.000	-0.005	-0.005	0.005	-0.005	0.039	3.965	3.018	3.013	3.008	3.027	3.027	3.027
0.005	-0.010	-0.005	0.000	0.000	0.010	0.039	3.979	3.018	3.013	3.008	3.027	3.022	3.027
0.005	-0.015	-0.005	0.000	-0.010	0.005	0.039	3.979	3.018	3.013	3.008	3.027	3.018	3.022
0.005	-0.010	-0.005	0.005	-0.020	0.000	0.039	3.921	3.027	3.018	3.013	3.022	3.018	3.022
0.015	-0.010	0.000	0.000	-0.020	0.005	0.039	3.975	3.022	3.018	3.013	3.027	3.018	3.027
0.005	0.000	0.000	0.005	-0.020	0.010	0.039	3.975	3.018	3.018	3.013	3.027	3.022	3.027
0.010	0.020	0.000	0.005	-0.010	0.000	0.039	3.926	3.018	3.022	3.018	3.027	3.022	3.018
0.005	0.020	0.000	0.000	0.020	0.005	0.039	3.950	3.008	3.018	3.018	3.032	3.032	3.027
0.000	0.020	0.005	0.000	0.034	0.000	0.039	3.979	3.013	3.013	3.018	3.037	3.037	3.027
0.005	0.010	0.005	0.000	0.039	-0.020	0.039	3.975	3.018	3.013	3.013	3.032	3.032	3.027
-0.005	0.010	0.005	0.000	0.005	0.005	0.039	3.955	3.013	3.013	3.013	3.032	3.027	3.032
0.000	0.005	0.005	0.005	0.005	0.000	0.039	3.970	3.013	3.013	3.013	3.032	3.027	3.027
-0.005	-0.010	0.005	0.000	0.005	0.000	0.039	3.984	3.018	3.008	3.008	3.032	3.027	3.032
0.000	-0.020	0.000	0.000	0.005	0.005	0.039	3.979	3.018	3.008	3.008	3.027	3.027	3.027
-0.005	-0.005	0.000	0.005	0.010	0.005	0.039	3.975	3.018	3.013	3.008	3.027	3.027	3.032
0.005	-0.005	0.000	0.000	0.005	0.000	0.039	3.975	3.018	3.013	3.008	3.027	3.022	3.027
0.005	0.000	0.000	0.005	-0.005	0.000	0.039	3.955	3.018	3.018	3.013	3.027	3.022	3.027
0.010	-0.010	0.000	0.005	0.000	0.005	0.039	3.965	3.018	3.013	3.008	3.027	3.022	3.027
0.005	-0.020	0.000	0.000	-0.005	-0.005	0.039	3.979	3.018	3.008	3.008	3.027	3.018	3.022
0.010	0.005	-0.005	0.000	-0.005	-0.005	0.039	3.960	3.018	3.018	3.013	3.027	3.022	3.027
0.015	-0.005	-0.005	0.005	0.005	0.015	0.039	3.970	3.013	3.013	3.008	3.027	3.027	3.027
0.000	0.000	0.000	0.000	0.010	0.005	0.039	3.960	3.013	3.013	3.008	3.027	3.022	3.022
0.000	-0.005	0.000	0.000	-0.010	0.015	0.039	3.984	3.013	3.013	3.008	3.027	3.018	3.022
0.005	0.005	0.000	0.000	-0.015	0.010	0.039	3.970	3.013	3.013	3.013	3.027	3.018	3.022
0.000	0.010	0.005	0.000	-0.005	0.010	0.039	3.984	3.013	3.013	3.013	3.027	3.022	3.022
0.000	0.015	0.000	0.000	-0.005	-0.005	0.039	3.979	3.018	3.013	3.013	3.027	3.022	3.022
-0.010	0.020	0.000	0.000	-0.010	0.000	0.039	3.940	3.013	3.013	3.013	3.027	3.022	3.022
-0.010	0.015	0.005	0.000	0.005	0.005	0.039	3.965	3.008	3.013	3.013	3.032	3.027	3.027
-0.005	0.010	0.005	0.000	0.015	0.005	0.039	3.979	3.013	3.013	3.008	3.027	3.027	3.027
-0.005	0.000	0.005	0.000	0.005	-0.005	0.039	3.994	3.013	3.008	3.008	3.032	3.027	3.027
-0.010	-0.005	0.005	0.000	0.000	0.000	0.039	3.950	3.013	3.008	3.008	3.027	3.027	3.022
-0.005	-0.005	0.005	0.005	0.020	0.010	0.039	3.975	3.013	3.008	3.008	3.027	3.032	3.032
0.005	-0.005	-0.005	0.000	0.015	-0.005	0.039	3.975	3.018	3.013	3.003	3.027	3.027	3.027
0.010	-0.010	0.000	0.005	0.010	0.005	0.039	3.975	3.018	3.013	3.008	3.027	3.022	3.027
-0.005	-0.015	-0.005	0.005	-0.005	-0.015	0.039	3.965	3.018	3.013	3.008	3.022	3.018	3.018
0.000	-0.015	0.000	-0.005	-0.015	0.010	0.039	3.970	3.013	3.008	3.008	3.022	3.018	3.027
0.010	-0.020	-0.005	0.000	-0.005	-0.005	0.039	3.965	3.018	3.013	3.003	3.022	3.018	3.022
0.015	-0.005	-0.005	0.000	0.000	-0.020	0.039	3.975	3.018	3.013	3.008	3.022	3.018	3.018
0.015	0.000	-0.005	0.000	0.000	0.000	0.039	3.984	3.018	3.018	3.008	3.027	3.022	3.022
-0.005	-0.005	0.000	0.000	-0.005	-0.005	0.039	3.975	3.013	3.013	3.008	3.027	3.022	3.018
0.005	0.000	0.000	0.000	0.010	0.005	0.039	3.975	3.013	3.018	3.013	3.027	3.027	3.027
0.005	0.000	0.005	0.000	0.034	-0.020	0.039	3.979	3.018	3.018	3.013	3.027	3.032	3.022
0.000	-0.005	0.005	0.000	0.044	0.010	0.039	3.975	3.013	3.013	3.013	3.032	3.032	3.032
-0.005	0.000	0.010	0.000	0.015	0.000	0.039	3.965	3.013	3.013	3.013	3.027	3.022	3.027
-0.005	0.005	0.005	0.005	-0.010	0.010	0.039	3.970	3.013	3.013	3.013	3.027	3.018	3.027
-0.005	0.005	0.005	0.000	-0.020	-0.005	0.039	3.989	3.018	3.018	3.013	3.027	3.018	3.018
-0.005	0.000	0.010	0.000	-0.015	0.010	0.039	3.979	3.018	3.018	3.013	3.027	3.022	3.027
-0.015	-0.005	0.005	0.000	-0.010	0.010	0.039	3.975	3.013	3.013	3.008	3.032	3.022	3.022
0.000	-0.005	0.000	0.000	-0.010	-0.015	0.039	3.965	3.018	3.013	3.008	3.027	3.027	3.018
0.000	-0.010	-0.005	0.005	-0.005	0.010	0.039	3.965	3.018	3.013	3.008	3.027	3.027	3.027
0.005	0.005	-0.005	0.005	0.000	0.000	0.039	3.970	3.022	3.018	3.008	3.027	3.027	3.022
0.010	-0.005	0.000	0.000	0.015	0.010	0.039	3.975	3.022	3.018	3.013	3.027	3.027	3.027
0.010	-0.020	-0.010	0.000	0.000	0.000	0.039	3.950	3.013	3.008	3.008	3.027	3.022	3.027
0.015	-0.010	-0.005	0.000	0.005	0.000	0.039	3.994	3.018	3.013	3.008	3.027	3.022	3.027
0.000	0.005	0.000	0.000	0.000	0.000	0.039	3.906	3.008	3.013	3.008	3.027	3.022	3.022
0.010	0.005	0.000	0.000	-0.005	0.000	0.039	3.965	3.013	3.013	3.008	3.027	3.022	3.027
0.000	0.005	-0.005	0.010	-0.010	0.000	0.039	3.950	3.003	3.008	3.008	3.027	3.022	3.022
0.000	0.005	0.000	0.000	-0.005	-0.015	0.039	3.940	3.003	3.008	3.008	3.027	3.022	3.018
0.000	0.020	0.000	-0.005	0.005	0.015	0.034	3.950	3.008	3.013	3.008	3.027	3.027	3.027
-0.005	0.029	0.005	0.005	0.005	0.005	0.039	4.038	3.008	3.013	3.013	3.027	3.027	3.027
-0.005	0.024	0.005	0.005	0.000	0.005	0.034	4.033	3.018	3.013	3.013	3.027	3.022	3.027
0.000	0.015	0.005	0.000	0.000	0.005	0.039	3.931	3.013	3.008	3.008	3.027	3.027	3.027
-0.010	0.015	0.010	0.000	0.000	-0.020	0.039	3.940	3.008	3.008	3.008	3.027	3.022	3.018
0.000	0.015	0.005	0.005	0.005	0.005	0.039	4.038	3.018	3.008	3.008	3.027	3.027	3.027
0.000	0.020	0.000	0.005	0.000	0.005	0.039	3.936	3.013	3.013	3.008	3.027	3.022	3.027
0.010	0.024	0.000	0.005	-0.010	0.000	0.039	3.921	3.008	3.013	3.008	3.027	3.018	3.022
0.000	0.010	0.000	0.005	-0.010	-0.020	0.039	3.936	3.008	3.008	3.008	3.027	3.022	3.022
0.000	-0.005	0.000	0.005	-0.005	0.010	0.039	4.023	3.013	3.008	3.003	3.022	3.027	3.032
0.010	0.000	-0.005	0.005	0.039	0.015	0.039	4.023	3.022	3.008	3.003	3.027	3.032	3.032
0.005	-0.005	-0.005	0.005	0.039	0.005	0.039	3.965	3.022	3.013	3.003	3.022	3.032	3.027
0.005	-0.010	-0.005	0.000	0.024	0.005	0.039	3.955	3.018	3.008	3.003	3.022	3.022	3.027
0.010	0.000	-0.005	0.000	0.010	0.010	0.039	3.960	3.018	3.013	3.008	3.022	3.018	3.027
0.015	-0.005	-0.005	0.005	-0.005	0.000	0.039	3.940	3.013	3.013	3.008	3.022	3.013	3.022
0.005	0.005	0.000	0.000	-0.005	0.010	0.034	3.950	3.008	3.013	3.013	3.022	3.018	3.022
0.000	0.010	0.000	0.000	0.005	0.010	0.034	4.019	3.018	3.013	3.013	3.027	3.018	3.022
-0.005	-0.005	0.000	0.005	0.000	0.015	0.039	4.014	3.018	3.008	3.008	3.027	3.018	3.022
-0.005	-0.005	0.005	0.000	-0.020	0.020	0.039	4.004	3.018	3.013	3.013	3.027	3.013	3.022
-0.005	0.015	0.005	0.000	-0.024	0.000	0.039	4.033	3.027	3.022	3.013	3.027	3.013	3.018
-0.005	0.010	0.010	0.000	-0.010	-0.024	0.039	3.931	3.018	3.018	3.018	3.027	3.022	3.013
-0.005	-0.010	0.005	0.000	0.005	-0.015	0.039	4.023	3.022	3.013	3.013	3.027	3.027	3.018
-0.010	-0.010	0.005	0.005	0.024	-0.010	0.039	3.970	3.018	3.013	3.013	3.032	3.032	3.027
0.000	-0.010	0.000	-0.005	-0.005	-0.015	0.039	4.043	3.022	3.013	3.008	3.027	3.018	3.022
0.000	-0.015	0.000	-0.005	-0.034	-0.010	0.039	3.965	3.022	3.018	3.008	3.027	3.018	3.022
-0.005	-0.010	0.000	0.000	-0.015	-0.005	0.039	3.945	3.018	3.018	3.013	3.027	3.022	3.022
0.005	-0.010	0.000	0.000	-0.020	-0.005	0.039	3.970	3.013	3.013	3.013	3.027	3.022	3.022
0.005	0.000	0.000	0.000	-0.010	-0.010	0.039	4.009	3.018	3.018	3.013	3.027	3.022	3.022
0.005	-0.010	-0.005	0.000	0.005	0.005	0.039	3.979	3.018	3.013	3.008	3.032	3.032	3.032
0.005	-0.010	0.000	0.000	0.015	0.000	0.039	3.970	3.018	3.018	3.013	3.032	3.032	3.027
0.005	0.000	0.000	0.000	0.015	0.015	0.039	3.965	3.013	3.018	3.013	3.032	3.027	3.032
0.005	0.000	0.005	0.000	0.000	-0.010	0.034	3.955	3.008	3.013	3.018	3.027	3.022	3.027
0.005	0.000	0.005	0.005	-0.005	0.015	0.039	3.965	3.013	3.018	3.013	3.032	3.022	3.032
0.005	0.010	0.010	0.005	0.000	-0.005	0.039	3.970	3.013	3.018	3.013	3.032	3.027	3.027
0.000	0.015	0.005	0.005	0.000	0.010	0.039	3.999	3.018	3.018	3.013	3.032	3.027	3.032
-0.005	0.020	0.005	0.000	0.015	0.000	0.039	3.994	3.018	3.022	3.018	3.032	3.027	3.027
-0.010	0.020	0.005	0.000	-0.005	0.005	0.039	3.979	3.018	3.018	3.018	3.032	3.022	3.027
-0.010	0.015	0.005	0.000	-0.005	0.005	0.039	3.999	3.022	3.018	3.018	3.032	3.027	3.027
-0.010	0.015	0.000	0.000	0.005	0.005	0.039	3.975	3.018	3.013	3.013	3.032	3.032	3.027
-0.010	0.010	0.005	0.000	0.024	0.000	0.039	3.970	3.013	3.013	3.013	3.032	3.037	3.032
-0.005	0.010	0.000	0.000	0.029	0.000	0.039	3.984	3.018	3.013	3.013	3.032	3.032	3.032
0.000	-0.005	0.005	0.005	0.029	0.000	0.039	3.970	3.022	3.008	3.013	3.027	3.032	3.032
0.015	-0.010	-0.005	0.000	0.029	0.000	0.034	3.970	3.022	3.013	3.008	3.027	3.032	3.032
0.020	0.005	0.000	0.005	0.015	0.005	0.039	3.989	3.022	3.022	3.013	3.032	3.027	3.032
0.010	-0.005	0.000	0.000	-0.015	0.015	0.039	3.994	3.022	3.018	3.008	3.027	3.018	3.027
-0.005	-0.010	-0.005	0.005	-0.010	0.000	0.039	3.994	3.018	3.013	3.008	3.027	3.022	3.022
0.005	-0.005	0.000	0.000	0.000	0.000	0.039	3.970	3.022	3.018	3.013	3.027	3.022	3.027
0.005	-0.005	0.005	0.000	0.005	0.020	0.039	3.979	3.018	3.018	3.013	3.027	3.027	3.027
0.000	-0.005	0.000	0.005	-0.005	0.005	0.039	3.970	3.018	3.018	3.013	3.027	3.022	3.027
-0.005	0.000	0.000	0.005	-0.010	0.015	0.039	3.975	3.018	3.022	3.013	3.027	3.022	3.027
0.010	0.034	0.005	0.010	-0.010	-0.005	0.039	3.989	3.022	3.027	3.018	3.032	3.022	3.018
-0.005	0.024	0.005	0.005	-0.015	-0.010	0.039	3.960	3.013	3.018	3.018	3.032	3.027	3.018
-0.005	0.024	0.005	0.000	-0.010	-0.039	0.039	4.062	3.027	3.022	3.018	3.032	3.027	3.018
-0.010	0.005	0.005	0.005	-0.029	-0.024	0.039	3.955	3.018	3.018	3.018	3.032	3.022	3.018
-0.015	0.000	0.005	0.000	-0.049	-0.010	0.034	3.965	3.013	3.013	3.013	3.032	3.022	3.027
-0.005	0.005	0.005	0.000	-0.029	-0.005	0.039	3.955	3.008	3.013	3.013	3.032	3.027	3.027
0.000	-0.005	0.005	0.000	0.024	0.010	0.039	4.033	3.013	3.008	3.013	3.032	3.042	3.037
0.005	-0.010	0.000	0.000	0.034	0.020	0.034	4.043	3.027	3.013	3.008	3.032	3.042	3.042
-0.005	-0.015	0.000	0.000	0.015	0.020	0.039	4.009	3.022	3.013	3.008	3.032	3.032	3.042
0.005	-0.024	-0.005	0.000	0.020	0.010	0.039	3.960	3.022	3.013	3.008	3.032	3.032	3.032
0.010	-0.015	-0.005	0.000	0.039	0.020	0.039	3.999	3.027	3.018	3.013	3.027	3.037	3.042
0.005	-0.020	0.000	0.000	0.039	0.020	0.039	3.921	3.018	3.018	3.013	3.027	3.032	3.037
0.005	-0.015	-0.005	0.000	0.005	0.024	0.039	3.970	3.022	3.013	3.013	3.027	3.018	3.032
0.010	-0.005	-0.005	0.005	0.000	0.005	0.039	3.936	3.018	3.022	3.013	3.027	3.022	3.027
0.010	-0.005	-0.005	0.000	0.005	-0.005	0.039	3.960	3.013	3.018	3.013	3.027	3.022	3.022
0.010	0.000	0.000	0.005	0.010	-0.015	0.039	3.926	3.013	3.018	3.013	3.032	3.022	3.022
0.005	0.010	0.000	0.005	-0.010	-0.005	0.039	3.984	3.013	3.018	3.018	3.032	3.022	3.022
0.000	0.015	0.005	0.000	0.000	-0.015	0.039	4.009	3.018	3.018	3.013	3.032	3.027	3.022
-0.005	0.024	0.005	0.000	0.015	0.000	0.039	3.979	3.018	3.018	3.018	3.032	3.027	3.027
-0.005	0.015	0.005	0.000	0.005	0.000	0.039	3.965	3.018	3.013	3.013	3.032	3.027	3.027
-0.005	0.005	0.010	0.005	0.010	0.000	0.039	3.965	3.018	3.018	3.018	3.032	3.027	3.032
-0.010	0.015	0.005	0.000	-0.005	-0.010	0.039	3.975	3.018	3.013	3.013	3.032	3.022	3.022
0.000	0.010	0.005	0.005	-0.020	0.005	0.039	3.975	3.018	3.018	3.013	3.037	3.022	3.027
0.000	0.010	0.005	0.005	-0.020	0.005	0.039	3.999	3.018	3.018	3.013	3.027	3.022	3.027
0.000	-0.005	0.000	0.005	-0.005	0.005	0.039	3.989	3.018	3.008	3.008	3.027	3.027	3.027
0.005	-0.010	-0.005	0.000	-0.010	-0.010	0.039	3.994	3.022	3.008	3.008	3.027	3.022	3.022
0.005	-0.029	0.000	0.005	-0.024	0.010	0.039	3.984	3.022	3.008	3.008	3.027	3.022	3.027
0.015	-0.024	0.000	0.005	-0.005	0.010	0.039	3.970	3.022	3.013	3.008	3.027	3.027	3.027
0.005	-0.015	-0.005	0.000	0.015	0.000	0.039	3.994	3.022	3.013	3.008	3.027	3.027	3.027
0.020	-0.015	-0.005	0.000	0.010	-0.005	0.039	3.975	3.022	3.018	3.008	3.027	3.027	3.027
0.015	0.000	-0.005	0.000	0.010	0.005	0.039	3.984	3.022	3.022	3.013	3.027	3.027	3.027
0.015	-0.005	0.000	0.005	0.005	0.010	0.039	3.970	3.018	3.018	3.018	3.027	3.022	3.027
0.000	0.005	0.010	0.000	0.000	0.010	0.039	3.999	3.018	3.018	3.018	3.027	3.022	3.027
-0.005	0.000	0.005	0.000	-0.005	-0.005	0.039	3.960	3.013	3.018	3.013	3.027	3.022	3.022
0.000	0.015	0.000	0.005	-0.010	-0.005	0.039	3.994	3.018	3.018	3.018	3.027	3.022	3.022
-0.005	0.010	0.005	0.000	-0.015	0.000	0.039	3.984	3.018	3.018	3.018	3.032	3.022	3.027
-0.020	0.015	0.005	0.000	-0.005	-0.015	0.039	3.979	3.018	3.018	3.018	3.032	3.027	3.022
-0.005	0.024	0.005	0.000	0.000	0.000	0.039	3.994	3.022	3.022	3.018	3.032	3.032	3.032
-0.010	0.015	0.005	0.000	-0.005	0.005	0.039	3.965	3.018	3.018	3.018	3.037	3.027	3.032
-0.010	-0.005	0.005	0.005	0.005	0.010	0.039	4.004	3.022	3.013	3.013	3.037	3.032	3.032
-0.010	-0.005	0.000	0.000	0.024	0.015	0.039	3.989	3.027	3.013	3.013	3.032	3.037	3.032
0.000	-0.010	-0.005	0.000	0.020	0.015	0.039	3.950	3.022	3.018	3.013	3.032	3.032	3.032
0.005	-0.005	0.000	0.005	0.005	0.005	0.039	3.955	3.018	3.018	3.013	3.032	3.027	3.032
0.005	0.010	-0.005	0.005	-0.005	0.000	0.039	3.950	3.018	3.022	3.013	3.027	3.022	3.027
0.010	0.010	0.000	0.005	-0.005	0.000	0.039	4.062	3.032	3.022	3.013	3.032	3.022	3.027
0.005	0.000	0.000	0.005	-0.010	0.000	0.039	3.945	3.022	3.018	3.013	3.032	3.027	3.022
0.010	0.005	-0.005	0.000	-0.005	-0.015	0.039	3.940	3.018	3.018	3.013	3.032	3.022	3.022
0.000	-0.005	0.000	0.005	-0.005	-0.005	0.039	4.004	3.018	3.018	3.013	3.032	3.027	3.027
0.005	-0.005	0.000	0.005	0.000	0.005	0.034	4.009	3.022	3.018	3.018	3.032	3.027	3.027
0.005	0.000	0.005	0.005	0.000	-0.005	0.039	3.955	3.013	3.018	3.018	3.032	3.027	3.027
0.000	0.000	0.005	-0.005	0.000	0.000	0.039	3.921	3.008	3.013	3.013	3.032	3.027	3.032
-0.005	0.005	0.005	0.005	0.005	0.005	0.039	3.945	3.008	3.018	3.013	3.032	3.032	3.032
-0.020	-0.015	0.010	0.005	0.005	0.000	0.039	3.940	3.003	3.003	3.013	3.032	3.027	3.027
0.005	-0.010	0.005	0.005	0.005	0.000	0.039	3.940	3.013	3.008	3.008	3.027	3.027	3.027
-0.005	0.000	0.005	0.005	0.010	0.010	0.039	3.965	3.008	3.008	3.008	3.027	3.027	3.032
-0.010	-0.005	0.010	0.000	0.010	0.000	0.039	3.931	3.008	3.013	3.008	3.027	3.027	3.027
-0.005	0.005	-0.005	0.005	0.000	-0.010	0.039	3.955	3.013	3.013	3.008	3.027	3.022	3.027
0.010	0.005	0.000	0.000	0.000	0.010	0.039	3.921	3.013	3.013	3.008	3.027	3.022	3.027
0.010	-0.005	0.000	0.000	-0.010	0.005	0.039	3.970	3.013	3.008	3.008	3.027	3.022	3.027
0.005	0.000	0.000	0.000	0.000	0.015	0.039	3.965	3.013	3.013	3.008	3.027	3.022	3.027
0.005	-0.010	-0.005	-0.005	0.015	0.015	0.039	3.975	3.018	3.008	3.003	3.027	3.027	3.027
0.010	-0.010	-0.005	0.000	0.005	0.005	0.039	3.970	3.018	3.008	3.003	3.022	3.022	3.022
0.010	-0.005	-0.005	0.000	0.010	0.005	0.039	3.975	3.013	3.013	3.003	3.022	3.022	3.022
0.000	-0.005	0.000	0.005	0.000	0.000	0.039	3.994	3.013	3.013	3.008	3.022	3.018	3.022
0.000	0.000	-0.005	0.000	0.000	-0.024	0.039	3.999	3.022	3.013	3.008	3.022	3.018	3.013
-0.005	0.010	0.005	0.000	0.010	0.010	0.034	3.994	3.022	3.018	3.013	3.027	3.022	3.027
0.000	0.005	0.000	0.005	0.010	-0.010	0.039	3.975	3.018	3.018	3.013	3.027	3.022	3.022
0.000	0.010	0.000	0.005	0.010	0.005	0.039	3.979	3.022	3.018	3.013	3.027	3.022	3.022
-0.005	0.010	0.005	0.005	0.000	-0.005	0.039	4.004	3.022	3.018	3.013	3.032	3.018	3.018
-0.005	0.024	0.005	0.005	0.000	0.005	0.039	3.965	3.018	3.022	3.018	3.032	3.022	3.027
-0.005	0.020	0.005	0.000	0.000	-0.005	0.039	3.979	3.018	3.018	3.018	3.032	3.022	3.022
-0.010	-0.005	0.005	0.005	0.015	0.000	0.039	3.975	3.018	3.008	3.013	3.032	3.032	3.027
-0.005	0.015	0.005	0.000	0.029	0.005	0.039	3.975	3.022	3.022	3.013	3.032	3.032	3.027
0.000	0.010	0.005	0.005	0.005	0.005	0.039	3.999	3.027	3.018	3.013	3.032	3.027	3.027
0.005	0.000	0.000	0.005	0.005	0.005	0.039	3.994	3.027	3.018	3.013	3.032	3.027	3.027
0.005	0.000	0.000	0.000	0.000	-0.005	0.034	3.994	3.027	3.018	3.013	3.032	3.022	3.027
0.005	-0.005	-0.005	0.005	-0.010	0.015	0.039	3.979	3.022	3.018	3.013	3.032	3.022	3.032
0.005	-0.010	-0.005	0.005	-0.039	0.005	0.039	3.989	3.022	3.018	3.013	3.032	3.013	3.022
0.005	-0.010	0.000	0.000	-0.044	0.010	0.039	3.970	3.018	3.013	3.013	3.032	3.018	3.022
0.010	-0.005	0.000	0.000	-0.024	0.005	0.039	3.999	3.022	3.018	3.013	3.032	3.027	3.022
0.000	-0.005	-0.005	0.000	0.020	0.000	0.039	3.979	3.018	3.018	3.013	3.032	3.037	3.027
-0.005	0.000	0.000	0.005	0.039	0.010	0.039	3.950	3.013	3.018	3.018	3.032	3.037	3.032
0.000	0.005	0.000	0.000	0.010	0.010	0.039	3.950	3.013	3.013	3.013	3.032	3.027	3.032
0.005	-0.020	0.010	0.005	-0.015	0.015	0.039	3.970	3.013	3.008	3.013	3.032	3.018	3.027
-0.005	-0.010	0.005	0.000	-0.020	0.000	0.039	4.072	3.027	3.013	3.013	3.032	3.022	3.027
-0.010	0.005	0.010	0.000	-0.015	0.010	0.039	3.950	3.018	3.022	3.018	3.032	3.022	3.032
-0.005	0.020	0.010	0.005	-0.015	-0.005	0.039	3.931	3.013	3.022	3.018	3.032	3.027	3.022
0.000	0.010	0.005	0.000	-0.010	0.010	0.039	4.023	3.022	3.018	3.013	3.032	3.032	3.027
0.000	0.000	0.005	0.000	-0.005	0.000	0.039	3.950	3.018	3.013	3.013	3.032	3.032	3.027
-0.005	0.005	0.000	0.005	0.000	-0.020	0.039	3.945	3.013	3.018	3.013	3.032	3.032	3.022
0.000	0.000	0.000	0.000	-0.034	-0.024	0.039	3.921	3.013	3.008	3.013	3.032	3.018	3.022
0.005	-0.005	0.005	0.000	-0.010	0.000	0.039	4.009	3.018	3.013	3.008	3.027	3.027	3.032
0.005	0.010	0.000	0.000	0.034	0.015	0.039	3.936	3.022	3.018	3.013	3.027	3.042	3.037
0.000	0.015	-0.005	0.000	0.044	0.005	0.039	3.940	3.018	3.018	3.013	3.027	3.037	3.037
0.010	-0.005	-0.005	0.000	0.059	0.000	0.039	3.950	3.013	3.013	3.008	3.027	3.037	3.037
0.005	0.005	-0.010	0.000	0.039	-0.005	0.039	3.911	3.008	3.018	3.008	3.027	3.027	3.032
0.010	-0.005	-0.005	0.005	0.020	-0.005	0.039	3.994	3.013	3.008	3.008	3.027	3.022	3.027
0.005	-0.005	-0.005	0.000	0.000	-0.005	0.039	3.926	3.008	3.008	3.008	3.027	3.018	3.027
0.005	-0.005	0.005	0.000	-0.005	-0.015	0.039	3.970	3.013	3.008	3.008	3.027	3.018	3.022
0.005	0.005	0.000	0.005	0.010	-0.020	0.039	3.975	3.013	3.008	3.008	3.027	3.022	3.022
0.010	0.000	0.000	0.000	0.010	-0.005	0.034	3.984	3.018	3.008	3.008	3.027	3.022	3.022
-0.005	0.015	0.000	0.005	0.000	0.010	0.034	3.970	3.013	3.018	3.008	3.027	3.022	3.027
0.000	0.010	0.010	0.000	-0.005	0.005	0.039	3.960	3.013	3.013	3.013	3.027	3.018	3.027
0.000	0.000	0.005	0.000	-0.005	0.010	0.039	3.994	3.018	3.013	3.008	3.027	3.022	3.027
0.000	0.010	0.005	0.000	-0.010	0.005	0.039	3.970	3.018	3.013	3.008	3.027	3.018	3.022
0.000	0.010	0.005	0.000	-0.029	-0.010	0.039	3.994	3.018	3.018	3.013	3.027	3.018	3.018
0.005	0.005	0.000	0.005	-0.039	0.000	0.039	3.965	3.018	3.018	3.013	3.027	3.013	3.022
0.000	0.000	0.000	0.000	-0.024	0.000	0.039	3.999	3.018	3.013	3.013	3.027	3.022	3.018
0.005	0.000	0.000	0.005	-0.015	0.005	0.039	3.989	3.022	3.013	3.013	3.027	3.027	3.022
0.000	-0.015	-0.005	0.000	0.015	0.000	0.039	3.984	3.022	3.013	3.008	3.027	3.032	3.022
0.015	-0.010	-0.005	0.000	0.034	0.010	0.039	3.975	3.022	3.018	3.013	3.027	3.037	3.032
0.010	-0.010	-0.005	0.005	0.054	0.015	0.039	3.975	3.018	3.013	3.008	3.032	3.037	3.037
0.000	-0.020	-0.005	0.005	0.054	0.010	0.039	3.994	3.013	3.013	3.013	3.027	3.032	3.032
0.000	-0.015	0.000	0.005	0.010	0.020	0.039	3.970	3.018	3.018	3.013	3.027	3.018	3.032
0.010	-0.005	0.000	0.005	-0.073	0.005	0.034	3.960	3.013	3.018	3.013	3.027	2.998	3.022
0.000	0.000	0.000	0.000	-0.024	0.000	0.039	4.004	3.018	3.018	3.013	3.027	3.022	3.018
0.000	0.005	0.005	0.000	0.049	0.015	0.039	3.975	3.018	3.018	3.013	3.032	3.042	3.027
-0.005	0.020	0.005	0.005	0.059	-0.005	0.039	3.999	3.013	3.018	3.018	3.032	3.037	3.027
-0.010	0.005	0.010	0.005	0.029	0.000	0.039	3.965	3.013	3.013	3.018	3.032	3.027	3.027
-0.005	0.005	0.005	0.000	0.000	-0.010	0.039	3.999	3.018	3.018	3.013	3.032	3.018	3.027
0.000	0.005	0.005	0.005	0.000	0.000	0.039	3.975	3.018	3.018	3.013	3.032	3.022	3.027
-0.010	0.015	0.000	0.000	0.039	-0.020	0.039	3.970	3.018	3.018	3.013	3.032	3.032	3.022
-0.005	0.005	0.000	0.000	0.020	0.010	0.039	3.955	3.013	3.013	3.013	3.032	3.027	3.032
-0.005	0.005	0.000	0.000	-0.015	0.005	0.039	3.960	3.013	3.013	3.013	3.027	3.018	3.027
0.000	0.000	-0.005	0.000	-0.029	0.000	0.039	3.926	3.013	3.013	3.008	3.027	3.018	3.022
0.010	-0.015	0.000	0.000	-0.015	0.005	0.034	3.950	3.013	3.008	3.008	3.027	3.022	3.022
0.010	-0.015	-0.005	-0.005	-0.015	-0.005	0.039	3.926	3.008	3.008	3.003	3.027	3.022	3.022
0.005	-0.020	-0.005	0.000	-0.010	-0.010	0.039	4.028	3.018	3.008	3.003	3.022	3.022	3.022
0.005	-0.005	-0.005	0.000	-0.010	-0.005	0.039	3.936	3.013	3.008	3.008	3.027	3.022	3.022
0.005	-0.005	0.000	0.000	-0.010	-0.010	0.039	3.916	3.013	3.013	3.008	3.022	3.022	3.018
0.010	-0.005	0.005	0.000	-0.015	0.010	0.039	4.014	3.018	3.013	3.008	3.022	3.022	3.027
0.005	0.000	0.005	0.000	-0.015	0.005	0.039	3.945	3.013	3.013	3.008	3.027	3.018	3.022
0.005	0.000	0.010	0.000	0.000	0.005	0.039	3.950	3.013	3.013	3.013	3.027	3.027	3.027
0.005	0.005	0.005	0.005	-0.005	-0.015	0.039	4.038	3.018	3.018	3.008	3.027	3.022	3.018
-0.005	0.015	0.010	0.000	0.000	0.010	0.039	3.960	3.013	3.018	3.013	3.027	3.027	3.027
-0.005	0.024	0.005	0.010	0.005	0.005	0.039	4.009	3.003	3.013	3.013	3.032	3.027	3.027
-0.005	0.010	0.010	0.000	-0.010	0.020	0.039	3.979	3.008	3.008	3.013	3.027	3.022	3.032
0.000	0.010	0.005	0.010	-0.010	0.010	0.034	4.014	3.018	3.008	3.008	3.032	3.022	3.027
-0.015	0.015	0.005	0.005	0.005	0.000	0.034	3.975	3.013	3.008	3.008	3.027	3.027	3.027
-0.005	0.010	0.000	0.005	-0.015	-0.005	0.039	3.970	3.013	3.008	3.008	3.027	3.022	3.022
0.000	0.005	0.000	0.000	-0.029	-0.010	0.039	3.994	3.018	3.013	3.008	3.022	3.013	3.022
0.005	0.015	0.000	-0.005	-0.005	-0.010	0.039	3.960	3.018	3.013	3.008	3.022	3.022	3.022
0.000	0.015	0.000	-0.005	-0.005	0.005	0.039	3.965	3.013	3.013	3.008	3.027	3.022	3.027
0.005	-0.005	0.000	-0.005	-0.029	0.005	0.039	3.960	3.013	3.008	3.008	3.022	3.013	3.022
0.010	-0.005	-0.005	-0.005	-0.020	0.005	0.034	3.955	3.018	3.013	3.008	3.022	3.018	3.022
0.010	-0.005	0.000	0.000	0.000	0.000	0.039	3.994	3.018	3.008	3.008	3.022	3.027	3.022
0.015	-0.005	0.000	0.005	0.010	-0.005	0.039	3.970	3.018	3.013	3.008	3.027	3.027	3.027
0.015	-0.005	-0.005	0.010	0.015	0.010	0.039	3.999	3.018	3.013	3.008	3.027	3.027	3.027
0.000	-0.005	0.000	0.000	0.020	0.005	0.039	4.004	3.018	3.013	3.008	3.027	3.027	3.027
0.000	0.005	0.005	0.005	0.034	-0.024	0.039	3.984	3.018	3.018	3.013	3.027	3.027	3.022
-0.005	0.000	0.000	0.000	0.044	0.000	0.039	3.984	3.018	3.013	3.008	3.027	3.027	3.027
0.000	0.010	0.005	0.005	0.039	0.000	0.039	3.965	3.018	3.018	3.013	3.027	3.027	3.027
-0.005	0.005	0.010	0.000	0.039	0.000	0.039	3.999	3.018	3.018	3.013	3.032	3.027	3.027
-0.005	0.010	0.005	0.000	0.039	-0.005	0.039	3.975	3.022	3.018	3.013	3.032	3.027	3.027
-0.010	0.005	0.005	0.005	0.015	-0.005	0.039	3.965	3.018	3.013	3.013	3.032	3.022	3.027
0.005	0.005	0.010	0.000	-0.005	0.005	0.039	3.994	3.022	3.022	3.013	3.027	3.018	3.027
-0.005	0.005	0.010	0.005	0.005	0.010	0.039	3.994	3.018	3.018	3.013	3.032	3.022	3.027
0.005	0.005	0.000	0.005	-0.005	0.010	0.039	3.979	3.022	3.018	3.013	3.027	3.022	3.027
0.000	-0.005	-0.005	0.005	-0.034	0.010	0.039	3.984	3.022	3.018	3.008	3.027	3.013	3.022
0.010	-0.020	-0.005	0.005	-0.073	0.010	0.039	3.960	3.018	3.013	3.013	3.027	3.003	3.018
0.005	-0.015	-0.005	0.005	-0.112	0.010	0.039	3.979	3.013	3.013	3.008	3.027	2.998	3.013
0.000	-0.005	-0.005	0.000	-0.088	0.015	0.039	3.955	3.013	3.013	3.008	3.027	3.013	3.013
0.005	-0.005	-0.005	0.000	0.000	0.005	0.039	3.955	3.008	3.008	3.008	3.027	3.042	3.022
0.015	-0.005	0.000	0.000	0.083	0.005	0.039	3.970	3.013	3.013	3.013	3.032	3.057	3.032
0.005	0.005	-0.005	0.000	0.073	0.010	0.039	4.072	3.022	3.013	3.013	3.027	3.047	3.042
0.000	0.000	-0.005	0.000	0.059	0.005	0.039	3.960	3.022	3.018	3.013	3.027	3.037	3.037
-0.005	0.005	0.000	0.005	0.063	0.015	0.039	3.926	3.013	3.013	3.013	3.032	3.037	3.037
-0.005	0.010	0.005	0.000	0.029	0.000	0.039	4.033	3.022	3.018	3.013	3.027	3.022	3.027
0.000	0.020	0.005	0.005	0.005	0.005	0.039	3.960	3.027	3.022	3.018	3.032	3.018	3.027
-0.005	0.015	0.005	0.000	0.000	-0.005	0.039	3.950	3.022	3.022	3.018	3.032	3.022	3.022
0.010	0.000	0.010	0.000	0.005	-0.010	0.039	4.009	3.022	3.018	3.018	3.032	3.022	3.022
-0.005	0.010	0.005	0.005	0.005	-0.015	0.039	4.019	3.027	3.022	3.018	3.032	3.022	3.022
-0.005	0.010	0.000	0.005	-0.010	-0.005	0.039	3.965	3.018	3.018	3.018	3.032	3.022	3.027
-0.005	0.000	0.005	0.005	-0.005	-0.005	0.039	3.950	3.018	3.018	3.018	3.032	3.027	3.027
-0.005	-0.010	0.000	-0.005	0.010	-0.005	0.039	3.960	3.018	3.013	3.013	3.032	3.032	3.027
0.005	-0.020	0.000	0.000	0.015	0.005	0.039	3.916	3.008	3.013	3.008	3.032	3.032	3.027
-0.005	-0.010	-0.005	0.000	0.005	-0.005	0.039	3.994	3.008	3.013	3.008	3.027	3.027	3.027
0.005	-0.005	-0.010	0.000	0.015	-0.005	0.039	3.906	3.008	3.008	3.008	3.027	3.027	3.027
0.000	-0.015	-0.005	0.000	0.000	0.015	0.039	3.960	3.008	3.008	3.008	3.027	3.022	3.032
0.000	-0.005	-0.010	0.005	-0.020	-0.005	0.039	3.965	3.008	3.008	3.003	3.027	3.018	3.022
0.005	-0.010	0.000	0.000	-0.049	0.005	0.039	3.965	3.008	3.008	3.008	3.027	3.013	3.018
-0.005	0.005	0.005	0.005	-0.015	0.010	0.039	3.975	3.013	3.013	3.008	3.027	3.022	3.022
0.000	0.010	0.000	0.005	-0.015	0.010	0.039	3.979	3.018	3.013	3.008	3.027	3.022	3.022
0.000	0.005	0.005	0.005	-0.024	0.000	0.039	3.999	3.018	3.013	3.013	3.027	3.018	3.022
0.000	0.015	0.005	0.000	-0.024	-0.010	0.039	3.965	3.018	3.018	3.013	3.027	3.018	3.018
0.005	0.010	0.000	0.000	-0.010	0.005	0.039	3.999	3.022	3.018	3.013	3.027	3.027	3.022
0.005	0.010	0.005	0.000	0.015	0.005	0.039	3.979	3.022	3.018	3.013	3.032	3.032	3.027
0.005	0.010	0.005	0.005	0.049	-0.020	0.039	3.999	3.022	3.018	3.013	3.032	3.042	3.022
0.000	-0.005	0.010	0.000	0.039	0.000	0.034	3.970	3.022	3.013	3.013	3.027	3.032	3.032
-0.010	0.000	0.005	0.000	0.034	0.000	0.039	3.994	3.022	3.018	3.013	3.027	3.027	3.032
-0.005	-0.010	0.005	0.000	0.044	-0.005	0.039	3.979	3.022	3.018	3.013	3.027	3.032	3.032
-0.005	-0.020	0.000	0.005	0.044	-0.015	0.039	3.965	3.018	3.013	3.008	3.032	3.032	3.032
-0.010	-0.020	0.000	0.005	0.044	0.005	0.039	3.994	3.018	3.013	3.008	3.027	3.027	3.032
-0.005	-0.010	-0.005	0.000	0.015	-0.005	0.039	3.989	3.027	3.022	3.008	3.027	3.018	3.027
-0.005	0.000	-0.005	0.000	-0.010	0.000	0.039	3.960	3.022	3.022	3.013	3.027	3.013	3.022
0.005	0.010	-0.010	0.000	-0.034	0.005	0.039	3.999	3.027	3.027	3.013	3.027	3.008	3.022
0.005	0.000	-0.005	0.005	-0.063	0.005	0.039	3.989	3.022	3.022	3.018	3.027	3.008	3.018
0.000	0.010	0.000	0.000	-0.063	0.010	0.039	3.960	3.018	3.022	3.018	3.032	3.013	3.018
0.005	0.005	0.000	0.000	-0.049	-0.005	0.039	3.965	3.018	3.018	3.018	3.032	3.018	3.013
0.005	0.020	0.005	0.000	-0.044	0.000	0.039	3.975	3.018	3.022	3.018	3.032	3.022	3.018
0.010	0.015	0.005	0.000	-0.015	0.000	0.039	3.989	3.018	3.018	3.022	3.037	3.032	3.027
0.010	0.010	0.005	0.005	-0.020	-0.024	0.034	3.955	3.013	3.013	3.018	3.032	3.027	3.018
0.000	0.005	0.005	0.000	-0.059	-0.005	0.039	3.965	3.008	3.013	3.013	3.032	3.022	3.027
-0.005	0.005	0.005	-0.005	-0.054	0.005	0.039	3.970	3.013	3.013	3.013	3.032	3.022	3.027
0.005	0.015	0.000	0.000	-0.044	-0.005	0.039	4.072	3.027	3.018	3.013	3.032	3.027	3.027
0.010	-0.005	0.000	0.000	0.010	0.005	0.034	3.945	3.022	3.013	3.013	3.032	3.047	3.037
0.005	0.000	0.005	0.005	0.063	-0.024	0.039	3.950	3.013	3.013	3.013	3.032	3.052	3.037
0.000	-0.005	0.015	0.005	0.068	0.010	0.039	4.023	3.022	3.013	3.013	3.037	3.052	3.047
-0.005	-0.020	0.010	0.005	0.088	0.000	0.039	4.038	3.027	3.008	3.013	3.032	3.047	3.047
-0.005	-0.015	0.000	0.000	0.015	0.020	0.039	3.945	3.022	3.018	3.008	3.027	3.022	3.047
0.000	-0.015	0.000	0.005	-0.005	0.005	0.039	4.014	3.027	3.018	3.008	3.027	3.018	3.037
0.010	-0.005	-0.005	0.005	0.107	0.034	0.039	3.931	3.022	3.022	3.013	3.032	3.052	3.047
0.005	-0.010	-0.005	0.000	0.146	0.020	0.039	3.960	3.022	3.018	3.013	3.032	3.052	3.047
0.015	0.005	-0.005	0.000	0.093	0.010	0.039	3.945	3.022	3.022	3.013	3.027	3.027	3.037
0.000	0.005	-0.005	0.000	0.059	0.005	0.039	3.960	3.018	3.022	3.018	3.027	3.018	3.032
0.005	-0.005	-0.005	-0.005	0.015	-0.010	0.039	3.945	3.018	3.018	3.013	3.027	3.008	3.018
0.000	-0.010	0.005	0.005	-0.029	0.000	0.039	3.960	3.013	3.018	3.018	3.027	3.003	3.018
0.000	0.005	0.000	0.000	-0.068	-0.005	0.039	3.916	3.008	3.018	3.013	3.027	2.998	3.013
-0.010	0.010	0.010	0.000	-0.059	0.000	0.039	3.979	3.008	3.018	3.018	3.032	3.008	3.013
-0.010	0.005	0.010	0.000	-0.024	0.005	0.039	3.970	3.013	3.008	3.013	3.037	3.022	3.018
-0.005	0.015	0.015	0.005	0.015	0.020	0.039	3.950	3.008	3.013	3.013	3.037	3.037	3.027
-0.010	0.005	0.005	0.000	-0.005	-0.005	0.039	3.975	3.013	3.008	3.008	3.032	3.027	3.022
-0.010	0.000	0.005	0.000	-0.005	0.010	0.039	3.970	3.013	3.013	3.008	3.032	3.027	3.027
-0.010	0.000	-0.005	0.005	-0.034	-0.015	0.039	3.989	3.018	3.013	3.008	3.027	3.018	3.018
0.000	-0.005	-0.005	0.005	-0.049	0.010	0.039	3.999	3.018	3.013	3.008	3.027	3.013	3.027
0.000	0.000	0.000	-0.005	-0.049	-0.005	0.039	3.989	3.022	3.013	3.008	3.027	3.018	3.018
0.000	-0.010	0.005	-0.005	-0.049	-0.034	0.039	3.965	3.018	3.013	3.008	3.022	3.018	3.013
0.000	0.000	-0.005	-0.005	-0.039	-0.020	0.039	3.989	3.013	3.013	3.008	3.027	3.022	3.018
0.000	-0.005	0.000	0.000	-0.059	-0.020	0.039	3.999	3.018	3.013	3.008	3.027	3.018	3.018
0.000	0.005	0.000	0.010	-0.039	-0.005	0.039	3.975	3.013	3.018	3.013	3.027	3.027	3.027
0.000	0.010	0.000	0.005	-0.015	0.010	0.039	3.989	3.018	3.018	3.013	3.027	3.032	3.032
0.000	0.015	-0.005	0.000	0.000	0.020	0.039	3.979	3.022	3.018	3.013	3.027	3.032	3.037
-0.005	0.015	0.000	0.000	0.000	0.010	0.039	3.965	3.018	3.018	3.013	3.027	3.032	3.032
-0.005	0.000	0.005	0.005	-0.005	0.015	0.039	3.975	3.018	3.013	3.013	3.027	3.027	3.032
-0.005	0.010	0.005	0.005	0.024	-0.005	0.039	3.970	3.018	3.018	3.013	3.032	3.032	3.032
-0.005	0.015	0.005	0.005	0.005	0.000	0.039	3.984	3.022	3.018	3.013	3.032	3.027	3.032
-0.005	0.010	0.000	0.000	0.010	0.000	0.039	3.965	3.018	3.018	3.013	3.027	3.027	3.027
0.000	0.015	0.000	0.005	0.024	0.000	0.039	3.975	3.018	3.018	3.013	3.032	3.032	3.032
-0.005	0.010	0.005	0.005	0.010	0.015	0.039	4.004	3.022	3.018	3.018	3.032	3.027	3.032
-0.005	0.005	0.010	0.010	-0.005	0.005	0.039	3.989	3.027	3.018	3.018	3.032	3.027	3.027
0.000	0.000	0.005	0.010	-0.005	0.000	0.039	3.979	3.022	3.018	3.013	3.032	3.027	3.027
0.000	-0.005	0.000	0.000	0.005	0.000	0.034	3.965	3.018	3.013	3.013	3.032	3.027	3.027
-0.005	-0.015	0.000	0.000	-0.005	0.000	0.039	3.950	3.013	3.013	3.008	3.027	3.027	3.022
0.000	-0.010	0.000	-0.005	0.005	-0.015	0.034	3.950	3.013	3.013	3.008	3.027	3.027	3.022
0.005	-0.010	-0.005	-0.010	0.000	0.000	0.034	4.067	3.027	3.013	3.008	3.022	3.022	3.027
0.005	-0.010	-0.005	-0.005	0.010	0.005	0.039	3.950	3.018	3.018	3.008	3.027	3.027	3.027
0.005	-0.005	0.000	0.015	0.010	0.000	0.039	4.028	3.027	3.018	3.013	3.032	3.027	3.027
0.005	0.000	0.000	0.015	0.010	0.005	0.039	4.004	3.027	3.022	3.013	3.032	3.027	3.027
0.015	0.010	-0.005	0.000	0.015	0.015	0.039	3.921	3.018	3.027	3.018	3.027	3.027	3.032
0.005	0.000	0.000	0.005	0.020	-0.010	0.039	4.028	3.022	3.022	3.022	3.032	3.027	3.027
0.000	0.005	0.000	0.000	0.015	0.020	0.039	3.916	3.013	3.018	3.018	3.032	3.027	3.032
0.000	0.005	0.005	-0.015	0.005	0.015	0.039	4.038	3.022	3.022	3.018	3.027	3.022	3.032
0.000	0.010	0.005	-0.010	-0.010	0.010	0.039	3.970	3.022	3.022	3.018	3.032	3.022	3.027
0.005	0.010	0.005	0.000	-0.010	0.005	0.039	3.945	3.018	3.018	3.018	3.037	3.022	3.027
-0.005	0.010	0.010	0.005	0.005	0.000	0.039	3.960	3.013	3.018	3.018	3.037	3.032	3.027
-0.010	-0.005	0.010	0.010	-0.005	0.015	0.039	3.955	3.013	3.013	3.013	3.037	3.032	3.027
0.000	0.000	0.000	0.015	-0.010	0.005	0.034	3.975	3.018	3.013	3.013	3.037	3.027	3.027
0.000	0.000	0.000	0.005	0.005	0.000	0.039	3.916	3.008	3.013	3.013	3.037	3.032	3.027
0.010	0.000	0.000	0.000	-0.010	0.000	0.039	3.970	3.013	3.018	3.013	3.027	3.027	3.027
0.005	-0.010	-0.005	0.000	-0.020	-0.010	0.039	3.965	3.013	3.008	3.008	3.027	3.022	3.022
0.000	-0.034	-0.005	-0.005	-0.005	0.000	0.039	3.994	3.018	2.998	3.003	3.027	3.027	3.027
0.010	-0.020	0.000	0.000	0.029	0.000	0.039	3.970	3.018	3.013	3.003	3.027	3.037	3.032
0.010	-0.010	-0.005	0.005	0.010	-0.005	0.039	3.970	3.018	3.013	3.003	3.027	3.022	3.032
0.005	-0.015	-0.005	0.005	0.005	-0.015	0.039	3.999	3.022	3.013	3.008	3.022	3.022	3.022
0.010	-0.005	0.000	0.005	0.044	0.010	0.039	3.965	3.022	3.018	3.013	3.027	3.032	3.032
0.010	0.015	0.000	0.000	0.049	-0.005	0.039	3.989	3.018	3.022	3.013	3.022	3.027	3.032
0.005	0.034	0.005	-0.005	0.020	0.020	0.039	3.989	3.022	3.027	3.018	3.027	3.022	3.037
-0.005	0.034	0.015	-0.005	0.015	0.010	0.039	3.994	3.022	3.027	3.022	3.032	3.022	3.027
-0.005	0.029	0.015	-0.005	0.000	0.010	0.039	3.960	3.013	3.018	3.022	3.032	3.018	3.027
-0.005	0.024	0.010	0.005	-0.005	0.000	0.039	3.970	3.018	3.018	3.018	3.037	3.022	3.022
-0.010	0.015	0.010	0.010	0.005	0.005	0.034	3.989	3.018	3.013	3.018	3.037	3.027	3.022
-0.010	0.010	0.000	0.000	0.005	0.005	0.039	3.965	3.018	3.013	3.013	3.032	3.027	3.032
-0.005	0.015	0.005	0.000	-0.005	0.010	0.039	3.965	3.018	3.013	3.013	3.032	3.027	3.027
0.000	0.005	0.010	0.005	-0.005	0.010	0.039	3.999	3.022	3.013	3.013	3.032	3.027	3.027
0.000	0.000	-0.005	0.005	-0.010	0.010	0.039	3.965	3.018	3.008	3.008	3.032	3.022	3.027
0.000	-0.029	-0.005	0.005	-0.015	-0.020	0.039	3.989	3.018	3.008	3.008	3.027	3.022	3.018
-0.005	-0.024	0.005	0.000	-0.015	0.010	0.039	4.004	3.022	3.013	3.008	3.027	3.022	3.027
0.005	-0.015	-0.005	0.000	-0.010	0.015	0.039	3.984	3.022	3.018	3.008	3.027	3.022	3.027
0.015	-0.010	0.000	-0.005	-0.005	0.010	0.039	3.999	3.027	3.022	3.013	3.027	3.027	3.027
0.015	-0.015	0.000	0.000	0.005	0.010	0.039	3.970	3.022	3.018	3.013	3.027	3.027	3.032
0.005	-0.005	0.000	0.010	0.005	0.015	0.039	3.979	3.018	3.018	3.013	3.032	3.027	3.032
0.015	-0.005	-0.005	0.010	0.005	0.005	0.039	3.936	3.013	3.018	3.013	3.032	3.027	3.027
0.005	0.010	0.005	0.010	-0.020	-0.005	0.039	3.955	3.013	3.022	3.018	3.027	3.018	3.022
0.005	0.029	0.005	0.000	-0.054	-0.015	0.039	3.960	3.013	3.022	3.018	3.027	3.013	3.018
0.005	0.024	0.005	0.005	-0.029	-0.020	0.039	4.072	3.027	3.022	3.018	3.037	3.022	3.018
0.000	0.010	0.005	0.010	-0.015	-0.005	0.039	3.960	3.018	3.018	3.018	3.037	3.032	3.027
0.000	0.005	0.005	0.005	-0.015	-0.005	0.034	4.028	3.022	3.018	3.018	3.032	3.027	3.027
-0.010	0.020	0.010	0.005	-0.044	0.024	0.039	4.028	3.022	3.022	3.018	3.032	3.022	3.032
0.000	0.015	0.010	0.005	-0.068	0.010	0.039	4.009	3.027	3.018	3.018	3.032	3.018	3.027
0.010	0.005	0.005	0.005	-0.078	0.020	0.039	3.965	3.022	3.018	3.018	3.032	3.018	3.027
0.010	-0.005	-0.005	0.000	-0.083	0.015	0.039	3.916	3.008	3.013	3.013	3.027	3.022	3.027
0.010	0.000	-0.005	0.000	-0.034	0.015	0.034	4.033	3.018	3.013	3.013	3.032	3.032	3.027
0.000	-0.005	-0.010	0.000	0.029	0.020	0.039	3.965	3.018	3.013	3.008	3.032	3.052	3.037
0.010	-0.015	-0.005	0.000	0.078	0.000	0.039	4.004	3.013	3.008	3.008	3.032	3.057	3.042
0.010	-0.020	-0.005	0.000	0.146	0.000	0.039	3.965	3.013	3.013	3.008	3.032	3.071	3.052
0.005	-0.010	-0.005	-0.005	0.225	-0.005	0.039	3.940	3.018	3.013	3.008	3.032	3.076	3.057
0.000	-0.020	-0.010	-0.005	0.166	-0.020	0.039	3.960	3.013	3.008	3.008	3.027	3.047	3.047
-0.005	-0.010	-0.005	0.000	0.132	-0.024	0.039	3.921	3.013	3.008	3.008	3.027	3.027	3.042
-0.005	-0.005	0.005	0.000	0.054	-0.024	0.039	3.965	3.008	3.013	3.008	3.027	3.008	3.027
-0.005	0.005	0.010	0.000	0.015	-0.024	0.039	3.970	3.013	3.013	3.008	3.027	3.003	3.022
-0.010	0.015	0.000	0.000	0.005	-0.010	0.039	3.994	3.018	3.018	3.013	3.027	3.003	3.022
-0.010	0.000	0.010	0.000	-0.034	0.010	0.039	3.975	3.018	3.013	3.013	3.027	3.003	3.022
-0.010	-0.020	0.010	0.000	-0.024	0.015	0.039	3.965	3.008	3.008	3.008	3.027	3.013	3.018
-0.010	0.000	0.005	0.000	0.029	-0.015	0.039	3.989	3.013	3.013	3.008	3.027	3.027	3.018
-0.010	0.000	0.005	-0.005	0.024	0.010	0.039	3.994	3.018	3.013	3.008	3.027	3.022	3.022
-0.005	-0.005	0.000	0.005	-0.005	0.000	0.039	3.999	3.022	3.013	3.008	3.027	3.018	3.022
-0.005	-0.005	0.000	0.005	-0.024	-0.010	0.039	3.970	3.018	3.018	3.013	3.027	3.013	3.013
0.010	-0.005	0.000	0.000	-0.015	-0.005	0.039	3.994	3.027	3.018	3.008	3.027	3.018	3.018
0.000	-0.010	0.000	0.000	-0.005	-0.010	0.039	3.965	3.022	3.018	3.013	3.027	3.022	3.018
0.010	-0.010	-0.005	0.000	0.005	-0.020	0.039	3.979	3.018	3.013	3.008	3.027	3.027	3.018
0.005	0.005	-0.010	0.000	0.005	-0.005	0.039	3.979	3.018	3.022	3.013	3.027	3.022	3.022
0.010	0.005	-0.010	0.005	0.024	-0.005	0.039	3.979	3.018	3.022	3.013	3.027	3.032	3.022
0.005	0.005	0.000	0.005	0.024	-0.015	0.039	3.975	3.018	3.018	3.013	3.027	3.027	3.027
0.010	0.000	0.000	0.000	0.005	-0.020	0.039	3.994	3.018	3.018	3.013	3.027	3.018	3.022
0.020	0.005	-0.005	0.000	-0.039	-0.005	0.039	3.970	3.018	3.018	3.013	3.032	3.013	3.022
0.005	0.000	0.000	0.000	-0.044	0.015	0.039	3.999	3.018	3.013	3.013	3.027	3.013	3.022
0.000	-0.005	0.000	0.005	-0.054	0.005	0.039	3.989	3.018	3.013	3.013	3.032	3.013	3.022
-0.005	0.000	0.000	0.005	-0.063	0.015	0.039	3.999	3.018	3.018	3.013	3.032	3.018	3.018
0.000	0.005	0.000	0.010	-0.088	-0.024	0.039	3.970	3.018	3.018	3.013	3.032	3.013	3.008
0.000	0.015	0.015	0.005	-0.112	-0.015	0.039	3.965	3.018	3.022	3.018	3.032	3.008	3.013
-0.010	0.020	0.005	0.010	-0.112	-0.010	0.039	3.984	3.013	3.018	3.018	3.032	3.013	3.018
-0.005	0.024	0.005	0.000	-0.083	0.005	0.039	3.950	3.013	3.018	3.013	3.032	3.032	3.022
0.000	0.020	0.000	0.000	0.044	-0.005	0.039	3.950	3.008	3.018	3.013	3.037	3.066	3.032
0.000	0.010	0.000	0.000	0.132	-0.010	0.039	3.955	3.013	3.008	3.013	3.037	3.076	3.047
0.000	0.000	0.000	0.005	0.083	0.020	0.039	4.067	3.027	3.008	3.013	3.032	3.047	3.057
0.005	-0.010	0.000	0.005	0.073	0.024	0.039	3.955	3.027	3.013	3.008	3.032	3.042	3.057
0.005	-0.010	-0.005	0.000	0.078	0.034	0.039	4.014	3.027	3.013	3.008	3.032	3.037	3.052
0.010	-0.015	-0.005	-0.005	0.068	0.029	0.039	4.014	3.032	3.018	3.008	3.027	3.032	3.042
0.015	-0.005	0.000	0.000	0.020	0.024	0.034	3.921	3.027	3.022	3.008	3.027	3.018	3.037
0.005	-0.005	0.000	0.000	0.015	0.024	0.039	3.955	3.018	3.022	3.013	3.027	3.018	3.032
0.015	0.000	-0.005	0.000	0.005	0.015	0.039	3.906	3.008	3.022	3.013	3.027	3.018	3.022
0.000	-0.005	0.000	0.000	-0.029	0.015	0.039	4.023	3.013	3.018	3.013	3.027	3.008	3.018
-0.005	0.000	0.005	0.000	-0.039	0.005	0.039	3.979	3.018	3.013	3.018	3.032	3.008	3.018
0.000	0.000	0.000	0.000	-0.039	0.015	0.039	3.936	3.022	3.018	3.013	3.027	3.018	3.018
0.005	0.000	0.000	0.000	-0.039	0.005	0.039	3.960	3.018	3.018	3.018	3.032	3.018	3.018
-0.005	0.015	0.005	0.000	-0.044	-0.005	0.039	4.004	3.022	3.022	3.018	3.032	3.018	3.013
-0.005	0.015	0.005	0.000	-0.034	0.010	0.039	4.004	3.022	3.022	3.013	3.032	3.022	3.022
-0.010	0.005	0.000	0.000	-0.020	0.005	0.039	3.916	3.013	3.018	3.018	3.032	3.032	3.027
-0.005	-0.005	0.010	0.000	-0.015	0.005	0.039	3.965	3.008	3.013	3.018	3.032	3.032	3.027
-0.005	-0.005	0.010	0.000	-0.015	-0.005	0.039	3.965	3.013	3.013	3.013	3.032	3.027	3.027
0.005	0.005	0.005	0.005	-0.020	-0.015	0.039	3.965	3.018	3.018	3.013	3.032	3.027	3.027
0.000	0.005	0.000	0.010	-0.010	0.000	0.039	3.975	3.013	3.013	3.013	3.032	3.032	3.032
0.010	0.000	0.000	0.010	-0.005	0.010	0.039	3.979	3.018	3.013	3.008	3.032	3.032	3.032
0.000	-0.005	-0.005	0.000	0.000	0.010	0.039	3.989	3.018	3.013	3.008	3.027	3.032	3.032
0.005	-0.005	-0.005	0.000	0.005	0.005	0.039	3.965	3.018	3.013	3.008	3.027	3.027	3.032
-0.005	-0.005	-0.005	0.000	0.005	-0.010	0.039	3.984	3.018	3.013	3.008	3.027	3.027	3.022
-0.005	-0.005	-0.005	0.005	0.010	-0.010	0.039	3.994	3.018	3.013	3.008	3.027	3.027	3.027
0.010	-0.005	0.000	0.005	-0.005	0.005	0.039	3.970	3.018	3.013	3.008	3.027	3.022	3.027
0.000	0.000	0.005	0.000	-0.005	0.010	0.039	3.989	3.018	3.018	3.013	3.027	3.022	3.032
-0.005	0.010	0.005	0.005	0.005	0.000	0.034	3.989	3.022	3.022	3.013	3.032	3.022	3.027
0.000	0.000	0.005	0.005	0.010	0.005	0.039	3.994	3.022	3.018	3.013	3.032	3.027	3.032
0.000	0.010	0.005	0.005	0.010	0.005	0.039	3.970	3.022	3.022	3.013	3.032	3.027	3.027
0.000	0.010	0.005	0.005	0.005	0.005	0.039	3.970	3.022	3.022	3.018	3.032	3.027	3.027
0.005	0.010	0.005	0.005	0.010	0.000	0.039	3.994	3.022	3.022	3.018	3.032	3.027	3.027
0.005	0.010	0.005	0.005	0.000	-0.005	0.039	3.960	3.022	3.022	3.018	3.037	3.027	3.027
-0.005	0.005	0.010	0.000	0.010	0.000	0.039	3.989	3.018	3.022	3.018	3.032	3.027	3.032
-0.005	-0.005	0.005	0.000	0.020	-0.010	0.039	3.965	3.018	3.018	3.013	3.032	3.037	3.027
0.000	0.000	0.000	0.005	0.015	-0.005	0.039	3.955	3.018	3.018	3.013	3.032	3.032	3.027
0.000	-0.010	0.000	0.005	0.005	0.000	0.039	3.999	3.022	3.018	3.013	3.032	3.027	3.032
0.005	-0.005	0.000	0.000	0.005	-0.010	0.039	3.994	3.022	3.018	3.013	3.032	3.027	3.027
0.010	-0.010	0.000	0.000	0.000	0.005	0.039	3.975	3.022	3.018	3.013	3.032	3.027	3.032
0.000	0.005	0.000	0.005	0.005	0.005	0.039	3.945	3.018	3.018	3.018	3.032	3.027	3.027
0.010	0.000	0.000	0.005	0.015	0.005	0.039	3.945	3.013	3.018	3.013	3.032	3.032	3.032
0.005	0.000	0.005	0.005	0.005	0.005	0.039	3.965	3.008	3.013	3.013	3.032	3.027	3.032
0.005	0.000	-0.005	0.000	-0.005	-0.015	0.039	3.940	3.008	3.013	3.013	3.032	3.022	3.022
0.005	0.005	-0.005	0.000	0.000	0.005	0.039	3.955	3.008	3.013	3.008	3.027	3.027	3.032
0.010	0.005	0.000	0.000	0.005	-0.005	0.039	4.023	3.022	3.013	3.013	3.027	3.027	3.027
0.010	0.005	0.000	0.005	0.000	-0.015	0.039	4.033	3.027	3.018	3.013	3.027	3.022	3.022
0.005	0.005	0.005	0.005	0.005	0.010	0.039	3.916	3.018	3.013	3.013	3.027	3.027	3.032
0.005	0.005	0.005	0.000	-0.005	0.000	0.039	4.023	3.027	3.018	3.013	3.027	3.022	3.027
0.000	0.005	0.010	-0.005	-0.005	-0.005	0.039	3.999	3.022	3.018	3.018	3.032	3.022	3.022
0.005	0.010	0.005	0.000	0.015	0.005	0.039	3.916	3.018	3.018	3.013	3.032	3.032	3.027
-0.005	0.000	0.000	0.000	0.015	0.000	0.039	3.945	3.013	3.013	3.013	3.032	3.032	3.027
-0.005	0.005	0.005	0.005	0.029	0.000	0.039	4.048	3.022	3.018	3.013	3.032	3.032	3.032
0.010	-0.005	0.005	0.010	0.020	0.000	0.039	3.955	3.022	3.018	3.018	3.032	3.032	3.032
0.005	-0.015	0.005	0.010	0.000	0.000	0.039	4.033	3.022	3.013	3.013	3.032	3.027	3.027
0.000	-0.015	0.005	0.005	0.005	-0.005	0.039	3.965	3.022	3.018	3.013	3.032	3.027	3.027
0.010	-0.015	0.000	0.005	-0.005	0.005	0.039	4.004	3.027	3.018	3.013	3.027	3.022	3.027
0.000	-0.010	-0.005	0.000	-0.005	0.010	0.039	3.965	3.018	3.018	3.013	3.027	3.027	3.032
0.010	-0.005	-0.010	0.000	-0.029	-0.010	0.039	3.965	3.018	3.018	3.013	3.027	3.013	3.018
0.005	-0.005	0.000	-0.005	-0.063	0.015	0.039	3.989	3.018	3.022	3.013	3.027	3.008	3.022
0.005	0.000	-0.005	-0.005	-0.054	-0.015	0.039	3.970	3.018	3.018	3.013	3.027	3.013	3.013
0.000	0.029	0.000	0.005	-0.029	0.010	0.039	3.970	3.018	3.027	3.018	3.032	3.027	3.027
0.000	0.029	0.000	0.010	0.024	0.010	0.039	3.965	3.018	3.022	3.022	3.037	3.042	3.032
0.000	0.024	0.005	0.005	0.039	0.000	0.039	3.970	3.018	3.022	3.018	3.037	3.042	3.032
-0.005	0.010	0.010	0.005	0.034	-0.005	0.039	3.994	3.018	3.013	3.018	3.037	3.042	3.032
-0.005	0.015	0.005	0.005	0.029	0.005	0.039	3.999	3.022	3.018	3.018	3.037	3.032	3.037
-0.010	0.010	0.005	0.000	-0.005	-0.020	0.039	3.999	3.022	3.018	3.013	3.032	3.022	3.027
-0.010	0.010	0.005	-0.005	0.015	-0.005	0.039	3.989	3.022	3.018	3.018	3.032	3.032	3.037
0.000	0.005	0.005	0.000	0.059	0.000	0.039	3.989	3.027	3.022	3.018	3.037	3.042	3.037
0.000	0.010	0.000	0.000	0.063	0.015	0.039	3.984	3.022	3.022	3.013	3.032	3.042	3.042
-0.005	0.000	0.000	0.000	0.034	0.020	0.039	3.994	3.022	3.018	3.018	3.037	3.027	3.042
0.010	0.000	-0.005	0.005	-0.020	0.024	0.039	3.979	3.027	3.022	3.013	3.032	3.013	3.032
0.000	-0.010	-0.005	0.000	-0.044	0.020	0.039	3.989	3.027	3.018	3.013	3.032	3.013	3.027
0.005	-0.010	-0.005	0.005	-0.034	0.005	0.039	3.955	3.018	3.018	3.013	3.032	3.018	3.022
0.010	-0.010	-0.005	0.000	-0.020	-0.015	0.039	3.989	3.022	3.018	3.013	3.032	3.022	3.018
0.010	-0.010	-0.005	0.000	-0.020	0.005	0.039	3.979	3.018	3.018	3.018	3.032	3.027	3.022
0.000	-0.005	0.000	0.000	-0.015	-0.015	0.039	3.970	3.013	3.018	3.013	3.032	3.027	3.018
0.005	0.000	0.005	0.000	-0.020	-0.024	0.039	3.965	3.018	3.018	3.013	3.032	3.027	3.018
0.015	-0.005	0.005	-0.005	-0.005	-0.029	0.039	3.970	3.018	3.018	3.018	3.032	3.027	3.022
0.000	0.000	0.005	0.000	0.000	-0.034	0.039	3.989	3.013	3.013	3.013	3.032	3.032	3.022
-0.010	-0.005	0.005	0.010	-0.005	-0.020	0.039	3.931	3.008	3.013	3.013	3.032	3.032	3.032
-0.005	-0.005	0.005	0.005	0.059	-0.005	0.039	3.950	3.013	3.013	3.013	3.032	3.047	3.037
-0.005	0.010	0.005	0.005	0.039	0.000	0.039	3.950	3.013	3.018	3.013	3.032	3.037	3.042
-0.005	0.010	0.005	0.000	-0.005	-0.015	0.039	4.058	3.027	3.018	3.013	3.032	3.022	3.032
0.000	0.000	0.005	-0.005	0.005	0.005	0.039	3.945	3.022	3.018	3.013	3.032	3.027	3.037
-0.005	-0.010	0.005	0.005	0.010	0.005	0.039	3.975	3.027	3.013	3.008	3.032	3.027	3.037
0.000	-0.015	0.000	0.005	-0.015	-0.015	0.039	4.004	3.027	3.018	3.013	3.027	3.018	3.027
-0.005	-0.010	0.000	0.005	-0.059	0.024	0.039	3.940	3.022	3.018	3.013	3.027	3.013	3.032
0.000	-0.005	0.000	0.000	-0.059	0.010	0.039	3.965	3.022	3.022	3.013	3.027	3.018	3.022
0.005	-0.015	-0.005	0.000	-0.024	0.034	0.039	4.023	3.027	3.022	3.013	3.027	3.022	3.032
0.015	0.000	-0.005	-0.005	-0.024	0.034	0.039	3.911	3.018	3.022	3.018	3.027	3.027	3.032
0.010	-0.005	0.000	-0.005	0.005	0.029	0.039	3.945	3.018	3.018	3.018	3.032	3.032	3.027
0.000	0.000	0.000	0.010	0.049	0.029	0.039	3.926	3.013	3.018	3.018	3.037	3.047	3.037
0.005	0.005	-0.005	0.005	0.054	0.029	0.039	3.960	3.013	3.018	3.013	3.032	3.042	3.037
0.000	0.005	-0.005	0.000	0.044	0.005	0.039	4.004	3.018	3.018	3.013	3.032	3.037	3.032
0.005	0.010	0.000	0.005	0.039	0.005	0.039	3.965	3.018	3.018	3.018	3.032	3.032	3.032
-0.005	0.020	0.000	0.000	0.015	0.000	0.039	3.936	3.013	3.018	3.013	3.032	3.022	3.027
-0.005	0.015	0.005	0.000	-0.010	-0.020	0.039	3.970	3.013	3.018	3.013	3.032	3.018	3.022
-0.005	0.020	0.010	0.005	-0.020	-0.029	0.039	3.970	3.018	3.018	3.018	3.032	3.018	3.018
-0.005	0.005	0.005	0.005	-0.073	-0.020	0.039	3.965	3.013	3.013	3.013	3.032	3.003	3.018
-0.010	0.010	0.005	0.000	-0.103	-0.029	0.039	3.975	3.013	3.013	3.008	3.032	3.003	3.008
-0.015	0.010	0.005	0.000	-0.039	-0.010	0.039	3.965	3.013	3.013	3.008	3.032	3.032	3.022
0.005	0.005	0.005	0.000	0.073	-0.005	0.039	3.999	3.022	3.013	3.013	3.037	3.062	3.037
0.000	0.020	0.000	-0.005	0.063	-0.024	0.039	3.970	3.018	3.018	3.008	3.027	3.047	3.032
0.005	0.000	0.000	0.000	0.034	-0.020	0.039	3.989	3.022	3.013	3.008	3.027	3.032	3.037
0.005	0.000	0.000	0.000	0.029	-0.005	0.039	3.984	3.022	3.018	3.008	3.027	3.032	3.037
0.010	-0.005	-0.005	0.005	0.015	-0.020	0.039	3.989	3.022	3.013	3.008	3.027	3.022	3.032
0.005	-0.015	-0.005	0.005	0.005	0.010	0.039	3.975	3.027	3.013	3.008	3.022	3.018	3.032
0.010	-0.005	-0.005	0.000	-0.015	0.015	0.039	3.999	3.022	3.018	3.008	3.022	3.013	3.032
0.005	0.000	-0.005	0.005	-0.015	0.005	0.044	3.979	3.022	3.022	3.013	3.027	3.018	3.027
0.000	0.010	0.000	0.000	-0.005	0.029	0.039	3.970	3.022	3.022	3.018	3.027	3.022	3.032
0.005	-0.005	0.000	0.005	-0.010	0.015	0.039	3.970	3.018	3.018	3.018	3.027	3.022	3.027
-0.005	0.000	0.000	0.005	-0.005	0.015	0.039	3.994	3.018	3.018	3.018	3.032	3.022	3.027
-0.010	0.010	0.005	0.000	0.000	0.015	0.039	4.004	3.022	3.018	3.018	3.032	3.027	3.027
-0.005	0.010	0.005	0.000	0.005	0.015	0.039	3.989	3.022	3.022	3.018	3.032	3.027	3.027
-0.005	0.010	0.005	0.000	0.010	0.005	0.039	3.999	3.022	3.022	3.018	3.032	3.027	3.027
-0.010	0.005	0.005	0.000	0.005	0.010	0.039	3.970	3.022	3.018	3.013	3.032	3.027	3.027
0.000	0.005	0.005	0.005	0.005	0.010	0.039	3.960	3.022	3.022	3.018	3.032	3.027	3.032
0.000	0.000	0.005	0.000	0.000	0.005	0.039	3.965	3.022	3.018	3.018	3.032	3.027	3.032
0.000	0.000	0.005	0.005	-0.010	-0.015	0.039	3.979	3.018	3.018	3.013	3.037	3.027	3.022
0.010	0.000	0.000	0.005	-0.010	0.000	0.039	3.940	3.018	3.018	3.013	3.032	3.027	3.027
0.010	-0.005	0.000	0.005	-0.015	0.000	0.039	3.945	3.018	3.013	3.013	3.032	3.027	3.027
0.005	-0.005	-0.005	0.000	-0.005	0.005	0.039	3.960	3.013	3.013	3.013	3.032	3.027	3.027
0.010	-0.005	-0.005	-0.005	-0.005	0.005	0.039	4.077	3.027	3.018	3.013	3.032	3.027	3.032
-0.005	0.000	0.000	-0.005	-0.005	-0.005	0.039	3.936	3.018	3.018	3.013	3.027	3.027	3.027
0.010	-0.005	0.000	0.000	0.010	-0.010	0.039	3.926	3.013	3.018	3.013	3.032	3.027	3.022
0.010	-0.005	0.000	0.005	0.020	0.005	0.039	4.028	3.022	3.018	3.013	3.032	3.032	3.032
0.005	-0.005	-0.005	0.005	0.024	0.000	0.039	3.931	3.013	3.013	3.013	3.032	3.032	3.032
0.005	0.000	0.005	0.000	0.020	0.000	0.039	3.960	3.013	3.018	3.013	3.032	3.027	3.032
0.010	0.000	0.005	0.005	0.005	0.005	0.039	3.940	3.013	3.018	3.013	3.032	3.027	3.032
-0.005	0.010	0.005	0.005	-0.005	0.005	0.039	4.014	3.018	3.013	3.013	3.032	3.022	3.027
-0.005	0.000	0.010	0.000	0.000	0.010	0.039	3.965	3.018	3.018	3.013	3.032	3.022	3.027
-0.010	0.005	0.005	0.005	0.000	0.010	0.039	4.033	3.013	3.018	3.013	3.032	3.027	3.027
-0.005	0.015	0.010	0.000	-0.005	-0.005	0.039	3.955	3.013	3.018	3.013	3.032	3.022	3.027
-0.015	0.015	0.005	0.005	-0.020	-0.020	0.039	4.009	3.018	3.013	3.013	3.032	3.022	3.022
0.005	0.005	0.010	0.000	0.000	0.005	0.039	3.989	3.022	3.013	3.013	3.032	3.027	3.032
-0.005	0.005	0.005	0.005	0.015	0.010	0.039	3.921	3.013	3.013	3.013	3.032	3.032	3.032
-0.010	-0.010	0.000	0.000	0.024	0.010	0.039	3.975	3.013	3.008	3.008	3.032	3.032	3.032
0.010	-0.010	-0.005	-0.005	0.020	0.010	0.039	3.965	3.018	3.013	3.008	3.027	3.027	3.032
0.000	-0.020	0.000	0.000	0.000	0.005	0.039	3.965	3.013	3.008	3.008	3.027	3.022	3.027
0.005	-0.010	0.000	0.005	-0.005	0.015	0.039	3.970	3.018	3.013	3.008	3.027	3.018	3.027
0.005	-0.005	0.000	0.000	0.005	-0.005	0.039	3.965	3.018	3.018	3.008	3.027	3.022	3.022
0.010	0.005	0.000	0.000	0.000	-0.005	0.039	3.984	3.018	3.018	3.008	3.027	3.022	3.022
0.015	0.010	0.000	0.000	-0.005	-0.024	0.039	3.994	3.027	3.022	3.013	3.027	3.018	3.018
0.000	0.010	0.005	0.000	0.005	0.000	0.039	3.999	3.022	3.018	3.013	3.032	3.027	3.027
0.000	0.000	0.000	0.005	0.005	0.000	0.039	3.979	3.022	3.018	3.013	3.027	3.022	3.027
0.005	0.010	0.000	0.000	-0.039	0.005	0.039	3.989	3.022	3.022	3.013	3.027	3.013	3.022
0.015	0.020	0.005	0.000	-0.068	0.010	0.039	3.955	3.022	3.022	3.018	3.032	3.008	3.022
0.015	0.005	0.010	0.000	-0.054	0.010	0.039	3.979	3.018	3.022	3.018	3.032	3.022	3.022
0.005	0.015	0.010	-0.005	-0.063	0.000	0.039	3.984	3.018	3.022	3.018	3.032	3.018	3.018
-0.005	0.010	0.005	0.005	-0.044	0.010	0.039	3.965	3.013	3.018	3.018	3.037	3.027	3.022
0.000	0.005	0.005	0.000	-0.005	0.000	0.039	3.984	3.018	3.013	3.013	3.037	3.042	3.027
-0.010	-0.005	0.000	0.000	0.015	0.020	0.039	3.970	3.013	3.013	3.013	3.037	3.042	3.042
-0.010	0.000	0.005	0.005	0.059	0.029	0.039	3.970	3.018	3.018	3.013	3.037	3.052	3.047
-0.010	0.000	0.005	0.005	0.068	0.034	0.039	3.994	3.022	3.018	3.013	3.037	3.052	3.047
-0.015	-0.005	-0.005	0.005	0.103	0.029	0.039	3.984	3.018	3.013	3.013	3.032	3.052	3.052
-0.005	-0.010	-0.005	-0.005	0.112	0.034	0.039	3.999	3.027	3.013	3.008	3.032	3.047	3.047
-0.010	-0.005	-0.005	0.000	0.137	0.010	0.039	3.965	3.022	3.018	3.013	3.032	3.047	3.042
0.000	-0.015	-0.005	0.000	0.107	0.010	0.039	3.979	3.022	3.018	3.008	3.032	3.032	3.042
0.005	0.005	-0.005	0.000	0.063	-0.005	0.034	3.984	3.022	3.022	3.018	3.027	3.018	3.027
0.000	0.005	-0.005	0.000	-0.005	-0.034	0.039	3.945	3.018	3.018	3.013	3.027	3.003	3.008
0.000	0.000	0.000	0.000	-0.068	-0.063	0.039	3.950	3.018	3.018	3.013	3.027	2.988	2.998
0.000	0.015	0.005	0.005	-0.063	-0.044	0.039	3.965	3.013	3.022	3.018	3.032	3.003	3.003
0.000	0.005	0.005	0.005	-0.054	-0.020	0.039	4.077	3.022	3.018	3.018	3.032	3.013	3.013
-0.005	0.000	0.005	0.000	-0.049	-0.029	0.039	3.955	3.013	3.013	3.018	3.032	3.018	3.013
-0.005	0.005	0.010	0.000	-0.029	0.005	0.039	3.916	3.008	3.013	3.018	3.032	3.027	3.027
-0.005	0.005	0.000	0.000	-0.015	0.000	0.039	4.023	3.018	3.013	3.013	3.027	3.032	3.027
-0.010	0.000	0.000	0.000	-0.005	0.000	0.039	3.916	3.018	3.013	3.013	3.032	3.037	3.027
0.000	-0.005	0.005	0.010	-0.015	-0.010	0.039	3.950	3.018	3.013	3.013	3.037	3.027	3.027
0.000	0.005	0.000	0.005	-0.054	-0.005	0.039	3.921	3.018	3.018	3.013	3.032	3.018	3.027
0.010	-0.005	0.005	0.000	-0.068	-0.039	0.039	3.921	3.013	3.013	3.008	3.027	3.018	3.013
0.010	-0.010	0.000	0.000	-0.044	0.000	0.039	3.950	3.013	3.008	3.008	3.032	3.027	3.027
0.015	0.000	-0.005	0.000	-0.010	0.005	0.034	3.945	3.008	3.013	3.008	3.027	3.037	3.032
0.015	-0.010	-0.005	-0.005	0.005	0.015	0.039	3.970	3.013	3.008	3.003	3.027	3.037	3.037
0.010	-0.010	-0.005	0.000	0.029	-0.005	0.039	4.043	3.022	3.013	3.003	3.027	3.037	3.032
0.005	-0.005	-0.005	0.000	0.063	0.005	0.039	3.979	3.022	3.013	3.008	3.027	3.042	3.042
0.015	0.000	-0.005	0.000	0.039	0.015	0.039	3.911	3.013	3.013	3.008	3.027	3.027	3.042
0.005	0.005	-0.005	0.005	0.010	0.024	0.039	3.975	3.018	3.013	3.008	3.027	3.018	3.037
0.005	-0.005	0.005	0.005	-0.044	0.034	0.039	3.975	3.018	3.013	3.008	3.027	3.008	3.032
0.005	-0.005	0.010	0.010	-0.005	0.024	0.039	3.999	3.018	3.013	3.013	3.027	3.022	3.027
-0.005	0.005	0.010	0.000	0.029	0.034	0.039	3.965	3.018	3.018	3.013	3.027	3.032	3.032
-0.005	0.010	0.010	-0.005	0.049	0.029	0.039	3.975	3.018	3.018	3.013	3.032	3.032	3.032
-0.010	0.020	0.010	-0.015	0.039	0.005	0.039	3.989	3.022	3.022	3.013	3.027	3.027	3.027
-0.005	0.029	0.005	-0.020	0.020	0.010	0.039	3.970	3.022	3.022	3.013	3.027	3.018	3.027
-0.010	0.010	0.005	0.005	0.005	0.005	0.039	3.994	3.022	3.018	3.013	3.037	3.018	3.018
0.000	0.005	0.000	0.020	-0.010	-0.005	0.039	3.979	3.022	3.018	3.018	3.037	3.022	3.018
-0.005	-0.005	-0.005	0.020	-0.005	0.005	0.034	3.999	3.022	3.013	3.013	3.037	3.027	3.022
0.000	0.005	0.000	0.020	-0.005	0.010	0.039	3.965	3.022	3.018	3.013	3.032	3.027	3.027
0.005	0.000	-0.005	0.010	0.005	-0.010	0.039	3.960	3.018	3.018	3.013	3.027	3.027	3.022
0.010	0.000	-0.005	0.000	0.010	0.010	0.039	3.989	3.018	3.013	3.013	3.027	3.027	3.032
0.000	-0.015	-0.005	-0.010	0.015	0.015	0.039	3.970	3.018	3.013	3.008	3.027	3.027	3.027
0.005	-0.010	0.000	-0.010	0.020	0.005	0.039	3.984	3.018	3.018	3.008	3.027	3.027	3.027
0.000	0.000	-0.005	-0.015	0.015	-0.005	0.039	3.984	3.018	3.013	3.013	3.027	3.022	3.027
-0.010	-0.010	-0.005	-0.010	0.005	-0.005	0.039	3.999	3.018	3.013	3.008	3.027	3.018	3.022
0.005	0.000	0.000	-0.005	0.000	0.005	0.039	3.989	3.022	3.022	3.013	3.027	3.022	3.027
0.000	0.005	-0.010	0.005	0.010	0.005	0.039	3.989	3.022	3.022	3.013	3.032	3.027	3.027
0.000	0.005	-0.005	0.005	0.020	0.005	0.039	3.970	3.022	3.018	3.013	3.032	3.027	3.027
0.005	0.015	0.005	0.010	0.020	0.005	0.039	3.994	3.022	3.022	3.018	3.037	3.032	3.027
-0.005	0.010	0.010	0.010	0.015	0.000	0.039	3.960	3.018	3.018	3.018	3.037	3.027	3.027
0.000	0.005	0.005	0.000	0.015	-0.005	0.039	3.989	3.022	3.018	3.018	3.032	3.027	3.027
0.005	0.010	0.005	0.005	0.010	0.000	0.039	3.940	3.018	3.018	3.018	3.032	3.027	3.027
-0.010	0.015	0.005	0.000	0.015	-0.010	0.039	3.950	3.008	3.018	3.018	3.032	3.032	3.032
0.000	-0.005	0.005	-0.010	0.015	-0.015	0.034	3.975	3.013	3.008	3.013	3.032	3.027	3.032
0.005	-0.005	0.005	-0.005	0.010	0.010	0.039	4.067	3.027	3.018	3.013	3.032	3.027	3.037
0.000	0.005	0.000	-0.005	0.010	0.005	0.039	3.950	3.022	3.018	3.013	3.027	3.027	3.032
0.010	-0.005	0.000	0.000	0.015	-0.015	0.039	3.926	3.013	3.013	3.013	3.032	3.027	3.022
0.000	-0.005	-0.005	0.000	0.000	0.010	0.039	4.014	3.022	3.013	3.008	3.032	3.027	3.032
0.010	-0.015	0.000	0.000	-0.005	0.005	0.039	3.945	3.027	3.018	3.008	3.032	3.022	3.027
0.000	-0.010	0.000	0.000	-0.005	-0.020	0.039	3.945	3.018	3.013	3.013	3.027	3.022	3.018
0.010	0.000	0.000	0.000	-0.010	0.010	0.039	3.945	3.018	3.013	3.013	3.027	3.022	3.027
0.000	-0.020	-0.005	0.005	-0.024	-0.020	0.039	4.019	3.018	3.013	3.013	3.027	3.018	3.022
-0.010	-0.005	0.000	0.000	-0.039	0.010	0.039	3.945	3.018	3.018	3.013	3.027	3.018	3.027
0.010	-0.005	0.000	0.000	-0.049	0.005	0.039	3.936	3.018	3.018	3.013	3.027	3.018	3.022
0.000	0.005	0.005	0.000	-0.063	0.005	0.039	3.965	3.013	3.018	3.013	3.027	3.018	3.022
-0.015	0.005	0.005	0.000	-0.063	0.005	0.039	4.019	3.018	3.018	3.013	3.032	3.018	3.018
-0.005	0.015	0.005	0.005	-0.054	0.010	0.039	3.979	3.022	3.018	3.018	3.032	3.022	3.022
-0.005	0.010	0.005	0.000	-0.044	0.000	0.039	3.926	3.018	3.018	3.018	3.032	3.027	3.022
0.000	0.010	0.005	0.005	-0.024	0.010	0.039	3.970	3.013	3.018	3.013	3.032	3.032	3.032
0.000	0.015	0.005	0.010	-0.020	0.005	0.039	3.970	3.018	3.022	3.013	3.037	3.037	3.027
0.000	0.015	0.000	0.010	-0.010	-0.005	0.039	3.989	3.022	3.018	3.013	3.032	3.032	3.027
0.005	0.015	0.000	0.005	-0.010	0.010	0.039	3.965	3.022	3.018	3.013	3.032	3.037	3.037
0.005	0.010	0.005	0.000	0.000	0.020	0.039	3.975	3.018	3.013	3.013	3.032	3.037	3.032
0.000	0.005	0.005	-0.005	-0.010	0.015	0.039	3.989	3.018	3.013	3.013	3.032	3.027	3.032
0.005	0.000	0.000	0.005	-0.010	-0.010	0.039	3.965	3.018	3.013	3.013	3.032	3.027	3.027
0.005	-0.010	-0.005	0.005	-0.015	-0.005	0.039	4.004	3.022	3.013	3.008	3.027	3.022	3.027
0.010	-0.005	0.000	0.000	-0.029	-0.005	0.039	3.989	3.022	3.013	3.008	3.027	3.018	3.027
0.005	-0.010	-0.005	0.005	-0.039	0.000	0.039	3.999	3.022	3.013	3.013	3.027	3.018	3.027
0.005	-0.005	-0.005	0.000	-0.054	-0.005	0.034	3.975	3.018	3.018	3.013	3.027	3.018	3.022
0.005	0.020	0.000	0.005	-0.044	-0.005	0.039	3.965	3.018	3.022	3.013	3.027	3.018	3.022
-0.010	0.000	0.000	0.000	-0.039	0.010	0.039	3.989	3.013	3.013	3.013	3.027	3.022	3.027
-0.010	-0.010	0.000	-0.005	-0.020	0.015	0.039	3.965	3.013	3.013	3.013	3.027	3.027	3.027
-0.010	-0.005	0.005	-0.005	-0.029	0.000	0.039	3.999	3.013	3.013	3.013	3.027	3.022	3.022
-0.015	0.024	0.005	-0.005	-0.039	-0.029	0.039	3.965	3.008	3.018	3.013	3.032	3.022	3.018
-0.010	0.010	0.005	0.000	-0.015	-0.010	0.039	3.984	3.013	3.013	3.018	3.032	3.032	3.027
-0.005	0.034	0.000	0.010	-0.005	-0.034	0.039	3.989	3.022	3.022	3.013	3.037	3.032	3.022
-0.005	0.020	0.000	0.000	0.024	-0.039	0.039	3.984	3.022	3.018	3.013	3.032	3.042	3.027
0.000	0.000	0.000	0.005	0.000	-0.039	0.039	3.965	3.022	3.013	3.013	3.032	3.032	3.027
0.010	-0.020	-0.005	0.000	0.063	-0.044	0.039	3.984	3.022	3.008	3.008	3.032	3.052	3.037
0.020	-0.029	-0.010	0.000	0.161	-0.029	0.039	3.989	3.027	3.013	3.008	3.032	3.066	3.052
0.020	-0.024	-0.010	0.000	0.137	-0.010	0.039	3.965	3.027	3.018	3.013	3.032	3.047	3.052
0.010	-0.010	-0.010	0.000	0.103	0.010	0.039	3.950	3.022	3.022	3.013	3.027	3.037	3.052
0.005	-0.005	-0.010	0.000	0.068	0.005	0.039	3.955	3.018	3.022	3.013	3.027	3.022	3.047
0.000	0.005	-0.005	0.000	0.034	0.034	0.039	3.960	3.018	3.022	3.013	3.027	3.018	3.042
0.000	-0.005	-0.005	-0.005	0.049	0.044	0.039	4.077	3.032	3.022	3.018	3.027	3.022	3.042
0.005	-0.005	0.000	0.000	0.029	0.049	0.039	3.950	3.027	3.022	3.018	3.032	3.018	3.032
0.005	0.005	0.005	0.000	0.054	0.034	0.039	3.931	3.022	3.027	3.022	3.032	3.027	3.032
0.000	0.005	0.000	0.010	0.059	0.020	0.039	4.033	3.027	3.022	3.022	3.037	3.027	3.027
-0.010	0.010	0.005	0.010	0.044	0.029	0.039	3.906	3.013	3.022	3.022	3.037	3.027	3.027
-0.010	0.020	0.005	0.005	-0.005	0.010	0.039	3.950	3.013	3.022	3.022	3.037	3.013	3.018
0.005	0.005	0.010	0.005	-0.024	0.010	0.039	3.931	3.013	3.018	3.018	3.037	3.013	3.018
0.000	0.005	0.010	0.000	-0.024	0.005	0.039	3.916	3.008	3.013	3.018	3.032	3.018	3.018
-0.005	0.000	0.015	0.005	-0.015	-0.024	0.039	3.936	3.003	3.008	3.013	3.037	3.022	3.013
-0.005	0.000	0.010	0.005	-0.024	-0.049	0.039	3.936	3.013	3.008	3.013	3.032	3.018	3.003
0.000	-0.005	0.010	0.005	-0.083	-0.054	0.039	3.960	3.013	3.008	3.008	3.027	3.008	3.008
0.000	-0.005	0.010	0.005	-0.078	-0.029	0.039	4.023	3.018	3.013	3.008	3.027	3.018	3.018
0.005	-0.010	0.000	0.005	-0.039	-0.029	0.039	3.994	3.022	3.008	3.003	3.027	3.027	3.022
0.005	0.005	0.000	0.000	-0.044	0.005	0.039	3.921	3.018	3.018	3.008	3.022	3.027	3.032
0.015	0.000	-0.005	-0.010	-0.024	0.029	0.039	3.975	3.018	3.013	3.008	3.022	3.032	3.042
0.010	-0.015	-0.005	-0.010	0.029	0.024	0.039	3.965	3.013	3.008	3.003	3.022	3.042	3.037
0.020	-0.039	-0.005	-0.010	0.034	0.024	0.039	3.984	3.018	3.003	3.003	3.022	3.037	3.037
0.010	-0.020	0.005	-0.005	0.059	0.029	0.039	3.970	3.018	3.018	3.008	3.027	3.037	3.042
0.020	0.024	0.000	0.005	0.020	0.024	0.039	3.979	3.022	3.027	3.013	3.027	3.027	3.037
0.000	0.020	0.000	0.010	0.063	0.029	0.039	3.994	3.018	3.022	3.018	3.032	3.042	3.037
-0.005	0.010	0.000	0.010	0.063	0.020	0.039	3.989	3.022	3.022	3.013	3.032	3.032	3.032
-0.010	0.024	0.010	0.005	0.024	0.000	0.039	4.004	3.027	3.022	3.018	3.032	3.022	3.027
-0.005	0.020	-0.005	0.010	0.010	0.010	0.039	3.989	3.022	3.022	3.018	3.032	3.022	3.027
-0.010	0.020	0.000	0.010	-0.015	-0.010	0.039	3.994	3.022	3.022	3.018	3.032	3.013	3.018
-0.015	0.010	0.005	0.005	-0.034	-0.005	0.039	4.004	3.022	3.018	3.018	3.032	3.013	3.018
-0.005	0.010	0.010	0.000	-0.039	-0.024	0.039	3.999	3.027	3.022	3.018	3.032	3.018	3.013
0.000	-0.005	0.000	0.000	-0.044	-0.010	0.039	3.994	3.022	3.013	3.013	3.032	3.018	3.018
-0.005	0.005	0.005	-0.005	-0.054	-0.020	0.039	3.975	3.018	3.018	3.013	3.032	3.018	3.018
-0.005	-0.015	0.005	0.015	-0.073	-0.020	0.039	3.994	3.022	3.013	3.013	3.032	3.013	3.018
0.000	-0.010	0.000	0.015	-0.098	-0.039	0.039	3.970	3.022	3.018	3.013	3.032	3.008	3.008
0.005	-0.005	0.000	0.000	-0.063	-0.034	0.039	3.965	3.018	3.013	3.013	3.027	3.022	3.013
0.000	-0.010	-0.005	-0.005	-0.117	-0.024	0.039	3.989	3.013	3.013	3.008	3.022	3.003	3.013
0.010	-0.010	0.000	-0.010	-0.142	-0.039	0.039	3.970	3.013	3.013	3.008	3.022	3.003	3.008
0.005	-0.005	-0.005	-0.015	-0.107	0.005	0.039	3.989	3.018	3.013	3.008	3.022	3.018	3.027
-0.005	0.005	-0.005	-0.015	-0.068	0.015	0.039	3.989	3.018	3.018	3.013	3.027	3.032	3.032
0.015	0.024	0.000	-0.005	-0.010	0.024	0.039	3.955	3.018	3.022	3.013	3.032	3.047	3.042
0.010	0.020	0.000	0.000	0.039	0.020	0.039	3.975	3.018	3.018	3.018	3.037	3.057	3.047
-0.005	0.015	0.000	0.000	0.088	0.034	0.039	3.945	3.008	3.013	3.018	3.037	3.062	3.052
0.000	0.015	0.000	0.005	0.029	0.029	0.039	3.945	3.013	3.013	3.013	3.032	3.037	3.047
-0.005	0.000	0.010	0.010	-0.010	0.024	0.039	3.975	3.018	3.008	3.018	3.037	3.027	3.037
-0.010	0.005	0.005	0.029	-0.015	0.020	0.039	3.936	3.013	3.013	3.013	3.042	3.027	3.032
0.000	-0.005	-0.005	0.024	0.005	0.015	0.039	3.955	3.018	3.008	3.008	3.037	3.037	3.037
0.005	-0.005	-0.005	0.010	0.024	0.015	0.034	4.009	3.018	3.013	3.008	3.027	3.037	3.037
0.005	-0.005	0.005	-0.005	0.034	0.010	0.039	4.014	3.027	3.013	3.008	3.022	3.032	3.037
0.010	-0.015	0.010	-0.015	0.063	0.010	0.039	3.906	3.018	3.013	3.013	3.022	3.037	3.037
-0.005	-0.005	0.005	-0.015	0.083	0.000	0.039	4.019	3.022	3.018	3.008	3.027	3.037	3.037
0.015	-0.010	0.000	-0.024	0.098	-0.005	0.039	4.009	3.032	3.018	3.008	3.022	3.037	3.032
0.005	-0.010	-0.005	-0.005	0.107	-0.010	0.039	3.911	3.013	3.018	3.008	3.027	3.037	3.037
0.000	-0.005	-0.005	0.005	0.093	-0.010	0.039	3.970	3.013	3.018	3.013	3.032	3.027	3.032
-0.005	-0.010	0.000	0.010	0.073	-0.024	0.039	4.033	3.022	3.018	3.013	3.032	3.022	3.022
0.005	0.005	0.000	0.015	0.059	-0.024	0.039	3.950	3.022	3.022	3.018	3.032	3.022	3.027
0.000	0.015	0.005	0.020	0.068	-0.005	0.039	3.916	3.013	3.022	3.018	3.037	3.027	3.032
0.010	0.029	0.000	0.020	0.063	0.005	0.039	3.975	3.018	3.022	3.018	3.037	3.027	3.032
-0.010	0.020	0.000	0.015	0.063	-0.005	0.039	4.028	3.018	3.018	3.018	3.037	3.027	3.032
-0.015	0.015	0.005	0.015	0.068	0.015	0.039	3.970	3.018	3.018	3.018	3.037	3.032	3.037
-0.020	0.010	0.000	0.005	0.063	0.020	0.039	3.984	3.018	3.013	3.013	3.032	3.027	3.037
-0.010	0.024	0.000	0.000	0.059	0.015	0.039	3.994	3.027	3.022	3.018	3.032	3.027	3.032
-0.020	0.010	0.000	0.005	0.049	0.010	0.039	3.975	3.022	3.018	3.013	3.032	3.027	3.032
-0.010	-0.010	0.000	0.000	0.039	0.005	0.034	3.965	3.022	3.013	3.013	3.032	3.022	3.027
-0.005	-0.010	0.000	-0.005	0.039	0.005	0.039	3.965	3.022	3.013	3.013	3.032	3.022	3.022
0.000	-0.020	0.005	-0.005	0.034	0.010	0.039	3.975	3.022	3.013	3.008	3.032	3.022	3.027
0.015	-0.015	0.005	0.000	0.024	0.005	0.039	3.979	3.027	3.018	3.008	3.027	3.022	3.018
0.010	-0.029	0.000	-0.005	0.024	-0.020	0.044	3.979	3.027	3.013	3.008	3.027	3.022	3.018
0.005	-0.034	-0.005	0.000	0.024	0.005	0.039	3.999	3.022	3.013	3.008	3.027	3.022	3.022
0.000	-0.005	-0.005	0.005	0.010	0.000	0.039	3.989	3.022	3.027	3.013	3.027	3.018	3.022
0.010	0.015	-0.005	0.005	-0.005	-0.024	0.039	3.999	3.027	3.027	3.018	3.032	3.013	3.013
0.010	0.010	-0.005	0.010	-0.024	0.020	0.039	3.994	3.027	3.027	3.018	3.032	3.013	3.022
0.015	0.010	-0.005	0.005	-0.044	0.024	0.039	3.965	3.022	3.022	3.018	3.032	3.013	3.022
-0.005	0.039	0.000	0.000	-0.088	0.020	0.039	3.979	3.013	3.027	3.022	3.032	3.003	3.018
-0.005	0.024	0.010	-0.005	-0.078	0.015	0.039	3.979	3.013	3.018	3.018	3.032	3.018	3.013
0.005	0.010	0.005	-0.005	-0.068	-0.005	0.039	3.984	3.013	3.018	3.018	3.032	3.018	3.013
-0.005	0.034	0.000	-0.005	-0.054	-0.015	0.039	3.970	3.013	3.018	3.018	3.032	3.027	3.013
0.000	0.015	0.005	0.000	-0.029	-0.010	0.039	3.989	3.018	3.013	3.013	3.032	3.037	3.022
0.015	-0.034	-0.005	0.005	0.015	-0.020	0.039	3.994	3.018	3.003	3.008	3.037	3.047	3.027
-0.005	-0.039	0.010	0.000	0.034	-0.024	0.039	3.979	3.018	3.003	3.008	3.032	3.047	3.027
0.005	-0.044	0.005	0.005	0.049	-0.024	0.039	3.994	3.018	3.008	3.008	3.032	3.047	3.037
0.000	-0.020	-0.005	0.010	0.049	-0.039	0.039	3.975	3.018	3.013	3.008	3.032	3.037	3.037
0.000	-0.005	0.000	0.010	0.078	-0.039	0.039	3.921	3.018	3.022	3.013	3.027	3.047	3.037
0.005	0.005	0.005	0.005	0.098	-0.029	0.039	3.960	3.018	3.022	3.013	3.032	3.047	3.042
0.005	0.029	0.010	0.005	0.083	-0.005	0.039	3.950	3.018	3.027	3.013	3.032	3.037	3.047
0.015	0.010	0.000	0.005	0.063	0.010	0.039	4.058	3.027	3.018	3.018	3.027	3.027	3.047
0.010	0.005	0.000	0.005	0.015	0.024	0.039	3.945	3.018	3.018	3.013	3.032	3.013	3.042
0.005	0.059	-0.005	-0.005	0.015	0.015	0.039	3.936	3.022	3.032	3.018	3.027	3.018	3.032
-0.010	0.054	0.000	0.000	-0.005	0.024	0.039	4.028	3.027	3.027	3.018	3.032	3.018	3.027
-0.015	0.010	0.000	-0.005	0.020	0.029	0.039	4.009	3.022	3.013	3.018	3.032	3.027	3.027
-0.010	-0.005	-0.005	0.005	0.034	0.020	0.039	3.960	3.022	3.013	3.013	3.032	3.032	3.027
0.000	-0.024	-0.010	0.000	0.024	0.010	0.039	3.916	3.018	3.013	3.008	3.032	3.022	3.027
-0.005	-0.024	0.000	0.005	0.015	0.020	0.039	3.999	3.018	3.013	3.013	3.032	3.022	3.027
-0.015	-0.015	0.010	0.000	-0.015	0.024	0.039	3.955	3.013	3.018	3.013	3.032	3.018	3.027
-0.020	0.024	0.010	0.000	-0.005	0.029	0.039	4.028	3.022	3.027	3.018	3.032	3.022	3.027
-0.015	0.020	0.010	0.005	0.000	0.044	0.039	3.955	3.022	3.022	3.018	3.032	3.027	3.032
0.000	-0.005	0.015	0.005	-0.024	0.029	0.039	4.019	3.027	3.018	3.018	3.032	3.018	3.022
-0.005	-0.005	0.005	0.015	-0.068	0.015	0.039	3.979	3.027	3.018	3.013	3.032	3.013	3.013
0.005	-0.015	-0.005	-0.005	-0.073	-0.029	0.039	3.926	3.018	3.018	3.008	3.027	3.013	2.998
0.010	-0.020	0.000	-0.005	-0.093	-0.034	0.039	3.960	3.013	3.013	3.013	3.027	3.008	3.003
0.010	-0.010	0.000	-0.005	-0.088	-0.034	0.039	3.975	3.013	3.013	3.013	3.027	3.018	3.008
0.015	-0.015	0.000	-0.005	-0.020	-0.034	0.039	3.999	3.013	3.013	3.008	3.027	3.037	3.013
0.015	-0.020	-0.015	0.000	-0.034	-0.068	0.039	3.965	3.013	3.013	3.008	3.027	3.027	3.013
0.020	0.000	-0.005	-0.010	-0.078	-0.073	0.039	3.960	3.013	3.018	3.008	3.027	3.013	3.008
0.015	0.015	0.005	0.000	-0.127	-0.098	0.039	3.984	3.013	3.018	3.013	3.027	3.003	2.998
0.005	0.010	-0.005	0.005	-0.103	-0.088	0.039	3.970	3.008	3.013	3.008	3.027	3.013	3.008
0.010	0.005	0.000	0.005	-0.103	-0.039	0.039	3.989	3.013	3.008	3.008	3.027	3.018	3.027
0.005	-0.005	-0.005	0.005	-0.098	0.010	0.039	3.989	3.013	3.008	3.008	3.027	3.022	3.042
0.000	0.000	0.000	0.000	-0.059	0.049	0.039	4.009	3.018	3.013	3.008	3.027	3.037	3.047
-0.005	0.005	0.010	0.005	0.034	0.054	0.039	3.965	3.013	3.013	3.013	3.032	3.062	3.057
-0.005	0.005	0.010	0.010	0.151	0.063	0.039	3.960	3.018	3.018	3.013	3.037	3.086	3.071
-0.010	0.020	0.010	0.005	0.200	0.059	0.039	3.989	3.022	3.018	3.013	3.037	3.081	3.071
0.000	0.029	0.015	0.005	0.215	0.049	0.034	3.955	3.022	3.027	3.018	3.037	3.071	3.071
0.000	0.000	0.015	0.000	0.205	0.034	0.039	3.965	3.022	3.018	3.018	3.032	3.057	3.062
0.010	-0.005	0.010	0.000	0.127	0.034	0.039	3.999	3.032	3.018	3.013	3.032	3.027	3.052
0.005	0.034	0.000	-0.005	0.039	0.020	0.039	3.984	3.032	3.032	3.018	3.027	3.003	3.032
0.000	0.029	-0.010	0.000	0.005	0.020	0.039	3.989	3.022	3.027	3.018	3.027	2.998	3.022
0.000	0.015	-0.010	0.000	-0.005	0.015	0.039	3.994	3.027	3.018	3.013	3.032	3.003	3.013
0.005	-0.005	-0.010	0.005	-0.034	0.000	0.039	3.994	3.022	3.018	3.013	3.032	3.003	3.008
-0.005	-0.024	-0.015	0.000	-0.020	0.010	0.039	3.994	3.018	3.008	3.013	3.027	3.013	3.013
0.005	-0.020	-0.005	0.005	-0.020	0.010	0.039	3.975	3.022	3.013	3.013	3.032	3.013	3.013
0.005	-0.010	-0.005	0.015	0.005	-0.005	0.039	3.984	3.018	3.013	3.013	3.032	3.027	3.013
0.000	-0.015	-0.010	0.024	-0.010	0.000	0.039	3.965	3.008	3.013	3.008	3.032	3.022	3.013
0.005	-0.010	-0.005	0.010	-0.020	-0.020	0.039	3.955	3.013	3.013	3.013	3.027	3.018	3.013
0.005	0.000	0.000	-0.010	-0.039	0.029	0.039	3.965	3.008	3.013	3.013	3.022	3.018	3.027
0.005	0.015	0.010	-0.034	-0.039	0.020	0.039	4.067	3.022	3.018	3.013	3.018	3.018	3.018
0.010	0.010	0.005	-0.049	-0.039	0.005	0.039	3.955	3.018	3.018	3.013	3.022	3.013	3.018
-0.010	-0.005	0.010	-0.034	-0.054	-0.010	0.039	4.028	3.022	3.013	3.013	3.027	3.013	3.013
-0.005	0.005	0.010	-0.015	-0.054	0.000	0.039	4.033	3.027	3.018	3.018	3.032	3.018	3.018
-0.005	0.024	0.005	0.005	-0.054	-0.010	0.039	3.940	3.018	3.027	3.018	3.037	3.022	3.018
-0.010	0.044	0.010	0.015	-0.044	-0.010	0.039	3.960	3.013	3.027	3.022	3.042	3.027	3.018
-0.005	0.024	0.000	0.024	-0.029	-0.015	0.039	3.911	3.003	3.013	3.018	3.042	3.032	3.027
-0.005	-0.005	0.000	0.034	-0.024	-0.020	0.039	4.014	3.013	3.008	3.013	3.042	3.037	3.027
-0.010	0.015	-0.005	0.039	-0.024	-0.029	0.039	3.975	3.013	3.013	3.008	3.037	3.037	3.027
-0.010	0.010	0.000	0.034	-0.029	-0.024	0.039	3.926	3.003	3.008	3.008	3.032	3.032	3.027
0.000	0.000	0.000	0.020	-0.029	-0.024	0.039	3.960	3.008	3.003	3.008	3.027	3.027	3.032
-0.010	-0.010	0.000	0.010	-0.029	-0.020	0.039	4.028	3.013	3.003	3.003	3.022	3.027	3.032
0.000	-0.020	0.005	0.000	-0.020	-0.010	0.034	3.984	3.018	3.003	3.003	3.022	3.027	3.027
0.005	-0.024	0.000	0.005	-0.034	0.005	0.039	3.945	3.013	3.008	3.003	3.022	3.022	3.032
0.015	-0.029	0.005	0.005	-0.049	0.005	0.039	3.960	3.013	3.003	3.003	3.018	3.018	3.032
0.020	-0.024	0.000	0.000	-0.044	0.020	0.039	3.970	3.013	3.008	3.003	3.018	3.018	3.032
0.015	-0.020	0.010	-0.005	-0.049	0.010	0.039	3.999	3.018	3.013	3.003	3.022	3.018	3.022
0.000	0.015	0.005	-0.005	-0.049	0.020	0.039	3.965	3.013	3.022	3.013	3.018	3.018	3.022
-0.005	-0.005	-0.005	0.000	-0.059	0.020	0.039	3.975	3.013	3.013	3.008	3.022	3.013	3.022
-0.005	0.005	-0.010	-0.005	-0.039	0.015	0.039	3.989	3.018	3.018	3.008	3.022	3.022	3.018
-0.005	0.020	-0.005	-0.005	-0.020	0.024	0.039	3.994	3.018	3.018	3.013	3.022	3.022	3.022
0.005	-0.015	0.005	-0.005	-0.005	0.010	0.039	3.994	3.022	3.008	3.013	3.027	3.027	3.022
0.010	-0.024	0.010	-0.005	0.005	0.000	0.039	3.994	3.022	3.013	3.013	3.027	3.032	3.022
0.005	0.015	0.010	-0.010	0.010	0.005	0.039	3.994	3.027	3.027	3.018	3.027	3.032	3.027
0.005	0.015	0.010	-0.005	0.010	0.005	0.039	3.970	3.022	3.022	3.018	3.032	3.027	3.027
0.010	0.000	0.010	-0.005	0.005	0.010	0.039	3.989	3.022	3.018	3.018	3.032	3.027	3.027
0.010	-0.010	0.005	-0.005	0.005	-0.005	0.039	3.975	3.022	3.013	3.013	3.027	3.027	3.022
0.010	-0.010	0.005	-0.005	0.010	0.005	0.039	3.955	3.013	3.013	3.013	3.032	3.027	3.027
0.005	0.005	-0.010	-0.005	0.005	0.024	0.039	3.989	3.013	3.018	3.008	3.027	3.027	3.032
0.005	-0.005	-0.005	0.000	0.005	0.024	0.039	3.994	3.013	3.013	3.008	3.027	3.027	3.032
0.010	-0.010	-0.010	0.000	0.000	0.029	0.039	3.989	3.018	3.013	3.008	3.027	3.022	3.032
-0.005	0.005	0.000	0.010	0.000	0.029	0.039	3.975	3.018	3.018	3.013	3.032	3.022	3.027
0.005	0.010	0.005	0.015	0.000	0.015	0.039	3.970	3.018	3.018	3.018	3.032	3.022	3.027
0.005	0.020	0.005	0.010	-0.005	0.020	0.039	3.970	3.013	3.018	3.018	3.032	3.027	3.027
-0.010	0.020	0.005	0.005	-0.005	0.020	0.039	3.965	3.013	3.018	3.013	3.032	3.027	3.027
-0.005	0.015	0.010	0.005	-0.010	0.020	0.039	3.979	3.018	3.018	3.013	3.032	3.027	3.027
-0.005	0.015	0.010	0.005	-0.005	-0.010	0.039	3.979	3.018	3.013	3.013	3.032	3.027	3.018
-0.005	0.000	0.005	0.005	-0.010	0.000	0.039	3.950	3.013	3.008	3.013	3.027	3.027	3.022
0.000	0.000	0.000	0.005	-0.005	-0.020	0.039	3.955	3.013	3.013	3.008	3.027	3.027	3.022
-0.005	0.005	0.005	0.000	0.000	-0.015	0.039	3.965	3.013	3.013	3.008	3.027	3.027	3.022
-0.010	-0.005	0.000	-0.005	0.000	-0.020	0.034	4.072	3.022	3.008	3.008	3.027	3.022	3.022
0.000	0.000	0.005	-0.005	-0.010	-0.039	0.039	3.950	3.022	3.013	3.008	3.027	3.022	3.018
0.000	-0.015	-0.005	-0.005	-0.015	-0.005	0.039	3.945	3.013	3.008	3.008	3.022	3.022	3.027
0.010	-0.049	-0.005	0.000	-0.010	0.005	0.039	4.033	3.022	3.003	3.003	3.027	3.022	3.027
0.005	-0.034	0.000	0.000	-0.024	0.000	0.039	3.921	3.013	3.008	3.003	3.027	3.018	3.022
0.010	-0.015	-0.005	0.000	-0.049	-0.005	0.039	3.955	3.013	3.013	3.003	3.022	3.008	3.018
0.020	-0.005	-0.005	-0.005	-0.049	0.020	0.039	3.916	3.008	3.013	3.003	3.022	3.013	3.022
0.005	0.015	0.000	0.000	-0.044	0.010	0.039	3.999	3.013	3.018	3.013	3.027	3.018	3.018
0.000	0.005	0.000	0.000	-0.054	0.000	0.039	3.965	3.008	3.013	3.008	3.027	3.013	3.018
0.005	0.000	0.010	0.000	-0.049	0.005	0.039	3.931	3.003	3.008	3.013	3.027	3.022	3.022
-0.005	0.054	0.005	0.005	-0.034	0.000	0.039	3.955	3.003	3.022	3.013	3.027	3.022	3.022
-0.005	0.049	0.005	0.000	-0.034	-0.005	0.039	4.028	3.013	3.018	3.013	3.027	3.022	3.018
-0.005	0.044	0.010	0.005	-0.034	-0.010	0.039	3.999	3.018	3.018	3.013	3.032	3.022	3.022
-0.005	0.010	0.000	0.000	-0.034	0.005	0.039	3.950	3.013	3.003	3.008	3.027	3.022	3.027
-0.020	0.015	0.000	0.005	-0.049	0.000	0.039	3.965	3.008	3.008	3.008	3.027	3.022	3.027
-0.010	0.034	-0.005	0.000	-0.044	-0.015	0.039	3.965	3.013	3.013	3.008	3.022	3.018	3.018
-0.005	0.029	0.000	0.000	-0.078	-0.005	0.039	3.960	3.013	3.008	3.008	3.027	3.013	3.018
-0.010	0.005	-0.005	0.000	-0.083	0.005	0.039	3.960	3.008	3.003	3.003	3.022	3.013	3.022
0.000	0.000	0.000	0.000	-0.068	0.015	0.039	3.970	3.013	3.003	3.003	3.022	3.018	3.022
-0.005	0.015	0.000	0.010	-0.054	0.020	0.039	3.994	3.018	3.008	3.003	3.027	3.022	3.027
-0.005	0.000	0.000	0.000	-0.024	-0.010	0.039	3.970	3.013	3.003	3.003	3.022	3.027	3.018
-0.005	-0.039	0.000	-0.005	0.010	-0.044	0.039	3.994	3.013	2.998	2.998	3.022	3.032	3.018
0.000	-0.029	0.000	0.000	0.039	-0.039	0.039	3.994	3.013	3.003	2.998	3.022	3.037	3.022
0.005	-0.020	0.000	-0.005	0.044	-0.044	0.034	3.999	3.018	3.008	3.003	3.018	3.032	3.027
0.010	-0.024	-0.005	-0.010	0.044	-0.015	0.039	3.975	3.022	3.013	3.003	3.018	3.027	3.032
0.015	-0.039	-0.010	-0.015	0.049	0.000	0.039	3.989	3.018	3.008	3.003	3.018	3.027	3.037
0.005	-0.020	-0.005	-0.005	0.068	-0.005	0.039	3.989	3.018	3.018	3.008	3.022	3.027	3.032
0.005	0.024	0.000	0.005	0.073	-0.015	0.039	3.989	3.022	3.032	3.013	3.027	3.027	3.032
0.000	0.024	0.000	0.010	0.010	-0.010	0.039	3.989	3.022	3.027	3.018	3.032	3.008	3.027
0.005	0.000	0.010	0.005	-0.054	-0.010	0.039	3.970	3.018	3.018	3.018	3.027	2.998	3.018
-0.005	-0.005	0.010	0.020	-0.078	0.010	0.039	3.999	3.013	3.013	3.018	3.032	3.003	3.018
0.000	0.000	0.015	0.015	-0.073	0.024	0.039	3.965	3.013	3.013	3.018	3.032	3.013	3.022
-0.005	-0.005	0.015	0.010	-0.068	0.024	0.039	3.960	3.013	3.013	3.018	3.032	3.018	3.022
-0.005	-0.005	0.000	0.015	-0.010	0.034	0.039	3.965	3.013	3.013	3.008	3.032	3.037	3.032
0.010	-0.005	-0.005	0.015	0.044	0.034	0.039	3.984	3.018	3.013	3.008	3.032	3.052	3.037
-0.005	-0.005	-0.005	0.005	0.112	0.044	0.039	3.970	3.018	3.013	3.008	3.027	3.062	3.047
0.005	0.010	-0.005	-0.010	0.166	0.020	0.039	3.975	3.022	3.022	3.013	3.027	3.066	3.052
0.000	0.010	0.000	-0.020	0.176	0.005	0.039	3.955	3.018	3.018	3.013	3.027	3.057	3.047
0.005	0.000	0.000	-0.015	0.200	-0.005	0.039	3.950	3.018	3.013	3.013	3.027	3.052	3.042
0.000	-0.005	0.000	-0.015	0.210	0.015	0.039	3.960	3.018	3.013	3.013	3.032	3.047	3.047
0.000	-0.005	-0.005	0.005	0.205	0.000	0.039	4.053	3.027	3.018	3.013	3.037	3.042	3.047
0.000	0.000	0.000	0.010	0.166	-0.010	0.039	3.960	3.022	3.022	3.013	3.037	3.027	3.037
-0.005	0.000	0.000	0.024	0.107	0.005	0.039	4.028	3.027	3.022	3.018	3.037	3.013	3.032
-0.005	0.005	0.010	0.015	0.068	0.010	0.039	4.023	3.032	3.022	3.018	3.037	3.008	3.027
-0.005	0.005	0.005	0.029	0.015	0.015	0.039	4.019	3.037	3.027	3.018	3.037	3.003	3.018
-0.005	0.005	0.005	0.029	-0.005	0.005	0.039	3.960	3.022	3.027	3.022	3.037	3.008	3.013
0.000	0.005	0.000	0.005	-0.015	-0.020	0.039	3.970	3.022	3.022	3.022	3.027	3.008	3.008
0.000	0.005	-0.005	-0.005	-0.020	-0.059	0.039	3.994	3.022	3.022	3.018	3.027	3.008	2.998
-0.010	0.010	0.000	0.000	-0.029	-0.024	0.039	3.950	3.018	3.022	3.018	3.032	3.013	3.008
0.005	0.005	0.005	-0.010	-0.020	-0.039	0.039	4.014	3.022	3.022	3.018	3.027	3.022	3.008
0.015	-0.005	0.005	-0.024	0.000	-0.029	0.039	3.965	3.018	3.018	3.018	3.027	3.027	3.022
-0.005	0.005	0.000	-0.020	0.010	-0.010	0.039	4.033	3.018	3.018	3.018	3.032	3.032	3.027
0.020	0.000	0.000	0.000	0.005	0.000	0.034	3.975	3.027	3.022	3.018	3.037	3.032	3.032
0.010	0.005	-0.005	0.015	-0.034	0.015	0.039	3.931	3.018	3.018	3.013	3.042	3.018	3.027
0.010	0.020	0.010	0.029	-0.024	0.024	0.039	3.970	3.018	3.022	3.022	3.042	3.027	3.032
0.010	0.010	0.005	0.029	0.005	0.039	0.039	3.970	3.018	3.018	3.018	3.042	3.037	3.037
0.010	-0.005	0.010	0.015	0.020	0.049	0.039	3.970	3.013	3.013	3.018	3.032	3.042	3.042
0.000	0.000	0.000	0.005	0.029	0.049	0.039	3.975	3.018	3.013	3.013	3.027	3.042	3.047
0.000	0.000	-0.005	0.010	0.068	0.063	0.039	3.989	3.018	3.013	3.013	3.032	3.047	3.052
0.000	-0.005	0.000	0.010	0.112	0.029	0.039	3.994	3.018	3.013	3.013	3.032	3.052	3.042
0.000	0.005	-0.005	0.010	0.137	0.015	0.039	3.989	3.022	3.022	3.013	3.032	3.052	3.042
-0.010	0.010	-0.005	0.000	0.107	-0.024	0.039	3.989	3.018	3.018	3.013	3.027	3.032	3.032
0.000	0.000	-0.010	-0.005	0.083	-0.024	0.039	3.984	3.022	3.022	3.013	3.027	3.027	3.032
-0.010	0.005	0.000	-0.010	0.073	-0.029	0.039	3.989	3.022	3.022	3.018	3.027	3.022	3.027
0.000	-0.005	0.020	-0.005	0.054	-0.059	0.039	3.984	3.027	3.022	3.022	3.032	3.018	3.018
0.015	-0.010	0.020	-0.005	0.044	-0.039	0.039	3.999	3.027	3.022	3.018	3.032	3.018	3.022
0.010	-0.005	0.015	-0.010	0.039	-0.010	0.039	3.994	3.022	3.022	3.018	3.032	3.022	3.027
0.005	-0.010	0.015	-0.015	0.039	-0.005	0.039	3.994	3.022	3.018	3.018	3.032	3.022	3.027
0.005	-0.005	0.005	-0.010	0.073	0.010	0.039	3.999	3.027	3.018	3.018	3.037	3.037	3.037
-0.010	-0.005	0.000	-0.005	0.054	0.029	0.039	3.970	3.018	3.022	3.013	3.037	3.027	3.037
0.010	0.000	-0.005	0.000	0.010	0.029	0.039	3.975	3.022	3.022	3.013	3.032	3.018	3.032
-0.005	0.020	-0.010	0.000	-0.020	0.010	0.034	3.989	3.018	3.022	3.018	3.032	3.008	3.022
0.010	0.010	-0.010	-0.005	-0.039	0.024	0.034	3.994	3.027	3.018	3.018	3.027	3.008	3.018
0.005	0.005	-0.005	0.000	-0.034	0.010	0.039	3.984	3.022	3.022	3.018	3.032	3.013	3.018
0.010	0.005	0.000	-0.005	-0.024	0.005	0.039	3.989	3.022	3.018	3.018	3.032	3.018	3.018
-0.015	0.000	0.005	-0.005	-0.020	-0.020	0.039	3.965	3.008	3.013	3.018	3.032	3.022	3.013
-0.010	-0.015	0.005	-0.005	-0.020	-0.005	0.039	3.979	3.013	3.008	3.013	3.032	3.027	3.018
-0.049	0.000	0.015	-0.005	-0.015	-0.015	0.039	3.940	2.993	3.013	3.013	3.032	3.027	3.018
-0.059	0.010	0.000	-0.005	-0.005	-0.005	0.039	3.955	2.993	3.003	3.008	3.032	3.027	3.027
-0.068	0.000	0.005	-0.010	-0.010	0.000	0.039	3.965	2.998	2.998	3.003	3.027	3.027	3.027
-0.049	-0.010	0.000	0.000	-0.010	0.000	0.039	4.067	3.022	3.003	3.003	3.027	3.027	3.027
-0.015	0.005	0.000	0.000	0.000	0.005	0.039	3.950	3.027	3.013	3.008	3.027	3.027	3.032
0.044	-0.005	-0.005	0.000	0.005	0.015	0.039	4.019	3.047	3.022	3.008	3.027	3.027	3.037
0.083	-0.010	-0.010	0.010	0.010	0.020	0.039	4.014	3.057	3.027	3.013	3.032	3.027	3.037
0.112	0.000	-0.005	0.015	0.015	0.020	0.039	3.911	3.047	3.037	3.022	3.032	3.032	3.032
0.093	-0.010	-0.005	0.010	0.015	0.015	0.039	4.043	3.047	3.037	3.022	3.037	3.032	3.032
0.103	-0.015	-0.005	0.010	0.015	0.005	0.039	3.921	3.027	3.032	3.022	3.037	3.032	3.027
0.078	-0.020	-0.005	0.015	0.010	0.015	0.034	4.009	3.022	3.027	3.027	3.037	3.032	3.032
0.044	-0.010	-0.005	0.015	0.005	0.015	0.039	3.945	3.008	3.022	3.022	3.037	3.027	3.027
0.010	0.005	0.000	0.005	0.000	0.015	0.039	3.911	2.993	3.018	3.022	3.037	3.027	3.032
-0.039	0.029	0.000	-0.005	-0.010	0.010	0.039	3.950	2.983	3.013	3.018	3.032	3.027	3.027
-0.068	0.020	0.005	-0.015	-0.005	-0.010	0.039	4.033	2.988	3.003	3.013	3.032	3.027	3.022
-0.073	0.024	0.000	-0.015	0.005	0.020	0.039	3.979	2.998	3.003	3.008	3.032	3.027	3.032
-0.073	0.024	0.005	-0.015	0.015	0.015	0.039	4.004	3.008	3.003	3.008	3.027	3.032	3.032
-0.078	0.029	0.010	-0.020	0.005	0.015	0.039	3.970	3.003	3.003	3.008	3.027	3.027	3.032
-0.078	0.005	0.000	-0.015	0.005	0.024	0.039	3.960	3.003	2.998	3.003	3.022	3.027	3.037
-0.039	0.005	0.000	-0.010	0.000	0.010	0.039	3.960	3.022	3.003	3.003	3.022	3.022	3.027
0.000	0.010	0.000	0.010	-0.005	0.020	0.039	3.965	3.032	3.013	3.003	3.032	3.022	3.027
0.024	0.000	0.000	0.029	0.005	0.010	0.039	3.970	3.032	3.018	3.008	3.032	3.027	3.027
0.054	-0.020	0.000	0.029	0.005	-0.020	0.039	3.999	3.042	3.018	3.008	3.032	3.027	3.018
0.068	-0.010	-0.005	0.010	0.000	-0.010	0.039	3.960	3.037	3.027	3.013	3.027	3.022	3.022
0.059	-0.024	0.000	0.010	0.010	-0.010	0.039	3.994	3.027	3.018	3.013	3.027	3.027	3.022
0.039	-0.039	0.000	0.010	0.005	-0.015	0.039	3.994	3.022	3.018	3.013	3.027	3.027	3.022
0.039	-0.015	0.005	0.010	0.005	0.000	0.039	3.999	3.018	3.022	3.018	3.032	3.027	3.027
0.015	0.015	0.000	0.005	0.005	0.000	0.039	3.999	3.018	3.027	3.018	3.032	3.022	3.027
-0.010	0.049	-0.010	-0.005	0.000	0.020	0.034	3.970	3.008	3.032	3.018	3.027	3.022	3.032
-0.068	0.063	-0.005	0.000	0.000	0.010	0.039	3.989	2.998	3.027	3.018	3.032	3.027	3.027
-0.054	0.015	-0.005	0.005	-0.015	0.000	0.039	3.975	3.003	3.003	3.018	3.032	3.022	3.022
-0.005	-0.029	-0.005	0.020	-0.024	0.010	0.039	3.994	3.022	2.998	3.008	3.037	3.022	3.027
-0.005	-0.034	-0.005	0.015	-0.029	0.010	0.039	3.994	3.022	3.003	3.008	3.032	3.022	3.022
0.015	-0.024	0.005	0.010	-0.034	0.000	0.039	3.979	3.027	3.013	3.008	3.032	3.022	3.022
0.020	-0.029	0.010	0.015	-0.034	-0.020	0.039	3.960	3.022	3.013	3.008	3.032	3.022	3.018
0.029	0.000	0.005	0.020	-0.029	-0.049	0.039	3.999	3.027	3.027	3.013	3.032	3.027	3.013
0.015	0.044	0.010	0.010	-0.034	-0.020	0.039	3.970	3.022	3.037	3.022	3.032	3.022	3.022
-0.029	0.039	0.015	-0.005	-0.039	0.000	0.039	3.975	3.003	3.027	3.022	3.027	3.027	3.027
-0.068	0.020	0.010	-0.015	-0.034	0.015	0.039	3.965	2.998	3.013	3.018	3.027	3.027	3.032
-0.029	-0.005	-0.005	-0.015	-0.029	-0.010	0.039	3.979	3.013	3.003	3.008	3.027	3.027	3.022
0.000	-0.005	-0.005	0.000	-0.020	-0.015	0.039	3.950	3.022	3.008	3.008	3.032	3.027	3.022
0.020	0.015	-0.010	0.005	-0.015	-0.010	0.039	3.950	3.027	3.022	3.013	3.032	3.027	3.027
-0.005	0.020	-0.005	-0.005	-0.020	0.000	0.039	3.955	3.008	3.018	3.013	3.027	3.027	3.032
-0.034	0.024	-0.005	-0.010	-0.020	0.005	0.034	3.945	2.998	3.013	3.013	3.027	3.027	3.027
-0.020	0.015	-0.005	-0.005	-0.020	-0.020	0.039	3.940	3.008	3.008	3.008	3.027	3.022	3.022
0.010	-0.010	0.005	-0.005	-0.020	0.000	0.039	3.989	3.022	3.003	3.008	3.032	3.027	3.027
0.024	-0.015	0.005	0.005	-0.010	-0.010	0.039	4.028	3.032	3.013	3.008	3.032	3.027	3.022
0.029	-0.010	0.000	0.005	-0.010	-0.005	0.039	3.999	3.027	3.018	3.008	3.027	3.027	3.032
0.020	-0.015	-0.005	0.000	-0.010	0.005	0.039	3.936	3.022	3.018	3.008	3.027	3.027	3.032
0.015	-0.005	0.000	0.010	-0.005	-0.005	0.039	4.009	3.022	3.022	3.013	3.032	3.027	3.027
0.005	0.000	0.005	0.015	0.000	0.015	0.039	3.940	3.013	3.018	3.013	3.032	3.032	3.037
0.005	-0.005	0.005	0.005	0.005	0.015	0.039	3.984	3.013	3.013	3.013	3.032	3.032	3.032
0.000	-0.010	0.005	0.005	0.010	-0.015	0.039	4.033	3.022	3.018	3.013	3.032	3.032	3.027
0.005	-0.010	0.010	-0.010	0.010	0.010	0.039	3.994	3.027	3.018	3.018	3.027	3.027	3.032
0.005	-0.005	0.005	-0.034	0.010	-0.005	0.039	3.931	3.018	3.018	3.013	3.022	3.022	3.027
0.010	-0.015	0.000	-0.039	-0.005	-0.010	0.039	3.989	3.018	3.013	3.013	3.022	3.018	3.022
0.010	-0.005	0.000	-0.024	-0.010	-0.005	0.039	4.043	3.027	3.018	3.013	3.027	3.018	3.022
0.010	0.005	-0.005	-0.005	-0.005	-0.005	0.039	3.975	3.027	3.022	3.013	3.032	3.022	3.027
0.015	-0.005	-0.005	0.020	-0.005	-0.005	0.039	3.970	3.018	3.022	3.013	3.042	3.027	3.027
-0.010	0.005	-0.015	0.020	-0.005	-0.005	0.039	3.970	3.008	3.018	3.018	3.037	3.027	3.027
-0.010	0.010	-0.005	0.034	-0.010	-0.015	0.039	3.965	3.013	3.018	3.018	3.042	3.027	3.027
-0.010	0.005	-0.010	0.039	-0.010	-0.005	0.039	3.960	3.013	3.013	3.013	3.037	3.032	3.032
0.005	0.005	-0.005	0.039	-0.010	0.010	0.039	3.970	3.018	3.013	3.018	3.037	3.032	3.037
0.000	0.000	0.010	0.029	-0.010	0.005	0.039	3.999	3.018	3.013	3.018	3.032	3.032	3.032
0.005	-0.005	0.015	0.010	-0.005	-0.005	0.039	3.970	3.022	3.018	3.018	3.027	3.027	3.027
0.000	0.005	0.015	0.000	-0.015	0.000	0.039	3.994	3.022	3.018	3.013	3.027	3.022	3.027
0.005	0.005	0.010	0.005	-0.020	0.005	0.039	3.989	3.022	3.018	3.013	3.027	3.022	3.032
0.005	0.015	0.000	-0.005	-0.020	0.010	0.039	3.970	3.022	3.018	3.013	3.027	3.022	3.032
-0.005	0.005	0.005	-0.010	-0.024	0.000	0.039	3.999	3.022	3.018	3.013	3.027	3.022	3.027
0.000	0.005	0.000	-0.015	-0.024	0.015	0.039	3.975	3.022	3.018	3.018	3.027	3.022	3.032
-0.005	0.000	0.005	-0.010	-0.015	0.005	0.039	3.975	3.018	3.018	3.018	3.032	3.027	3.027
0.000	0.005	0.000	-0.015	-0.024	-0.020	0.034	3.989	3.022	3.022	3.018	3.032	3.022	3.022
0.000	0.005	0.005	-0.005	-0.020	-0.010	0.039	3.989	3.022	3.018	3.018	3.032	3.027	3.027
0.000	0.005	0.000	0.000	-0.010	-0.020	0.039	3.970	3.022	3.018	3.018	3.037	3.027	3.027
0.000	-0.010	0.000	-0.010	-0.010	0.015	0.034	3.975	3.018	3.013	3.013	3.037	3.032	3.032
0.005	-0.010	0.000	-0.005	-0.015	0.005	0.034	3.950	3.018	3.018	3.013	3.032	3.027	3.032
0.005	0.000	0.000	-0.005	-0.010	-0.015	0.034	3.984	3.022	3.013	3.018	3.032	3.032	3.027
0.000	-0.005	-0.005	-0.005	0.005	-0.039	0.039	3.994	3.022	3.018	3.013	3.032	3.032	3.022
0.000	0.010	-0.005	0.005	0.000	-0.029	0.039	3.965	3.018	3.018	3.013	3.032	3.032	3.027
0.000	0.034	-0.005	0.005	0.010	-0.015	0.039	3.979	3.018	3.022	3.018	3.032	3.032	3.037
0.005	0.010	0.000	0.005	0.010	0.000	0.039	3.940	3.018	3.013	3.013	3.032	3.032	3.037
0.000	-0.024	-0.005	-0.005	0.015	0.015	0.039	3.955	3.013	3.003	3.013	3.027	3.032	3.042
0.010	-0.039	-0.005	-0.024	0.010	0.024	0.039	3.975	3.013	2.998	3.003	3.022	3.027	3.042
0.005	-0.029	-0.005	-0.005	0.000	0.000	0.039	3.945	3.027	3.013	3.008	3.032	3.022	3.027
0.010	0.000	0.000	0.020	-0.010	0.020	0.039	3.940	3.022	3.022	3.013	3.032	3.022	3.032
0.024	-0.010	0.005	0.015	-0.020	0.020	0.039	3.921	3.022	3.018	3.018	3.032	3.022	3.032
0.010	-0.039	0.005	0.005	-0.015	0.015	0.039	4.009	3.013	3.008	3.013	3.027	3.022	3.027
-0.010	-0.020	0.010	-0.005	-0.020	0.005	0.034	4.019	3.018	3.018	3.013	3.027	3.022	3.027
-0.010	0.010	0.000	-0.015	-0.015	0.005	0.039	4.048	3.018	3.027	3.013	3.027	3.022	3.027
-0.005	0.020	0.005	-0.005	-0.010	0.000	0.034	3.916	3.013	3.022	3.018	3.032	3.027	3.027
-0.020	0.034	0.005	0.005	-0.015	0.005	0.039	4.019	3.003	3.022	3.018	3.037	3.027	3.027
-0.029	0.054	0.005	0.005	-0.005	0.005	0.034	3.970	3.003	3.018	3.018	3.037	3.032	3.027
-0.039	0.020	0.005	0.005	-0.010	0.005	0.039	3.921	2.998	3.003	3.013	3.037	3.032	3.032
-0.010	-0.005	0.005	0.005	-0.005	0.015	0.039	3.950	3.008	2.998	3.008	3.032	3.032	3.032
0.015	0.005	-0.005	0.005	0.005	0.000	0.039	4.014	3.027	3.008	3.003	3.027	3.032	3.027
0.024	-0.015	-0.005	0.010	0.005	-0.005	0.039	3.979	3.027	3.008	2.998	3.027	3.027	3.027
0.024	-0.024	-0.015	0.005	0.010	0.000	0.039	3.999	3.018	3.008	2.998	3.022	3.027	3.032
0.005	-0.010	-0.005	-0.010	0.015	0.015	0.034	3.970	3.018	3.013	3.003	3.022	3.027	3.027
0.000	0.000	-0.005	-0.005	0.024	0.010	0.034	3.965	3.013	3.018	3.008	3.018	3.027	3.032
0.005	0.015	0.005	-0.005	0.010	0.005	0.034	3.989	3.022	3.018	3.013	3.027	3.022	3.027
0.010	-0.005	0.010	-0.010	0.000	-0.010	0.034	3.965	3.018	3.013	3.013	3.022	3.018	3.022
-0.010	-0.029	0.015	-0.005	0.005	-0.005	0.034	3.970	3.013	3.008	3.013	3.027	3.022	3.027
-0.005	0.005	0.010	-0.005	-0.005	-0.005	0.034	3.994	3.018	3.022	3.013	3.027	3.018	3.022
-0.005	-0.005	0.015	0.000	0.005	-0.020	0.034	3.975	3.018	3.018	3.013	3.032	3.022	3.018
-0.005	0.054	0.010	-0.005	-0.005	-0.020	0.034	3.994	3.022	3.037	3.022	3.032	3.022	3.018
0.029	0.034	0.005	-0.010	-0.024	-0.020	0.034	3.984	3.032	3.027	3.018	3.032	3.018	3.018
0.034	0.039	0.005	0.005	-0.029	-0.005	0.039	3.994	3.032	3.027	3.022	3.037	3.022	3.022
0.010	0.103	-0.010	0.034	-0.039	-0.005	0.039	3.955	3.018	3.042	3.027	3.047	3.027	3.027
-0.049	0.078	-0.005	0.029	-0.015	0.000	0.039	3.965	2.993	3.018	3.022	3.047	3.037	3.032
-0.034	0.005	-0.005	0.015	-0.010	0.015	0.044	3.994	3.008	2.993	3.013	3.037	3.037	3.037
-0.020	-0.024	-0.005	0.005	-0.010	-0.005	0.044	3.989	3.018	2.993	3.003	3.027	3.032	3.027
0.020	-0.063	-0.005	0.015	-0.005	0.000	0.044	3.970	3.027	2.988	2.998	3.027	3.032	3.032
0.039	-0.020	-0.005	0.010	0.005	0.010	0.034	3.994	3.032	3.018	3.003	3.027	3.032	3.037
0.024	-0.034	0.000	-0.005	-0.005	0.015	0.034	3.994	3.022	3.013	3.003	3.022	3.027	3.037
0.015	-0.015	0.000	-0.010	-0.015	0.024	0.034	3.989	3.022	3.018	3.008	3.022	3.022	3.032
0.010	0.005	0.010	-0.010	-0.005	0.010	0.034	3.970	3.022	3.022	3.013	3.022	3.022	3.027
0.015	-0.010	0.010	-0.005	-0.029	0.024	0.029	3.970	3.018	3.018	3.018	3.027	3.018	3.027
-0.005	-0.015	0.010	0.010	-0.044	0.020	0.034	3.955	3.008	3.018	3.013	3.032	3.018	3.027
-0.005	0.000	-0.005	0.015	-0.020	0.015	0.034	2.749	2.871	2.988	3.003	3.027	3.018	3.018
-0.010	0.015	-0.005	0.000	-0.020	-0.005	0.034	2.705	2.778	2.939	2.983	3.018	3.018	3.008
-0.020	0.005	0.005	-0.010	-0.024	0.005	0.034	2.656	2.695	2.876	2.959	3.003	3.013	3.018
-0.010	-0.024	0.015	-0.015	-0.010	0.000	0.034	2.656	2.651	2.812	2.920	2.988	3.008	3.013
0.000	-0.024	0.010	-0.015	-0.005	-0.015	0.034	2.666	2.622	2.764	2.876	2.964	2.998	3.003
0.010	-0.020	0.005	-0.010	0.000	-0.005	0.034	2.764	2.612	2.725	2.837	2.939	2.983	3.003
0.020	0.000	-0.005	0.000	0.015	-0.020	0.034	2.651	2.593	2.700	2.798	2.910	2.964	2.988
0.000	0.034	-0.005	0.029	0.020	-0.015	0.034	2.734	2.578	2.681	2.769	2.886	2.944	2.979
0.000	0.020	-0.010	0.020	0.034	-0.015	0.034	2.720	2.573	2.651	2.734	2.842	2.920	2.964
-0.010	0.000	-0.005	0.005	0.024	-0.010	0.034	2.642	2.563	2.622	2.705	2.808	2.886	2.944
-0.015	0.005	0.010	-0.010	0.015	-0.024	0.034	2.686	2.554	2.607	2.676	2.773	2.852	2.915
0.005	-0.029	0.020	-0.010	0.015	-0.020	0.029	2.612	2.563	2.593	2.656	2.744	2.822	2.891
0.010	0.000	0.020	-0.005	0.020	-0.015	0.029	2.661	2.554	2.593	2.637	2.725	2.798	2.866
0.010	0.005	0.000	0.005	0.020	-0.024	0.034	2.661	2.549	2.583	2.617	2.700	2.769	2.837
0.015	0.015	0.000	0.005	0.010	-0.020	0.029	2.754	2.554	2.578	2.607	2.681	2.739	2.812
0.010	0.029	0.000	0.015	0.010	-0.020	0.029	2.651	2.539	2.573	2.598	2.666	2.720	2.788
-0.020	0.034	0.005	0.010	0.010	-0.010	0.034	2.725	2.534	2.568	2.588	2.651	2.700	2.764
-0.029	0.034	0.005	0.015	0.005	0.000	0.034	2.666	2.524	2.559	2.583	2.642	2.681	2.744
-0.024	0.020	0.005	0.020	0.000	0.005	0.034	2.656	2.510	2.544	2.568	2.622	2.661	2.725
-0.015	-0.005	0.000	-0.005	0.000	0.005	0.034	2.676	2.510	2.529	2.559	2.603	2.646	2.700
-0.005	-0.020	-0.005	-0.015	-0.005	0.010	0.034	2.671	2.505	2.520	2.544	2.588	2.627	2.686
0.010	-0.020	-0.015	-0.015	-0.005	0.005	0.034	2.666	2.495	2.515	2.534	2.578	2.617	2.666
0.020	-0.024	-0.015	-0.015	0.005	0.010	0.034	2.666	2.490	2.510	2.524	2.568	2.603	2.651
0.020	-0.024	-0.020	0.000	0.005	0.000	0.034	2.671	2.480	2.505	2.515	2.568	2.593	2.632
0.020	-0.010	-0.024	0.034	0.005	-0.010	0.034	2.700	2.476	2.500	2.515	2.563	2.583	2.617
0.020	-0.010	-0.010	0.015	-0.005	0.015	0.034	2.671	2.461	2.490	2.510	2.549	2.573	2.612
0.015	-0.020	0.000	0.020	-0.015	-0.010	0.034	2.695	2.451	2.480	2.505	2.544	2.559	2.588
0.005	-0.015	0.020	0.024	-0.005	0.024	0.034	2.690	2.446	2.476	2.500	2.539	2.554	2.588
0.000	-0.005	0.029	0.015	-0.010	0.015	0.039	2.700	2.437	2.466	2.490	2.524	2.544	2.573
-0.005	-0.015	0.015	-0.005	-0.005	0.015	0.039	2.666	2.427	2.451	2.476	2.510	2.534	2.563
0.000	-0.015	0.015	0.000	0.000	0.005	0.039	2.681	2.422	2.446	2.471	2.505	2.529	2.554
0.005	-0.020	0.000	0.005	-0.005	0.000	0.039	2.690	2.417	2.437	2.456	2.500	2.515	2.544
0.010	-0.020	-0.005	0.015	0.000	-0.010	0.039	2.671	2.412	2.432	2.451	2.495	2.510	2.529
0.010	0.049	-0.010	0.015	-0.005	-0.015	0.039	2.681	2.407	2.441	2.446	2.485	2.500	2.520
0.010	0.015	-0.005	0.015	-0.010	0.005	0.044	2.705	2.397	2.422	2.441	2.480	2.495	2.520
-0.015	-0.059	0.000	0.005	-0.010	0.015	0.044	2.700	2.378	2.388	2.427	2.466	2.485	2.515
-0.044	-0.034	0.005	-0.010	0.005	0.015	0.039	2.695	2.368	2.393	2.417	2.456	2.480	2.505
-0.024	0.063	0.000	-0.010	-0.005	0.005	0.039	2.676	2.373	2.417	2.417	2.451	2.466	2.490
-0.005	0.146	0.000	-0.020	-0.005	0.010	0.044	2.700	2.378	2.427	2.422	2.441	2.461	2.485
-0.005	0.034	-0.005	-0.049	0.010	0.020	0.044	2.676	2.358	2.378	2.407	2.432	2.456	2.480
0.010	-0.015	-0.005	-0.044	0.029	0.015	0.044	2.676	2.354	2.358	2.388	2.427	2.451	2.471
0.024	-0.020	-0.010	-0.029	0.034	0.015	0.039	2.686	2.349	2.354	2.383	2.422	2.441	2.466
0.010	-0.034	0.000	-0.005	0.024	0.000	0.039	2.661	2.334	2.344	2.373	2.422	2.437	2.451
0.034	-0.063	0.000	0.039	0.020	-0.005	0.044	2.666	2.329	2.334	2.363	2.422	2.427	2.441
0.034	-0.054	0.000	0.059	0.020	0.000	0.039	2.651	2.324	2.339	2.354	2.412	2.427	2.441
0.015	0.005	0.005	0.054	0.010	-0.005	0.039	2.778	2.319	2.349	2.354	2.402	2.412	2.432
0.005	-0.015	0.005	0.044	0.000	0.010	0.039	2.656	2.305	2.334	2.349	2.388	2.402	2.427
-0.005	0.000	0.005	0.020	0.000	0.005	0.039	2.725	2.305	2.329	2.344	2.373	2.393	2.417
-0.005	0.020	0.005	0.000	-0.005	0.020	0.044	2.744	2.305	2.324	2.339	2.368	2.383	2.412
-0.005	-0.005	0.010	0.029	-0.010	0.010	0.039	2.656	2.295	2.314	2.334	2.368	2.378	2.402
-0.005	0.000	0.015	0.010	-0.005	0.005	0.044	2.661	2.285	2.310	2.329	2.358	2.373	2.393
-0.005	0.010	0.005	-0.029	-0.005	0.020	0.039	2.632	2.275	2.305	2.314	2.344	2.363	2.388
0.015	0.000	0.005	-0.059	0.005	0.024	0.039	2.617	2.271	2.295	2.310	2.329	2.354	2.383
0.024	-0.010	-0.005	-0.054	0.000	0.020	0.034	2.637	2.261	2.285	2.300	2.329	2.344	2.368
0.010	0.039	-0.005	-0.044	-0.005	0.029	0.034	2.617	2.251	2.285	2.295	2.329	2.339	2.363
-0.005	0.015	-0.005	-0.049	-0.005	0.024	0.039	2.695	2.241	2.266	2.285	2.319	2.334	2.354
-0.020	-0.015	0.005	-0.054	0.010	0.010	0.039	2.749	2.241	2.251	2.280	2.314	2.329	2.344
-0.024	0.063	-0.005	-0.020	0.015	-0.005	0.034	2.676	2.241	2.275	2.280	2.319	2.329	2.334
-0.020	0.142	-0.005	0.034	0.020	-0.039	0.034	2.651	2.236	2.280	2.280	2.329	2.329	2.324
0.000	-0.029	0.000	0.039	0.010	-0.034	0.039	2.681	2.227	2.217	2.261	2.319	2.319	2.324
0.015	-0.049	-0.005	0.024	0.015	-0.049	0.039	2.676	2.231	2.222	2.246	2.300	2.310	2.319
0.005	-0.005	-0.005	0.015	0.015	-0.054	0.034	2.671	2.222	2.231	2.241	2.285	2.305	2.310
0.010	0.059	0.005	0.005	0.010	-0.034	0.039	2.671	2.222	2.251	2.246	2.280	2.295	2.314
0.000	0.010	0.005	-0.005	0.005	-0.015	0.034	2.661	2.207	2.222	2.241	2.266	2.285	2.310
0.000	-0.010	0.005	-0.005	0.000	0.020	0.034	2.700	2.207	2.212	2.231	2.266	2.280	2.314
0.015	-0.010	0.000	0.020	-0.005	0.015	0.034	2.690	2.212	2.217	2.227	2.266	2.275	2.300
0.005	0.010	0.005	0.029	-0.005	0.024	0.034	2.690	2.202	2.222	2.227	2.261	2.271	2.295
0.000	0.063	0.005	0.015	-0.005	0.020	0.039	2.686	2.197	2.227	2.227	2.256	2.266	2.285
-0.015	0.020	0.015	0.024	-0.015	0.024	0.039	2.705	2.192	2.207	2.222	2.256	2.261	2.280
-0.034	0.005	0.015	0.015	-0.005	0.000	0.039	2.700	2.187	2.197	2.212	2.246	2.256	2.266
-0.024	-0.020	0.005	0.015	0.005	0.024	0.039	2.695	2.183	2.187	2.202	2.236	2.256	2.271
-0.010	-0.039	0.005	0.000	0.020	0.010	0.039	2.695	2.187	2.183	2.197	2.227	2.251	2.261
0.005	-0.034	0.000	0.000	0.015	0.029	0.039	2.700	2.187	2.187	2.192	2.227	2.241	2.261
0.015	-0.044	-0.005	0.000	0.010	0.029	0.039	2.700	2.183	2.183	2.187	2.217	2.231	2.251
0.015	-0.054	-0.005	-0.005	0.010	0.015	0.034	2.695	2.178	2.178	2.183	2.212	2.222	2.241
0.034	-0.044	0.000	-0.010	0.020	0.015	0.034	2.671	2.178	2.183	2.183	2.207	2.222	2.236
0.039	-0.024	-0.005	-0.010	0.015	0.005	0.034	2.700	2.173	2.183	2.183	2.207	2.212	2.227
0.005	-0.005	0.005	-0.020	0.010	-0.005	0.039	2.676	2.153	2.183	2.183	2.202	2.207	2.217
-0.010	0.034	0.005	-0.005	0.000	-0.010	0.039	2.676	2.144	2.183	2.183	2.202	2.202	2.212
0.000	0.073	0.010	0.000	0.000	0.000	0.039	2.681	2.144	2.183	2.183	2.207	2.202	2.212
-0.015	0.068	0.015	0.005	0.000	0.000	0.039	2.671	2.134	2.168	2.183	2.202	2.202	2.212
-0.029	0.034	0.000	-0.010	-0.005	0.000	0.039	2.690	2.129	2.144	2.168	2.197	2.197	2.207
-0.044	0.015	0.015	-0.005	0.000	-0.015	0.039	2.656	2.119	2.134	2.163	2.192	2.197	2.202
-0.020	0.000	0.010	0.000	0.005	-0.005	0.034	2.656	2.124	2.129	2.153	2.187	2.192	2.202
0.000	-0.039	0.005	0.000	0.005	-0.010	0.039	2.671	2.124	2.114	2.139	2.183	2.187	2.197
-0.005	-0.029	0.010	0.010	0.005	0.010	0.034	2.783	2.139	2.129	2.139	2.178	2.187	2.197
0.005	-0.010	0.010	0.015	0.005	0.005	0.034	2.651	2.129	2.134	2.134	2.173	2.183	2.192
0.005	-0.005	0.005	0.005	0.005	0.000	0.034	2.720	2.129	2.129	2.129	2.163	2.173	2.187
0.005	-0.015	0.000	0.000	-0.005	0.005	0.034	2.729	2.129	2.129	2.129	2.158	2.168	2.183
0.020	-0.015	0.000	-0.005	0.005	0.000	0.034	2.632	2.119	2.124	2.129	2.153	2.168	2.178
0.020	-0.039	-0.005	-0.010	0.010	-0.005	0.034	2.661	2.109	2.109	2.124	2.148	2.158	2.173
0.024	-0.039	0.000	-0.005	0.015	-0.015	0.034	2.690	2.109	2.114	2.124	2.144	2.153	2.163
0.034	-0.015	0.015	-0.005	0.010	0.010	0.034	2.700	2.109	2.124	2.119	2.144	2.153	2.168
0.015	0.000	0.005	-0.010	0.010	-0.005	0.034	2.656	2.095	2.119	2.119	2.139	2.148	2.158
-0.020	0.015	-0.010	-0.015	0.005	0.005	0.034	2.725	2.090	2.109	2.114	2.139	2.144	2.158
-0.024	0.020	0.010	-0.005	0.000	-0.010	0.034	2.690	2.085	2.104	2.114	2.139	2.139	2.148
-0.010	0.020	0.005	0.005	-0.005	0.005	0.034	2.759	2.100	2.104	2.109	2.139	2.139	2.148
0.005	0.024	0.005	0.034	-0.005	0.005	0.029	2.671	2.095	2.100	2.109	2.148	2.139	2.144
0.015	-0.005	-0.005	0.039	-0.005	0.000	0.029	2.651	2.090	2.095	2.100	2.144	2.139	2.144
-0.005	0.029	0.005	0.029	0.000	0.000	0.034	2.671	2.075	2.100	2.104	2.129	2.139	2.144
-0.024	0.034	-0.005	0.015	-0.010	0.010	0.034	2.681	2.070	2.090	2.100	2.124	2.129	2.139
-0.034	-0.029	0.000	0.010	0.005	-0.015	0.034	2.700	2.070	2.065	2.090	2.119	2.129	2.129
-0.020	-0.020	0.000	0.010	0.000	0.005	0.034	2.671	2.065	2.070	2.080	2.114	2.124	2.134
-0.020	-0.010	-0.020	0.015	0.000	0.000	0.034	2.671	2.065	2.075	2.075	2.109	2.119	2.129
-0.010	0.063	-0.020	0.005	0.000	0.010	0.034	2.710	2.075	2.100	2.080	2.104	2.114	2.124
0.010	0.088	0.005	0.000	-0.010	0.005	0.034	2.681	2.080	2.095	2.090	2.104	2.109	2.124
0.024	0.044	0.000	-0.010	-0.005	0.005	0.034	2.700	2.080	2.080	2.085	2.104	2.104	2.114
0.020	-0.005	-0.015	0.000	-0.010	0.005	0.034	2.690	2.070	2.061	2.075	2.100	2.104	2.109
0.020	-0.034	-0.015	0.010	0.000	-0.015	0.034	2.690	2.061	2.051	2.070	2.100	2.104	2.109
0.024	-0.029	-0.010	-0.010	-0.005	0.015	0.034	2.700	2.061	2.056	2.065	2.090	2.095	2.109
0.015	-0.005	0.020	-0.015	0.005	0.005	0.034	2.700	2.056	2.061	2.070	2.090	2.100	2.104
0.024	-0.068	0.029	-0.020	0.005	0.000	0.034	2.690	2.051	2.046	2.065	2.085	2.090	2.100
0.005	-0.034	0.020	-0.024	0.005	0.000	0.034	2.676	2.041	2.051	2.061	2.085	2.085	2.095
-0.005	-0.024	0.029	0.000	-0.005	0.010	0.034	2.686	2.041	2.051	2.061	2.085	2.085	2.095
-0.010	-0.020	0.015	0.000	-0.010	0.005	0.034	2.690	2.036	2.046	2.051	2.080	2.080	2.090
-0.015	0.000	0.005	-0.005	0.000	0.010	0.034	2.700	2.041	2.051	2.046	2.080	2.085	2.090
-0.010	0.020	-0.005	0.000	0.000	0.005	0.034	2.695	2.041	2.051	2.051	2.075	2.080	2.085
-0.005	0.015	0.010	0.005	0.000	0.000	0.039	2.681	2.041	2.046	2.051	2.075	2.075	2.085
0.000	0.020	0.000	0.000	0.010	-0.015	0.044	2.681	2.041	2.051	2.051	2.075	2.075	2.075
0.000	0.049	-0.005	0.010	0.005	0.000	0.039	2.700	2.041	2.056	2.046	2.075	2.075	2.080
0.010	0.039	-0.015	0.015	0.000	0.010	0.044	2.671	2.036	2.046	2.046	2.070	2.070	2.085
-0.005	0.005	-0.010	0.000	0.005	0.015	0.039	2.686	2.031	2.031	2.041	2.065	2.070	2.080
0.010	0.020	-0.015	0.000	0.015	0.000	0.039	2.642	2.031	2.041	2.041	2.065	2.070	2.070
0.020	0.059	-0.005	0.015	0.015	-0.015	0.044	2.661	2.026	2.041	2.041	2.070	2.065	2.065
0.020	-0.020	0.015	0.015	0.000	-0.020	0.039	2.661	2.017	2.017	2.036	2.065	2.061	2.061
0.010	-0.029	0.010	0.000	-0.029	-0.034	0.044	2.739	2.026	2.017	2.026	2.056	2.051	2.056
0.015	-0.005	0.010	-0.010	-0.044	-0.020	0.039	2.651	2.021	2.026	2.026	2.051	2.041	2.056
0.005	-0.005	0.010	-0.010	-0.049	0.000	0.039	2.632	2.007	2.021	2.026	2.046	2.046	2.056
-0.005	0.010	-0.029	-0.005	-0.029	0.005	0.039	2.754	2.007	2.017	2.012	2.046	2.051	2.056
-0.020	0.015	-0.024	-0.005	-0.005	-0.005	0.044	2.734	2.012	2.017	2.017	2.041	2.051	2.051
-0.015	0.005	0.024	0.005	0.010	0.024	0.044	2.695	2.012	2.012	2.026	2.046	2.051	2.061
-0.015	0.010	0.005	0.000	0.020	0.005	0.044	2.627	2.002	2.012	2.017	2.041	2.051	2.056
-0.015	0.005	-0.024	0.015	0.010	0.024	0.044	2.725	2.007	2.012	2.007	2.041	2.046	2.056
-0.010	0.000	-0.015	0.044	0.024	0.005	0.044	2.642	2.002	2.007	2.012	2.046	2.046	2.051
-0.005	0.010	0.000	0.034	0.039	0.010	0.044	2.710	2.012	2.012	2.012	2.041	2.051	2.051
0.005	0.000	0.000	0.015	0.049	-0.005	0.044	2.695	2.012	2.012	2.012	2.031	2.046	2.046
0.010	0.000	-0.010	-0.005	0.000	-0.020	0.044	2.749	2.017	2.012	2.007	2.026	2.021	2.031
0.015	0.000	0.000	-0.020	-0.020	-0.005	0.044	2.666	2.012	2.012	2.012	2.021	2.017	2.031
0.005	-0.005	0.024	-0.024	-0.049	-0.020	0.044	2.666	1.997	2.007	2.017	2.021	2.007	2.026
-0.010	-0.005	0.020	-0.020	-0.059	-0.015	0.044	2.676	1.992	2.002	2.007	2.026	2.012	2.017
0.010	-0.015	0.010	-0.010	-0.039	-0.005	0.044	2.661	1.992	1.997	2.002	2.026	2.021	2.021
0.005	-0.005	0.000	-0.005	-0.005	0.000	0.044	2.690	1.992	1.997	2.002	2.026	2.026	2.026
0.005	-0.029	0.034	0.000	0.015	0.020	0.044	2.671	1.992	1.987	2.002	2.026	2.031	2.031
0.010	-0.029	0.020	0.005	0.000	0.020	0.044	2.656	1.987	1.992	1.997	2.021	2.026	2.031
0.015	-0.034	-0.005	0.010	-0.010	0.010	0.039	2.700	1.992	1.987	1.987	2.021	2.017	2.026
0.024	-0.044	0.010	0.010	-0.020	0.010	0.029	2.676	1.992	1.987	1.992	2.017	2.017	2.021
0.015	-0.020	-0.010	0.000	-0.005	-0.020	0.034	2.695	1.992	1.992	1.987	2.012	2.017	2.012
0.000	0.000	0.015	-0.005	0.005	-0.005	0.034	2.695	1.982	1.992	1.997	2.012	2.017	2.017
-0.005	0.034	0.015	-0.020	0.068	0.010	0.034	2.715	1.982	2.002	1.997	2.012	2.031	2.026
