0.000	0.010	0.000	0.005	-0.005	0.005	0.034	2.651	2.539	2.158	2.051	1.978	1.978	1.973
0.005	0.005	0.000	0.000	-0.005	0.000	0.034	2.676	2.383	2.222	2.100	2.012	1.987	1.978
-0.005	0.005	0.010	0.000	-0.005	0.000	0.034	2.681	2.266	2.241	2.139	2.051	2.002	1.982
-0.010	0.005	0.005	0.000	0.000	-0.010	0.034	2.686	2.183	2.222	2.163	2.085	2.021	1.987
-0.005	0.010	0.000	0.000	-0.010	0.005	0.034	2.720	2.129	2.202	2.173	2.114	2.046	2.012
0.000	0.005	0.005	-0.005	-0.005	0.005	0.034	2.681	2.085	2.168	2.173	2.134	2.065	2.026
-0.005	0.005	0.005	0.000	-0.010	0.010	0.034	2.690	2.056	2.139	2.168	2.148	2.090	2.041
0.000	0.000	-0.005	0.000	0.000	-0.010	0.034	2.681	2.036	2.109	2.148	2.153	2.109	2.056
0.005	0.005	-0.005	0.005	0.000	0.000	0.034	2.671	2.021	2.090	2.134	2.153	2.119	2.075
0.000	-0.005	0.000	-0.005	-0.005	-0.020	0.034	2.681	2.012	2.065	2.114	2.148	2.124	2.085
0.005	-0.005	0.005	0.000	-0.005	0.010	0.034	2.690	2.007	2.051	2.095	2.139	2.129	2.104
0.000	0.000	0.000	0.000	-0.005	0.010	0.034	2.686	2.007	2.036	2.080	2.129	2.129	2.109
0.010	0.000	0.005	0.000	-0.005	-0.015	0.034	2.715	2.012	2.031	2.070	2.119	2.124	2.109
0.010	0.005	0.000	0.000	0.010	0.000	0.034	2.686	2.012	2.026	2.056	2.104	2.124	2.119
0.005	0.005	0.000	0.005	0.024	0.005	0.034	2.676	2.012	2.026	2.046	2.095	2.119	2.119
0.000	0.000	0.005	-0.005	0.015	0.005	0.034	2.676	2.012	2.021	2.036	2.085	2.104	2.114
0.010	0.010	-0.005	0.000	0.010	0.000	0.034	2.676	2.012	2.021	2.031	2.075	2.095	2.109
-0.005	0.005	0.000	0.000	0.000	0.005	0.034	2.666	2.007	2.017	2.026	2.065	2.085	2.100
0.000	0.015	0.000	0.005	-0.005	0.005	0.034	2.681	2.012	2.021	2.026	2.065	2.075	2.095
0.000	0.000	-0.005	0.000	-0.005	0.000	0.034	2.681	2.012	2.012	2.021	2.056	2.065	2.085
-0.005	0.000	0.000	0.000	0.000	0.010	0.034	2.666	2.007	2.012	2.021	2.051	2.065	2.085
0.005	-0.005	0.000	0.000	0.000	0.005	0.034	2.646	2.007	2.007	2.017	2.046	2.056	2.075
-0.005	0.000	0.000	0.000	0.000	0.000	0.034	2.681	2.002	2.007	2.012	2.041	2.051	2.070
0.005	-0.010	0.005	0.005	0.000	-0.005	0.034	2.686	2.007	2.007	2.012	2.041	2.046	2.061
-0.005	0.000	0.000	0.005	0.000	0.005	0.034	2.686	2.002	2.007	2.007	2.031	2.041	2.061
0.005	-0.005	0.000	0.000	0.000	0.005	0.034	2.671	2.007	2.007	2.002	2.031	2.041	2.051
0.005	0.000	0.000	0.005	0.000	0.000	0.034	2.666	2.002	2.007	2.007	2.026	2.031	2.046
0.005	-0.024	0.000	0.000	0.000	0.005	0.034	2.676	1.997	1.997	2.002	2.026	2.031	2.041
0.010	-0.020	0.000	0.000	0.000	-0.005	0.034	2.725	2.007	2.002	1.997	2.021	2.026	2.036
0.000	-0.005	0.000	0.005	0.000	-0.005	0.034	2.671	1.997	2.002	2.002	2.021	2.026	2.036
0.000	-0.005	0.000	0.000	0.005	-0.005	0.034	2.671	1.997	2.002	2.002	2.021	2.021	2.031
0.005	0.000	0.005	0.000	-0.005	0.005	0.034	2.690	2.002	2.002	2.002	2.021	2.021	2.031
0.000	0.024	0.000	0.000	-0.005	-0.005	0.034	2.671	1.997	2.007	2.002	2.017	2.017	2.026
0.005	0.015	0.000	0.005	0.000	-0.005	0.034	2.676	1.992	2.002	2.002	2.021	2.021	2.026
-0.005	0.020	0.005	0.000	0.005	0.000	0.034	2.681	1.992	2.002	2.002	2.021	2.021	2.021
-0.005	0.020	0.000	0.005	0.000	0.005	0.034	2.681	1.992	1.997	2.002	2.017	2.017	2.021
0.000	0.010	0.000	0.005	-0.005	-0.005	0.034	2.676	1.992	1.992	1.997	2.017	2.017	2.021
-0.005	0.010	0.005	0.000	0.000	0.005	0.034	2.676	1.992	1.992	1.997	2.017	2.017	2.021
0.000	0.000	0.000	0.005	0.000	0.010	0.034	2.681	1.992	1.992	1.992	2.017	2.017	2.021
0.010	-0.005	0.000	0.005	0.000	0.010	0.034	2.676	1.992	1.987	1.992	2.012	2.017	2.021
-0.005	-0.005	0.005	0.000	0.005	-0.024	0.034	2.686	1.987	1.982	1.992	2.012	2.012	2.007
0.000	-0.015	0.000	0.005	-0.005	0.005	0.034	2.686	1.982	1.982	1.987	2.012	2.012	2.017
0.005	-0.010	0.000	0.005	0.000	0.005	0.034	2.666	1.982	1.982	1.982	2.007	2.012	2.012
0.010	-0.015	-0.005	0.000	0.000	0.005	0.034	2.661	1.982	1.982	1.982	2.002	2.007	2.017
0.000	-0.010	0.000	0.000	0.000	0.000	0.034	2.661	1.978	1.982	1.982	2.002	2.002	2.007
-0.005	-0.005	0.000	-0.005	0.000	0.015	0.034	2.686	1.978	1.982	1.978	2.002	2.002	2.012
0.005	0.005	0.000	0.000	0.005	0.015	0.034	2.686	1.978	1.982	1.978	2.002	1.997	2.007
0.005	-0.005	0.000	0.005	0.000	0.010	0.034	2.676	1.973	1.978	1.978	2.002	2.002	2.007
0.005	0.005	0.005	0.000	-0.005	0.005	0.034	2.671	1.978	1.978	1.978	1.997	1.997	2.002
0.000	0.005	0.005	0.000	0.000	0.000	0.034	2.690	1.973	1.978	1.978	2.002	1.997	1.997
-0.005	0.005	0.005	0.000	0.005	-0.005	0.034	2.690	1.973	1.973	1.978	2.002	1.997	1.997
0.000	0.005	0.005	0.000	0.005	0.000	0.034	2.690	1.978	1.973	1.978	1.997	1.997	2.002
-0.010	0.010	0.005	0.005	0.000	0.000	0.034	2.686	1.973	1.973	1.978	1.997	1.992	1.997
0.005	0.010	0.005	-0.005	0.000	0.005	0.034	2.686	1.973	1.973	1.978	1.997	1.997	1.997
-0.005	0.005	0.000	0.000	0.000	0.000	0.034	2.681	1.968	1.973	1.973	1.992	1.992	1.992
0.005	-0.015	0.005	0.000	0.005	-0.015	0.034	2.676	1.968	1.968	1.973	1.997	1.992	1.987
0.000	-0.015	0.005	0.000	-0.005	0.005	0.034	2.676	1.968	1.968	1.968	1.992	1.987	1.997
0.005	-0.015	0.000	0.005	0.000	0.000	0.034	2.666	1.963	1.963	1.968	1.992	1.992	1.992
0.005	-0.010	0.000	0.000	0.005	0.005	0.034	2.690	1.968	1.968	1.968	1.987	1.987	1.992
-0.005	0.000	-0.005	0.000	0.005	0.000	0.034	2.676	1.963	1.968	1.968	1.987	1.987	1.992
0.000	-0.005	-0.005	0.000	0.000	-0.010	0.034	2.666	1.963	1.963	1.963	1.982	1.987	1.987
0.005	0.000	-0.005	0.005	0.005	-0.015	0.034	2.671	1.963	1.963	1.963	1.982	1.982	1.982
0.015	0.005	0.000	0.000	0.000	-0.005	0.034	2.671	1.958	1.963	1.963	1.982	1.982	1.987
0.005	0.010	0.000	0.000	0.000	0.000	0.034	2.690	1.963	1.968	1.963	1.982	1.982	1.982
-0.005	0.015	0.000	0.000	0.000	0.005	0.034	2.681	1.958	1.963	1.963	1.982	1.978	1.982
0.005	0.005	0.000	0.000	0.000	-0.005	0.039	2.676	1.958	1.963	1.963	1.982	1.978	1.982
0.000	0.015	0.005	0.000	0.000	0.000	0.034	2.686	1.958	1.963	1.963	1.982	1.982	1.982
0.005	0.005	0.010	0.000	-0.005	0.000	0.034	2.681	1.958	1.958	1.963	1.982	1.978	1.982
0.000	0.005	0.000	0.005	0.000	0.000	0.034	2.681	1.958	1.958	1.958	1.982	1.978	1.982
-0.005	0.000	0.005	0.000	-0.005	0.005	0.034	2.700	1.958	1.953	1.958	1.978	1.978	1.982
0.000	0.010	0.005	0.000	0.000	0.000	0.034	2.686	1.953	1.958	1.958	1.978	1.978	1.982
-0.005	0.005	0.005	0.000	0.000	0.005	0.034	2.666	1.948	1.953	1.958	1.978	1.978	1.978
0.000	0.005	-0.005	0.000	0.000	0.005	0.034	2.686	1.958	1.953	1.953	1.978	1.973	1.982
0.005	0.005	0.005	0.000	0.005	0.005	0.034	2.681	1.958	1.953	1.953	1.978	1.978	1.978
0.010	-0.005	0.005	0.000	0.000	-0.015	0.034	2.690	1.953	1.948	1.953	1.978	1.973	1.968
0.000	0.000	0.000	0.000	0.000	0.010	0.034	2.676	1.948	1.948	1.953	1.973	1.973	1.978
0.000	-0.005	0.000	0.000	0.000	0.005	0.034	2.681	1.948	1.948	1.948	1.968	1.968	1.973
0.005	-0.010	-0.005	0.000	0.000	0.005	0.034	2.676	1.948	1.948	1.948	1.968	1.968	1.973
0.010	-0.005	-0.005	0.005	0.000	-0.010	0.034	2.671	1.948	1.948	1.948	1.968	1.968	1.968
0.000	-0.005	0.000	0.005	0.000	0.005	0.034	2.681	1.943	1.948	1.948	1.968	1.968	1.973
0.000	0.000	0.000	0.000	0.000	-0.005	0.034	2.686	1.948	1.948	1.948	1.968	1.963	1.963
-0.005	0.000	0.000	0.000	0.000	0.005	0.034	2.686	1.943	1.948	1.943	1.968	1.963	1.973
-0.005	0.010	0.010	0.000	0.000	0.000	0.034	2.676	1.943	1.948	1.948	1.968	1.963	1.968
-0.005	0.010	0.010	0.000	0.005	0.015	0.034	2.690	1.948	1.948	1.948	1.968	1.963	1.968
-0.005	0.015	0.000	0.005	0.000	0.005	0.034	2.661	1.943	1.948	1.943	1.968	1.963	1.968
-0.005	0.010	0.005	0.005	0.000	0.005	0.034	2.690	1.943	1.948	1.948	1.968	1.963	1.968
0.000	0.010	-0.005	0.000	0.000	-0.010	0.034	2.681	1.943	1.943	1.943	1.963	1.958	1.963
0.005	0.000	0.010	0.005	0.000	0.005	0.034	2.661	1.943	1.943	1.943	1.963	1.963	1.968
0.000	0.005	0.005	-0.005	0.000	0.005	0.034	2.666	1.943	1.943	1.943	1.963	1.963	1.963
0.000	0.005	0.000	0.000	0.000	0.005	0.034	2.686	1.938	1.943	1.938	1.963	1.963	1.963
0.000	0.005	0.000	0.000	-0.005	0.000	0.034	2.681	1.943	1.943	1.938	1.963	1.958	1.963
0.010	-0.015	-0.005	0.000	0.000	0.010	0.034	2.666	1.938	1.934	1.934	1.958	1.958	1.963
-0.005	-0.005	-0.005	0.000	0.000	0.005	0.034	2.676	1.938	1.934	1.938	1.958	1.958	1.958
0.005	-0.010	0.000	0.000	0.005	0.005	0.034	2.686	1.938	1.934	1.938	1.958	1.953	1.963
0.005	-0.005	-0.005	0.000	0.005	0.000	0.034	2.681	1.938	1.934	1.934	1.958	1.953	1.953
0.010	0.010	0.005	0.005	0.000	0.005	0.034	2.671	1.934	1.938	1.938	1.953	1.953	1.958
0.000	0.005	0.000	0.000	0.000	0.000	0.034	2.676	1.934	1.938	1.938	1.953	1.953	1.953
0.005	0.005	0.005	0.000	0.005	0.005	0.034	2.671	1.934	1.938	1.934	1.953	1.953	1.953
0.000	0.000	0.000	0.005	-0.005	-0.005	0.034	2.681	1.934	1.934	1.934	1.953	1.948	1.953
0.000	0.000	0.000	0.005	0.000	0.000	0.034	2.676	1.934	1.934	1.934	1.953	1.948	1.953
0.010	0.010	0.000	0.005	0.005	0.000	0.034	2.666	1.934	1.938	1.934	1.953	1.953	1.953
0.000	0.005	0.000	0.005	-0.005	-0.010	0.034	2.676	1.934	1.934	1.934	1.953	1.948	1.953
-0.005	0.015	0.005	0.000	0.000	0.000	0.029	2.681	1.934	1.934	1.938	1.953	1.948	1.953
0.000	0.000	0.005	0.000	0.005	0.015	0.034	2.676	1.934	1.934	1.934	1.953	1.948	1.953
0.000	-0.005	0.005	-0.005	-0.005	0.000	0.034	2.681	1.934	1.934	1.934	1.948	1.948	1.948
-0.005	-0.015	0.000	-0.005	0.005	-0.015	0.034	2.681	1.934	1.929	1.929	1.948	1.948	1.948
0.000	-0.005	0.000	-0.005	0.000	-0.015	0.034	2.676	1.934	1.929	1.929	1.948	1.943	1.943
0.000	0.000	-0.005	0.000	0.000	0.005	0.034	2.681	1.929	1.929	1.929	1.948	1.948	1.953
0.000	-0.010	0.000	0.000	0.005	-0.005	0.034	2.681	1.934	1.929	1.929	1.948	1.943	1.943
-0.005	-0.005	0.005	0.000	0.000	0.020	0.034	2.676	1.924	1.929	1.929	1.948	1.943	1.953
0.005	0.000	0.000	0.000	0.000	0.010	0.034	2.676	1.929	1.929	1.924	1.948	1.943	1.943
0.000	-0.005	-0.005	0.000	0.000	-0.010	0.034	2.666	1.929	1.929	1.924	1.948	1.943	1.943
0.010	-0.005	0.005	-0.005	0.000	0.010	0.034	2.686	1.929	1.929	1.929	1.943	1.943	1.948
-0.005	0.005	0.000	-0.005	0.000	0.010	0.034	2.681	1.924	1.929	1.929	1.943	1.938	1.948
0.005	0.005	0.005	0.000	0.000	0.005	0.034	2.686	1.929	1.929	1.929	1.948	1.938	1.943
0.000	0.005	0.000	0.005	0.000	0.005	0.034	2.671	1.929	1.934	1.929	1.948	1.943	1.943
-0.005	0.015	0.005	0.005	0.000	0.010	0.034	2.666	1.924	1.934	1.924	1.948	1.943	1.943
0.000	-0.005	0.000	0.005	0.000	0.005	0.034	2.686	1.929	1.924	1.929	1.948	1.943	1.943
0.000	-0.005	0.005	0.000	0.000	-0.020	0.034	2.686	1.929	1.924	1.924	1.948	1.943	1.938
0.005	0.005	0.005	-0.005	0.005	0.010	0.034	2.681	1.929	1.929	1.929	1.943	1.943	1.948
0.000	0.005	0.005	0.000	0.000	-0.005	0.034	2.690	1.929	1.929	1.924	1.943	1.938	1.938
-0.015	-0.005	0.000	0.005	0.005	0.010	0.034	2.676	1.919	1.924	1.924	1.943	1.943	1.943
-0.005	0.005	0.005	0.000	0.000	0.010	0.034	2.681	1.929	1.929	1.924	1.943	1.943	1.943
0.010	0.005	0.000	0.000	0.000	0.010	0.034	2.671	1.929	1.929	1.924	1.943	1.938	1.943
0.015	-0.005	0.000	0.010	0.005	-0.010	0.034	2.681	1.929	1.924	1.924	1.948	1.938	1.938
0.005	-0.005	-0.005	0.020	0.000	0.005	0.034	2.671	1.924	1.924	1.924	1.948	1.943	1.943
0.010	-0.005	0.000	0.015	0.005	0.005	0.034	2.690	1.924	1.924	1.919	1.943	1.943	1.943
0.000	0.000	-0.005	0.010	0.000	-0.015	0.034	2.676	1.919	1.924	1.919	1.938	1.938	1.934
0.000	0.000	0.000	0.000	0.005	0.010	0.034	2.671	1.919	1.919	1.919	1.938	1.938	1.943
0.000	0.000	0.000	-0.005	0.000	0.010	0.034	2.676	1.924	1.919	1.919	1.938	1.934	1.938
0.005	0.005	-0.005	-0.010	-0.005	0.005	0.034	2.686	1.924	1.924	1.919	1.934	1.934	1.938
-0.005	0.005	0.005	-0.020	0.005	0.005	0.034	2.690	1.924	1.919	1.919	1.934	1.934	1.938
0.000	0.000	0.005	-0.015	0.005	-0.005	0.034	2.681	1.924	1.924	1.919	1.934	1.934	1.934
-0.010	0.010	0.005	-0.010	0.000	-0.005	0.034	2.686	1.924	1.924	1.919	1.938	1.934	1.929
-0.010	0.010	0.005	-0.005	0.005	0.000	0.034	2.686	1.919	1.924	1.924	1.938	1.934	1.934
-0.010	0.010	0.000	-0.005	0.000	-0.029	0.034	2.686	1.919	1.924	1.919	1.943	1.934	1.924
-0.005	-0.005	0.000	0.000	0.000	0.010	0.034	2.676	1.919	1.919	1.919	1.943	1.934	1.938
0.005	0.000	0.000	0.005	-0.005	-0.010	0.034	2.690	1.924	1.919	1.919	1.943	1.934	1.934
-0.005	0.005	0.000	0.010	-0.005	0.010	0.034	2.671	1.919	1.919	1.919	1.943	1.938	1.938
-0.005	-0.005	0.005	0.005	-0.005	0.005	0.034	2.676	1.914	1.919	1.919	1.938	1.938	1.938
-0.005	-0.010	0.010	0.010	0.000	0.005	0.034	2.690	1.919	1.914	1.914	1.938	1.938	1.938
0.005	-0.015	0.000	0.010	0.000	-0.005	0.034	2.681	1.919	1.914	1.914	1.938	1.934	1.934
0.005	0.005	-0.005	0.005	0.000	0.000	0.034	2.681	1.924	1.919	1.914	1.934	1.934	1.938
0.020	-0.020	-0.005	0.005	0.005	0.010	0.034	2.666	1.919	1.914	1.914	1.934	1.934	1.938
0.024	-0.005	-0.005	0.005	0.000	-0.015	0.034	2.666	1.919	1.919	1.914	1.934	1.929	1.929
0.010	-0.005	-0.010	-0.005	0.005	0.005	0.034	2.671	1.914	1.919	1.914	1.929	1.929	1.934
0.000	0.000	0.000	0.000	0.010	0.000	0.034	2.676	1.909	1.919	1.914	1.934	1.929	1.934
0.005	0.005	0.005	0.000	0.005	-0.005	0.034	2.671	1.914	1.919	1.914	1.934	1.929	1.929
0.005	0.020	0.005	0.005	0.005	0.000	0.034	2.671	1.914	1.919	1.914	1.934	1.929	1.934
-0.015	0.005	0.000	0.005	0.000	-0.005	0.034	2.661	1.909	1.914	1.914	1.934	1.929	1.929
0.005	0.015	0.000	0.010	0.000	0.000	0.034	2.646	1.914	1.914	1.914	1.934	1.929	1.929
0.010	0.005	0.005	0.010	0.000	0.000	0.034	2.808	1.924	1.914	1.914	1.934	1.929	1.934
0.015	0.010	0.000	0.010	-0.005	0.000	0.034	2.651	1.924	1.919	1.914	1.934	1.929	1.934
0.010	0.015	0.000	0.005	0.005	-0.005	0.034	2.661	1.919	1.919	1.919	1.934	1.929	1.929
0.010	-0.005	0.005	0.000	0.000	0.000	0.034	2.651	1.914	1.914	1.914	1.934	1.929	1.929
-0.020	-0.005	0.005	0.000	0.000	0.000	0.034	2.656	1.899	1.909	1.914	1.934	1.929	1.934
-0.039	0.000	0.000	-0.005	0.005	0.005	0.034	2.632	1.895	1.904	1.909	1.929	1.929	1.934
-0.020	0.005	0.000	-0.010	0.000	-0.005	0.034	2.632	1.899	1.904	1.904	1.929	1.924	1.924
0.000	0.000	-0.005	-0.010	-0.005	-0.020	0.034	2.671	1.909	1.904	1.904	1.924	1.919	1.919
0.000	-0.005	-0.005	-0.015	0.000	0.010	0.034	2.822	1.924	1.904	1.904	1.924	1.924	1.929
0.000	0.000	-0.005	-0.010	0.000	-0.020	0.034	2.646	1.924	1.914	1.904	1.924	1.919	1.919
-0.005	0.005	0.000	0.000	0.005	0.000	0.034	2.832	1.934	1.919	1.909	1.929	1.924	1.929
0.000	-0.005	-0.005	0.005	0.000	0.010	0.034	2.666	1.924	1.919	1.914	1.929	1.924	1.924
-0.020	0.005	0.000	0.020	0.005	0.010	0.034	2.681	1.914	1.919	1.914	1.934	1.924	1.929
-0.015	0.000	0.005	0.010	0.000	0.005	0.034	2.661	1.914	1.914	1.914	1.929	1.924	1.929
-0.015	0.000	0.005	0.010	0.010	0.005	0.034	2.676	1.914	1.914	1.914	1.934	1.924	1.924
-0.010	0.015	0.005	0.005	0.005	0.015	0.034	2.676	1.914	1.914	1.914	1.934	1.924	1.929
-0.010	0.005	-0.005	0.005	0.005	0.000	0.034	2.666	1.909	1.914	1.914	1.934	1.924	1.924
-0.005	-0.005	0.005	0.000	0.000	0.010	0.034	2.661	1.909	1.914	1.914	1.929	1.924	1.929
-0.005	-0.005	0.005	0.010	0.000	0.010	0.034	2.666	1.909	1.909	1.914	1.929	1.924	1.929
0.005	0.000	0.000	0.005	-0.005	0.005	0.034	2.651	1.909	1.909	1.909	1.929	1.924	1.929
0.015	-0.005	0.000	0.000	0.000	-0.005	0.034	2.646	1.909	1.909	1.909	1.929	1.924	1.924
0.015	-0.005	0.000	-0.005	0.005	-0.005	0.034	2.671	1.909	1.909	1.909	1.924	1.924	1.924
0.010	0.000	-0.005	-0.010	0.005	0.000	0.034	2.827	1.929	1.914	1.909	1.924	1.924	1.924
0.010	-0.015	0.000	-0.005	0.000	-0.005	0.034	2.637	1.914	1.909	1.909	1.929	1.924	1.924
0.010	-0.010	0.000	0.000	0.000	0.000	0.034	2.827	1.914	1.914	1.909	1.929	1.924	1.924
0.005	-0.005	0.000	0.000	-0.005	-0.005	0.034	2.676	1.914	1.914	1.909	1.929	1.924	1.919
0.010	0.000	-0.005	0.000	0.000	-0.005	0.034	2.671	1.919	1.914	1.909	1.929	1.924	1.924
0.015	0.000	-0.005	0.005	0.000	-0.024	0.034	2.671	1.909	1.914	1.914	1.929	1.924	1.919
0.010	-0.010	0.005	0.000	-0.005	0.005	0.034	2.681	1.904	1.909	1.909	1.929	1.924	1.929
0.015	0.000	0.000	0.005	0.000	-0.005	0.034	2.686	1.909	1.909	1.909	1.929	1.924	1.919
0.010	0.005	0.000	-0.005	0.005	0.010	0.034	2.671	1.909	1.909	1.909	1.929	1.924	1.929
0.005	0.010	0.005	0.005	0.005	0.000	0.034	2.661	1.904	1.909	1.909	1.929	1.924	1.929
0.000	0.005	0.005	0.000	0.005	0.010	0.034	2.661	1.899	1.904	1.909	1.929	1.924	1.929
0.000	0.010	0.000	-0.005	0.000	0.000	0.034	2.656	1.904	1.904	1.909	1.929	1.924	1.924
-0.005	0.000	0.005	0.000	0.000	0.000	0.034	2.651	1.899	1.899	1.904	1.924	1.924	1.924
0.005	0.000	0.000	0.000	0.000	0.010	0.034	2.656	1.904	1.899	1.904	1.929	1.924	1.924
0.015	-0.005	0.000	0.000	0.005	0.000	0.034	2.822	1.924	1.904	1.904	1.924	1.924	1.924
0.000	0.000	0.000	0.000	0.000	0.010	0.034	2.646	1.914	1.909	1.904	1.924	1.924	1.924
0.005	0.000	-0.005	0.005	0.000	0.000	0.034	2.812	1.929	1.914	1.904	1.924	1.924	1.924
0.000	-0.005	0.000	0.000	0.000	-0.010	0.034	2.666	1.919	1.914	1.904	1.924	1.919	1.919
0.000	-0.010	0.005	0.005	0.005	0.015	0.034	2.671	1.914	1.914	1.909	1.924	1.924	1.929
0.000	-0.010	-0.005	0.005	0.005	0.010	0.034	2.666	1.909	1.909	1.909	1.924	1.919	1.924
-0.005	-0.005	-0.005	0.000	0.000	0.010	0.034	2.661	1.904	1.909	1.909	1.924	1.919	1.924
0.000	-0.005	0.000	0.000	0.005	0.005	0.034	2.661	1.904	1.909	1.909	1.924	1.919	1.924
-0.005	0.005	0.000	0.000	0.005	0.000	0.034	2.676	1.904	1.904	1.909	1.929	1.919	1.919
-0.005	0.010	-0.005	0.000	0.000	0.005	0.034	2.661	1.904	1.904	1.904	1.924	1.919	1.919
0.000	0.010	0.000	0.005	-0.005	0.000	0.034	2.656	1.904	1.909	1.909	1.924	1.919	1.919
0.005	0.005	0.000	0.000	0.000	-0.005	0.034	2.656	1.904	1.904	1.904	1.924	1.919	1.919
0.000	0.029	0.000	0.000	0.005	0.005	0.034	2.646	1.904	1.914	1.909	1.924	1.924	1.919
0.000	0.005	0.000	0.000	-0.005	-0.010	0.034	2.671	1.904	1.899	1.904	1.924	1.919	1.914
0.000	-0.005	0.000	-0.005	-0.005	-0.015	0.034	2.632	1.899	1.895	1.899	1.924	1.919	1.914
0.000	0.000	0.005	0.000	-0.005	0.005	0.034	2.671	1.895	1.899	1.899	1.924	1.919	1.924
0.000	0.005	0.005	0.000	0.005	0.010	0.034	2.822	1.919	1.904	1.899	1.924	1.919	1.924
0.000	0.010	0.005	0.000	0.000	0.010	0.034	2.690	1.919	1.909	1.904	1.919	1.919	1.924
-0.005	0.005	0.000	0.005	0.000	0.000	0.034	2.666	1.914	1.909	1.904	1.924	1.919	1.919
-0.005	-0.005	0.005	0.000	-0.005	-0.015	0.034	2.681	1.909	1.904	1.904	1.919	1.919	1.919
0.000	-0.010	0.000	0.000	-0.010	0.000	0.034	2.676	1.909	1.904	1.899	1.919	1.914	1.914
-0.005	0.005	0.000	-0.005	0.000	-0.005	0.034	2.681	1.909	1.909	1.904	1.919	1.919	1.919
0.005	0.005	0.000	0.000	0.000	0.000	0.034	2.676	1.909	1.909	1.904	1.924	1.919	1.919
0.005	0.000	-0.005	0.000	0.000	0.015	0.034	2.646	1.904	1.904	1.904	1.919	1.919	1.924
0.000	0.005	0.000	0.000	0.005	0.005	0.034	2.656	1.899	1.904	1.904	1.919	1.914	1.919
0.010	0.000	-0.005	0.000	-0.005	0.015	0.034	2.642	1.899	1.904	1.904	1.919	1.914	1.919
-0.005	0.020	0.000	0.000	0.005	0.000	0.034	2.651	1.899	1.909	1.904	1.924	1.914	1.914
-0.015	0.005	0.000	0.000	0.000	0.000	0.034	2.661	1.890	1.895	1.904	1.919	1.919	1.914
0.000	0.005	0.000	0.000	-0.005	0.000	0.034	2.822	1.919	1.899	1.899	1.924	1.914	1.914
0.000	-0.005	0.000	0.005	0.000	-0.020	0.034	2.637	1.909	1.899	1.899	1.919	1.914	1.909
-0.005	0.000	0.005	0.005	-0.005	-0.020	0.034	2.637	1.904	1.904	1.899	1.924	1.914	1.909
0.000	-0.010	0.005	0.000	-0.005	0.010	0.034	2.695	1.909	1.899	1.899	1.924	1.914	1.924
-0.005	-0.015	0.005	0.000	0.005	0.005	0.034	2.671	1.904	1.904	1.899	1.919	1.919	1.919
-0.005	0.010	0.000	0.005	0.000	0.005	0.034	2.676	1.899	1.909	1.899	1.919	1.919	1.924
-0.005	0.010	0.000	0.000	0.005	0.005	0.034	2.666	1.904	1.909	1.899	1.919	1.919	1.919
0.000	0.024	0.005	0.005	0.005	-0.010	0.034	2.676	1.909	1.909	1.904	1.924	1.919	1.919
0.015	0.015	-0.005	0.000	0.000	0.005	0.034	2.681	1.909	1.904	1.899	1.919	1.914	1.914
0.010	0.000	0.000	0.000	-0.005	0.005	0.034	2.651	1.899	1.899	1.899	1.919	1.914	1.919
0.010	-0.020	0.000	-0.005	0.000	0.005	0.034	2.676	1.904	1.890	1.899	1.919	1.914	1.919
0.010	-0.039	0.005	0.000	0.005	0.005	0.034	2.646	1.899	1.890	1.899	1.919	1.914	1.919
0.000	-0.015	0.000	-0.005	0.000	0.005	0.034	2.651	1.895	1.895	1.895	1.914	1.909	1.914
-0.005	-0.005	0.000	0.005	0.005	-0.005	0.034	2.656	1.890	1.899	1.895	1.914	1.914	1.909
0.000	0.024	-0.005	0.005	0.005	-0.010	0.034	2.798	1.909	1.909	1.895	1.914	1.914	1.914
-0.005	0.024	0.000	0.000	0.005	0.005	0.034	2.651	1.909	1.909	1.899	1.919	1.914	1.919
0.000	0.010	0.000	0.000	-0.005	0.005	0.034	2.651	1.904	1.899	1.899	1.919	1.909	1.914
0.000	-0.010	0.000	-0.005	0.000	0.005	0.034	2.861	1.919	1.899	1.899	1.919	1.909	1.914
-0.005	0.000	0.005	0.000	0.000	0.000	0.034	2.686	1.914	1.909	1.904	1.919	1.909	1.909
-0.010	0.015	0.000	0.005	0.005	0.000	0.034	2.671	1.909	1.914	1.904	1.919	1.914	1.914
-0.015	0.024	0.005	0.005	0.005	0.000	0.034	2.671	1.904	1.914	1.909	1.919	1.914	1.914
-0.015	0.024	0.000	0.000	0.005	-0.005	0.034	2.676	1.904	1.909	1.904	1.924	1.914	1.914
-0.010	0.020	0.000	0.000	-0.005	0.000	0.034	2.686	1.909	1.909	1.904	1.924	1.914	1.914
-0.005	0.000	0.005	0.000	0.005	0.000	0.034	2.646	1.904	1.904	1.904	1.924	1.919	1.914
0.005	-0.024	0.000	0.000	0.005	-0.010	0.034	2.651	1.904	1.895	1.899	1.919	1.919	1.914
0.010	-0.039	0.000	0.000	0.010	0.000	0.034	2.651	1.899	1.890	1.895	1.919	1.919	1.919
0.005	-0.054	0.005	-0.005	0.010	-0.005	0.034	2.646	1.895	1.890	1.895	1.914	1.914	1.914
0.005	-0.034	-0.005	0.000	0.005	0.000	0.034	2.651	1.899	1.895	1.890	1.914	1.914	1.914
0.005	-0.015	0.000	0.000	0.005	0.015	0.034	2.778	1.909	1.899	1.895	1.914	1.909	1.919
0.010	-0.020	-0.005	0.000	0.005	0.015	0.034	2.632	1.904	1.899	1.895	1.914	1.914	1.919
0.005	-0.024	0.000	0.000	0.000	0.000	0.034	2.744	1.909	1.904	1.895	1.914	1.909	1.914
-0.005	-0.029	-0.005	0.005	0.000	0.005	0.034	2.661	1.909	1.899	1.899	1.914	1.909	1.914
-0.005	-0.020	0.000	0.000	0.005	0.015	0.034	2.676	1.904	1.904	1.899	1.914	1.909	1.914
-0.005	0.010	0.010	-0.005	-0.005	0.015	0.034	2.671	1.904	1.914	1.904	1.919	1.909	1.914
0.000	0.005	0.005	0.005	0.005	0.000	0.034	2.646	1.904	1.909	1.904	1.919	1.914	1.909
0.000	-0.005	0.000	0.000	0.000	0.000	0.034	2.661	1.904	1.904	1.904	1.919	1.914	1.909
0.005	0.063	0.000	0.000	0.000	-0.010	0.034	2.637	1.904	1.924	1.909	1.924	1.914	1.909
-0.005	0.088	0.000	0.000	-0.005	0.005	0.034	2.651	1.895	1.919	1.914	1.924	1.914	1.914
0.010	0.059	0.000	0.000	0.000	-0.005	0.034	2.656	1.899	1.904	1.909	1.924	1.914	1.914
-0.005	0.015	0.000	-0.005	-0.005	-0.005	0.034	2.686	1.895	1.890	1.904	1.924	1.919	1.909
-0.005	-0.024	0.000	0.005	0.000	0.010	0.034	2.642	1.890	1.880	1.895	1.924	1.919	1.919
0.005	-0.015	0.005	0.000	0.000	0.005	0.034	2.646	1.895	1.880	1.895	1.919	1.919	1.919
0.000	-0.010	0.000	0.005	0.000	0.005	0.034	2.651	1.890	1.890	1.890	1.919	1.914	1.919
0.000	0.005	0.005	0.000	-0.005	0.010	0.034	2.754	1.904	1.895	1.890	1.914	1.914	1.914
0.000	-0.015	0.005	0.000	-0.005	0.005	0.034	2.632	1.899	1.890	1.890	1.909	1.914	1.914
-0.005	-0.005	-0.005	0.005	0.005	0.010	0.034	2.788	1.909	1.895	1.890	1.914	1.914	1.909
0.000	-0.005	-0.005	0.000	0.000	0.005	0.034	2.832	1.929	1.904	1.895	1.909	1.909	1.914
-0.005	0.010	-0.005	0.000	0.005	0.000	0.034	2.671	1.919	1.909	1.899	1.914	1.909	1.909
0.000	0.000	0.000	0.000	0.005	0.000	0.034	2.661	1.914	1.909	1.904	1.914	1.909	1.909
0.000	0.000	0.000	0.000	0.000	0.005	0.034	2.661	1.909	1.909	1.899	1.914	1.909	1.909
0.000	0.000	0.000	0.005	0.000	-0.010	0.034	2.651	1.899	1.909	1.904	1.914	1.909	1.904
-0.005	0.005	0.005	0.000	-0.005	0.000	0.034	2.651	1.899	1.909	1.904	1.919	1.909	1.909
-0.005	0.010	0.005	0.005	0.000	0.000	0.034	2.642	1.895	1.904	1.904	1.919	1.914	1.914
0.010	-0.005	0.005	0.000	0.005	-0.020	0.034	2.651	1.895	1.899	1.899	1.919	1.914	1.904
-0.005	0.005	0.000	0.005	0.005	-0.005	0.034	2.661	1.895	1.899	1.899	1.919	1.914	1.914
0.015	0.024	0.000	0.005	0.000	0.000	0.034	2.681	1.904	1.904	1.904	1.919	1.919	1.919
0.005	0.015	0.005	0.000	0.000	-0.005	0.034	2.686	1.899	1.899	1.899	1.919	1.914	1.914
0.010	0.000	0.005	0.000	0.000	0.005	0.034	2.666	1.899	1.895	1.899	1.919	1.919	1.919
0.000	-0.020	0.000	0.000	0.000	-0.015	0.034	2.671	1.890	1.890	1.895	1.919	1.914	1.914
0.000	-0.015	0.000	0.005	0.000	0.010	0.034	2.661	1.895	1.895	1.890	1.914	1.914	1.914
0.000	-0.010	-0.005	0.000	0.000	0.005	0.034	2.627	1.890	1.890	1.895	1.914	1.914	1.914
-0.005	-0.010	-0.005	0.000	0.005	0.005	0.034	2.671	1.904	1.890	1.890	1.909	1.909	1.914
-0.005	-0.005	0.000	-0.005	0.005	0.010	0.034	2.690	1.904	1.895	1.890	1.914	1.914	1.914
0.005	0.000	0.000	0.000	0.000	0.000	0.034	2.637	1.899	1.899	1.895	1.909	1.909	1.914
0.000	0.005	0.000	0.000	0.000	0.010	0.034	2.656	1.899	1.895	1.890	1.909	1.909	1.909
0.010	-0.005	-0.005	0.000	0.000	-0.005	0.034	2.666	1.895	1.895	1.895	1.914	1.909	1.909
0.005	0.000	0.000	0.000	-0.005	0.000	0.034	2.642	1.895	1.899	1.895	1.909	1.909	1.909
0.005	-0.005	0.000	0.005	-0.005	0.005	0.034	2.764	1.890	1.895	1.895	1.914	1.909	1.909
-0.010	0.005	0.005	-0.005	0.000	-0.005	0.034	2.778	1.909	1.895	1.895	1.914	1.909	1.909
-0.005	0.010	0.000	0.000	0.000	-0.010	0.034	2.671	1.904	1.904	1.895	1.914	1.909	1.909
0.000	0.000	0.005	0.000	-0.005	-0.010	0.034	2.676	1.904	1.899	1.899	1.914	1.909	1.909
0.000	0.010	0.010	0.005	0.000	0.005	0.034	2.681	1.904	1.904	1.899	1.914	1.909	1.909
0.000	0.000	0.000	0.000	0.005	-0.010	0.034	2.681	1.904	1.899	1.899	1.914	1.909	1.909
0.010	-0.010	0.005	0.005	0.000	0.010	0.034	2.642	1.899	1.899	1.899	1.914	1.909	1.914
0.015	-0.010	0.000	0.005	0.000	0.000	0.034	2.793	1.914	1.904	1.899	1.914	1.909	1.914
0.005	-0.010	0.000	0.005	0.005	0.000	0.034	2.617	1.904	1.899	1.895	1.914	1.909	1.914
0.000	0.000	0.000	0.005	0.000	-0.005	0.034	2.617	1.899	1.904	1.899	1.914	1.909	1.909
0.000	-0.005	0.005	0.000	0.005	0.000	0.034	2.612	1.890	1.899	1.899	1.914	1.914	1.914
0.000	-0.005	-0.005	0.000	0.000	-0.015	0.034	2.729	1.899	1.895	1.895	1.914	1.909	1.909
0.005	0.000	-0.005	0.000	0.000	0.015	0.034	2.617	1.904	1.899	1.895	1.914	1.909	1.914
0.000	0.010	-0.005	0.000	0.000	0.000	0.034	2.676	1.904	1.899	1.899	1.914	1.909	1.909
0.000	0.005	0.000	-0.005	0.005	0.010	0.034	2.661	1.899	1.899	1.899	1.914	1.914	1.909
0.010	0.010	-0.005	0.005	0.005	0.000	0.034	2.690	1.904	1.904	1.899	1.919	1.909	1.914
0.000	0.010	0.005	0.000	0.005	-0.005	0.034	2.690	1.904	1.899	1.899	1.919	1.914	1.909
0.000	0.024	0.005	0.010	0.005	0.010	0.034	2.681	1.904	1.904	1.904	1.919	1.914	1.914
0.005	0.024	0.000	0.010	0.000	0.000	0.034	2.686	1.899	1.904	1.904	1.919	1.914	1.914
-0.005	0.015	0.005	0.010	0.005	0.000	0.034	2.681	1.899	1.899	1.899	1.919	1.914	1.914
0.000	0.015	0.000	0.000	0.005	0.005	0.034	2.686	1.899	1.899	1.899	1.919	1.914	1.914
0.000	0.015	0.000	-0.010	0.000	0.010	0.034	2.686	1.904	1.899	1.899	1.914	1.914	1.914
0.000	0.005	0.000	-0.005	0.000	0.010	0.034	2.690	1.904	1.899	1.895	1.914	1.914	1.914
0.000	-0.005	0.000	-0.005	0.000	0.010	0.034	2.695	1.899	1.895	1.895	1.919	1.909	1.914
0.000	-0.005	0.000	-0.005	0.005	-0.020	0.034	2.715	1.904	1.895	1.895	1.914	1.914	1.909
0.000	-0.010	0.005	0.010	-0.005	0.010	0.034	2.671	1.904	1.899	1.895	1.919	1.909	1.914
-0.005	-0.010	0.000	0.010	-0.005	0.010	0.034	2.676	1.899	1.895	1.895	1.919	1.909	1.914
0.000	-0.010	0.000	0.010	0.000	-0.029	0.034	2.666	1.899	1.899	1.895	1.914	1.909	1.899
0.005	-0.010	0.000	0.010	0.000	0.000	0.034	2.681	1.899	1.899	1.895	1.914	1.909	1.914
0.000	-0.010	-0.005	0.010	0.000	0.005	0.034	2.686	1.899	1.899	1.895	1.914	1.909	1.909
0.010	-0.010	0.000	0.000	-0.005	-0.015	0.034	2.661	1.899	1.899	1.895	1.909	1.909	1.909
0.005	-0.005	0.000	-0.005	-0.005	-0.005	0.034	2.671	1.895	1.895	1.895	1.909	1.909	1.909
0.005	0.000	0.000	-0.005	0.005	0.000	0.034	2.671	1.899	1.899	1.899	1.914	1.909	1.914
0.000	0.000	0.000	-0.010	0.000	-0.005	0.034	2.686	1.899	1.895	1.899	1.909	1.909	1.909
0.005	-0.010	0.005	-0.005	0.005	0.005	0.034	2.695	1.904	1.895	1.899	1.914	1.909	1.909
0.010	0.015	0.005	-0.005	0.005	0.010	0.034	2.690	1.904	1.904	1.899	1.914	1.909	1.909
0.005	0.005	0.000	0.000	0.000	0.005	0.034	2.671	1.899	1.899	1.899	1.919	1.909	1.909
-0.005	0.005	0.005	0.000	0.000	-0.010	0.034	2.646	1.909	1.899	1.899	1.919	1.909	1.904
-0.005	0.000	0.005	0.000	0.005	-0.005	0.034	2.690	1.909	1.899	1.899	1.919	1.914	1.909
0.005	0.000	0.005	0.005	0.000	-0.010	0.034	2.671	1.904	1.904	1.899	1.919	1.914	1.909
0.000	0.005	0.005	0.005	0.000	-0.005	0.034	2.666	1.899	1.899	1.899	1.919	1.914	1.914
-0.005	0.010	0.000	0.005	0.000	-0.005	0.034	2.646	1.895	1.899	1.899	1.919	1.914	1.909
0.005	0.000	0.010	0.005	-0.015	-0.010	0.029	2.690	1.899	1.899	1.899	1.919	1.909	1.909
0.000	0.005	0.000	0.010	-0.015	0.020	0.034	2.671	1.899	1.895	1.895	1.919	1.909	1.919
0.005	-0.005	-0.005	0.010	0.005	0.020	0.034	2.671	1.899	1.895	1.895	1.914	1.914	1.919
0.000	-0.005	-0.005	0.000	0.005	0.010	0.034	2.671	1.899	1.895	1.890	1.914	1.914	1.914
0.000	-0.010	0.000	-0.005	0.015	0.010	0.034	2.681	1.899	1.890	1.895	1.909	1.914	1.914
0.005	-0.010	0.000	-0.010	0.010	0.000	0.029	2.690	1.904	1.895	1.895	1.909	1.909	1.909
0.005	-0.005	0.005	-0.005	0.000	-0.015	0.034	2.686	1.899	1.899	1.895	1.909	1.904	1.904
0.005	-0.010	0.000	-0.005	0.000	-0.005	0.034	2.681	1.899	1.899	1.895	1.909	1.904	1.909
0.000	-0.005	0.000	-0.005	0.000	0.005	0.034	2.676	1.899	1.899	1.899	1.909	1.904	1.909
-0.005	0.015	0.005	-0.015	0.005	0.005	0.034	2.686	1.899	1.904	1.899	1.914	1.904	1.909
0.000	0.020	0.005	-0.005	0.000	0.010	0.034	2.686	1.904	1.904	1.899	1.914	1.909	1.909
0.005	0.015	0.005	-0.005	0.005	0.005	0.034	2.666	1.904	1.904	1.899	1.914	1.909	1.909
-0.005	0.015	0.005	0.000	0.005	0.000	0.034	2.681	1.899	1.899	1.899	1.919	1.909	1.909
-0.015	0.000	0.005	0.000	0.005	-0.020	0.034	2.686	1.895	1.895	1.899	1.919	1.909	1.904
-0.005	0.000	0.000	0.000	0.000	0.005	0.034	2.671	1.899	1.895	1.895	1.919	1.914	1.914
-0.010	0.000	0.000	0.005	0.005	-0.005	0.034	2.671	1.895	1.895	1.895	1.914	1.914	1.909
0.000	-0.005	0.000	0.010	0.000	0.000	0.034	2.676	1.899	1.895	1.890	1.914	1.909	1.914
0.000	0.000	-0.005	0.005	0.005	-0.020	0.034	2.676	1.899	1.895	1.890	1.914	1.909	1.909
0.005	-0.015	0.000	0.010	0.000	0.005	0.034	2.666	1.899	1.890	1.890	1.909	1.909	1.914
-0.005	-0.029	0.000	0.005	0.000	0.005	0.034	2.676	1.895	1.890	1.890	1.914	1.909	1.914
0.010	0.010	-0.005	0.000	0.000	0.005	0.034	2.676	1.899	1.899	1.890	1.909	1.909	1.909
0.005	0.015	-0.005	0.000	-0.005	0.000	0.034	2.671	1.899	1.904	1.895	1.909	1.904	1.909
0.005	-0.015	0.000	0.005	-0.005	0.000	0.034	2.720	1.904	1.895	1.895	1.914	1.904	1.909
0.000	-0.015	0.005	0.000	0.010	0.010	0.034	2.661	1.899	1.895	1.895	1.914	1.909	1.909
0.000	0.000	0.000	0.005	0.020	0.015	0.034	2.690	1.904	1.899	1.895	1.914	1.914	1.909
0.005	0.015	0.000	0.000	0.020	0.000	0.034	2.671	1.899	1.904	1.895	1.914	1.914	1.909
0.000	0.015	0.000	0.005	0.024	0.005	0.034	2.676	1.899	1.904	1.899	1.914	1.914	1.909
-0.005	0.020	0.000	0.000	0.024	0.000	0.034	2.686	1.899	1.904	1.899	1.914	1.909	1.914
-0.005	0.005	0.000	0.005	0.005	0.010	0.034	2.671	1.899	1.899	1.895	1.914	1.909	1.914
0.000	0.029	0.000	0.000	0.000	0.000	0.034	2.676	1.904	1.904	1.899	1.914	1.909	1.909
-0.010	0.015	0.000	0.005	-0.015	-0.024	0.034	2.676	1.899	1.899	1.899	1.914	1.904	1.899
0.000	0.010	0.005	0.005	-0.039	-0.005	0.034	2.671	1.899	1.899	1.899	1.919	1.899	1.904
-0.005	0.005	0.000	0.000	-0.063	-0.015	0.034	2.656	1.899	1.899	1.895	1.914	1.895	1.899
0.005	0.000	-0.005	0.005	-0.068	0.000	0.034	2.676	1.899	1.895	1.895	1.914	1.899	1.904
0.005	0.005	-0.005	0.005	-0.039	-0.010	0.034	2.681	1.895	1.890	1.895	1.914	1.909	1.904
0.000	-0.010	0.000	0.000	-0.015	-0.005	0.034	2.642	1.890	1.890	1.895	1.914	1.914	1.909
0.000	-0.015	-0.005	0.000	-0.010	0.000	0.034	2.686	1.895	1.890	1.890	1.909	1.914	1.909
0.010	-0.005	-0.005	-0.005	0.015	-0.005	0.034	2.666	1.895	1.895	1.890	1.909	1.919	1.914
0.005	-0.010	0.000	0.000	0.039	0.015	0.029	2.666	1.895	1.890	1.890	1.909	1.924	1.919
0.010	0.005	0.005	-0.005	0.054	0.010	0.034	2.646	1.895	1.899	1.890	1.909	1.919	1.919
0.000	0.000	-0.005	-0.005	0.034	0.010	0.034	2.681	1.895	1.895	1.890	1.909	1.909	1.919
0.010	0.000	0.005	-0.005	0.015	0.005	0.034	2.690	1.904	1.895	1.895	1.909	1.904	1.909
-0.005	0.010	0.000	0.000	0.000	-0.005	0.034	2.676	1.899	1.895	1.895	1.909	1.899	1.909
-0.005	0.005	0.005	0.005	0.015	-0.005	0.034	2.681	1.899	1.899	1.895	1.914	1.909	1.904
-0.010	0.005	0.005	0.000	0.034	0.005	0.029	2.686	1.899	1.899	1.895	1.909	1.914	1.909
0.000	0.005	0.000	0.000	0.029	-0.005	0.034	2.686	1.899	1.899	1.895	1.914	1.909	1.909
-0.010	0.005	0.005	0.005	-0.005	0.000	0.034	2.686	1.899	1.899	1.895	1.914	1.899	1.904
0.000	0.005	0.005	0.005	-0.029	0.000	0.034	2.676	1.899	1.899	1.895	1.914	1.899	1.904
-0.005	0.000	0.000	0.005	-0.020	0.005	0.034	2.671	1.899	1.895	1.895	1.914	1.904	1.909
-0.005	0.000	0.000	0.005	-0.005	0.010	0.034	2.661	1.895	1.895	1.895	1.909	1.909	1.909
-0.005	-0.005	0.000	0.000	0.005	0.005	0.034	2.676	1.895	1.890	1.895	1.914	1.909	1.909
0.000	-0.005	0.000	0.005	0.005	0.015	0.034	2.808	1.914	1.899	1.895	1.909	1.909	1.909
0.005	0.005	0.000	0.005	0.000	0.000	0.034	2.686	1.909	1.904	1.895	1.914	1.904	1.904
0.005	-0.010	-0.005	0.000	-0.024	0.015	0.034	2.671	1.904	1.899	1.895	1.909	1.899	1.909
0.005	-0.010	0.000	0.000	-0.034	0.020	0.034	2.671	1.899	1.899	1.895	1.914	1.899	1.904
0.000	0.000	0.000	0.005	-0.024	0.000	0.034	2.681	1.899	1.904	1.895	1.914	1.904	1.899
0.005	-0.005	-0.005	0.000	0.000	-0.015	0.034	2.676	1.899	1.899	1.899	1.914	1.909	1.899
0.010	-0.005	0.000	0.010	0.024	-0.024	0.034	2.686	1.899	1.899	1.895	1.914	1.919	1.904
0.010	0.000	0.005	0.005	0.049	-0.005	0.034	2.681	1.895	1.899	1.899	1.914	1.924	1.914
0.005	0.005	0.000	0.000	0.103	-0.005	0.034	2.695	1.899	1.904	1.899	1.919	1.934	1.924
-0.005	0.005	0.000	0.005	0.122	-0.005	0.034	2.686	1.899	1.899	1.899	1.919	1.934	1.924
-0.005	0.010	0.000	0.000	0.039	0.010	0.034	2.681	1.899	1.904	1.895	1.914	1.904	1.919
0.005	0.015	0.000	0.005	-0.068	-0.010	0.034	2.720	1.909	1.904	1.899	1.914	1.875	1.904
-0.010	0.000	-0.005	0.005	-0.127	-0.005	0.034	2.651	1.899	1.899	1.899	1.914	1.870	1.890
0.000	-0.005	0.000	0.000	-0.093	-0.005	0.034	2.681	1.899	1.895	1.899	1.914	1.890	1.895
0.010	0.000	0.005	0.000	-0.039	0.015	0.034	2.661	1.899	1.899	1.899	1.919	1.914	1.904
0.010	0.000	0.000	-0.005	0.020	0.024	0.034	2.681	1.895	1.895	1.899	1.919	1.929	1.919
0.015	0.000	0.000	-0.005	0.073	0.029	0.034	2.686	1.899	1.899	1.895	1.919	1.938	1.924
0.000	0.000	-0.005	-0.005	0.063	0.010	0.034	2.681	1.899	1.895	1.895	1.914	1.929	1.919
0.000	-0.005	0.000	0.005	0.039	0.020	0.034	2.681	1.899	1.899	1.895	1.914	1.919	1.924
0.010	0.000	0.000	0.000	0.039	0.015	0.034	2.686	1.899	1.895	1.895	1.914	1.914	1.919
0.000	0.000	-0.005	-0.005	0.024	0.000	0.034	2.681	1.899	1.895	1.895	1.909	1.909	1.914
-0.010	-0.005	0.000	0.000	0.015	-0.010	0.034	2.671	1.895	1.890	1.895	1.914	1.904	1.904
-0.005	-0.034	-0.005	0.000	0.005	-0.010	0.034	2.676	1.895	1.885	1.890	1.909	1.904	1.904
0.000	-0.020	0.000	0.000	-0.020	-0.010	0.034	2.686	1.899	1.895	1.890	1.909	1.895	1.904
0.000	-0.015	0.005	0.000	-0.029	-0.010	0.034	2.686	1.904	1.895	1.895	1.909	1.899	1.899
0.000	0.010	0.010	0.005	-0.024	-0.015	0.034	2.671	1.899	1.904	1.899	1.914	1.899	1.899
0.000	0.029	0.005	0.000	-0.020	0.000	0.034	2.725	1.904	1.909	1.899	1.914	1.904	1.904
0.000	0.024	0.005	0.000	-0.005	-0.005	0.034	2.646	1.895	1.899	1.899	1.914	1.909	1.909
0.000	0.020	0.000	0.005	-0.015	0.000	0.034	2.690	1.904	1.904	1.899	1.914	1.909	1.909
-0.005	0.020	0.000	0.000	-0.034	0.010	0.034	2.676	1.899	1.904	1.899	1.914	1.904	1.909
0.000	0.015	0.005	0.000	-0.020	-0.010	0.034	2.671	1.899	1.899	1.899	1.914	1.909	1.909
0.000	0.000	0.005	0.000	-0.024	0.010	0.034	2.666	1.895	1.890	1.895	1.914	1.909	1.909
0.000	0.010	-0.005	0.005	-0.039	0.015	0.034	2.671	1.890	1.895	1.895	1.914	1.904	1.914
0.000	-0.005	0.000	0.015	-0.044	0.010	0.034	2.671	1.895	1.890	1.895	1.914	1.904	1.909
0.005	-0.005	-0.005	0.015	-0.005	-0.005	0.034	2.661	1.895	1.890	1.895	1.914	1.919	1.909
0.005	-0.005	-0.005	0.015	0.000	-0.005	0.034	2.676	1.895	1.890	1.890	1.914	1.914	1.909
0.000	-0.005	0.000	0.005	-0.029	-0.015	0.034	2.671	1.895	1.895	1.890	1.909	1.904	1.904
0.010	-0.010	-0.005	0.000	-0.015	0.010	0.034	2.681	1.899	1.895	1.890	1.909	1.909	1.914
0.000	0.005	0.000	-0.005	0.010	0.015	0.034	2.686	1.899	1.895	1.890	1.909	1.914	1.914
0.005	0.010	0.000	-0.010	0.005	0.020	0.034	2.686	1.899	1.899	1.895	1.909	1.909	1.919
0.005	0.000	0.000	-0.010	0.005	0.000	0.034	2.686	1.899	1.899	1.895	1.909	1.909	1.909
-0.005	0.015	0.000	-0.005	0.024	0.005	0.034	2.681	1.899	1.904	1.899	1.909	1.914	1.914
0.010	0.015	0.000	0.000	0.015	0.000	0.034	2.671	1.904	1.904	1.899	1.914	1.909	1.914
-0.005	0.015	0.010	0.000	0.020	0.010	0.034	2.686	1.899	1.899	1.899	1.919	1.914	1.914
0.000	-0.005	0.005	0.000	0.015	0.010	0.034	2.671	1.899	1.895	1.895	1.919	1.914	1.914
-0.005	0.000	0.000	0.000	0.020	0.000	0.034	2.666	1.895	1.895	1.895	1.914	1.909	1.914
-0.005	0.005	0.000	0.005	-0.005	0.010	0.034	2.681	1.899	1.899	1.895	1.914	1.904	1.909
0.000	0.005	0.000	0.005	0.000	-0.005	0.034	2.676	1.899	1.899	1.895	1.914	1.909	1.904
0.000	-0.010	0.005	0.005	-0.015	0.005	0.034	2.671	1.899	1.895	1.895	1.914	1.904	1.909
0.000	0.000	-0.005	0.000	-0.034	-0.005	0.034	2.681	1.899	1.895	1.895	1.914	1.899	1.904
0.000	-0.015	0.000	0.000	-0.010	0.005	0.034	2.720	1.899	1.895	1.895	1.914	1.909	1.909
0.005	-0.015	0.005	0.005	-0.010	0.000	0.034	2.671	1.899	1.895	1.890	1.914	1.909	1.904
0.005	-0.020	-0.005	0.000	-0.010	-0.005	0.034	2.666	1.899	1.895	1.890	1.909	1.909	1.904
0.005	-0.005	-0.005	0.000	-0.010	0.000	0.034	2.671	1.899	1.899	1.890	1.909	1.904	1.909
-0.005	0.000	0.000	0.005	-0.020	-0.020	0.034	2.686	1.895	1.899	1.895	1.909	1.904	1.899
-0.010	0.005	-0.005	0.000	-0.010	-0.005	0.029	2.690	1.895	1.895	1.895	1.909	1.904	1.909
0.000	0.005	0.000	0.000	0.010	-0.024	0.034	2.671	1.895	1.899	1.895	1.909	1.914	1.909
-0.005	-0.005	0.005	0.005	0.039	0.000	0.034	2.676	1.899	1.895	1.895	1.914	1.919	1.914
-0.005	-0.005	0.000	-0.005	0.034	0.000	0.034	2.690	1.904	1.895	1.895	1.909	1.914	1.914
0.000	0.000	0.000	0.000	0.034	-0.015	0.034	2.681	1.899	1.899	1.895	1.914	1.914	1.909
0.000	0.010	0.005	0.000	0.034	-0.005	0.034	2.695	1.899	1.904	1.899	1.914	1.914	1.914
-0.005	0.015	0.000	0.000	0.044	-0.005	0.034	2.676	1.904	1.904	1.899	1.914	1.914	1.909
-0.010	0.034	0.000	0.000	0.049	0.000	0.034	2.681	1.899	1.909	1.899	1.914	1.914	1.919
-0.010	0.024	0.005	0.000	0.044	0.000	0.034	2.690	1.899	1.904	1.899	1.919	1.914	1.914
-0.010	0.005	0.000	0.005	0.049	-0.029	0.034	2.671	1.899	1.895	1.899	1.919	1.914	1.904
0.000	0.000	0.000	0.000	0.024	0.000	0.034	2.681	1.899	1.895	1.895	1.919	1.909	1.914
0.000	-0.005	0.000	0.005	0.015	-0.020	0.034	2.681	1.899	1.895	1.895	1.914	1.904	1.904
0.005	-0.005	0.000	0.005	0.005	-0.005	0.034	2.656	1.899	1.895	1.890	1.914	1.904	1.909
0.010	-0.010	-0.005	0.000	0.010	-0.015	0.034	2.681	1.899	1.895	1.890	1.909	1.904	1.904
0.005	-0.010	0.000	0.000	0.005	0.000	0.034	2.671	1.899	1.895	1.890	1.909	1.904	1.909
0.000	0.000	-0.005	0.000	0.005	0.000	0.034	2.666	1.895	1.895	1.895	1.909	1.904	1.909
0.015	-0.005	-0.005	0.000	0.000	0.020	0.034	2.686	1.899	1.895	1.890	1.909	1.904	1.914
0.005	-0.024	0.000	0.000	0.000	0.029	0.034	2.666	1.895	1.890	1.890	1.909	1.909	1.914
0.005	-0.020	0.000	0.000	0.000	0.005	0.034	2.686	1.895	1.895	1.890	1.909	1.904	1.904
0.000	-0.010	-0.005	0.000	-0.005	0.020	0.034	2.690	1.899	1.895	1.890	1.909	1.904	1.909
0.000	-0.010	0.000	0.005	-0.010	-0.015	0.034	2.686	1.899	1.899	1.895	1.914	1.904	1.899
0.000	0.010	0.005	0.000	-0.015	-0.005	0.034	2.690	1.904	1.904	1.895	1.914	1.899	1.899
0.000	0.000	0.000	0.005	-0.029	-0.015	0.034	2.676	1.899	1.899	1.895	1.914	1.899	1.899
0.005	0.010	0.000	0.000	-0.029	-0.044	0.034	2.681	1.899	1.904	1.895	1.914	1.904	1.890
0.000	0.005	0.000	0.000	0.010	-0.015	0.034	2.676	1.895	1.895	1.899	1.914	1.914	1.909
0.000	-0.005	0.005	0.000	0.015	-0.010	0.034	2.690	1.899	1.895	1.895	1.914	1.919	1.909
0.000	0.010	0.010	0.000	0.015	-0.029	0.034	2.676	1.899	1.899	1.899	1.914	1.914	1.904
0.005	-0.005	0.000	-0.005	0.005	-0.005	0.034	2.720	1.904	1.895	1.895	1.914	1.909	1.919
-0.005	-0.005	-0.005	0.000	-0.005	0.024	0.034	2.661	1.895	1.895	1.895	1.914	1.909	1.924
0.000	0.000	0.005	0.000	-0.029	0.034	0.034	2.686	1.904	1.899	1.895	1.909	1.899	1.914
0.000	-0.010	-0.005	0.000	-0.039	0.024	0.034	2.646	1.895	1.895	1.895	1.909	1.899	1.909
0.000	0.005	-0.005	0.000	-0.039	0.020	0.034	2.671	1.899	1.899	1.895	1.909	1.899	1.904
0.000	0.010	-0.005	0.000	-0.020	0.015	0.034	2.671	1.899	1.899	1.895	1.914	1.909	1.904
0.010	0.000	0.000	0.000	-0.020	-0.005	0.034	2.686	1.899	1.895	1.895	1.909	1.904	1.899
0.010	0.000	0.000	-0.005	-0.034	0.000	0.034	2.671	1.895	1.895	1.895	1.914	1.904	1.904
-0.005	0.000	0.010	0.000	-0.020	0.010	0.034	2.725	1.895	1.895	1.895	1.914	1.909	1.909
0.010	0.010	0.005	0.000	0.010	0.000	0.034	2.661	1.895	1.895	1.895	1.914	1.919	1.909
0.005	0.010	0.005	0.000	0.015	0.000	0.034	2.666	1.895	1.895	1.895	1.914	1.919	1.909
0.000	0.005	0.005	0.005	0.015	0.010	0.034	2.676	1.895	1.895	1.895	1.914	1.914	1.914
0.005	0.010	0.005	0.000	0.000	0.010	0.034	2.676	1.899	1.895	1.895	1.914	1.909	1.914
0.000	0.010	-0.005	0.000	-0.010	0.005	0.034	2.671	1.895	1.890	1.890	1.914	1.909	1.909
-0.005	0.000	0.000	0.000	0.005	0.010	0.034	2.676	1.895	1.890	1.890	1.914	1.914	1.914
0.000	-0.010	0.000	0.000	0.010	0.010	0.034	2.686	1.904	1.890	1.890	1.914	1.909	1.914
-0.005	-0.005	0.000	0.000	0.015	0.010	0.034	2.666	1.899	1.895	1.890	1.914	1.909	1.914
0.000	-0.010	0.000	0.005	0.005	0.010	0.034	2.671	1.899	1.895	1.890	1.909	1.909	1.909
0.005	0.000	0.000	0.010	0.015	0.005	0.034	2.661	1.895	1.895	1.890	1.914	1.909	1.909
0.000	-0.005	-0.005	0.005	0.000	0.000	0.034	2.676	1.895	1.890	1.890	1.909	1.904	1.909
-0.010	-0.005	-0.005	0.005	-0.005	0.005	0.034	2.681	1.895	1.895	1.890	1.909	1.904	1.904
0.000	0.010	0.000	0.000	-0.005	0.005	0.034	2.686	1.899	1.899	1.895	1.909	1.899	1.904
0.005	0.010	0.000	0.010	-0.005	0.000	0.034	2.671	1.899	1.899	1.895	1.909	1.904	1.904
0.000	0.005	0.005	0.000	0.010	0.005	0.034	2.671	1.899	1.899	1.895	1.909	1.909	1.904
-0.005	0.005	0.005	0.000	0.020	0.005	0.034	2.681	1.899	1.895	1.895	1.909	1.909	1.909
0.005	0.005	0.000	0.005	0.020	-0.020	0.034	2.642	1.899	1.899	1.895	1.909	1.909	1.904
0.005	0.010	0.000	0.000	0.005	-0.005	0.034	2.671	1.895	1.895	1.895	1.909	1.904	1.904
-0.005	-0.005	0.005	0.000	-0.054	0.005	0.034	2.676	1.895	1.890	1.895	1.909	1.890	1.904
-0.005	0.015	0.005	0.000	-0.078	0.010	0.034	2.681	1.895	1.899	1.895	1.909	1.885	1.899
-0.005	0.010	0.000	0.005	-0.083	0.000	0.034	2.681	1.895	1.895	1.895	1.909	1.895	1.895
-0.005	0.010	0.010	0.000	-0.054	-0.015	0.034	2.690	1.895	1.895	1.895	1.914	1.904	1.890
-0.005	0.005	0.005	0.005	-0.010	0.010	0.034	2.671	1.895	1.895	1.895	1.914	1.919	1.909
0.000	-0.010	0.000	0.000	-0.005	0.000	0.034	2.690	1.899	1.890	1.890	1.914	1.919	1.909
0.010	-0.005	0.000	0.005	-0.020	-0.005	0.039	2.676	1.904	1.895	1.890	1.909	1.909	1.909
0.015	0.000	0.000	0.005	0.005	-0.034	0.039	2.661	1.899	1.895	1.890	1.909	1.914	1.904
0.000	-0.005	-0.005	0.000	0.063	-0.034	0.034	2.671	1.895	1.895	1.890	1.909	1.929	1.914
0.000	-0.015	0.000	0.005	0.186	0.010	0.034	2.681	1.895	1.890	1.890	1.914	1.958	1.938
0.005	-0.015	0.000	0.000	0.210	0.005	0.034	2.642	1.895	1.895	1.890	1.909	1.948	1.938
0.005	-0.010	-0.005	0.000	0.171	0.010	0.034	2.681	1.899	1.890	1.890	1.909	1.924	1.938
0.000	-0.005	0.000	0.000	0.078	0.000	0.039	2.676	1.899	1.899	1.890	1.904	1.895	1.924
0.000	0.000	0.005	0.000	0.005	0.005	0.034	2.666	1.899	1.899	1.895	1.904	1.880	1.909
0.000	-0.005	0.005	0.000	-0.039	0.015	0.034	2.690	1.899	1.895	1.895	1.909	1.870	1.899
0.005	0.000	0.000	0.000	-0.063	0.000	0.034	2.681	1.899	1.899	1.895	1.909	1.875	1.885
0.005	0.000	0.005	0.005	-0.044	0.020	0.034	2.686	1.899	1.899	1.895	1.909	1.890	1.895
-0.005	0.005	0.010	0.000	-0.020	0.015	0.034	2.676	1.895	1.899	1.899	1.914	1.899	1.899
-0.005	0.005	0.005	0.000	0.000	0.005	0.034	2.690	1.899	1.899	1.899	1.914	1.909	1.899
-0.005	0.000	0.005	0.000	-0.005	-0.010	0.034	2.681	1.899	1.895	1.895	1.914	1.909	1.895
0.000	0.005	0.005	0.000	-0.005	-0.005	0.034	2.681	1.899	1.899	1.895	1.914	1.909	1.904
0.000	0.005	0.000	0.000	-0.005	0.000	0.034	2.720	1.904	1.899	1.895	1.909	1.904	1.904
0.000	0.015	0.000	0.005	-0.020	-0.024	0.034	2.666	1.899	1.899	1.899	1.909	1.899	1.899
-0.005	0.000	0.000	0.000	-0.024	0.005	0.034	2.671	1.895	1.895	1.895	1.914	1.904	1.904
0.000	-0.010	0.000	0.000	-0.039	0.000	0.034	2.681	1.895	1.890	1.895	1.914	1.899	1.904
0.005	-0.015	0.000	0.000	-0.029	0.000	0.029	2.671	1.895	1.890	1.895	1.909	1.904	1.904
0.010	-0.010	0.005	0.000	-0.034	-0.005	0.034	2.690	1.899	1.895	1.890	1.909	1.904	1.904
-0.005	-0.005	0.000	0.000	-0.029	-0.005	0.034	2.656	1.890	1.895	1.890	1.909	1.904	1.904
-0.005	-0.005	0.000	0.000	-0.024	-0.015	0.034	2.681	1.890	1.890	1.890	1.914	1.904	1.899
0.005	-0.005	-0.005	0.005	-0.020	-0.024	0.034	2.671	1.899	1.895	1.890	1.909	1.904	1.895
0.005	0.000	0.000	0.000	-0.020	-0.005	0.034	2.676	1.895	1.895	1.890	1.909	1.904	1.909
0.005	0.005	0.005	0.000	-0.005	0.005	0.034	2.686	1.899	1.899	1.895	1.909	1.909	1.909
0.000	0.010	0.000	0.005	0.000	0.010	0.034	2.686	1.899	1.899	1.895	1.914	1.914	1.909
-0.010	0.005	0.005	0.005	0.005	0.010	0.034	2.671	1.895	1.895	1.895	1.914	1.914	1.914
-0.010	-0.005	0.005	0.005	0.015	0.024	0.034	2.637	1.890	1.895	1.895	1.914	1.909	1.919
0.000	0.010	0.000	0.005	-0.034	0.049	0.034	2.666	1.895	1.899	1.895	1.909	1.899	1.919
0.005	0.010	0.000	0.000	-0.078	0.044	0.034	2.676	1.899	1.895	1.895	1.909	1.890	1.909
-0.005	0.015	0.005	0.000	0.024	0.039	0.029	2.715	1.904	1.899	1.899	1.914	1.924	1.914
-0.005	0.015	0.000	0.000	0.117	0.020	0.034	2.642	1.899	1.899	1.895	1.914	1.943	1.919
0.000	0.010	0.005	-0.005	0.107	0.005	0.034	2.676	1.899	1.895	1.895	1.914	1.929	1.919
-0.005	0.005	0.000	0.000	0.020	-0.010	0.034	2.676	1.899	1.895	1.895	1.909	1.895	1.904
0.000	0.005	-0.005	0.000	-0.039	-0.024	0.034	2.676	1.899	1.895	1.895	1.909	1.885	1.899
0.005	0.000	0.000	0.005	-0.049	-0.049	0.034	2.671	1.899	1.895	1.895	1.909	1.890	1.890
0.010	0.000	0.000	0.000	-0.044	-0.015	0.034	2.671	1.895	1.895	1.890	1.909	1.895	1.899
0.000	-0.005	0.000	0.000	-0.020	-0.005	0.034	2.681	1.890	1.890	1.890	1.909	1.904	1.899
-0.005	-0.005	-0.005	0.000	-0.010	-0.005	0.034	2.661	1.890	1.890	1.890	1.909	1.904	1.904
-0.005	0.010	-0.005	0.005	-0.015	0.005	0.034	2.686	1.895	1.895	1.895	1.909	1.904	1.904
0.000	-0.010	0.000	0.005	-0.010	0.000	0.034	2.676	1.895	1.890	1.890	1.909	1.909	1.904
0.000	-0.010	0.000	0.000	-0.005	0.005	0.034	2.690	1.895	1.890	1.890	1.909	1.909	1.909
-0.005	-0.005	0.005	0.000	-0.010	0.005	0.034	2.676	1.895	1.895	1.890	1.909	1.909	1.909
0.000	0.005	0.005	0.010	-0.010	0.015	0.034	2.681	1.899	1.899	1.895	1.914	1.909	1.909
0.010	0.005	0.005	0.010	-0.005	0.015	0.034	2.651	1.899	1.899	1.895	1.909	1.909	1.914
0.005	-0.005	0.000	-0.005	-0.005	0.015	0.034	2.681	1.895	1.895	1.895	1.909	1.909	1.909
-0.005	-0.005	0.005	-0.005	0.000	0.005	0.034	2.720	1.904	1.895	1.899	1.914	1.909	1.909
0.000	0.000	0.005	0.000	-0.005	-0.010	0.034	2.690	1.909	1.899	1.895	1.914	1.904	1.899
-0.005	-0.005	0.005	0.005	-0.010	-0.015	0.034	2.681	1.899	1.899	1.895	1.914	1.904	1.904
-0.005	-0.005	0.000	0.000	0.000	-0.015	0.034	2.666	1.895	1.895	1.895	1.909	1.909	1.904
0.000	0.000	-0.005	0.000	0.020	-0.010	0.034	2.666	1.895	1.899	1.895	1.914	1.914	1.909
-0.005	-0.005	0.000	-0.005	0.034	-0.005	0.034	2.681	1.899	1.895	1.895	1.914	1.919	1.914
0.005	-0.015	0.000	0.005	0.068	0.000	0.034	2.686	1.904	1.895	1.895	1.914	1.924	1.919
0.000	0.000	0.000	0.000	0.063	0.024	0.034	2.676	1.899	1.899	1.895	1.914	1.919	1.924
0.005	0.000	0.000	0.005	0.039	0.015	0.034	2.695	1.904	1.899	1.895	1.909	1.909	1.919
0.000	0.005	-0.010	0.000	0.015	0.015	0.034	2.666	1.904	1.904	1.895	1.909	1.899	1.914
0.010	0.010	-0.005	0.000	0.000	0.005	0.034	2.686	1.904	1.904	1.895	1.909	1.899	1.904
0.000	0.010	0.005	0.000	0.000	0.010	0.034	2.686	1.899	1.899	1.899	1.914	1.899	1.909
-0.010	0.000	-0.005	0.000	0.005	-0.005	0.034	2.666	1.895	1.899	1.899	1.914	1.904	1.899
0.000	0.000	0.005	0.000	0.005	-0.034	0.034	2.690	1.899	1.899	1.895	1.914	1.904	1.895
-0.005	0.015	0.005	-0.005	0.010	0.005	0.034	2.695	1.899	1.899	1.899	1.914	1.909	1.909
-0.005	0.010	0.000	0.000	-0.005	-0.005	0.034	2.666	1.895	1.899	1.899	1.919	1.909	1.904
0.000	0.020	0.005	0.005	-0.020	0.000	0.034	2.686	1.904	1.904	1.899	1.919	1.904	1.909
-0.005	0.000	0.000	0.000	-0.024	-0.010	0.034	2.681	1.899	1.895	1.895	1.914	1.904	1.899
0.000	-0.015	0.000	0.000	-0.024	0.015	0.034	2.690	1.899	1.890	1.895	1.914	1.909	1.909
0.005	-0.020	0.000	-0.005	-0.005	0.005	0.034	2.686	1.899	1.895	1.895	1.914	1.909	1.909
-0.005	-0.010	0.000	0.000	0.005	-0.005	0.034	2.681	1.895	1.895	1.895	1.914	1.914	1.909
0.000	-0.010	0.000	0.000	0.005	0.010	0.034	2.686	1.899	1.895	1.895	1.914	1.914	1.914
0.010	-0.020	-0.005	0.005	0.005	0.000	0.034	2.671	1.899	1.895	1.890	1.909	1.909	1.909
-0.005	-0.010	0.000	0.000	0.005	-0.005	0.034	2.715	1.904	1.899	1.895	1.909	1.909	1.909
0.005	-0.010	-0.005	0.000	0.000	0.005	0.034	2.642	1.899	1.899	1.890	1.909	1.909	1.914
0.000	0.010	0.000	0.000	0.000	0.010	0.034	2.690	1.904	1.904	1.895	1.914	1.904	1.909
0.015	0.010	-0.005	0.000	-0.005	-0.010	0.029	2.671	1.904	1.904	1.895	1.914	1.909	1.904
0.005	0.010	0.000	0.005	-0.005	0.000	0.034	2.671	1.895	1.899	1.899	1.914	1.909	1.909
0.000	0.005	0.000	0.000	0.000	0.010	0.034	2.686	1.899	1.899	1.899	1.914	1.909	1.909
0.000	0.000	0.000	0.000	0.005	-0.005	0.034	2.676	1.899	1.899	1.899	1.914	1.909	1.909
-0.005	0.010	0.005	0.005	0.015	0.005	0.034	2.686	1.899	1.899	1.899	1.919	1.914	1.914
-0.010	0.010	0.000	0.000	0.010	0.015	0.034	2.686	1.895	1.899	1.895	1.914	1.914	1.914
-0.005	0.010	0.000	0.000	0.010	0.015	0.034	2.686	1.904	1.899	1.899	1.914	1.909	1.914
0.000	0.010	0.000	0.000	-0.005	-0.005	0.034	2.681	1.904	1.899	1.899	1.914	1.909	1.909
0.000	0.015	0.005	0.000	0.000	0.005	0.034	2.690	1.904	1.899	1.895	1.914	1.909	1.909
-0.005	0.005	0.005	0.000	-0.015	-0.010	0.034	2.676	1.899	1.899	1.895	1.914	1.909	1.904
0.000	0.005	0.000	-0.005	-0.020	0.000	0.034	2.656	1.899	1.899	1.895	1.914	1.909	1.909
-0.005	-0.005	0.000	0.000	-0.015	-0.005	0.034	2.676	1.895	1.895	1.895	1.914	1.909	1.909
0.005	-0.015	-0.005	0.005	-0.020	0.000	0.034	2.671	1.899	1.895	1.895	1.914	1.909	1.909
0.005	-0.024	0.000	0.000	-0.020	-0.005	0.034	2.651	1.895	1.890	1.890	1.914	1.904	1.904
0.005	-0.020	-0.005	0.000	-0.010	-0.020	0.034	2.681	1.899	1.895	1.890	1.909	1.909	1.899
0.000	-0.020	-0.005	0.005	0.000	-0.010	0.034	2.671	1.895	1.890	1.890	1.909	1.909	1.909
-0.005	-0.005	-0.005	-0.005	0.005	0.005	0.034	2.690	1.895	1.895	1.890	1.909	1.914	1.914
0.000	-0.005	-0.005	0.000	0.010	0.005	0.034	2.671	1.895	1.895	1.895	1.909	1.909	1.914
-0.005	0.000	0.005	0.000	0.015	0.005	0.034	2.681	1.899	1.895	1.895	1.914	1.909	1.914
0.000	-0.005	0.000	0.005	0.015	0.010	0.034	2.686	1.899	1.899	1.895	1.909	1.909	1.914
0.005	-0.005	-0.005	0.000	0.010	0.000	0.034	2.681	1.899	1.895	1.895	1.909	1.909	1.909
0.005	0.000	0.000	0.005	-0.005	-0.005	0.034	2.720	1.904	1.899	1.895	1.914	1.904	1.909
0.005	0.010	0.000	0.005	-0.034	-0.005	0.034	2.788	1.919	1.909	1.899	1.914	1.895	1.904
-0.005	0.015	0.000	0.005	-0.049	0.005	0.034	2.788	1.924	1.914	1.899	1.914	1.895	1.904
0.000	0.015	0.005	0.005	-0.044	0.015	0.034	2.656	1.914	1.914	1.904	1.919	1.904	1.909
0.000	0.020	0.000	0.000	-0.034	0.005	0.034	2.637	1.904	1.909	1.904	1.919	1.909	1.904
0.000	0.010	0.005	0.000	-0.034	-0.005	0.034	2.788	1.914	1.909	1.904	1.919	1.909	1.904
0.000	-0.005	-0.005	0.000	-0.020	-0.020	0.034	2.734	1.914	1.904	1.904	1.919	1.914	1.904
0.005	0.000	-0.005	0.000	0.015	-0.010	0.034	2.646	1.904	1.909	1.899	1.919	1.929	1.914
0.005	-0.005	0.000	0.000	0.059	0.010	0.034	2.729	1.909	1.904	1.904	1.924	1.934	1.924
-0.005	-0.005	0.000	0.000	0.098	0.020	0.034	2.739	1.914	1.904	1.904	1.924	1.938	1.929
0.010	-0.005	0.000	0.005	0.107	0.024	0.034	2.778	1.929	1.909	1.904	1.924	1.938	1.938
0.000	-0.005	-0.005	0.005	0.093	0.000	0.034	2.725	1.919	1.914	1.904	1.924	1.929	1.929
-0.005	-0.005	0.005	0.000	0.088	-0.034	0.034	2.734	1.924	1.914	1.904	1.924	1.919	1.914
0.000	-0.010	0.005	0.005	0.073	-0.005	0.034	2.720	1.924	1.919	1.909	1.924	1.919	1.924
0.005	-0.005	0.005	0.000	0.044	-0.029	0.034	2.637	1.909	1.914	1.909	1.924	1.909	1.909
-0.010	0.000	0.005	0.000	-0.015	-0.049	0.034	2.744	1.909	1.914	1.909	1.924	1.895	1.904
0.005	0.005	0.000	-0.005	0.034	-0.039	0.034	2.651	1.909	1.914	1.909	1.924	1.919	1.914
0.000	0.010	0.005	0.000	0.093	0.010	0.034	2.803	1.919	1.914	1.914	1.934	1.938	1.934
-0.005	0.010	0.005	-0.005	0.112	0.049	0.034	2.656	1.914	1.914	1.914	1.929	1.938	1.948
0.000	0.005	0.000	0.000	0.068	0.073	0.034	2.646	1.909	1.914	1.914	1.929	1.929	1.948
0.005	0.000	0.000	0.005	0.029	0.098	0.034	2.783	1.919	1.914	1.914	1.929	1.914	1.943
-0.005	0.000	0.000	0.000	-0.020	0.073	0.034	2.734	1.919	1.914	1.914	1.929	1.904	1.924
-0.005	-0.020	0.000	0.000	-0.039	0.034	0.034	2.666	1.914	1.909	1.909	1.929	1.899	1.909
0.000	0.000	-0.005	0.000	-0.088	-0.010	0.034	2.715	1.914	1.914	1.909	1.929	1.895	1.890
0.015	0.010	0.005	0.000	-0.112	-0.088	0.034	2.808	1.924	1.919	1.909	1.929	1.895	1.870
0.005	0.000	0.000	0.005	-0.098	-0.098	0.034	2.642	1.904	1.909	1.909	1.929	1.904	1.875
0.005	-0.015	0.000	0.000	-0.093	-0.107	0.034	2.744	1.909	1.904	1.909	1.929	1.909	1.885
0.005	-0.015	0.000	0.005	-0.073	-0.068	0.034	2.734	1.909	1.909	1.904	1.929	1.924	1.899
0.005	0.000	-0.005	0.005	-0.039	-0.049	0.034	2.759	1.914	1.909	1.909	1.929	1.929	1.919
0.000	0.000	0.000	0.000	-0.039	-0.015	0.034	2.700	1.909	1.909	1.909	1.929	1.929	1.929
-0.005	0.000	0.000	0.005	-0.024	0.020	0.034	2.715	1.914	1.909	1.909	1.929	1.934	1.943
0.000	0.024	0.000	0.005	-0.054	0.044	0.034	2.651	1.909	1.919	1.909	1.929	1.924	1.943
0.010	0.024	0.000	0.000	-0.015	0.054	0.034	2.632	1.904	1.914	1.914	1.929	1.938	1.943
0.000	0.024	0.005	-0.005	0.054	0.034	0.034	2.690	1.904	1.909	1.914	1.934	1.948	1.943
-0.005	0.010	0.005	0.005	0.005	0.044	0.029	2.676	1.904	1.904	1.909	1.929	1.929	1.943
0.000	0.015	0.005	0.005	-0.029	0.029	0.034	2.700	1.914	1.909	1.909	1.929	1.924	1.929
-0.005	0.005	0.005	0.000	0.034	-0.005	0.034	2.676	1.914	1.904	1.904	1.929	1.943	1.924
0.005	0.010	0.005	0.000	0.176	-0.029	0.034	2.676	1.914	1.909	1.909	1.934	1.973	1.934
0.000	-0.015	0.000	0.000	0.137	-0.010	0.034	2.676	1.909	1.904	1.904	1.929	1.948	1.948
-0.005	0.015	0.000	0.000	0.059	0.005	0.034	2.695	1.914	1.909	1.904	1.924	1.919	1.943
-0.005	-0.015	-0.005	0.000	0.024	0.010	0.034	2.700	1.909	1.904	1.899	1.919	1.909	1.934
0.005	-0.010	0.000	0.000	-0.024	0.029	0.034	2.690	1.909	1.904	1.904	1.919	1.899	1.929
0.005	-0.010	-0.005	0.005	-0.049	0.010	0.034	2.656	1.909	1.909	1.904	1.919	1.895	1.914
0.005	-0.010	-0.005	0.005	-0.059	0.020	0.034	2.671	1.909	1.909	1.904	1.919	1.899	1.914
0.005	-0.005	-0.005	0.005	-0.059	0.034	0.034	2.695	1.909	1.909	1.904	1.924	1.904	1.914
0.005	0.000	0.000	0.000	-0.059	0.015	0.034	2.710	1.909	1.909	1.904	1.919	1.909	1.904
-0.005	0.005	0.005	0.000	-0.044	-0.005	0.034	2.681	1.904	1.909	1.909	1.924	1.909	1.904
-0.005	0.005	0.005	-0.005	-0.024	-0.015	0.034	2.700	1.909	1.904	1.904	1.924	1.919	1.904
-0.005	0.005	0.000	-0.010	-0.015	-0.029	0.034	2.681	1.904	1.904	1.904	1.924	1.919	1.904
0.000	-0.005	0.000	-0.005	-0.005	-0.039	0.034	2.681	1.904	1.899	1.899	1.919	1.924	1.909
-0.005	0.005	0.000	-0.005	0.000	-0.029	0.029	2.700	1.904	1.909	1.904	1.924	1.924	1.914
0.000	0.010	0.005	0.000	0.000	-0.029	0.034	2.705	1.914	1.909	1.909	1.929	1.924	1.919
0.005	0.005	0.005	0.000	-0.005	-0.015	0.034	2.705	1.914	1.909	1.904	1.924	1.924	1.924
0.005	0.000	0.000	0.005	-0.015	-0.005	0.034	2.681	1.909	1.909	1.904	1.924	1.919	1.924
0.005	0.005	0.000	0.005	-0.029	0.005	0.034	2.695	1.914	1.909	1.904	1.924	1.914	1.924
0.000	0.010	0.000	0.005	-0.029	0.015	0.034	2.681	1.909	1.909	1.909	1.924	1.919	1.929
0.000	0.015	0.000	0.005	-0.020	0.015	0.034	2.661	1.904	1.909	1.909	1.924	1.919	1.924
-0.005	0.015	-0.005	0.000	-0.005	0.010	0.034	2.788	1.914	1.909	1.909	1.924	1.924	1.924
0.005	0.010	-0.005	0.000	0.010	0.015	0.034	2.642	1.909	1.909	1.904	1.924	1.929	1.924
-0.005	0.020	0.000	0.000	0.020	0.015	0.034	2.651	1.904	1.909	1.904	1.924	1.929	1.924
0.005	0.005	-0.005	0.000	0.015	0.010	0.029	2.783	1.919	1.909	1.904	1.924	1.924	1.919
0.000	0.000	0.000	0.000	0.020	0.005	0.034	2.734	1.919	1.909	1.904	1.924	1.924	1.924
0.010	0.005	0.005	0.000	0.015	0.020	0.034	2.690	1.919	1.914	1.909	1.924	1.919	1.929
-0.005	0.000	0.000	0.000	0.000	0.024	0.034	2.710	1.914	1.914	1.909	1.924	1.919	1.924
0.005	0.000	0.000	0.005	0.005	0.024	0.034	2.803	1.929	1.914	1.909	1.929	1.919	1.924
0.000	0.005	-0.005	0.005	0.005	0.029	0.034	2.715	1.929	1.919	1.909	1.929	1.924	1.924
-0.005	0.005	0.005	0.000	0.000	0.010	0.034	2.661	1.919	1.919	1.914	1.929	1.919	1.914
-0.005	0.015	0.005	0.005	0.000	0.005	0.034	2.739	1.924	1.924	1.914	1.929	1.924	1.919
-0.010	0.010	0.000	0.005	0.000	-0.005	0.034	2.651	1.914	1.919	1.914	1.929	1.924	1.919
0.005	-0.010	0.000	0.005	0.010	-0.015	0.034	2.710	1.919	1.909	1.914	1.934	1.924	1.914
0.005	-0.010	0.005	0.000	0.005	-0.020	0.034	2.734	1.919	1.909	1.914	1.929	1.924	1.919
0.010	-0.010	0.005	0.005	0.015	-0.015	0.034	2.656	1.914	1.914	1.914	1.929	1.929	1.924
0.005	0.005	0.000	0.000	0.015	-0.010	0.034	2.710	1.914	1.919	1.914	1.929	1.929	1.924
0.000	-0.005	0.000	-0.005	-0.005	-0.020	0.034	2.661	1.909	1.914	1.914	1.934	1.919	1.924
-0.005	-0.005	0.000	0.000	0.000	0.005	0.034	2.695	1.909	1.909	1.909	1.929	1.924	1.929
0.000	0.000	0.000	0.000	0.000	0.000	0.034	2.681	1.909	1.909	1.909	1.929	1.924	1.924
0.000	-0.010	0.000	0.000	0.005	0.005	0.034	2.695	1.909	1.904	1.909	1.929	1.924	1.929
0.010	0.000	0.000	0.005	-0.005	-0.020	0.034	2.676	1.909	1.909	1.909	1.929	1.924	1.914
0.005	-0.005	0.005	0.010	-0.010	0.005	0.034	2.666	1.904	1.909	1.909	1.929	1.924	1.924
-0.010	-0.005	-0.005	0.010	-0.005	-0.020	0.034	2.671	1.904	1.904	1.904	1.929	1.924	1.919
0.000	-0.005	0.005	0.000	0.000	0.010	0.034	2.710	1.909	1.904	1.904	1.929	1.924	1.929
0.000	0.000	0.005	0.005	0.015	0.015	0.034	2.705	1.909	1.909	1.904	1.929	1.929	1.929
-0.005	-0.005	0.000	0.005	0.024	0.000	0.034	2.671	1.909	1.904	1.909	1.924	1.929	1.929
0.000	-0.020	0.005	0.000	0.005	0.015	0.034	2.710	1.919	1.904	1.904	1.924	1.919	1.929
0.005	0.005	0.000	0.005	0.005	-0.005	0.034	2.690	1.914	1.914	1.904	1.924	1.924	1.924
-0.005	0.024	0.000	-0.005	0.005	0.015	0.034	2.681	1.909	1.919	1.909	1.924	1.919	1.929
-0.005	0.010	0.005	0.005	0.010	0.020	0.034	2.671	1.909	1.909	1.909	1.929	1.924	1.929
-0.005	0.005	0.000	0.000	-0.020	0.015	0.034	2.690	1.914	1.909	1.909	1.924	1.914	1.924
0.000	0.000	-0.005	0.005	-0.029	0.015	0.034	2.661	1.914	1.909	1.904	1.924	1.914	1.919
-0.010	0.010	0.000	0.000	0.005	0.024	0.034	2.676	1.904	1.909	1.909	1.924	1.924	1.924
0.005	0.005	0.000	-0.005	0.024	0.015	0.034	2.686	1.914	1.909	1.909	1.924	1.929	1.919
0.000	0.000	0.005	-0.005	0.015	0.005	0.034	2.700	1.909	1.904	1.909	1.924	1.919	1.919
-0.005	-0.010	0.000	0.000	0.010	0.000	0.034	2.695	1.909	1.904	1.904	1.924	1.919	1.919
-0.005	0.000	0.000	0.005	0.005	0.000	0.034	2.676	1.909	1.909	1.904	1.929	1.919	1.919
0.005	-0.005	0.005	0.000	0.000	-0.015	0.034	2.695	1.909	1.909	1.904	1.924	1.919	1.914
-0.005	0.010	-0.005	0.000	0.000	-0.005	0.034	2.690	1.909	1.909	1.904	1.924	1.914	1.914
0.005	0.010	0.005	0.000	0.000	-0.015	0.034	2.666	1.909	1.909	1.904	1.924	1.919	1.914
0.000	-0.005	0.000	0.000	-0.010	-0.010	0.034	2.778	1.914	1.909	1.904	1.924	1.919	1.914
0.005	0.000	0.000	0.000	-0.005	-0.005	0.034	2.656	1.909	1.909	1.904	1.924	1.919	1.919
0.000	-0.005	-0.005	0.005	0.000	-0.005	0.034	2.651	1.904	1.904	1.904	1.924	1.919	1.919
0.000	-0.005	0.000	0.000	-0.024	-0.005	0.034	2.651	1.904	1.904	1.904	1.924	1.914	1.919
0.005	0.005	0.005	0.000	-0.020	-0.020	0.034	2.637	1.899	1.904	1.904	1.924	1.914	1.914
0.005	0.000	0.005	0.000	-0.034	0.005	0.034	2.671	1.904	1.904	1.899	1.924	1.914	1.919
0.005	0.005	0.010	0.005	-0.059	-0.010	0.029	2.622	1.909	1.904	1.904	1.924	1.909	1.909
0.005	0.005	0.005	0.005	-0.073	0.005	0.039	2.783	1.919	1.909	1.904	1.924	1.909	1.914
0.005	-0.005	0.000	0.005	-0.039	0.010	0.039	2.632	1.909	1.904	1.904	1.924	1.919	1.919
0.005	0.000	0.000	0.005	-0.015	-0.005	0.039	2.651	1.904	1.904	1.904	1.924	1.924	1.914
0.000	-0.015	0.000	0.005	-0.020	-0.020	0.039	2.739	1.909	1.904	1.904	1.924	1.919	1.914
0.000	-0.010	0.000	0.005	-0.054	0.000	0.039	2.734	1.914	1.904	1.904	1.924	1.914	1.919
0.000	-0.015	0.000	0.000	-0.034	0.005	0.034	2.715	1.914	1.904	1.899	1.919	1.919	1.919
0.000	-0.010	0.000	-0.005	-0.005	0.000	0.034	2.734	1.919	1.909	1.904	1.919	1.924	1.924
0.010	-0.005	0.005	0.000	0.024	0.005	0.039	2.661	1.914	1.914	1.909	1.924	1.934	1.924
0.000	0.005	-0.005	0.000	0.088	0.024	0.034	2.744	1.919	1.914	1.909	1.924	1.948	1.938
0.015	0.000	-0.005	0.000	0.161	-0.029	0.039	2.705	1.924	1.914	1.909	1.929	1.958	1.934
0.005	0.010	0.000	0.000	0.171	-0.015	0.034	2.705	1.919	1.919	1.914	1.929	1.948	1.938
0.000	0.005	0.000	-0.005	0.044	-0.039	0.034	2.700	1.919	1.919	1.914	1.924	1.904	1.919
0.000	0.000	0.005	0.000	0.015	0.005	0.034	2.690	1.919	1.919	1.914	1.929	1.909	1.929
0.000	0.005	0.000	-0.005	0.132	0.005	0.034	2.705	1.919	1.919	1.914	1.934	1.948	1.938
0.000	0.015	0.005	0.000	0.112	0.015	0.039	2.681	1.919	1.919	1.914	1.934	1.938	1.938
-0.010	0.010	0.000	0.005	0.078	0.010	0.039	2.695	1.919	1.914	1.919	1.934	1.924	1.934
-0.005	0.005	0.005	0.000	0.020	0.024	0.039	2.705	1.919	1.914	1.914	1.929	1.909	1.929
-0.005	0.010	0.000	0.000	0.029	0.029	0.039	2.676	1.914	1.914	1.914	1.934	1.919	1.924
-0.005	0.000	0.005	0.005	-0.005	0.010	0.039	2.661	1.904	1.909	1.914	1.929	1.909	1.914
0.000	-0.005	0.000	0.000	-0.039	0.005	0.034	2.700	1.909	1.909	1.909	1.929	1.904	1.904
0.005	-0.010	-0.005	0.000	-0.059	-0.005	0.039	2.715	1.914	1.909	1.904	1.929	1.909	1.904
0.010	0.005	-0.010	0.005	-0.073	-0.015	0.039	2.690	1.909	1.909	1.909	1.929	1.904	1.904
0.000	0.000	0.000	-0.005	-0.083	-0.015	0.039	2.681	1.904	1.909	1.909	1.924	1.909	1.904
-0.005	0.000	0.000	0.000	-0.073	-0.010	0.039	2.666	1.899	1.904	1.904	1.924	1.914	1.909
0.005	-0.005	-0.005	0.000	-0.059	0.005	0.039	2.666	1.899	1.904	1.904	1.924	1.919	1.914
0.005	-0.005	0.000	-0.005	-0.054	0.010	0.034	2.671	1.904	1.899	1.904	1.924	1.919	1.919
0.005	-0.005	0.000	-0.005	-0.039	0.010	0.039	2.666	1.899	1.904	1.899	1.924	1.924	1.924
0.000	0.000	-0.005	-0.005	-0.024	0.029	0.034	2.681	1.899	1.904	1.904	1.919	1.924	1.929
-0.005	0.005	0.000	0.000	-0.034	0.024	0.034	2.710	1.909	1.904	1.904	1.924	1.919	1.919
-0.005	0.000	0.005	0.000	-0.039	0.034	0.034	2.676	1.909	1.904	1.904	1.924	1.919	1.929
0.000	0.005	0.000	0.005	-0.044	0.039	0.039	2.700	1.909	1.909	1.904	1.924	1.919	1.924
0.005	0.000	0.000	0.005	-0.063	0.034	0.034	2.690	1.914	1.909	1.904	1.924	1.909	1.919
0.005	0.010	0.005	0.005	-0.073	0.005	0.039	2.661	1.914	1.914	1.904	1.924	1.914	1.909
-0.005	-0.005	0.005	0.010	-0.063	-0.024	0.034	2.788	1.914	1.904	1.904	1.929	1.914	1.904
0.000	0.000	0.005	0.010	-0.054	-0.049	0.034	2.661	1.909	1.904	1.904	1.924	1.919	1.899
0.010	0.000	0.000	0.010	-0.039	-0.088	0.039	2.646	1.904	1.909	1.904	1.919	1.919	1.899
-0.015	-0.005	0.000	0.000	-0.015	-0.073	0.039	2.656	1.895	1.899	1.899	1.924	1.924	1.909
-0.005	-0.005	0.000	0.000	-0.020	-0.078	0.039	2.627	1.890	1.899	1.899	1.919	1.924	1.914
-0.005	0.005	-0.005	-0.005	0.015	-0.044	0.039	2.690	1.895	1.899	1.899	1.919	1.934	1.929
0.000	0.005	0.000	-0.010	0.068	-0.024	0.034	2.627	1.909	1.899	1.899	1.919	1.938	1.938
0.000	0.005	0.000	-0.005	0.117	0.034	0.039	2.803	1.924	1.904	1.899	1.919	1.953	1.958
0.000	0.000	0.005	-0.005	0.171	0.059	0.034	2.627	1.914	1.909	1.899	1.924	1.958	1.968
0.010	0.005	0.000	0.000	0.190	0.088	0.039	2.651	1.914	1.909	1.904	1.924	1.953	1.968
0.010	0.000	0.000	0.000	0.161	0.063	0.039	2.749	1.929	1.914	1.904	1.924	1.934	1.953
0.000	0.000	0.005	0.010	0.122	0.078	0.039	2.661	1.919	1.914	1.909	1.924	1.919	1.948
0.000	0.000	0.000	0.005	0.049	0.039	0.039	2.720	1.924	1.914	1.909	1.924	1.899	1.919
0.015	0.005	0.000	0.005	0.000	0.015	0.039	2.720	1.929	1.919	1.914	1.924	1.890	1.904
-0.005	0.005	0.005	0.000	-0.039	-0.010	0.034	2.661	1.914	1.919	1.914	1.924	1.890	1.895
0.000	0.000	-0.005	0.010	-0.063	-0.015	0.039	2.627	1.904	1.914	1.909	1.924	1.890	1.890
0.000	-0.005	-0.010	0.005	-0.054	-0.039	0.034	2.671	1.904	1.909	1.909	1.929	1.904	1.890
0.005	0.010	-0.005	0.000	-0.039	0.010	0.039	2.700	1.904	1.909	1.909	1.929	1.914	1.909
0.000	0.010	0.000	0.000	-0.010	-0.024	0.039	2.666	1.899	1.904	1.909	1.924	1.919	1.904
0.000	-0.015	0.000	0.000	0.005	-0.020	0.039	2.671	1.899	1.895	1.904	1.929	1.924	1.914
0.005	-0.015	0.010	0.000	0.000	-0.034	0.034	2.700	1.904	1.899	1.904	1.924	1.919	1.909
0.005	-0.015	0.015	0.000	0.000	-0.034	0.039	2.690	1.904	1.904	1.904	1.924	1.924	1.914
-0.005	-0.005	0.015	-0.005	-0.005	-0.039	0.039	2.666	1.895	1.904	1.899	1.924	1.919	1.914
0.005	0.000	0.015	0.005	-0.020	-0.015	0.034	2.705	1.909	1.904	1.899	1.924	1.914	1.919
0.005	0.000	0.015	0.010	-0.020	0.015	0.039	2.690	1.909	1.904	1.904	1.924	1.914	1.929
0.000	0.010	0.005	0.000	-0.015	0.000	0.039	2.661	1.904	1.904	1.899	1.919	1.919	1.919
-0.010	0.020	0.005	0.000	-0.010	0.024	0.034	2.676	1.904	1.909	1.904	1.919	1.919	1.929
0.005	0.020	0.005	-0.005	-0.010	0.024	0.034	2.700	1.909	1.914	1.904	1.919	1.919	1.924
0.000	0.024	0.000	0.000	-0.005	0.015	0.034	2.700	1.909	1.909	1.904	1.919	1.919	1.924
0.005	0.015	0.000	-0.005	0.000	0.015	0.034	2.676	1.909	1.904	1.904	1.919	1.919	1.924
0.000	0.000	-0.005	0.000	-0.005	0.020	0.039	2.690	1.909	1.904	1.899	1.919	1.919	1.924
0.000	0.010	-0.039	0.005	0.000	0.015	0.034	2.671	1.909	1.904	1.895	1.919	1.919	1.919
-0.005	0.005	-0.059	0.005	-0.005	0.010	0.034	2.681	1.909	1.904	1.890	1.919	1.914	1.914
0.000	-0.005	-0.034	0.000	-0.020	0.005	0.034	2.661	1.904	1.904	1.899	1.914	1.909	1.914
-0.005	-0.010	-0.010	0.005	-0.020	0.005	0.034	2.666	1.899	1.899	1.904	1.919	1.914	1.914
0.000	-0.020	0.010	0.005	-0.015	0.010	0.034	2.710	1.909	1.899	1.909	1.924	1.914	1.914
-0.005	-0.005	0.034	0.005	-0.015	0.005	0.034	2.666	1.904	1.904	1.914	1.924	1.914	1.914
-0.010	0.000	0.049	0.005	-0.010	0.005	0.039	2.705	1.909	1.904	1.914	1.929	1.919	1.914
0.005	-0.005	0.049	0.005	-0.005	0.000	0.039	2.681	1.909	1.904	1.909	1.929	1.924	1.919
0.005	-0.005	0.034	-0.005	-0.005	0.000	0.034	2.656	1.904	1.904	1.904	1.924	1.919	1.919
0.005	0.000	0.029	0.000	0.000	-0.015	0.039	2.773	1.919	1.909	1.899	1.924	1.919	1.914
0.005	0.000	0.005	0.005	0.015	0.000	0.034	2.651	1.904	1.904	1.899	1.919	1.924	1.924
0.005	0.005	-0.005	0.000	0.024	-0.005	0.034	2.651	1.904	1.904	1.895	1.919	1.924	1.919
0.005	-0.005	0.000	0.000	0.020	0.015	0.034	2.651	1.914	1.904	1.899	1.919	1.919	1.929
-0.005	0.000	-0.015	0.000	0.005	0.005	0.039	2.729	1.914	1.909	1.895	1.919	1.914	1.924
0.005	0.005	-0.020	0.000	0.015	0.000	0.039	2.671	1.914	1.909	1.899	1.914	1.914	1.924
-0.005	0.010	-0.015	0.000	0.015	0.005	0.034	2.627	1.899	1.909	1.904	1.919	1.914	1.919
-0.005	0.015	-0.005	0.000	0.005	-0.010	0.034	2.705	1.914	1.909	1.909	1.919	1.914	1.914
-0.010	0.005	0.005	-0.005	-0.024	0.005	0.034	2.729	1.914	1.909	1.909	1.924	1.904	1.914
-0.005	0.000	-0.010	0.000	-0.015	0.005	0.034	2.749	1.919	1.909	1.904	1.924	1.914	1.914
0.000	0.005	-0.005	-0.005	-0.005	-0.005	0.034	2.622	1.909	1.914	1.909	1.924	1.919	1.914
0.000	-0.010	0.000	0.000	0.000	0.000	0.034	2.612	1.899	1.904	1.909	1.929	1.919	1.919
0.000	0.010	0.010	0.005	-0.005	0.010	0.034	2.725	1.909	1.909	1.909	1.929	1.919	1.919
0.005	0.005	0.015	0.005	-0.005	-0.005	0.034	2.739	1.919	1.909	1.909	1.929	1.919	1.914
0.000	0.005	0.015	0.005	-0.005	0.000	0.034	2.681	1.914	1.909	1.909	1.929	1.919	1.919
0.000	0.010	0.010	0.005	-0.020	-0.010	0.034	2.734	1.909	1.909	1.909	1.929	1.919	1.914
-0.005	-0.010	0.010	0.005	-0.034	-0.024	0.034	2.700	1.909	1.904	1.904	1.924	1.914	1.909
0.000	-0.010	0.005	0.000	0.000	0.000	0.034	2.700	1.909	1.904	1.904	1.924	1.924	1.924
0.010	0.000	0.000	0.000	0.005	0.010	0.034	2.676	1.914	1.909	1.904	1.924	1.924	1.924
0.000	-0.005	0.000	-0.005	-0.005	0.015	0.034	2.700	1.909	1.909	1.904	1.924	1.919	1.924
0.005	-0.010	-0.005	-0.005	0.005	0.015	0.034	2.676	1.909	1.909	1.904	1.924	1.919	1.929
0.015	-0.005	-0.005	-0.005	0.024	0.000	0.034	2.700	1.914	1.909	1.904	1.924	1.924	1.919
0.005	-0.005	-0.005	-0.005	0.024	-0.005	0.034	2.671	1.904	1.909	1.904	1.924	1.924	1.919
0.000	0.005	0.000	0.000	-0.015	-0.005	0.034	2.705	1.909	1.914	1.909	1.924	1.914	1.919
-0.010	0.024	-0.005	0.010	-0.020	-0.029	0.034	2.681	1.909	1.914	1.909	1.929	1.914	1.909
-0.010	0.039	-0.005	0.010	-0.005	0.000	0.034	2.681	1.904	1.914	1.909	1.929	1.919	1.924
-0.010	0.024	-0.010	0.010	0.039	0.005	0.034	2.676	1.904	1.904	1.909	1.929	1.934	1.929
-0.015	-0.005	-0.010	0.005	0.093	0.010	0.034	2.690	1.904	1.899	1.904	1.924	1.948	1.934
-0.010	-0.005	-0.005	0.000	0.117	0.000	0.034	2.661	1.909	1.904	1.904	1.924	1.943	1.938
0.000	-0.010	-0.005	0.000	0.103	0.010	0.034	2.666	1.909	1.904	1.904	1.924	1.934	1.938
0.000	-0.010	-0.005	0.000	0.073	0.000	0.034	2.661	1.904	1.904	1.899	1.924	1.924	1.929
0.005	-0.005	-0.005	0.000	0.044	0.015	0.034	2.671	1.914	1.909	1.904	1.924	1.909	1.929
0.005	0.010	-0.005	0.005	0.000	0.020	0.034	2.671	1.909	1.909	1.904	1.919	1.904	1.919
0.020	0.005	0.000	0.000	-0.054	0.024	0.034	2.666	1.909	1.909	1.904	1.919	1.890	1.914
0.015	-0.005	0.000	0.000	-0.024	0.005	0.034	2.700	1.909	1.904	1.904	1.919	1.904	1.904
-0.005	-0.005	0.000	0.000	-0.034	0.015	0.034	2.671	1.899	1.904	1.904	1.924	1.909	1.909
0.010	-0.005	0.005	0.000	-0.029	0.000	0.034	2.681	1.904	1.904	1.904	1.924	1.909	1.904
0.010	-0.005	0.000	0.000	-0.039	-0.010	0.034	2.705	1.904	1.904	1.899	1.919	1.909	1.899
0.005	-0.005	0.000	0.000	-0.024	-0.010	0.034	2.690	1.904	1.904	1.899	1.924	1.914	1.909
0.000	0.010	0.005	0.000	-0.029	0.000	0.034	2.681	1.904	1.909	1.904	1.924	1.914	1.909
0.000	0.000	0.005	0.000	-0.020	0.020	0.034	2.798	1.919	1.904	1.904	1.924	1.919	1.924
0.010	-0.020	0.005	0.000	-0.020	0.059	0.034	2.656	1.914	1.904	1.904	1.919	1.919	1.934
-0.005	0.000	0.005	0.000	-0.015	0.088	0.034	2.651	1.904	1.909	1.904	1.924	1.924	1.934
-0.005	0.005	0.005	0.000	-0.005	0.073	0.034	2.656	1.904	1.909	1.904	1.924	1.924	1.929
-0.010	-0.005	0.005	0.000	-0.005	0.024	0.039	2.725	1.909	1.904	1.904	1.924	1.919	1.914
-0.010	0.010	0.000	0.000	0.000	-0.029	0.034	2.666	1.904	1.909	1.904	1.924	1.919	1.899
0.000	0.044	0.000	0.005	0.000	-0.083	0.034	2.612	1.899	1.919	1.904	1.924	1.914	1.890
-0.005	0.024	0.005	0.000	-0.005	-0.103	0.034	2.637	1.890	1.904	1.904	1.924	1.914	1.890
-0.005	0.005	-0.005	-0.005	-0.015	-0.093	0.034	2.632	1.890	1.895	1.899	1.919	1.909	1.899
-0.005	0.005	0.000	0.000	-0.020	-0.078	0.034	2.661	1.890	1.890	1.895	1.919	1.914	1.909
-0.005	-0.015	0.000	0.000	-0.010	-0.044	0.034	2.759	1.895	1.890	1.895	1.919	1.914	1.919
0.000	-0.005	0.005	0.005	-0.015	-0.020	0.034	2.725	1.904	1.895	1.895	1.919	1.914	1.924
-0.005	-0.034	0.000	0.000	-0.039	-0.015	0.034	2.744	1.914	1.890	1.890	1.914	1.909	1.924
0.005	-0.024	0.005	0.005	-0.015	0.000	0.034	2.734	1.919	1.899	1.895	1.914	1.914	1.924
0.015	-0.029	0.000	0.000	-0.005	0.005	0.034	2.651	1.909	1.899	1.895	1.914	1.914	1.924
0.015	-0.015	0.005	0.000	0.005	0.005	0.034	2.642	1.909	1.909	1.899	1.914	1.919	1.924
0.000	-0.015	0.010	0.000	0.010	0.024	0.034	2.686	1.909	1.909	1.899	1.919	1.919	1.924
0.005	0.005	0.005	0.000	0.020	0.029	0.034	2.671	1.909	1.914	1.904	1.919	1.919	1.929
0.005	0.015	0.000	0.000	0.015	0.029	0.034	2.705	1.909	1.914	1.904	1.919	1.919	1.924
0.005	0.034	0.000	0.000	0.005	0.024	0.034	2.676	1.909	1.919	1.909	1.919	1.914	1.919
-0.005	0.034	0.005	-0.005	0.000	0.024	0.034	2.671	1.904	1.914	1.909	1.924	1.914	1.919
-0.010	0.029	0.005	-0.005	0.024	0.010	0.034	2.690	1.904	1.909	1.909	1.924	1.919	1.914
-0.005	0.029	0.005	0.000	0.034	-0.005	0.034	2.671	1.909	1.904	1.909	1.924	1.924	1.919
0.000	0.000	0.000	0.005	0.034	0.015	0.034	2.705	1.909	1.899	1.904	1.924	1.924	1.919
-0.010	0.005	0.000	0.000	0.010	0.010	0.034	2.671	1.904	1.899	1.899	1.924	1.914	1.919
0.005	-0.005	0.005	0.005	0.005	0.020	0.034	2.671	1.909	1.899	1.904	1.924	1.914	1.919
0.000	-0.010	0.000	0.000	-0.005	0.015	0.034	2.695	1.904	1.895	1.899	1.919	1.909	1.914
0.005	0.000	0.000	0.005	-0.005	0.000	0.034	2.700	1.909	1.904	1.899	1.919	1.909	1.914
0.015	-0.010	-0.005	0.005	-0.005	-0.005	0.034	2.671	1.909	1.899	1.899	1.919	1.914	1.909
0.010	-0.015	0.005	0.005	0.010	-0.020	0.034	2.676	1.904	1.899	1.899	1.919	1.914	1.909
0.015	-0.024	0.005	0.005	0.024	0.020	0.034	2.676	1.904	1.899	1.899	1.919	1.924	1.924
0.005	0.015	0.000	0.005	0.044	0.029	0.034	2.666	1.904	1.914	1.899	1.919	1.929	1.929
0.000	-0.005	0.000	0.000	0.034	0.020	0.034	2.676	1.904	1.899	1.899	1.919	1.919	1.924
0.000	-0.015	0.000	0.000	0.034	0.005	0.034	2.671	1.904	1.904	1.899	1.919	1.919	1.919
-0.010	0.015	0.005	0.000	0.029	-0.015	0.039	2.710	1.904	1.909	1.904	1.919	1.914	1.914
-0.005	0.039	0.005	0.000	0.015	-0.020	0.034	2.695	1.909	1.914	1.904	1.919	1.909	1.909
-0.005	0.005	0.005	0.005	0.015	-0.015	0.034	2.676	1.904	1.904	1.904	1.924	1.914	1.914
0.000	0.010	0.000	0.000	-0.005	-0.054	0.034	2.710	1.909	1.909	1.904	1.919	1.909	1.899
0.005	0.010	0.005	0.000	-0.029	-0.029	0.034	2.681	1.909	1.904	1.904	1.919	1.904	1.904
0.010	-0.010	0.000	0.000	-0.049	-0.029	0.034	2.666	1.904	1.899	1.899	1.919	1.904	1.904
-0.005	-0.010	-0.005	0.005	-0.059	0.000	0.034	2.793	1.914	1.904	1.899	1.919	1.904	1.909
0.005	0.000	0.000	0.010	-0.054	0.005	0.034	2.646	1.904	1.904	1.899	1.919	1.909	1.909
0.010	0.000	-0.005	0.010	-0.059	0.015	0.034	2.642	1.899	1.904	1.899	1.919	1.909	1.914
0.005	0.005	0.000	0.005	-0.059	0.020	0.034	2.642	1.895	1.904	1.899	1.919	1.909	1.914
-0.005	0.010	0.000	0.000	-0.039	0.010	0.034	2.725	1.899	1.904	1.904	1.919	1.914	1.914
0.010	-0.010	-0.005	0.000	-0.010	0.015	0.034	2.700	1.904	1.899	1.899	1.919	1.924	1.924
0.000	-0.010	0.000	-0.005	0.000	0.029	0.034	2.715	1.904	1.899	1.899	1.919	1.924	1.924
-0.005	-0.010	0.000	-0.005	0.010	0.010	0.034	2.793	1.919	1.899	1.899	1.919	1.924	1.919
0.000	0.005	0.000	0.005	0.015	0.020	0.034	2.642	1.914	1.909	1.899	1.919	1.924	1.924
0.000	-0.005	0.005	0.005	-0.020	0.024	0.034	2.754	1.919	1.909	1.904	1.919	1.914	1.924
0.005	-0.005	0.005	0.000	0.010	0.015	0.034	2.754	1.924	1.909	1.904	1.919	1.924	1.919
-0.005	0.005	0.005	0.000	0.044	0.000	0.034	2.749	1.924	1.919	1.909	1.924	1.929	1.919
0.010	0.005	0.005	0.005	0.049	0.029	0.034	2.705	1.924	1.924	1.914	1.924	1.929	1.929
0.005	0.024	0.000	0.005	0.034	0.034	0.034	2.725	1.924	1.924	1.914	1.929	1.924	1.924
0.000	0.020	0.005	0.000	0.039	0.010	0.034	2.681	1.909	1.924	1.919	1.929	1.924	1.924
-0.005	0.015	0.000	0.000	0.015	0.024	0.034	2.720	1.914	1.919	1.914	1.929	1.919	1.924
-0.005	0.015	0.000	0.005	-0.010	-0.015	0.034	2.695	1.909	1.914	1.914	1.929	1.909	1.909
-0.005	-0.005	0.000	0.000	-0.024	0.010	0.034	2.671	1.909	1.904	1.914	1.929	1.909	1.914
0.000	0.005	0.000	-0.005	-0.059	-0.005	0.029	2.710	1.909	1.909	1.909	1.929	1.899	1.904
0.010	-0.020	0.000	-0.005	-0.078	-0.044	0.034	2.671	1.904	1.904	1.904	1.924	1.904	1.895
0.010	-0.024	0.000	-0.005	-0.059	-0.034	0.034	2.695	1.904	1.899	1.904	1.924	1.914	1.904
0.005	-0.015	0.000	-0.005	-0.049	-0.024	0.034	2.676	1.899	1.899	1.904	1.924	1.919	1.909
0.005	-0.020	0.000	0.000	-0.020	-0.034	0.034	2.695	1.904	1.899	1.899	1.924	1.924	1.914
0.000	-0.034	0.005	0.010	0.000	-0.054	0.034	2.715	1.904	1.899	1.899	1.924	1.929	1.909
-0.010	0.010	0.005	0.010	0.015	-0.044	0.034	2.690	1.904	1.914	1.904	1.924	1.934	1.924
-0.010	0.039	0.000	0.000	0.029	-0.024	0.034	2.676	1.909	1.914	1.909	1.924	1.934	1.929
-0.015	0.020	0.000	-0.005	0.049	-0.020	0.034	2.700	1.904	1.909	1.904	1.924	1.934	1.934
-0.010	0.005	0.000	-0.005	0.073	0.024	0.034	2.700	1.909	1.904	1.909	1.924	1.938	1.948
0.000	0.034	0.010	-0.005	0.078	0.039	0.034	2.681	1.919	1.919	1.909	1.924	1.938	1.948
0.000	0.044	0.010	0.005	0.117	0.020	0.039	2.671	1.919	1.919	1.914	1.929	1.943	1.943
0.020	0.005	0.000	0.005	0.107	0.029	0.034	2.695	1.919	1.909	1.909	1.929	1.934	1.943
0.015	-0.005	0.000	0.010	0.122	0.015	0.039	2.671	1.914	1.909	1.904	1.929	1.938	1.938
-0.005	0.010	0.000	0.005	0.117	0.029	0.034	2.671	1.904	1.909	1.909	1.929	1.934	1.938
-0.010	-0.005	-0.010	0.000	0.078	0.010	0.034	2.671	1.904	1.904	1.904	1.924	1.914	1.929
0.000	-0.015	-0.005	0.005	0.005	0.024	0.034	2.686	1.909	1.904	1.904	1.924	1.895	1.919
-0.005	-0.034	0.010	0.005	-0.029	0.020	0.034	2.710	1.914	1.899	1.899	1.924	1.895	1.914
0.005	-0.015	-0.005	0.005	-0.054	0.010	0.034	2.666	1.909	1.909	1.899	1.919	1.895	1.904
0.005	-0.005	-0.005	-0.005	-0.059	-0.010	0.034	2.705	1.909	1.909	1.899	1.919	1.895	1.895
0.015	-0.020	0.000	0.005	-0.078	0.015	0.039	2.681	1.904	1.904	1.904	1.919	1.899	1.904
0.010	-0.039	0.005	0.005	-0.049	-0.015	0.034	2.666	1.899	1.899	1.899	1.919	1.909	1.899
0.015	0.039	0.005	0.000	-0.039	-0.005	0.039	2.793	1.924	1.929	1.909	1.919	1.914	1.904
-0.005	0.034	0.005	0.000	-0.024	-0.024	0.039	2.656	1.909	1.919	1.909	1.924	1.924	1.904
0.000	0.015	0.000	0.005	-0.020	-0.005	0.039	2.646	1.904	1.909	1.914	1.929	1.919	1.914
-0.015	0.005	0.005	0.005	-0.039	0.005	0.039	2.661	1.895	1.904	1.909	1.929	1.919	1.914
0.000	0.015	0.005	0.000	-0.039	0.000	0.034	2.725	1.909	1.904	1.904	1.924	1.919	1.919
0.000	0.005	0.005	0.000	-0.029	0.010	0.039	2.666	1.904	1.904	1.909	1.924	1.919	1.919
-0.005	0.010	0.005	-0.005	-0.029	0.000	0.034	2.715	1.909	1.904	1.904	1.924	1.924	1.919
-0.005	0.010	0.005	-0.010	-0.015	0.000	0.039	2.676	1.904	1.904	1.904	1.924	1.924	1.919
-0.005	0.020	0.005	-0.005	-0.010	0.000	0.039	2.622	1.904	1.904	1.899	1.924	1.924	1.919
-0.015	0.020	0.005	0.000	-0.020	-0.010	0.039	2.637	1.895	1.904	1.904	1.924	1.919	1.919
-0.015	0.005	0.000	0.000	-0.015	-0.029	0.039	2.739	1.899	1.895	1.899	1.924	1.919	1.914
0.005	-0.020	-0.005	0.005	-0.005	-0.010	0.039	2.729	1.904	1.895	1.895	1.919	1.919	1.919
0.005	-0.015	0.000	0.005	-0.010	0.000	0.039	2.744	1.914	1.899	1.895	1.919	1.919	1.924
0.000	-0.034	-0.005	0.010	-0.005	-0.010	0.034	2.710	1.914	1.895	1.895	1.919	1.919	1.919
0.015	-0.024	0.000	0.005	-0.015	-0.015	0.039	2.681	1.914	1.904	1.899	1.919	1.914	1.919
0.005	-0.020	0.005	0.005	-0.015	-0.024	0.039	2.749	1.914	1.909	1.899	1.919	1.909	1.909
0.010	0.010	0.000	0.005	-0.015	0.000	0.039	2.695	1.914	1.914	1.904	1.919	1.914	1.919
0.000	0.005	0.000	0.000	-0.024	0.005	0.039	2.671	1.909	1.914	1.904	1.919	1.914	1.919
0.000	0.010	0.000	0.005	-0.015	-0.010	0.039	2.700	1.909	1.914	1.909	1.924	1.914	1.914
-0.005	0.010	0.000	0.000	-0.020	0.029	0.034	2.715	1.909	1.909	1.909	1.924	1.914	1.924
-0.005	0.020	0.005	0.000	-0.010	0.005	0.034	2.705	1.909	1.914	1.909	1.924	1.919	1.914
0.005	0.015	0.000	0.005	0.005	0.024	0.034	2.681	1.914	1.914	1.909	1.924	1.924	1.929
0.000	0.015	0.005	0.000	0.015	0.015	0.034	2.715	1.914	1.914	1.909	1.929	1.929	1.924
0.005	0.010	0.000	0.000	0.024	0.020	0.039	2.700	1.914	1.914	1.909	1.924	1.929	1.929
-0.005	0.005	-0.005	-0.005	0.034	0.015	0.039	2.656	1.909	1.909	1.909	1.924	1.929	1.924
-0.005	-0.005	0.000	-0.005	0.039	0.024	0.039	2.705	1.909	1.904	1.904	1.924	1.929	1.929
0.000	-0.015	-0.005	0.000	0.049	0.024	0.039	2.676	1.909	1.904	1.904	1.924	1.929	1.934
0.015	-0.005	-0.005	0.000	0.029	0.044	0.034	2.700	1.909	1.909	1.904	1.924	1.924	1.934
0.015	0.010	0.005	0.000	0.020	0.010	0.034	2.671	1.914	1.909	1.909	1.924	1.919	1.919
-0.005	-0.024	0.005	-0.005	0.005	-0.005	0.034	2.666	1.904	1.899	1.904	1.919	1.909	1.914
0.015	-0.039	0.000	0.000	-0.029	-0.010	0.034	2.695	1.904	1.899	1.899	1.919	1.904	1.909
0.015	-0.020	0.000	0.000	-0.049	-0.039	0.034	2.671	1.904	1.904	1.899	1.924	1.899	1.895
0.020	-0.020	0.010	0.000	-0.054	-0.054	0.034	2.690	1.904	1.904	1.899	1.919	1.904	1.895
0.005	-0.015	0.000	0.000	-0.059	-0.073	0.039	2.666	1.899	1.904	1.904	1.919	1.904	1.895
0.005	0.000	-0.005	0.000	-0.044	-0.059	0.034	2.681	1.899	1.909	1.904	1.924	1.914	1.899
0.010	0.010	0.010	0.005	-0.015	-0.044	0.039	2.720	1.904	1.904	1.909	1.924	1.924	1.914
0.000	0.020	0.000	0.005	0.015	0.000	0.034	2.671	1.899	1.909	1.904	1.924	1.934	1.934
-0.005	0.010	0.005	-0.005	0.039	0.024	0.034	2.705	1.909	1.904	1.904	1.924	1.934	1.938
0.005	0.005	0.000	0.000	0.054	0.034	0.039	2.695	1.914	1.904	1.904	1.924	1.938	1.938
0.005	0.020	0.000	0.005	0.063	0.044	0.039	2.666	1.909	1.909	1.904	1.929	1.934	1.943
-0.010	0.049	0.000	0.005	0.059	0.049	0.039	2.793	1.924	1.919	1.909	1.924	1.929	1.938
-0.034	0.044	0.000	0.000	0.073	0.034	0.039	2.651	1.909	1.914	1.909	1.924	1.934	1.938
-0.049	0.015	0.000	0.000	0.073	0.034	0.034	2.651	1.899	1.899	1.904	1.924	1.929	1.934
-0.024	-0.005	0.000	0.005	0.054	0.015	0.039	2.646	1.904	1.899	1.904	1.924	1.919	1.924
0.005	-0.005	0.000	0.000	0.034	0.005	0.034	2.637	1.909	1.899	1.899	1.919	1.914	1.919
0.005	0.000	-0.005	0.000	0.015	0.015	0.034	2.666	1.909	1.904	1.899	1.924	1.909	1.919
0.020	0.000	-0.005	0.000	-0.005	0.015	0.039	2.734	1.909	1.904	1.899	1.919	1.904	1.909
0.010	0.000	-0.005	0.005	-0.005	0.005	0.039	2.783	1.914	1.904	1.899	1.919	1.909	1.909
0.000	0.034	-0.005	0.005	-0.020	-0.015	0.039	2.627	1.904	1.914	1.904	1.919	1.904	1.899
0.000	0.015	-0.005	0.005	-0.029	-0.039	0.039	2.632	1.899	1.904	1.904	1.919	1.899	1.895
0.010	-0.010	0.005	0.005	-0.054	-0.034	0.039	2.744	1.909	1.899	1.904	1.919	1.899	1.895
0.010	-0.024	0.000	0.005	-0.039	-0.024	0.034	2.661	1.899	1.895	1.899	1.919	1.909	1.904
0.005	-0.020	0.000	0.005	-0.010	-0.015	0.039	2.729	1.909	1.899	1.899	1.919	1.919	1.909
-0.005	-0.005	0.000	0.005	0.005	-0.054	0.039	2.729	1.909	1.904	1.899	1.919	1.919	1.904
0.000	0.010	0.000	0.000	-0.005	-0.029	0.039	2.656	1.904	1.909	1.904	1.919	1.914	1.914
0.005	0.010	0.005	0.000	-0.015	-0.005	0.039	2.739	1.909	1.909	1.909	1.919	1.914	1.924
-0.005	0.010	0.005	0.000	-0.015	0.015	0.039	2.690	1.909	1.909	1.904	1.919	1.914	1.924
0.000	-0.005	0.000	0.000	-0.010	0.029	0.039	2.681	1.909	1.904	1.904	1.924	1.919	1.929
0.000	-0.020	0.010	0.005	-0.010	0.029	0.034	2.671	1.909	1.899	1.904	1.924	1.919	1.924
0.000	-0.029	0.010	0.010	-0.020	0.034	0.034	2.676	1.904	1.899	1.899	1.924	1.919	1.924
0.005	-0.024	0.005	0.000	-0.010	0.024	0.034	2.676	1.904	1.904	1.899	1.919	1.914	1.919
0.005	-0.015	0.010	-0.010	0.010	0.024	0.034	2.681	1.909	1.904	1.899	1.919	1.919	1.919
0.000	-0.015	0.005	-0.015	0.015	0.000	0.039	2.700	1.909	1.904	1.899	1.914	1.919	1.909
0.005	0.024	0.000	-0.005	0.000	0.010	0.039	2.695	1.909	1.914	1.904	1.919	1.914	1.919
0.005	0.005	-0.005	-0.005	-0.020	0.010	0.039	2.695	1.909	1.904	1.904	1.919	1.904	1.909
0.005	0.005	-0.005	0.000	-0.010	0.020	0.039	2.666	1.904	1.904	1.899	1.924	1.914	1.914
-0.010	0.015	-0.015	0.000	-0.005	0.020	0.039	2.700	1.904	1.909	1.904	1.924	1.919	1.919
-0.024	0.024	-0.010	0.000	0.005	0.049	0.034	2.715	1.899	1.904	1.904	1.924	1.919	1.924
-0.010	0.015	0.000	0.005	0.005	0.054	0.034	2.676	1.909	1.909	1.904	1.919	1.919	1.929
0.000	-0.005	-0.005	0.000	-0.005	0.020	0.034	2.666	1.909	1.899	1.904	1.919	1.914	1.909
0.015	-0.010	0.000	0.005	-0.005	0.005	0.034	2.676	1.914	1.899	1.904	1.924	1.914	1.909
0.005	-0.020	-0.005	0.015	-0.005	-0.029	0.034	2.666	1.904	1.899	1.899	1.924	1.914	1.904
0.015	0.010	0.005	0.015	0.015	-0.049	0.039	2.676	1.909	1.909	1.904	1.929	1.924	1.904
0.010	-0.010	0.010	0.010	0.039	-0.073	0.034	2.671	1.904	1.899	1.904	1.924	1.929	1.904
0.000	0.000	0.005	0.010	0.020	-0.063	0.039	2.671	1.899	1.904	1.904	1.919	1.919	1.914
-0.010	0.034	0.005	0.005	-0.015	-0.039	0.039	2.710	1.899	1.914	1.904	1.924	1.909	1.914
-0.024	0.044	0.005	0.005	-0.020	-0.024	0.039	2.661	1.895	1.909	1.904	1.924	1.909	1.919
-0.024	0.049	0.005	0.005	-0.015	-0.034	0.039	2.705	1.904	1.909	1.904	1.924	1.914	1.909
-0.015	0.044	0.010	0.010	-0.005	-0.044	0.039	2.671	1.899	1.909	1.904	1.924	1.919	1.914
0.005	0.015	0.005	0.005	-0.010	-0.063	0.039	2.656	1.904	1.890	1.899	1.924	1.914	1.909
0.005	-0.015	0.000	0.005	-0.049	-0.054	0.039	2.783	1.914	1.890	1.895	1.914	1.904	1.904
0.015	-0.029	0.000	0.005	-0.054	-0.015	0.034	2.651	1.904	1.890	1.890	1.914	1.904	1.919
0.005	-0.039	-0.005	-0.005	-0.068	0.054	0.034	2.651	1.904	1.890	1.890	1.909	1.909	1.929
0.005	-0.020	-0.005	0.000	-0.054	0.088	0.039	2.661	1.904	1.899	1.890	1.909	1.909	1.934
0.010	-0.015	-0.005	0.000	-0.059	0.098	0.039	2.725	1.909	1.899	1.895	1.914	1.909	1.934
0.015	0.015	0.000	-0.005	-0.063	0.107	0.039	2.671	1.914	1.914	1.899	1.914	1.909	1.929
0.010	0.020	0.000	-0.005	-0.049	0.068	0.034	2.632	1.909	1.909	1.899	1.914	1.909	1.909
0.005	-0.024	0.000	-0.010	0.000	0.015	0.039	2.642	1.895	1.895	1.899	1.914	1.924	1.904
0.010	-0.054	0.005	-0.010	0.073	-0.005	0.039	2.627	1.890	1.885	1.899	1.919	1.943	1.909
0.005	-0.034	0.000	-0.005	0.205	-0.029	0.034	2.642	1.890	1.895	1.895	1.924	1.968	1.924
0.005	-0.039	-0.005	0.005	0.254	-0.039	0.034	2.734	1.904	1.895	1.895	1.919	1.968	1.934
0.000	-0.005	-0.005	0.010	0.229	-0.049	0.034	2.749	1.899	1.904	1.899	1.919	1.943	1.934
-0.005	0.005	0.000	0.005	0.127	-0.020	0.039	2.749	1.904	1.904	1.899	1.914	1.904	1.934
0.000	0.005	-0.005	0.000	0.068	-0.029	0.039	2.729	1.914	1.904	1.899	1.914	1.895	1.919
0.005	0.020	0.000	-0.005	0.063	-0.005	0.039	2.656	1.909	1.909	1.904	1.914	1.899	1.919
-0.015	0.015	-0.005	-0.005	0.029	0.005	0.034	2.651	1.899	1.904	1.904	1.919	1.890	1.909
-0.020	0.015	-0.005	0.000	0.000	0.000	0.039	2.700	1.899	1.904	1.899	1.919	1.890	1.904
-0.005	-0.005	-0.005	0.005	-0.054	0.000	0.039	2.695	1.904	1.895	1.899	1.914	1.880	1.895
0.000	-0.015	0.005	0.005	-0.063	0.005	0.039	2.671	1.904	1.899	1.895	1.919	1.885	1.895
0.005	-0.005	0.005	-0.005	-0.063	0.005	0.039	2.661	1.904	1.899	1.899	1.914	1.895	1.895
-0.005	0.034	0.010	0.000	-0.054	-0.005	0.034	2.705	1.904	1.914	1.904	1.919	1.899	1.895
-0.005	0.024	0.005	-0.010	-0.054	-0.005	0.034	2.700	1.909	1.909	1.899	1.919	1.904	1.895
-0.015	0.010	0.000	-0.005	-0.044	-0.024	0.034	2.681	1.899	1.899	1.899	1.919	1.909	1.895
0.000	0.000	0.005	0.000	-0.039	-0.020	0.034	2.715	1.909	1.899	1.899	1.919	1.914	1.899
0.015	-0.010	0.010	0.010	-0.039	0.000	0.034	2.710	1.909	1.899	1.899	1.924	1.914	1.909
0.015	-0.010	0.000	0.000	-0.034	0.010	0.034	2.686	1.909	1.904	1.899	1.919	1.914	1.919
0.010	-0.005	0.000	-0.010	-0.029	0.015	0.034	2.700	1.909	1.904	1.899	1.914	1.914	1.919
0.005	-0.015	0.010	-0.020	-0.020	0.005	0.039	2.700	1.909	1.904	1.899	1.914	1.914	1.914
0.000	-0.020	0.005	-0.010	-0.015	0.000	0.039	2.671	1.899	1.899	1.899	1.914	1.914	1.914
0.010	-0.024	0.005	0.000	-0.010	-0.015	0.034	2.671	1.909	1.904	1.899	1.924	1.919	1.909
0.010	0.015	0.000	0.015	-0.020	-0.039	0.034	2.700	1.909	1.914	1.904	1.924	1.914	1.904
0.005	0.029	0.005	0.015	-0.015	-0.024	0.034	2.666	1.899	1.914	1.909	1.924	1.919	1.914
0.005	0.029	0.005	0.015	-0.005	-0.044	0.034	2.666	1.895	1.904	1.909	1.924	1.919	1.909
0.000	0.005	-0.005	0.020	0.000	-0.020	0.034	2.661	1.895	1.895	1.899	1.924	1.924	1.919
-0.005	-0.005	-0.005	0.024	0.005	-0.005	0.034	2.700	1.895	1.895	1.899	1.924	1.924	1.929
-0.029	0.015	-0.005	0.024	0.005	-0.005	0.039	2.705	1.895	1.899	1.899	1.919	1.924	1.924
-0.010	0.010	-0.005	0.010	0.015	0.015	0.034	2.676	1.904	1.899	1.895	1.914	1.924	1.929
-0.005	0.005	0.000	0.005	0.020	0.005	0.034	2.700	1.909	1.895	1.895	1.914	1.919	1.924
-0.005	-0.020	-0.005	0.005	0.015	0.015	0.034	2.686	1.909	1.895	1.895	1.914	1.914	1.924
0.010	-0.015	-0.005	0.005	0.015	-0.005	0.034	2.661	1.909	1.899	1.895	1.914	1.914	1.914
0.010	-0.005	-0.005	0.015	0.005	0.005	0.034	2.788	1.924	1.909	1.899	1.919	1.914	1.919
-0.005	0.010	0.000	0.010	0.010	0.000	0.034	2.651	1.909	1.914	1.904	1.919	1.914	1.914
-0.015	0.015	0.005	0.000	0.005	0.010	0.034	2.656	1.899	1.909	1.909	1.914	1.909	1.919
-0.010	0.024	0.010	-0.005	0.000	0.005	0.034	2.642	1.899	1.909	1.909	1.914	1.909	1.914
-0.010	0.054	0.010	-0.010	0.005	-0.010	0.034	2.729	1.904	1.914	1.909	1.919	1.914	1.909
-0.024	0.059	0.010	-0.005	0.010	0.010	0.034	2.690	1.904	1.909	1.909	1.924	1.914	1.914
-0.010	0.024	0.005	-0.005	0.005	0.005	0.034	2.607	1.895	1.899	1.904	1.924	1.914	1.914
-0.005	0.000	0.005	-0.005	0.020	0.005	0.034	2.637	1.890	1.890	1.899	1.924	1.919	1.914
0.010	-0.024	0.010	-0.005	0.020	0.000	0.034	2.720	1.904	1.885	1.895	1.919	1.919	1.914
0.015	-0.044	0.005	-0.005	0.020	0.005	0.034	2.754	1.914	1.885	1.890	1.919	1.919	1.914
0.020	-0.059	-0.005	0.000	0.010	0.005	0.039	2.637	1.904	1.890	1.885	1.914	1.914	1.914
0.015	-0.049	-0.010	-0.005	0.015	0.010	0.034	2.627	1.895	1.890	1.885	1.909	1.909	1.914
0.015	-0.015	-0.010	-0.005	0.015	0.010	0.034	2.729	1.899	1.904	1.890	1.909	1.909	1.914
0.005	-0.015	-0.020	-0.005	0.010	0.005	0.034	2.646	1.899	1.904	1.890	1.909	1.909	1.909
0.005	-0.005	-0.010	-0.005	0.010	0.010	0.034	2.681	1.904	1.904	1.895	1.909	1.904	1.909
0.015	0.005	0.000	-0.005	0.005	0.005	0.039	2.744	1.914	1.909	1.899	1.909	1.904	1.909
0.015	0.044	0.005	-0.005	0.000	0.015	0.034	2.695	1.909	1.924	1.909	1.919	1.904	1.909
0.005	0.073	0.010	0.000	0.000	0.029	0.034	2.700	1.909	1.924	1.914	1.924	1.909	1.914
0.015	0.010	0.005	0.010	0.000	0.020	0.034	2.686	1.909	1.904	1.909	1.929	1.914	1.914
0.010	-0.024	0.000	0.005	0.000	0.005	0.034	2.661	1.899	1.890	1.904	1.924	1.914	1.909
0.000	-0.005	0.000	0.000	-0.005	0.000	0.034	2.695	1.899	1.899	1.899	1.924	1.914	1.909
-0.005	0.000	0.005	0.005	0.000	-0.005	0.034	2.671	1.899	1.899	1.899	1.919	1.914	1.914
-0.010	0.029	0.005	0.000	0.000	0.005	0.034	2.705	1.904	1.909	1.904	1.919	1.919	1.914
-0.005	-0.029	0.005	0.000	0.000	0.010	0.034	2.705	1.904	1.890	1.899	1.919	1.914	1.919
0.005	-0.024	0.000	0.005	0.005	0.010	0.034	2.690	1.909	1.895	1.895	1.919	1.919	1.914
0.010	-0.024	-0.005	0.010	0.005	0.020	0.034	2.695	1.904	1.899	1.895	1.919	1.919	1.919
-0.005	-0.024	-0.005	0.010	0.000	0.015	0.034	2.690	1.904	1.899	1.895	1.914	1.914	1.914
0.010	-0.024	0.000	0.005	0.005	-0.005	0.034	2.695	1.909	1.899	1.895	1.914	1.914	1.909
0.024	-0.020	0.005	0.000	0.005	0.024	0.034	2.690	1.914	1.904	1.899	1.914	1.914	1.919
0.024	0.000	0.005	0.005	0.010	0.024	0.034	2.700	1.914	1.909	1.904	1.919	1.914	1.919
0.010	-0.020	0.000	0.000	0.005	0.020	0.034	2.681	1.904	1.904	1.899	1.914	1.914	1.919
0.005	-0.015	0.005	0.000	0.000	0.010	0.034	2.710	1.904	1.904	1.904	1.919	1.909	1.914
0.000	0.068	0.005	0.000	0.005	0.024	0.034	2.681	1.904	1.929	1.909	1.924	1.914	1.919
-0.024	0.117	0.005	0.005	0.005	0.020	0.034	2.676	1.899	1.929	1.919	1.929	1.919	1.914
-0.010	0.024	0.005	0.005	0.010	0.015	0.034	2.710	1.904	1.899	1.909	1.929	1.919	1.914
-0.005	-0.010	-0.005	-0.005	0.010	0.000	0.034	2.676	1.904	1.890	1.904	1.919	1.919	1.909
-0.005	-0.015	0.000	-0.020	0.010	0.010	0.034	2.676	1.899	1.890	1.899	1.914	1.919	1.919
0.000	-0.020	0.000	-0.024	0.010	0.015	0.034	2.700	1.904	1.890	1.895	1.914	1.914	1.919
0.005	0.000	0.000	-0.015	0.010	0.005	0.034	2.686	1.904	1.904	1.899	1.919	1.914	1.914
-0.015	-0.005	0.000	-0.005	0.010	0.015	0.034	2.661	1.899	1.899	1.899	1.919	1.914	1.914
-0.010	-0.005	0.000	0.015	0.015	0.015	0.034	2.793	1.909	1.899	1.899	1.924	1.919	1.919
0.000	-0.010	0.000	0.015	0.020	0.015	0.034	2.651	1.909	1.904	1.899	1.924	1.919	1.914
-0.005	0.000	0.000	0.010	0.015	0.010	0.034	2.651	1.904	1.909	1.899	1.919	1.919	1.919
0.000	-0.005	-0.005	0.020	0.015	0.010	0.034	2.651	1.899	1.904	1.899	1.919	1.919	1.919
0.010	-0.015	0.000	0.024	0.020	0.015	0.034	2.725	1.909	1.899	1.899	1.924	1.919	1.914
0.005	-0.010	0.000	0.020	0.005	0.005	0.034	2.705	1.909	1.904	1.899	1.919	1.914	1.909
0.000	-0.010	0.000	0.000	0.000	0.000	0.034	2.705	1.909	1.904	1.899	1.914	1.909	1.914
0.000	-0.010	0.000	-0.005	-0.005	0.000	0.034	2.788	1.914	1.909	1.899	1.914	1.909	1.909
0.005	-0.005	0.000	0.000	0.000	-0.005	0.034	2.642	1.909	1.909	1.904	1.914	1.909	1.914
-0.010	0.020	0.000	-0.005	0.000	-0.005	0.034	2.749	1.909	1.914	1.909	1.919	1.909	1.909
-0.020	0.020	0.000	-0.005	-0.015	0.000	0.034	2.749	1.914	1.914	1.909	1.919	1.909	1.914
-0.010	0.054	0.005	0.005	-0.020	0.005	0.034	2.720	1.919	1.919	1.914	1.924	1.909	1.909
-0.005	0.020	0.005	0.010	-0.020	0.020	0.034	2.720	1.914	1.914	1.914	1.929	1.914	1.919
0.005	0.000	0.010	-0.005	-0.015	0.024	0.034	2.749	1.919	1.904	1.909	1.929	1.919	1.924
0.015	-0.005	0.005	-0.005	-0.010	0.024	0.034	2.676	1.919	1.909	1.909	1.924	1.919	1.919
0.000	-0.005	-0.005	0.000	-0.010	-0.005	0.034	2.715	1.919	1.909	1.904	1.929	1.919	1.909
0.024	-0.029	0.000	0.000	-0.010	0.000	0.034	2.661	1.909	1.904	1.904	1.924	1.919	1.914
0.024	0.000	0.005	0.015	-0.010	-0.024	0.034	2.686	1.909	1.914	1.909	1.929	1.919	1.914
0.005	0.015	-0.005	0.024	-0.010	-0.024	0.034	2.671	1.904	1.914	1.909	1.929	1.919	1.914
0.005	0.000	0.000	0.015	-0.010	-0.010	0.034	2.700	1.904	1.904	1.909	1.924	1.924	1.919
-0.005	0.000	0.000	0.010	-0.020	-0.024	0.034	2.651	1.890	1.899	1.904	1.924	1.919	1.914
-0.020	0.034	-0.005	0.010	-0.024	-0.005	0.034	2.676	1.890	1.909	1.904	1.924	1.914	1.919
-0.034	0.063	0.000	0.005	-0.034	-0.005	0.034	2.681	1.895	1.909	1.904	1.924	1.914	1.919
-0.005	0.010	0.000	0.005	-0.034	0.020	0.034	2.705	1.909	1.895	1.904	1.919	1.914	1.924
0.015	-0.044	0.010	-0.005	-0.020	0.029	0.029	2.671	1.909	1.880	1.895	1.919	1.919	1.924
0.000	-0.005	0.005	-0.005	-0.010	0.020	0.034	2.671	1.904	1.899	1.895	1.914	1.919	1.924
0.000	0.000	0.005	-0.005	-0.010	-0.024	0.034	2.676	1.904	1.899	1.899	1.914	1.914	1.909
-0.005	-0.010	0.010	-0.005	-0.005	-0.005	0.034	2.715	1.909	1.899	1.899	1.919	1.919	1.914
0.010	-0.010	0.000	-0.010	-0.005	0.015	0.034	2.700	1.909	1.899	1.899	1.914	1.919	1.924
0.005	-0.020	0.000	-0.010	0.005	0.024	0.034	2.671	1.909	1.899	1.899	1.914	1.919	1.924
0.005	-0.024	-0.005	-0.005	0.010	0.029	0.034	2.676	1.909	1.904	1.895	1.914	1.919	1.924
0.015	-0.020	0.005	-0.005	0.000	0.049	0.034	2.671	1.909	1.909	1.899	1.919	1.914	1.929
0.000	-0.015	0.000	-0.005	0.000	0.039	0.034	2.661	1.899	1.909	1.899	1.919	1.914	1.919
0.010	-0.015	0.005	0.000	0.010	0.015	0.029	2.661	1.904	1.904	1.904	1.919	1.914	1.909
0.005	0.005	0.000	0.015	0.015	0.010	0.029	2.695	1.899	1.909	1.904	1.924	1.919	1.909
-0.005	0.020	0.000	0.015	0.015	-0.005	0.034	2.705	1.904	1.909	1.904	1.924	1.919	1.909
0.005	0.010	-0.005	0.010	0.000	-0.024	0.034	2.671	1.899	1.899	1.904	1.919	1.914	1.904
-0.020	0.000	0.000	-0.010	0.005	-0.034	0.034	2.700	1.895	1.899	1.899	1.914	1.914	1.904
-0.010	0.010	0.000	-0.015	0.000	-0.059	0.034	2.676	1.895	1.899	1.899	1.909	1.909	1.899
0.015	0.010	-0.005	-0.020	0.000	-0.078	0.029	2.666	1.904	1.899	1.899	1.909	1.909	1.899
0.010	-0.005	0.000	-0.005	0.015	-0.034	0.029	2.793	1.909	1.895	1.899	1.919	1.914	1.914
0.010	0.000	0.000	0.015	0.029	-0.049	0.029	2.651	1.904	1.899	1.899	1.924	1.924	1.914
0.000	0.015	0.005	0.020	0.059	-0.005	0.034	2.642	1.899	1.904	1.899	1.924	1.929	1.929
0.010	0.010	0.000	0.015	0.049	0.010	0.034	2.651	1.899	1.904	1.899	1.924	1.924	1.934
0.000	0.005	0.005	0.010	0.049	0.034	0.034	2.632	1.895	1.899	1.899	1.919	1.924	1.938
-0.005	0.000	0.005	0.010	0.049	0.039	0.034	2.700	1.904	1.899	1.899	1.919	1.924	1.934
0.005	-0.020	0.005	0.020	0.034	0.000	0.029	2.725	1.909	1.899	1.899	1.919	1.919	1.919
-0.005	-0.015	0.005	0.005	0.034	0.020	0.029	2.793	1.919	1.899	1.899	1.914	1.914	1.919
-0.005	-0.010	0.000	-0.005	0.039	-0.010	0.034	2.622	1.909	1.904	1.899	1.914	1.914	1.909
0.000	-0.010	-0.005	-0.010	0.049	0.000	0.034	2.729	1.909	1.904	1.895	1.914	1.914	1.914
0.010	-0.010	0.000	-0.005	0.049	0.010	0.034	2.739	1.919	1.909	1.899	1.914	1.914	1.914
0.005	-0.010	0.000	-0.005	0.039	-0.005	0.034	2.710	1.919	1.909	1.904	1.914	1.909	1.909
0.010	-0.005	-0.005	-0.005	0.034	0.020	0.029	2.725	1.919	1.914	1.904	1.914	1.909	1.914
0.000	0.005	0.000	-0.005	0.015	0.020	0.029	2.739	1.919	1.914	1.904	1.919	1.904	1.914
-0.005	0.005	0.000	0.000	0.005	0.010	0.034	2.661	1.909	1.914	1.909	1.924	1.909	1.909
-0.010	0.015	0.000	-0.005	0.000	0.015	0.034	2.759	1.914	1.914	1.909	1.924	1.904	1.909
-0.005	0.005	-0.005	-0.010	-0.005	0.015	0.034	2.666	1.909	1.909	1.909	1.924	1.909	1.909
0.000	-0.005	0.000	-0.005	-0.015	0.005	0.029	2.705	1.909	1.904	1.909	1.924	1.909	1.909
0.010	-0.024	0.010	0.005	-0.010	0.000	0.034	2.671	1.909	1.904	1.909	1.929	1.914	1.904
0.015	0.000	0.005	0.005	-0.015	0.005	0.029	2.700	1.914	1.909	1.909	1.929	1.914	1.914
-0.005	0.010	0.005	-0.015	0.000	0.005	0.034	2.710	1.909	1.914	1.909	1.919	1.919	1.914
-0.020	0.015	0.000	-0.024	0.005	0.005	0.034	2.671	1.899	1.909	1.909	1.919	1.919	1.919
0.000	0.029	0.005	-0.010	0.005	0.005	0.034	2.676	1.909	1.914	1.914	1.929	1.924	1.919
0.015	0.024	0.005	0.000	0.005	0.005	0.034	2.695	1.914	1.914	1.909	1.929	1.924	1.919
0.000	0.024	0.000	0.015	0.000	0.005	0.029	2.671	1.904	1.909	1.909	1.934	1.924	1.919
-0.024	0.024	0.010	0.034	-0.010	-0.010	0.034	2.695	1.899	1.904	1.909	1.938	1.929	1.919
0.010	0.010	0.000	0.034	0.000	-0.005	0.034	2.661	1.909	1.904	1.904	1.934	1.929	1.924
0.000	0.005	0.000	0.015	0.000	-0.020	0.034	2.690	1.904	1.904	1.904	1.924	1.924	1.919
-0.020	0.000	-0.010	0.020	-0.005	0.005	0.034	2.671	1.899	1.895	1.899	1.924	1.924	1.924
-0.005	-0.005	-0.005	0.024	-0.010	0.010	0.034	2.656	1.899	1.895	1.899	1.924	1.919	1.929
0.010	-0.010	-0.005	0.010	-0.010	0.015	0.034	2.700	1.909	1.895	1.899	1.919	1.919	1.924
0.005	-0.010	0.000	0.005	-0.005	0.000	0.034	2.676	1.909	1.899	1.899	1.914	1.914	1.919
0.000	-0.010	0.000	-0.005	-0.005	0.010	0.029	2.676	1.904	1.899	1.899	1.914	1.914	1.919
0.000	-0.024	0.005	-0.005	-0.005	0.000	0.034	2.666	1.899	1.895	1.899	1.914	1.909	1.914
0.005	-0.010	0.005	-0.010	-0.020	0.005	0.034	2.700	1.909	1.899	1.899	1.914	1.909	1.914
0.010	-0.024	0.000	-0.015	-0.015	-0.029	0.034	2.710	1.909	1.904	1.899	1.914	1.909	1.904
0.005	-0.005	0.010	-0.020	-0.005	-0.029	0.034	2.681	1.904	1.904	1.904	1.914	1.909	1.904
0.005	-0.005	0.005	-0.015	-0.005	-0.024	0.034	2.700	1.904	1.904	1.899	1.914	1.909	1.909
-0.005	0.020	-0.005	-0.005	0.000	-0.015	0.029	2.686	1.904	1.909	1.904	1.919	1.914	1.914
-0.015	0.029	0.005	0.000	0.000	-0.015	0.034	2.671	1.904	1.909	1.904	1.924	1.914	1.914
-0.015	0.024	-0.005	0.005	0.005	-0.005	0.034	2.783	1.914	1.909	1.904	1.924	1.919	1.919
-0.010	0.010	0.005	0.010	0.015	0.005	0.034	2.656	1.909	1.909	1.909	1.929	1.924	1.924
-0.005	0.000	-0.005	0.020	0.005	0.010	0.034	2.646	1.904	1.904	1.904	1.929	1.919	1.924
0.005	-0.005	0.000	0.024	0.010	0.010	0.034	2.651	1.919	1.904	1.904	1.929	1.924	1.924
0.005	-0.015	0.000	0.000	0.005	0.010	0.034	2.739	1.919	1.904	1.904	1.919	1.919	1.919
0.015	-0.015	0.000	-0.010	0.005	0.015	0.029	2.700	1.919	1.909	1.904	1.919	1.914	1.924
0.005	-0.005	0.000	-0.005	0.000	0.010	0.034	2.710	1.914	1.914	1.904	1.919	1.914	1.919
0.010	0.000	0.000	0.000	-0.005	0.000	0.034	2.808	1.924	1.914	1.909	1.919	1.914	1.914
0.020	-0.010	0.005	0.005	-0.015	-0.005	0.034	2.627	1.914	1.914	1.909	1.924	1.914	1.914
0.020	-0.024	-0.005	0.010	-0.015	-0.020	0.034	2.720	1.914	1.909	1.909	1.924	1.914	1.909
0.015	-0.024	-0.005	0.010	-0.010	0.005	0.029	2.754	1.914	1.909	1.904	1.924	1.919	1.919
0.010	-0.015	0.005	0.015	0.000	-0.005	0.034	2.622	1.904	1.914	1.914	1.929	1.924	1.919
-0.005	0.010	0.000	-0.010	0.010	-0.015	0.029	2.720	1.899	1.914	1.909	1.924	1.924	1.919
-0.005	0.024	0.000	-0.005	0.015	-0.010	0.034	2.734	1.909	1.919	1.914	1.924	1.924	1.919
-0.020	0.034	0.000	-0.005	0.010	-0.010	0.034	2.651	1.904	1.919	1.914	1.929	1.924	1.924
-0.010	0.010	0.000	-0.010	0.010	0.005	0.029	2.612	1.899	1.904	1.909	1.929	1.924	1.929
-0.005	0.005	0.000	-0.010	0.010	0.005	0.034	2.661	1.899	1.904	1.909	1.924	1.924	1.924
0.015	-0.010	0.000	0.000	0.005	0.005	0.034	2.700	1.909	1.899	1.904	1.929	1.924	1.919
0.029	-0.010	0.005	0.015	0.000	-0.005	0.034	2.690	1.914	1.904	1.904	1.929	1.924	1.919
0.020	-0.005	-0.005	0.010	0.005	-0.005	0.029	2.690	1.909	1.909	1.904	1.929	1.924	1.924
0.010	0.005	-0.010	0.000	0.005	-0.020	0.034	2.700	1.909	1.909	1.904	1.924	1.919	1.914
0.015	-0.044	-0.005	-0.010	0.005	-0.015	0.034	2.666	1.904	1.890	1.899	1.919	1.919	1.919
0.034	-0.049	-0.005	-0.010	0.005	-0.005	0.034	2.666	1.904	1.895	1.899	1.919	1.914	1.924
0.039	0.000	0.000	-0.005	0.000	-0.005	0.034	2.705	1.909	1.914	1.904	1.919	1.914	1.919
-0.005	0.098	0.010	0.005	0.000	-0.024	0.034	2.690	1.899	1.938	1.914	1.929	1.919	1.914
-0.063	0.117	-0.005	0.005	0.000	-0.029	0.034	2.700	1.890	1.924	1.914	1.929	1.919	1.914
-0.078	0.073	0.000	-0.005	0.005	0.005	0.034	2.695	1.890	1.904	1.909	1.929	1.924	1.924
-0.054	0.039	0.010	0.005	0.015	0.000	0.034	2.705	1.904	1.895	1.909	1.929	1.929	1.929
-0.029	0.000	0.010	0.010	0.000	0.029	0.034	2.700	1.914	1.890	1.899	1.929	1.924	1.934
0.005	-0.010	0.000	0.005	-0.010	0.020	0.034	2.666	1.919	1.895	1.895	1.924	1.919	1.929
0.015	-0.029	0.005	0.005	-0.010	0.020	0.034	2.666	1.914	1.895	1.895	1.919	1.914	1.924
-0.005	-0.029	-0.005	-0.005	-0.010	0.029	0.029	2.676	1.909	1.899	1.890	1.914	1.914	1.924
-0.005	-0.020	-0.005	0.000	-0.005	0.020	0.029	2.671	1.909	1.904	1.895	1.914	1.914	1.919
0.015	-0.020	-0.005	0.000	-0.020	-0.005	0.034	2.666	1.909	1.904	1.899	1.914	1.909	1.909
0.010	-0.029	-0.010	0.000	-0.024	0.020	0.029	2.676	1.904	1.899	1.899	1.914	1.909	1.914
0.010	-0.015	0.000	0.005	-0.034	0.005	0.034	2.710	1.914	1.909	1.899	1.919	1.909	1.909
0.010	-0.015	0.005	0.015	-0.039	0.010	0.034	2.656	1.909	1.909	1.904	1.919	1.909	1.909
0.024	-0.024	0.000	0.015	-0.039	0.000	0.029	2.700	1.909	1.904	1.904	1.919	1.909	1.909
0.024	-0.029	0.010	0.005	-0.029	0.005	0.029	2.690	1.909	1.904	1.904	1.924	1.914	1.909
0.015	-0.029	0.020	0.010	-0.020	-0.005	0.034	2.656	1.904	1.904	1.904	1.919	1.919	1.909
0.010	-0.020	0.010	0.005	-0.010	-0.015	0.034	2.793	1.914	1.909	1.904	1.919	1.919	1.909
0.024	0.010	-0.005	0.010	0.005	-0.005	0.034	2.651	1.909	1.914	1.904	1.924	1.924	1.919
0.020	0.015	0.010	-0.005	0.010	-0.034	0.034	2.651	1.904	1.914	1.909	1.919	1.924	1.909
0.005	0.029	0.015	-0.005	0.020	0.015	0.034	2.651	1.895	1.914	1.909	1.924	1.924	1.929
-0.010	0.039	0.005	0.005	0.029	0.005	0.029	2.725	1.904	1.909	1.909	1.929	1.924	1.924
-0.015	0.049	-0.005	0.010	0.010	-0.020	0.029	2.700	1.904	1.909	1.909	1.929	1.919	1.914
-0.020	0.020	-0.010	-0.005	0.005	-0.020	0.029	2.651	1.904	1.899	1.904	1.924	1.919	1.919
-0.010	-0.010	-0.005	0.005	-0.005	-0.029	0.034	2.822	1.924	1.899	1.899	1.924	1.914	1.914
-0.020	-0.010	0.000	0.005	-0.005	-0.015	0.034	2.627	1.909	1.904	1.899	1.924	1.919	1.924
-0.039	0.005	0.005	0.000	-0.010	-0.010	0.034	2.627	1.895	1.904	1.904	1.924	1.919	1.924
-0.054	0.000	0.000	-0.015	-0.010	0.010	0.034	2.749	1.899	1.899	1.899	1.914	1.914	1.924
-0.049	0.005	0.000	-0.015	0.000	0.000	0.034	2.632	1.899	1.899	1.899	1.914	1.914	1.924
-0.039	0.000	-0.005	-0.010	0.005	0.005	0.034	2.715	1.904	1.904	1.899	1.914	1.914	1.919
0.010	-0.005	-0.005	-0.005	0.010	0.010	0.034	2.744	1.929	1.909	1.899	1.919	1.919	1.919
0.049	-0.010	-0.010	0.000	0.010	0.015	0.034	2.646	1.929	1.914	1.899	1.924	1.919	1.924
0.078	-0.015	-0.005	0.005	0.000	0.005	0.034	2.656	1.929	1.914	1.909	1.924	1.914	1.914
0.073	-0.010	0.005	0.010	-0.010	-0.005	0.034	2.695	1.924	1.919	1.909	1.924	1.909	1.914
0.073	0.000	0.005	0.005	-0.015	0.005	0.029	2.700	1.919	1.919	1.914	1.929	1.914	1.914
0.059	-0.010	0.000	0.010	-0.005	0.000	0.034	2.676	1.909	1.909	1.909	1.929	1.919	1.914
0.049	0.000	-0.005	0.000	-0.015	-0.005	0.034	2.671	1.904	1.914	1.909	1.924	1.914	1.914
0.029	0.000	0.000	-0.010	-0.024	-0.005	0.034	2.695	1.904	1.909	1.909	1.924	1.914	1.914
0.005	0.005	0.000	-0.010	-0.020	-0.020	0.034	2.666	1.890	1.909	1.909	1.924	1.914	1.909
0.000	0.010	0.000	0.000	-0.029	-0.020	0.034	2.690	1.895	1.904	1.909	1.929	1.919	1.914
-0.020	0.000	0.005	0.005	-0.024	0.000	0.034	2.700	1.895	1.899	1.904	1.929	1.924	1.919
-0.029	0.000	0.000	0.000	-0.020	-0.010	0.034	2.705	1.899	1.899	1.904	1.924	1.924	1.919
-0.034	-0.005	0.005	-0.015	-0.005	-0.010	0.034	2.676	1.899	1.895	1.899	1.919	1.924	1.919
-0.049	0.015	0.005	-0.020	0.010	0.020	0.034	2.690	1.895	1.899	1.899	1.919	1.924	1.929
-0.039	0.005	0.005	-0.010	0.010	0.024	0.034	2.700	1.904	1.899	1.899	1.924	1.924	1.929
-0.029	0.000	0.000	0.000	0.005	0.029	0.034	2.666	1.909	1.899	1.899	1.924	1.919	1.929
-0.015	-0.015	0.000	0.015	0.010	0.024	0.034	2.671	1.909	1.899	1.899	1.924	1.924	1.924
-0.010	0.005	0.005	0.024	0.005	0.005	0.034	2.705	1.909	1.904	1.899	1.924	1.919	1.919
-0.005	-0.015	0.005	0.024	0.000	0.005	0.034	2.681	1.909	1.899	1.899	1.924	1.919	1.919
-0.010	-0.020	0.000	0.024	-0.005	-0.005	0.034	2.686	1.909	1.899	1.895	1.919	1.914	1.914
0.015	-0.029	0.000	0.000	-0.015	-0.010	0.034	2.676	1.909	1.899	1.899	1.909	1.909	1.909
0.010	-0.034	-0.005	-0.024	-0.005	0.010	0.034	2.700	1.909	1.904	1.895	1.904	1.909	1.914
-0.005	-0.015	-0.005	-0.020	-0.020	0.005	0.029	2.695	1.904	1.909	1.899	1.909	1.904	1.914
-0.034	-0.005	-0.005	0.000	-0.020	0.000	0.034	2.671	1.895	1.904	1.899	1.919	1.909	1.909
-0.049	0.020	-0.005	0.015	-0.005	-0.005	0.034	2.705	1.895	1.909	1.904	1.924	1.914	1.909
-0.049	0.054	-0.005	0.024	0.000	0.000	0.039	2.690	1.899	1.914	1.909	1.929	1.919	1.914
-0.034	0.054	0.005	0.024	0.005	-0.005	0.044	2.671	1.904	1.909	1.909	1.929	1.924	1.914
0.005	0.054	0.005	0.029	0.010	0.000	0.039	2.798	1.934	1.919	1.909	1.929	1.924	1.924
0.049	0.034	0.000	0.015	0.020	0.005	0.039	2.666	1.934	1.919	1.914	1.929	1.929	1.924
0.054	0.034	0.000	-0.005	0.029	-0.010	0.044	2.646	1.924	1.919	1.914	1.924	1.924	1.919
0.049	0.039	0.000	-0.005	0.034	-0.010	0.044	2.661	1.914	1.919	1.914	1.924	1.924	1.919
0.063	0.015	0.000	0.000	0.039	-0.020	0.044	2.642	1.914	1.909	1.909	1.929	1.924	1.919
0.054	-0.005	0.005	-0.005	0.029	-0.029	0.044	2.695	1.909	1.904	1.909	1.924	1.919	1.919
0.049	-0.024	-0.005	-0.010	-0.005	-0.010	0.044	2.622	1.899	1.895	1.904	1.919	1.909	1.919
0.034	-0.029	0.005	-0.020	-0.015	-0.005	0.039	2.793	1.909	1.895	1.899	1.919	1.909	1.914
0.005	-0.024	-0.005	-0.015	-0.059	-0.015	0.044	2.617	1.890	1.899	1.895	1.919	1.899	1.909
-0.005	-0.015	-0.005	-0.015	-0.068	0.015	0.054	2.627	1.885	1.895	1.895	1.919	1.899	1.914
-0.020	-0.015	0.005	-0.010	-0.054	0.005	0.083	2.734	1.890	1.895	1.899	1.919	1.909	1.914
-0.020	-0.005	0.010	-0.010	-0.029	-0.010	0.122	2.656	1.895	1.895	1.899	1.919	1.914	1.909
-0.024	0.005	0.000	-0.010	0.015	0.015	0.122	2.729	1.899	1.899	1.895	1.919	1.929	1.924
-0.015	-0.005	0.000	-0.010	0.034	0.015	0.103	2.744	1.914	1.899	1.895	1.919	1.929	1.924
-0.034	-0.015	0.005	0.000	0.020	0.015	0.049	2.686	1.909	1.899	1.895	1.919	1.919	1.924
-0.020	-0.005	0.000	0.000	0.024	0.010	0.054	2.744	1.919	1.909	1.899	1.919	1.924	1.919
-0.020	0.000	0.005	0.000	0.015	0.000	0.049	2.666	1.914	1.909	1.904	1.919	1.914	1.919
-0.010	0.005	0.010	0.005	-0.015	-0.005	0.054	2.705	1.919	1.914	1.904	1.924	1.904	1.914
-0.015	0.000	0.000	0.005	-0.088	-0.020	0.054	2.700	1.914	1.909	1.904	1.919	1.890	1.899
-0.015	0.000	0.010	0.005	-0.112	-0.015	0.054	2.676	1.909	1.909	1.909	1.924	1.895	1.899
-0.010	0.000	0.000	0.020	-0.054	-0.044	0.049	2.710	1.909	1.909	1.909	1.929	1.914	1.899
-0.005	-0.005	0.005	0.020	0.005	-0.039	0.054	2.676	1.904	1.909	1.909	1.929	1.934	1.909
0.005	0.000	0.005	0.020	0.039	-0.029	0.088	2.681	1.904	1.909	1.909	1.929	1.938	1.924
0.000	-0.010	-0.005	0.010	0.049	-0.015	0.054	2.715	1.909	1.904	1.904	1.924	1.938	1.934
0.000	0.000	0.005	0.015	0.088	0.005	0.059	2.690	1.914	1.909	1.909	1.924	1.943	1.938
0.044	-0.005	-0.005	0.010	0.083	0.015	0.054	2.700	1.929	1.914	1.909	1.924	1.934	1.943
0.034	-0.015	0.000	0.000	0.059	0.044	0.054	2.671	1.914	1.909	1.904	1.919	1.924	1.943
0.005	0.010	0.005	-0.005	-0.024	0.039	0.054	2.710	1.909	1.919	1.909	1.919	1.895	1.929
0.034	0.010	0.010	-0.015	-0.137	0.034	0.107	2.676	1.914	1.914	1.909	1.914	1.870	1.909
0.039	0.015	0.000	-0.005	-0.132	0.024	0.107	2.671	1.914	1.919	1.909	1.919	1.885	1.904
-0.005	0.020	-0.005	-0.005	-0.107	0.000	0.098	2.690	1.899	1.909	1.909	1.924	1.904	1.895
-0.034	0.024	-0.005	-0.005	-0.034	-0.005	0.049	2.671	1.890	1.904	1.909	1.924	1.929	1.904
-0.015	-0.005	-0.015	0.000	0.020	0.015	0.049	2.671	1.899	1.895	1.899	1.924	1.943	1.919
-0.010	-0.010	-0.010	0.000	0.063	0.010	0.044	2.666	1.904	1.895	1.899	1.929	1.948	1.929
-0.020	-0.005	0.005	0.005	0.117	0.005	0.039	2.690	1.904	1.899	1.904	1.929	1.958	1.934
-0.039	0.015	0.000	0.000	0.186	-0.010	0.039	2.700	1.904	1.909	1.904	1.929	1.968	1.943
-0.010	0.015	-0.005	0.005	0.220	-0.015	0.039	2.671	1.914	1.904	1.904	1.929	1.963	1.948
0.000	-0.005	0.010	0.005	0.151	0.000	0.034	2.695	1.919	1.904	1.904	1.924	1.934	1.943
0.005	0.000	0.010	0.015	0.103	0.024	0.034	2.686	1.919	1.909	1.904	1.924	1.919	1.943
0.015	0.010	-0.010	0.010	0.063	0.024	0.039	2.666	1.914	1.914	1.899	1.919	1.909	1.934
-0.005	0.010	0.005	0.000	0.073	0.024	0.044	2.783	1.919	1.914	1.904	1.924	1.919	1.929
-0.015	0.000	0.010	0.010	0.259	0.024	0.044	2.651	1.909	1.909	1.909	1.934	1.968	1.938
0.000	-0.015	0.005	-0.005	0.396	0.015	0.039	2.646	1.909	1.904	1.909	1.929	1.992	1.958
0.020	-0.024	0.015	-0.005	0.342	0.015	0.044	2.656	1.914	1.909	1.909	1.924	1.948	1.953
0.024	-0.010	0.029	0.005	0.039	-0.005	0.044	2.725	1.924	1.914	1.914	1.919	1.865	1.914
0.039	-0.010	0.024	-0.010	-0.078	0.000	0.039	2.690	1.924	1.914	1.909	1.914	1.846	1.895
0.020	-0.015	0.024	0.010	-0.215	0.015	0.044	2.695	1.904	1.909	1.909	1.924	1.831	1.880
0.010	-0.005	0.034	0.024	-0.229	0.020	0.044	2.646	1.909	1.914	1.909	1.929	1.855	1.875
-0.024	0.005	0.034	0.015	-0.205	0.044	0.039	2.720	1.904	1.909	1.909	1.929	1.880	1.880
-0.034	-0.005	0.024	0.010	-0.176	0.010	0.044	2.749	1.904	1.904	1.909	1.924	1.895	1.875
-0.020	0.005	0.000	0.000	-0.186	-0.015	0.044	2.622	1.899	1.909	1.899	1.924	1.895	1.875
-0.024	0.005	-0.010	-0.005	-0.190	-0.039	0.039	2.661	1.895	1.899	1.895	1.919	1.899	1.875
-0.005	0.010	-0.020	-0.005	-0.195	-0.063	0.044	2.725	1.899	1.904	1.895	1.914	1.899	1.875
0.029	0.010	-0.005	-0.005	-0.161	-0.068	0.039	2.642	1.909	1.904	1.904	1.919	1.914	1.890
0.049	0.005	-0.005	-0.005	-0.146	-0.049	0.044	2.690	1.909	1.904	1.904	1.919	1.919	1.904
0.034	0.000	0.005	0.010	-0.122	-0.024	0.044	2.734	1.909	1.904	1.904	1.924	1.929	1.914
0.054	0.000	-0.010	0.005	-0.054	0.015	0.044	2.681	1.909	1.904	1.899	1.919	1.943	1.938
-0.010	-0.010	-0.015	-0.005	-0.024	0.049	0.044	2.695	1.890	1.895	1.899	1.919	1.943	1.948
-0.044	-0.024	-0.029	0.000	-0.044	0.078	0.039	2.676	1.880	1.885	1.890	1.919	1.934	1.948
-0.029	-0.034	-0.029	0.000	-0.044	0.078	0.039	2.686	1.895	1.885	1.885	1.909	1.924	1.943
-0.020	-0.020	-0.039	-0.039	-0.039	0.049	0.044	2.695	1.904	1.890	1.885	1.899	1.914	1.929
-0.005	-0.005	-0.020	-0.059	0.000	0.044	0.044	2.417	1.880	1.895	1.890	1.899	1.919	1.924
0.034	0.020	-0.010	-0.010	0.068	0.024	0.044	1.152	1.724	1.870	1.890	1.914	1.929	1.914
0.044	0.029	0.010	0.000	0.088	-0.029	0.044	1.196	1.616	1.812	1.875	1.914	1.929	1.909
0.049	0.059	0.010	0.010	0.103	-0.029	0.039	1.157	1.538	1.753	1.846	1.899	1.924	1.909
0.010	0.073	0.005	0.029	0.117	-0.063	0.039	1.177	1.470	1.685	1.802	1.890	1.914	1.904
-0.005	0.049	0.015	0.039	0.093	-0.107	0.044	1.162	1.436	1.611	1.753	1.860	1.890	1.890
0.010	-0.005	0.005	0.068	0.068	-0.122	0.044	1.191	1.416	1.553	1.694	1.831	1.870	1.880
0.010	-0.015	0.005	0.054	0.015	-0.142	0.044	1.157	1.396	1.509	1.646	1.777	1.831	1.860
-0.020	-0.005	0.005	0.020	-0.005	-0.107	0.044	1.162	1.382	1.479	1.597	1.729	1.797	1.851
-0.054	0.010	-0.005	0.010	-0.010	-0.073	0.044	1.182	1.367	1.455	1.558	1.680	1.768	1.841
-0.059	0.049	-0.029	0.000	-0.024	-0.020	0.049	1.182	1.362	1.445	1.519	1.641	1.729	1.821
-0.054	0.024	-0.020	0.005	-0.010	0.000	0.093	1.152	1.362	1.421	1.494	1.606	1.699	1.797
-0.039	-0.010	-0.024	-0.005	0.015	0.000	0.034	1.143	1.362	1.396	1.465	1.567	1.670	1.763
-0.029	-0.024	-0.010	-0.005	0.024	0.024	0.029	1.182	1.362	1.387	1.445	1.543	1.636	1.733
-0.024	-0.039	0.015	-0.015	0.005	0.029	0.034	1.157	1.357	1.382	1.436	1.514	1.597	1.699
-0.005	-0.020	0.029	-0.024	-0.010	0.039	0.034	1.152	1.357	1.382	1.421	1.489	1.562	1.665
0.000	-0.024	0.029	-0.024	-0.049	0.039	0.034	1.177	1.353	1.372	1.406	1.475	1.523	1.621
0.039	-0.010	0.029	-0.029	-0.117	0.039	0.034	1.172	1.353	1.377	1.396	1.455	1.484	1.582
0.059	0.005	0.024	-0.020	-0.142	0.024	0.034	1.133	1.333	1.372	1.392	1.445	1.470	1.548
0.000	0.000	0.020	-0.015	-0.078	0.044	0.034	1.270	1.318	1.357	1.382	1.436	1.475	1.538
-0.024	0.015	0.000	0.000	-0.078	0.054	0.034	1.138	1.299	1.343	1.367	1.426	1.460	1.523
0.000	0.000	0.015	0.005	-0.049	0.059	0.039	1.118	1.294	1.333	1.362	1.416	1.455	1.504
0.000	0.015	0.000	0.005	-0.054	0.103	0.034	1.147	1.284	1.323	1.348	1.401	1.440	1.504
0.029	0.005	0.020	0.010	0.020	0.166	0.039	1.113	1.279	1.313	1.343	1.396	1.450	1.504
0.044	-0.005	0.029	0.005	0.034	0.146	0.034	1.172	1.279	1.304	1.338	1.382	1.431	1.479
0.054	0.000	0.010	0.005	0.049	0.103	0.044	1.924	1.362	1.313	1.323	1.372	1.421	1.455
0.049	-0.005	0.000	0.020	0.073	0.049	0.049	2.114	1.426	1.343	1.323	1.372	1.411	1.426
0.010	0.000	-0.024	0.020	0.078	-0.015	0.049	1.934	1.440	1.367	1.328	1.362	1.392	1.401
0.005	-0.010	-0.029	0.034	0.083	-0.093	0.044	1.953	1.450	1.382	1.343	1.367	1.382	1.377
-0.010	-0.010	-0.005	0.020	0.068	-0.142	0.044	2.070	1.465	1.406	1.362	1.362	1.367	1.362
-0.029	-0.005	-0.005	0.000	0.078	-0.151	0.044	1.948	1.460	1.416	1.377	1.367	1.372	1.362
-0.059	-0.010	-0.005	-0.020	0.190	-0.156	0.029	2.012	1.455	1.426	1.387	1.377	1.401	1.377
-0.049	0.000	-0.039	-0.020	0.308	-0.068	0.044	2.065	1.479	1.440	1.392	1.392	1.431	1.411
-0.049	0.010	-0.054	-0.010	0.347	-0.005	0.044	1.982	1.470	1.445	1.406	1.401	1.431	1.436
-0.171	0.005	-0.020	-0.010	0.186	0.034	0.044	2.026	1.436	1.440	1.421	1.406	1.377	1.426
-0.181	0.005	0.005	0.000	0.078	0.083	0.044	1.968	1.436	1.440	1.431	1.416	1.367	1.421
-0.098	0.005	0.005	0.005	0.073	0.083	0.044	2.012	1.470	1.450	1.436	1.431	1.382	1.411
-0.010	0.015	0.000	0.005	0.098	0.063	0.044	1.987	1.489	1.465	1.440	1.440	1.401	1.401
0.049	0.020	-0.010	0.005	0.068	0.068	0.044	2.007	1.489	1.475	1.450	1.445	1.401	1.401
0.117	0.010	0.020	0.000	-0.015	-0.015	0.044	2.012	1.494	1.479	1.465	1.450	1.387	1.377
0.210	0.010	0.034	-0.005	-0.088	-0.054	0.044	1.992	1.504	1.484	1.470	1.460	1.392	1.367
0.278	0.015	0.000	0.000	-0.156	-0.093	0.039	2.012	1.494	1.489	1.470	1.465	1.387	1.362
0.278	0.015	-0.039	-0.005	-0.259	-0.107	0.039	2.017	1.465	1.479	1.460	1.465	1.382	1.362
0.210	-0.005	-0.078	-0.005	-0.317	-0.098	0.039	1.992	1.421	1.455	1.445	1.465	1.382	1.367
0.137	-0.010	-0.078	-0.005	-0.342	-0.083	0.039	1.973	1.387	1.431	1.445	1.465	1.401	1.382
0.068	-0.015	-0.059	-0.010	-0.239	-0.073	0.044	2.012	1.372	1.411	1.440	1.465	1.445	1.401
0.020	-0.015	-0.010	-0.015	-0.176	-0.034	0.044	2.012	1.362	1.401	1.445	1.465	1.465	1.431
-0.024	-0.020	0.029	0.005	-0.112	0.000	0.039	1.987	1.353	1.387	1.440	1.475	1.489	1.460
-0.049	-0.015	0.068	0.024	-0.034	0.010	0.039	2.002	1.367	1.377	1.431	1.475	1.504	1.475
-0.078	-0.029	0.083	0.044	0.020	0.059	0.039	1.987	1.367	1.372	1.421	1.470	1.509	1.499
-0.093	-0.020	0.078	0.024	0.132	0.068	0.039	1.978	1.372	1.372	1.406	1.455	1.523	1.514
-0.107	-0.005	0.059	0.005	0.181	0.098	0.044	1.997	1.382	1.377	1.392	1.440	1.514	1.519
-0.127	0.015	0.029	0.010	0.117	0.054	0.044	1.992	1.392	1.387	1.382	1.426	1.470	1.489
-0.122	0.024	0.029	0.000	0.063	0.039	0.039	1.992	1.396	1.392	1.387	1.416	1.436	1.475
-0.117	0.024	0.020	0.005	0.059	0.005	0.044	2.021	1.401	1.396	1.382	1.411	1.431	1.455
-0.122	0.020	0.024	0.010	0.068	-0.005	0.044	1.982	1.396	1.396	1.392	1.411	1.426	1.445
-0.093	0.010	0.068	0.010	0.088	-0.005	0.039	2.021	1.411	1.401	1.401	1.416	1.426	1.436
-0.034	-0.005	0.083	-0.005	0.049	0.015	0.039	1.997	1.421	1.401	1.401	1.416	1.411	1.436
0.010	-0.005	0.034	-0.005	0.029	0.020	0.044	1.953	1.421	1.406	1.392	1.411	1.406	1.426
0.029	0.000	0.005	-0.010	0.029	0.024	0.044	2.109	1.431	1.411	1.392	1.406	1.401	1.421
0.034	0.000	-0.005	-0.015	0.029	0.034	0.044	1.958	1.411	1.416	1.396	1.406	1.401	1.421
0.005	0.000	-0.005	-0.010	0.005	0.020	0.039	1.963	1.396	1.406	1.396	1.411	1.396	1.406
-0.029	0.005	-0.044	-0.005	-0.068	0.000	0.044	1.978	1.377	1.396	1.387	1.406	1.377	1.392
-0.020	0.000	-0.112	-0.005	-0.093	0.015	0.039	1.943	1.372	1.387	1.367	1.396	1.377	1.396
-0.024	0.005	-0.122	-0.020	-0.093	0.044	0.039	1.978	1.372	1.382	1.372	1.392	1.382	1.396
-0.005	0.000	-0.073	-0.015	-0.107	0.015	0.044	2.041	1.387	1.382	1.387	1.401	1.377	1.387
0.015	-0.005	-0.049	-0.010	-0.146	0.029	0.039	1.958	1.382	1.382	1.392	1.401	1.372	1.387
0.015	-0.024	-0.005	0.000	-0.166	0.024	0.039	1.929	1.367	1.377	1.396	1.411	1.377	1.382
0.020	-0.010	0.029	0.005	-0.215	0.034	0.044	1.943	1.367	1.377	1.401	1.411	1.372	1.382
0.024	-0.010	0.063	0.005	-0.156	-0.010	0.039	2.017	1.377	1.377	1.401	1.416	1.401	1.372
0.020	0.010	0.063	0.020	-0.044	-0.039	0.044	2.075	1.382	1.382	1.396	1.426	1.436	1.387
0.029	0.015	0.054	0.024	0.093	-0.068	0.039	2.075	1.387	1.387	1.392	1.426	1.470	1.406
0.029	0.024	0.039	0.029	0.190	-0.078	0.044	2.061	1.392	1.387	1.387	1.421	1.479	1.421
0.005	0.029	0.044	0.024	0.254	-0.039	0.044	1.982	1.382	1.387	1.392	1.421	1.484	1.450
0.010	0.029	0.039	0.020	0.293	-0.005	0.039	2.017	1.382	1.387	1.387	1.416	1.470	1.470
0.010	0.005	0.029	0.020	0.234	0.059	0.044	2.017	1.387	1.382	1.382	1.411	1.440	1.479
0.010	0.000	0.000	0.005	0.225	0.171	0.039	2.007	1.392	1.377	1.372	1.401	1.431	1.494
0.010	-0.015	-0.020	-0.005	0.166	0.234	0.034	1.978	1.392	1.377	1.367	1.392	1.401	1.484
0.010	-0.015	-0.024	-0.010	0.034	0.269	0.039	2.007	1.392	1.382	1.367	1.382	1.362	1.455
-0.015	-0.020	-0.010	-0.020	-0.054	0.210	0.034	1.978	1.382	1.377	1.372	1.382	1.343	1.401
-0.059	-0.020	-0.015	-0.015	-0.093	0.073	0.034	1.997	1.362	1.372	1.372	1.382	1.338	1.348
-0.073	0.005	-0.005	-0.005	-0.093	-0.098	0.034	2.002	1.357	1.377	1.377	1.387	1.343	1.299
-0.034	0.005	-0.005	0.000	-0.078	-0.264	0.034	2.017	1.362	1.367	1.377	1.392	1.353	1.270
-0.005	0.020	-0.010	-0.005	-0.054	-0.381	0.034	2.002	1.362	1.372	1.372	1.392	1.367	1.260
0.034	0.020	-0.024	-0.005	-0.068	-0.430	0.034	1.997	1.362	1.367	1.367	1.387	1.367	1.279
0.063	0.010	-0.024	-0.005	-0.078	-0.391	0.034	2.007	1.357	1.367	1.367	1.387	1.367	1.313
0.068	0.020	-0.005	-0.010	-0.098	-0.322	0.034	2.026	1.362	1.362	1.372	1.387	1.367	1.348
0.107	0.015	-0.020	-0.005	-0.088	-0.215	0.039	1.987	1.367	1.367	1.367	1.387	1.382	1.387
0.117	0.015	-0.039	0.000	-0.029	-0.088	0.039	1.982	1.362	1.362	1.362	1.392	1.401	1.426
0.073	0.015	-0.039	0.000	-0.015	0.029	0.039	1.987	1.353	1.362	1.362	1.387	1.406	1.450
0.034	0.010	-0.034	0.005	0.005	0.117	0.044	1.982	1.343	1.357	1.362	1.387	1.406	1.465
-0.005	0.005	-0.020	0.000	0.034	0.171	0.039	1.987	1.343	1.348	1.362	1.387	1.411	1.465
-0.054	0.010	-0.015	0.000	0.098	0.200	0.039	1.982	1.338	1.348	1.357	1.382	1.421	1.460
-0.063	0.000	-0.010	0.005	0.088	0.190	0.044	1.973	1.343	1.348	1.357	1.382	1.401	1.440
-0.059	0.015	0.015	0.005	0.078	0.171	0.039	2.012	1.353	1.348	1.362	1.382	1.392	1.421
-0.093	-0.015	0.024	0.010	0.029	0.137	0.039	1.982	1.343	1.338	1.353	1.377	1.372	1.401
-0.093	-0.020	0.000	0.015	0.000	0.088	0.044	2.017	1.348	1.338	1.343	1.377	1.362	1.377
-0.073	-0.020	-0.029	0.020	-0.034	0.098	0.044	1.982	1.357	1.343	1.333	1.367	1.353	1.367
-0.039	-0.015	-0.024	0.015	-0.083	0.088	0.039	2.007	1.362	1.353	1.338	1.362	1.338	1.357
0.000	0.005	-0.010	0.000	-0.083	0.054	0.039	2.104	1.382	1.362	1.348	1.357	1.343	1.343
0.029	0.000	0.005	0.000	-0.063	0.044	0.039	1.968	1.377	1.367	1.357	1.367	1.357	1.348
0.044	0.005	0.015	-0.005	0.000	0.044	0.044	1.968	1.367	1.367	1.362	1.372	1.372	1.357
0.059	0.000	0.015	0.000	0.015	0.020	0.044	1.963	1.362	1.367	1.362	1.372	1.377	1.353
0.073	0.000	0.015	0.000	0.059	-0.005	0.039	1.938	1.353	1.362	1.367	1.382	1.387	1.357
0.049	0.005	0.020	-0.005	0.068	-0.010	0.044	2.002	1.348	1.357	1.367	1.377	1.387	1.367
0.015	0.015	0.020	0.000	0.024	0.005	0.039	1.997	1.338	1.353	1.362	1.382	1.367	1.367
-0.010	0.015	0.024	0.005	-0.068	0.029	0.039	2.075	1.343	1.353	1.357	1.382	1.348	1.372
-0.039	0.000	0.020	0.010	-0.063	0.044	0.044	1.919	1.323	1.338	1.353	1.382	1.357	1.372
-0.049	0.000	0.015	0.024	-0.024	0.049	0.044	1.929	1.323	1.333	1.348	1.382	1.377	1.372
-0.049	0.010	0.005	0.015	0.000	0.049	0.044	2.056	1.338	1.338	1.343	1.372	1.377	1.377
-0.034	0.010	0.010	0.005	0.010	0.044	0.044	2.046	1.348	1.343	1.343	1.367	1.372	1.372
-0.005	0.000	0.005	-0.015	-0.015	0.015	0.039	2.017	1.357	1.343	1.338	1.357	1.357	1.362
0.005	-0.015	0.015	-0.024	-0.039	-0.039	0.044	2.051	1.357	1.343	1.343	1.353	1.348	1.343
0.020	-0.010	0.015	-0.034	0.000	-0.107	0.039	1.973	1.353	1.348	1.343	1.353	1.362	1.328
0.039	-0.010	0.029	-0.024	0.034	-0.107	0.044	1.948	1.348	1.348	1.348	1.357	1.367	1.343
0.039	0.000	0.020	-0.005	0.039	-0.093	0.044	1.982	1.343	1.348	1.343	1.367	1.367	1.353
0.044	-0.005	0.010	0.000	0.010	-0.054	0.044	1.987	1.338	1.343	1.343	1.367	1.362	1.362
