0.000	0.000	0.000	0.000	0.000	0.005	0.039	2.686	2.187	2.017	1.987	1.938	1.938	1.948
0.000	-0.005	0.000	0.000	-0.005	-0.005	0.039	2.734	2.129	2.046	2.002	1.963	1.943	1.943
0.005	0.000	0.000	0.005	0.000	0.005	0.039	2.690	2.075	2.056	2.017	1.982	1.953	1.948
-0.005	0.000	0.010	0.000	-0.005	0.005	0.044	2.749	2.041	2.051	2.026	1.997	1.958	1.953
-0.005	0.010	0.005	0.005	-0.005	-0.015	0.039	2.676	2.017	2.046	2.031	2.017	1.978	1.958
0.000	0.010	0.005	0.000	0.000	0.000	0.039	2.656	1.997	2.031	2.031	2.021	1.987	1.968
-0.005	0.005	0.000	0.000	0.000	0.010	0.039	2.749	1.982	2.017	2.026	2.031	1.997	1.978
-0.005	0.005	0.005	0.000	-0.005	0.010	0.039	2.661	1.968	2.007	2.021	2.031	2.007	1.982
-0.005	0.015	0.005	0.000	0.000	0.000	0.039	2.676	1.963	1.992	2.017	2.031	2.017	1.992
0.005	-0.005	0.000	0.000	0.000	0.005	0.044	2.695	1.963	1.982	2.002	2.031	2.021	1.997
0.005	-0.005	0.005	0.000	0.010	0.005	0.044	2.681	1.958	1.978	1.997	2.026	2.021	2.007
0.010	-0.015	-0.005	0.000	0.010	0.005	0.044	2.666	1.953	1.968	1.987	2.021	2.021	2.007
0.005	-0.010	0.000	0.000	0.010	-0.005	0.044	2.676	1.953	1.963	1.978	2.017	2.017	2.007
0.000	0.000	-0.005	0.000	0.010	0.005	0.039	2.666	1.953	1.963	1.973	2.012	2.017	2.012
0.005	-0.005	0.000	0.005	0.005	0.005	0.039	2.705	1.958	1.958	1.968	2.002	2.007	2.012
0.005	0.000	0.000	0.000	0.005	-0.005	0.044	2.676	1.953	1.958	1.968	1.997	2.002	2.007
0.000	-0.005	0.000	0.000	-0.005	-0.005	0.039	2.700	1.953	1.953	1.963	1.992	1.997	2.007
0.000	0.010	0.000	0.000	0.000	0.010	0.039	2.700	1.958	1.958	1.963	1.987	1.997	2.007
0.005	0.005	-0.005	0.000	0.005	0.010	0.044	2.676	1.958	1.958	1.958	1.987	1.992	2.002
-0.005	0.005	0.000	0.005	0.000	-0.005	0.044	2.666	1.948	1.953	1.958	1.982	1.987	1.997
-0.005	0.010	0.005	0.005	-0.005	0.000	0.039	2.690	1.953	1.958	1.958	1.982	1.982	1.992
0.000	0.005	0.000	0.000	0.000	-0.005	0.039	2.686	1.948	1.953	1.958	1.978	1.982	1.987
0.000	0.010	0.005	0.005	0.000	0.010	0.039	2.690	1.953	1.953	1.958	1.978	1.982	1.992
-0.005	0.000	0.010	0.010	-0.005	0.000	0.044	2.705	1.953	1.953	1.953	1.978	1.978	1.987
-0.005	-0.015	0.010	0.015	-0.005	0.005	0.039	2.666	1.953	1.948	1.953	1.978	1.978	1.982
0.000	-0.015	0.005	0.010	0.000	0.005	0.039	2.700	1.958	1.953	1.948	1.978	1.973	1.982
0.000	-0.005	0.005	0.010	0.000	-0.005	0.039	2.695	1.953	1.953	1.948	1.973	1.973	1.973
0.005	0.005	-0.005	0.005	0.010	0.005	0.039	2.666	1.948	1.953	1.948	1.973	1.973	1.978
0.010	0.000	-0.005	0.000	0.000	0.000	0.039	2.676	1.948	1.948	1.948	1.968	1.968	1.973
0.005	0.005	0.000	-0.005	0.005	0.010	0.044	2.681	1.948	1.953	1.948	1.968	1.968	1.978
0.005	0.000	0.000	-0.010	-0.005	0.010	0.044	2.690	1.948	1.948	1.948	1.963	1.963	1.973
0.005	-0.005	0.000	-0.015	0.000	0.000	0.044	2.632	1.938	1.943	1.948	1.963	1.963	1.968
0.005	-0.005	-0.005	-0.015	0.005	0.005	0.039	2.651	1.938	1.943	1.943	1.963	1.963	1.968
0.005	0.000	0.000	-0.024	-0.005	0.000	0.039	2.671	1.934	1.938	1.943	1.958	1.958	1.963
0.000	0.005	0.000	-0.015	-0.005	0.000	0.039	2.632	1.929	1.938	1.943	1.963	1.958	1.963
0.005	0.000	0.000	-0.010	0.005	0.000	0.039	2.637	1.929	1.934	1.938	1.963	1.963	1.963
0.010	0.010	0.000	0.000	0.020	0.000	0.039	2.734	1.938	1.938	1.938	1.963	1.963	1.958
-0.005	0.010	0.005	0.000	0.015	0.005	0.039	2.754	1.948	1.938	1.938	1.963	1.963	1.963
-0.005	0.010	0.010	0.000	0.000	0.005	0.039	2.676	1.943	1.938	1.943	1.963	1.953	1.958
0.000	0.010	0.005	0.005	0.000	-0.005	0.039	2.715	1.943	1.943	1.938	1.963	1.958	1.953
-0.015	0.005	0.005	0.010	0.005	0.010	0.039	2.686	1.938	1.938	1.938	1.963	1.958	1.963
-0.020	0.005	0.000	0.015	0.000	-0.005	0.039	2.734	1.938	1.938	1.938	1.963	1.953	1.958
0.000	-0.005	0.000	0.005	-0.005	0.000	0.039	2.666	1.938	1.938	1.938	1.958	1.953	1.958
0.000	0.000	0.005	0.005	0.000	0.005	0.039	2.754	1.948	1.938	1.938	1.958	1.953	1.958
0.010	-0.015	0.000	0.005	-0.005	0.005	0.044	2.671	1.943	1.938	1.934	1.958	1.953	1.953
0.005	-0.020	0.000	0.005	0.010	0.000	0.044	2.646	1.934	1.934	1.934	1.953	1.958	1.953
0.005	-0.015	0.000	0.010	-0.005	0.000	0.044	2.705	1.934	1.938	1.934	1.953	1.948	1.953
0.015	-0.010	0.000	0.010	0.000	0.005	0.039	2.744	1.938	1.938	1.934	1.953	1.948	1.953
-0.005	0.000	0.000	0.010	0.005	0.005	0.044	2.676	1.934	1.934	1.938	1.953	1.948	1.953
0.010	0.000	-0.005	0.005	0.000	0.005	0.039	2.700	1.938	1.938	1.934	1.953	1.948	1.948
0.000	-0.005	0.000	0.000	0.005	0.000	0.044	2.676	1.929	1.934	1.934	1.948	1.948	1.948
0.010	0.000	-0.005	-0.005	0.000	0.000	0.039	2.671	1.929	1.934	1.934	1.948	1.948	1.948
0.010	0.010	0.005	-0.005	0.000	-0.020	0.039	2.705	1.934	1.938	1.934	1.953	1.943	1.938
0.005	0.010	0.010	-0.005	-0.005	-0.010	0.039	2.705	1.929	1.934	1.934	1.948	1.948	1.948
-0.010	0.010	0.000	0.000	0.020	0.000	0.039	2.700	1.929	1.934	1.934	1.953	1.953	1.953
-0.010	0.000	0.005	0.000	0.015	0.010	0.039	2.690	1.924	1.924	1.929	1.953	1.953	1.953
0.000	0.010	0.010	0.005	-0.020	-0.005	0.039	2.690	1.929	1.929	1.929	1.953	1.943	1.943
-0.005	0.010	0.005	0.000	-0.005	0.015	0.039	2.681	1.929	1.929	1.934	1.948	1.948	1.948
-0.005	0.005	0.005	0.000	-0.010	0.010	0.039	2.676	1.924	1.924	1.929	1.948	1.943	1.948
0.000	0.010	0.005	0.005	-0.010	-0.020	0.039	2.681	1.929	1.929	1.924	1.948	1.943	1.938
0.005	0.005	-0.005	0.000	-0.005	0.015	0.044	2.690	1.929	1.929	1.924	1.943	1.943	1.948
-0.005	-0.010	0.000	0.000	-0.015	-0.005	0.039	2.671	1.924	1.924	1.924	1.943	1.943	1.943
0.010	-0.005	-0.005	-0.005	0.000	-0.005	0.039	2.705	1.929	1.924	1.919	1.943	1.943	1.938
0.010	-0.010	0.000	-0.005	0.000	-0.005	0.039	2.695	1.929	1.924	1.919	1.938	1.938	1.943
0.005	0.000	0.000	0.000	-0.010	0.015	0.039	2.690	1.924	1.924	1.924	1.943	1.938	1.943
0.000	-0.010	-0.010	0.000	0.005	-0.015	0.039	2.690	1.919	1.919	1.919	1.943	1.938	1.934
0.005	-0.005	0.000	-0.005	0.000	0.010	0.044	2.676	1.924	1.924	1.919	1.938	1.938	1.938
0.005	-0.005	0.000	0.000	0.005	0.000	0.044	2.681	1.919	1.919	1.919	1.938	1.938	1.938
0.005	0.000	0.000	0.005	0.010	-0.010	0.039	2.666	1.914	1.919	1.924	1.938	1.938	1.938
0.000	0.005	-0.005	0.000	0.010	0.005	0.039	2.671	1.919	1.919	1.924	1.938	1.938	1.938
-0.005	0.010	0.005	0.005	0.034	0.010	0.044	2.681	1.919	1.924	1.924	1.943	1.943	1.943
-0.005	0.015	0.005	0.005	0.039	0.005	0.039	2.681	1.919	1.924	1.924	1.943	1.943	1.943
-0.005	0.015	0.010	0.005	0.024	-0.010	0.039	2.661	1.919	1.919	1.919	1.943	1.938	1.938
-0.005	0.015	0.005	0.010	0.015	0.005	0.039	2.661	1.914	1.919	1.919	1.938	1.938	1.943
0.000	0.010	0.000	0.005	0.015	0.010	0.039	2.632	1.909	1.914	1.919	1.938	1.934	1.938
-0.005	0.005	0.005	0.005	-0.005	0.000	0.044	2.646	1.909	1.914	1.914	1.938	1.929	1.934
0.000	0.000	0.010	0.000	-0.015	0.000	0.039	2.734	1.919	1.909	1.914	1.934	1.924	1.934
0.000	-0.005	0.000	-0.005	-0.020	0.015	0.039	2.754	1.924	1.909	1.909	1.929	1.924	1.934
0.000	-0.015	-0.010	-0.005	-0.005	0.000	0.039	2.729	1.929	1.914	1.904	1.929	1.929	1.929
0.015	-0.015	0.000	-0.010	0.010	0.000	0.039	2.725	1.934	1.914	1.914	1.929	1.934	1.929
0.010	-0.005	0.000	-0.010	0.010	-0.005	0.039	2.646	1.924	1.919	1.914	1.929	1.929	1.929
0.010	0.005	-0.005	-0.005	0.015	-0.015	0.039	2.739	1.924	1.924	1.914	1.929	1.929	1.924
0.005	0.000	0.000	0.000	0.029	-0.024	0.039	2.661	1.919	1.919	1.914	1.934	1.934	1.924
0.000	0.000	-0.005	0.005	0.020	-0.020	0.044	2.720	1.914	1.919	1.914	1.934	1.929	1.924
0.000	-0.005	-0.005	0.005	0.000	-0.005	0.044	2.705	1.919	1.914	1.914	1.934	1.924	1.929
0.005	0.005	0.000	0.010	-0.020	0.005	0.039	2.646	1.914	1.919	1.914	1.934	1.919	1.929
-0.005	0.005	0.005	0.015	-0.015	0.005	0.044	2.720	1.919	1.919	1.919	1.934	1.924	1.929
0.005	0.010	0.005	0.010	-0.010	0.005	0.039	2.651	1.914	1.919	1.919	1.934	1.929	1.929
0.000	0.005	0.005	0.005	-0.005	0.010	0.039	2.666	1.909	1.914	1.914	1.934	1.929	1.929
-0.005	0.000	0.010	0.000	-0.020	0.015	0.044	2.686	1.909	1.914	1.914	1.934	1.924	1.929
-0.005	0.010	0.000	0.005	-0.010	0.000	0.044	2.676	1.914	1.909	1.914	1.934	1.924	1.924
0.000	-0.005	0.005	0.000	-0.010	0.000	0.039	2.700	1.914	1.909	1.909	1.934	1.929	1.924
0.005	-0.005	0.005	0.000	0.005	-0.005	0.039	2.695	1.914	1.909	1.909	1.929	1.934	1.924
0.005	0.005	0.000	0.000	0.005	0.015	0.039	2.700	1.914	1.914	1.909	1.929	1.934	1.934
-0.010	0.015	0.000	-0.005	0.010	0.010	0.039	2.705	1.914	1.914	1.909	1.929	1.934	1.929
0.010	-0.010	-0.005	-0.005	0.015	-0.010	0.039	2.671	1.909	1.904	1.909	1.924	1.929	1.929
0.000	-0.015	-0.005	-0.005	0.010	0.020	0.044	2.686	1.904	1.904	1.909	1.929	1.929	1.929
0.000	-0.020	0.000	-0.005	-0.015	0.020	0.039	2.695	1.909	1.904	1.904	1.924	1.919	1.929
0.000	-0.029	0.000	0.000	-0.024	0.010	0.044	2.695	1.909	1.899	1.904	1.924	1.914	1.919
-0.005	-0.005	-0.005	0.005	-0.010	-0.005	0.044	2.671	1.904	1.909	1.904	1.924	1.919	1.919
-0.010	0.005	0.000	0.000	0.020	0.005	0.039	2.666	1.899	1.909	1.909	1.929	1.929	1.924
0.000	0.020	0.005	0.000	0.024	0.010	0.039	2.700	1.909	1.914	1.909	1.929	1.929	1.924
-0.005	0.015	0.000	0.000	-0.010	0.000	0.044	2.690	1.909	1.914	1.909	1.924	1.914	1.924
0.000	0.020	0.005	0.005	-0.020	0.000	0.039	2.690	1.909	1.914	1.909	1.924	1.914	1.919
-0.005	0.044	0.005	-0.005	-0.015	-0.005	0.044	2.676	1.909	1.919	1.914	1.924	1.919	1.919
0.000	0.034	0.005	0.000	-0.010	0.000	0.039	2.681	1.909	1.914	1.909	1.929	1.924	1.919
-0.005	0.024	0.000	0.005	0.005	-0.005	0.044	2.695	1.909	1.909	1.909	1.929	1.929	1.924
-0.005	0.015	0.005	-0.005	0.015	-0.010	0.039	2.681	1.909	1.904	1.904	1.929	1.929	1.919
-0.010	0.020	0.005	0.000	0.029	0.000	0.039	2.666	1.904	1.909	1.909	1.929	1.929	1.929
-0.005	0.015	0.005	0.000	0.020	-0.015	0.039	2.671	1.904	1.904	1.904	1.929	1.924	1.924
-0.005	-0.005	-0.005	0.000	0.000	0.005	0.039	2.686	1.904	1.895	1.899	1.924	1.919	1.929
0.015	-0.020	0.000	0.000	-0.010	0.005	0.039	2.676	1.909	1.895	1.899	1.924	1.914	1.924
0.020	-0.029	0.000	0.010	-0.005	-0.015	0.039	2.651	1.904	1.895	1.895	1.924	1.919	1.914
0.024	-0.029	-0.005	0.005	0.010	0.000	0.039	2.666	1.904	1.899	1.895	1.919	1.919	1.924
0.015	-0.034	-0.005	0.005	0.039	0.010	0.044	2.642	1.895	1.899	1.895	1.919	1.929	1.924
0.015	-0.005	0.000	0.000	0.020	0.010	0.039	2.637	1.895	1.904	1.895	1.919	1.919	1.924
0.010	0.000	0.000	0.000	0.015	0.005	0.039	2.744	1.904	1.904	1.899	1.919	1.914	1.919
-0.005	0.010	0.000	0.000	0.015	0.005	0.039	2.739	1.909	1.904	1.899	1.919	1.914	1.919
-0.005	0.010	0.000	0.000	0.015	0.000	0.039	2.734	1.899	1.904	1.904	1.919	1.914	1.914
-0.005	0.024	0.005	0.000	0.010	-0.010	0.044	2.720	1.904	1.904	1.904	1.919	1.909	1.909
-0.005	0.020	0.005	0.005	-0.005	0.005	0.044	2.646	1.899	1.904	1.904	1.919	1.909	1.914
-0.010	0.024	0.010	0.000	-0.020	-0.005	0.044	2.744	1.909	1.904	1.899	1.919	1.904	1.909
-0.005	0.005	0.010	0.000	-0.015	0.010	0.044	2.661	1.904	1.899	1.904	1.919	1.909	1.909
0.005	0.000	0.000	0.005	-0.005	-0.015	0.039	2.734	1.909	1.899	1.899	1.919	1.914	1.909
-0.010	0.005	-0.005	0.005	-0.029	0.010	0.044	2.690	1.904	1.899	1.899	1.919	1.909	1.914
-0.005	-0.005	0.000	0.005	-0.024	0.010	0.039	2.715	1.909	1.899	1.899	1.919	1.914	1.914
-0.005	-0.005	0.010	0.000	-0.015	0.020	0.039	2.715	1.909	1.899	1.899	1.919	1.914	1.914
0.005	-0.010	0.000	0.000	-0.005	0.005	0.039	2.720	1.919	1.904	1.899	1.919	1.919	1.909
0.015	-0.010	0.000	0.000	-0.005	0.010	0.039	2.661	1.909	1.904	1.899	1.919	1.914	1.914
0.005	-0.015	0.000	0.000	0.000	0.010	0.039	2.676	1.909	1.904	1.899	1.919	1.914	1.914
0.010	-0.015	-0.005	0.005	0.000	0.010	0.039	2.676	1.904	1.904	1.895	1.919	1.914	1.914
0.005	-0.020	-0.005	0.000	0.020	-0.005	0.039	2.666	1.899	1.899	1.899	1.919	1.914	1.909
0.005	-0.005	0.000	0.000	-0.024	0.005	0.039	2.710	1.904	1.904	1.899	1.914	1.904	1.909
0.005	-0.010	-0.005	0.005	-0.029	0.005	0.039	2.700	1.904	1.904	1.899	1.919	1.909	1.909
-0.010	-0.005	0.000	0.000	0.005	0.000	0.039	2.700	1.899	1.904	1.899	1.919	1.919	1.909
0.000	0.005	0.000	0.000	0.010	-0.015	0.039	2.666	1.899	1.904	1.904	1.919	1.919	1.909
-0.005	0.015	0.010	0.000	0.010	-0.005	0.039	2.710	1.899	1.909	1.904	1.919	1.919	1.914
0.000	0.010	0.010	0.000	-0.015	0.005	0.039	2.666	1.899	1.904	1.904	1.919	1.909	1.914
-0.005	0.005	0.010	0.000	-0.020	0.010	0.039	2.710	1.904	1.899	1.899	1.919	1.909	1.914
0.000	0.005	0.005	0.000	0.015	0.005	0.044	2.671	1.899	1.904	1.904	1.919	1.924	1.919
0.000	0.010	0.000	0.005	0.078	0.005	0.044	2.666	1.899	1.899	1.899	1.924	1.938	1.924
0.000	0.010	0.000	0.005	0.049	0.000	0.039	2.676	1.899	1.899	1.899	1.924	1.924	1.919
-0.005	0.000	0.000	0.000	0.024	0.005	0.039	2.710	1.904	1.899	1.899	1.919	1.914	1.919
0.000	0.000	0.000	0.005	0.020	0.000	0.039	2.686	1.904	1.899	1.899	1.919	1.914	1.919
0.000	0.005	-0.005	0.000	0.020	-0.005	0.039	2.671	1.899	1.899	1.895	1.914	1.909	1.914
0.005	-0.005	0.000	0.005	0.005	-0.010	0.039	2.700	1.904	1.899	1.895	1.914	1.909	1.914
0.015	-0.005	0.000	0.005	-0.005	0.010	0.039	2.695	1.904	1.895	1.895	1.914	1.904	1.914
0.015	-0.005	0.000	-0.005	-0.024	0.015	0.039	2.671	1.899	1.895	1.895	1.914	1.899	1.909
0.005	-0.005	0.000	0.005	-0.029	0.010	0.039	2.681	1.895	1.895	1.895	1.914	1.904	1.904
0.000	0.005	0.000	0.005	-0.020	0.005	0.039	2.671	1.895	1.899	1.895	1.914	1.909	1.904
-0.005	0.000	-0.005	-0.005	-0.005	-0.005	0.039	2.690	1.895	1.895	1.895	1.909	1.909	1.904
-0.005	0.005	-0.005	0.000	-0.005	0.000	0.039	2.676	1.895	1.895	1.895	1.914	1.909	1.909
-0.010	-0.005	0.000	0.000	0.005	0.010	0.039	2.656	1.890	1.890	1.890	1.914	1.909	1.909
0.000	0.000	0.005	0.005	0.000	0.005	0.039	2.666	1.895	1.895	1.895	1.914	1.909	1.909
-0.005	-0.005	0.005	0.005	0.000	-0.005	0.039	2.646	1.890	1.890	1.895	1.909	1.909	1.909
0.000	0.000	0.005	0.005	-0.005	0.000	0.039	2.632	1.890	1.895	1.895	1.909	1.909	1.904
-0.005	0.000	0.005	0.000	0.015	-0.024	0.044	2.637	1.885	1.890	1.890	1.909	1.909	1.899
-0.005	0.005	0.005	0.000	0.005	-0.010	0.039	2.754	1.895	1.890	1.890	1.909	1.909	1.909
-0.005	0.005	0.010	0.000	0.015	0.000	0.039	2.739	1.895	1.890	1.890	1.909	1.909	1.909
-0.010	0.000	0.000	0.005	0.005	-0.005	0.039	2.661	1.895	1.890	1.890	1.909	1.909	1.909
0.000	-0.005	0.005	0.000	0.000	0.005	0.044	2.671	1.895	1.890	1.890	1.909	1.904	1.909
0.005	-0.005	0.000	0.000	0.000	0.005	0.039	2.739	1.904	1.895	1.890	1.904	1.904	1.909
0.010	0.015	-0.005	0.005	-0.010	0.005	0.039	2.671	1.899	1.899	1.890	1.904	1.899	1.904
0.010	0.000	0.000	0.005	-0.010	0.010	0.039	2.739	1.904	1.899	1.890	1.909	1.899	1.904
0.010	0.000	-0.005	0.000	0.005	0.000	0.039	2.681	1.904	1.895	1.890	1.909	1.904	1.899
0.015	-0.005	-0.005	0.005	0.005	-0.010	0.039	2.632	1.895	1.895	1.895	1.909	1.904	1.899
0.000	0.000	0.000	-0.005	-0.005	-0.020	0.039	2.715	1.895	1.895	1.895	1.909	1.899	1.899
0.000	0.005	0.000	0.000	0.010	0.005	0.039	2.617	1.885	1.895	1.895	1.909	1.909	1.904
0.000	0.020	0.000	0.005	0.015	0.015	0.039	2.666	1.885	1.895	1.895	1.909	1.909	1.909
0.005	0.020	0.005	0.005	-0.010	0.010	0.039	2.705	1.895	1.895	1.895	1.914	1.899	1.904
-0.005	0.020	0.005	0.005	-0.039	0.015	0.039	2.671	1.890	1.890	1.895	1.909	1.895	1.904
-0.015	0.010	0.005	0.000	-0.029	0.015	0.039	2.671	1.885	1.885	1.890	1.909	1.899	1.904
-0.010	0.015	0.005	0.000	-0.010	0.000	0.039	2.710	1.895	1.890	1.890	1.914	1.904	1.899
0.000	0.005	0.005	0.000	-0.024	0.010	0.039	2.705	1.895	1.890	1.890	1.909	1.904	1.904
-0.005	-0.005	0.005	0.000	-0.020	0.005	0.039	2.695	1.895	1.885	1.885	1.909	1.904	1.899
-0.005	-0.005	0.005	0.005	-0.015	-0.015	0.044	2.661	1.895	1.890	1.885	1.909	1.904	1.899
0.005	-0.005	0.000	0.005	0.005	0.005	0.039	2.695	1.899	1.890	1.885	1.909	1.914	1.909
0.010	-0.015	0.000	0.005	0.054	0.015	0.044	2.690	1.899	1.890	1.885	1.909	1.924	1.914
0.010	-0.015	-0.005	0.005	0.078	-0.015	0.044	2.695	1.899	1.890	1.885	1.909	1.919	1.909
0.010	-0.010	0.000	0.000	0.044	0.010	0.044	2.671	1.895	1.890	1.890	1.904	1.904	1.914
0.005	-0.005	0.000	0.000	0.000	0.010	0.039	2.690	1.895	1.890	1.890	1.904	1.890	1.909
0.010	-0.010	0.000	-0.005	0.000	0.005	0.044	2.666	1.895	1.895	1.890	1.904	1.895	1.904
0.010	0.005	-0.005	-0.005	0.005	-0.005	0.039	2.666	1.890	1.895	1.890	1.904	1.895	1.899
0.000	0.005	0.000	-0.005	0.010	0.000	0.044	2.710	1.895	1.895	1.890	1.904	1.899	1.899
0.005	0.005	-0.005	0.000	-0.010	-0.010	0.039	2.681	1.890	1.890	1.890	1.909	1.890	1.895
0.000	0.010	0.000	0.000	-0.010	0.005	0.039	2.695	1.890	1.895	1.890	1.909	1.895	1.899
-0.005	0.015	0.005	0.005	-0.015	0.020	0.039	2.676	1.890	1.890	1.895	1.909	1.899	1.904
0.000	0.010	0.005	0.005	-0.015	0.010	0.039	2.671	1.890	1.890	1.890	1.909	1.899	1.899
-0.005	0.015	0.005	0.005	-0.015	-0.005	0.039	2.671	1.885	1.890	1.890	1.909	1.899	1.899
-0.005	-0.005	0.010	0.005	-0.020	-0.010	0.039	2.671	1.885	1.880	1.890	1.904	1.899	1.895
-0.005	-0.005	0.010	-0.005	-0.020	0.015	0.039	2.690	1.890	1.885	1.885	1.904	1.904	1.904
0.000	-0.015	0.005	-0.005	-0.020	0.010	0.039	2.651	1.890	1.885	1.885	1.904	1.899	1.899
0.005	-0.020	0.000	0.005	-0.029	0.005	0.039	2.661	1.885	1.885	1.885	1.904	1.899	1.899
0.015	-0.020	0.005	0.000	0.000	0.000	0.044	2.666	1.890	1.885	1.885	1.904	1.909	1.899
0.000	-0.020	-0.005	0.005	0.024	-0.020	0.039	2.632	1.880	1.880	1.880	1.904	1.909	1.899
0.005	-0.010	0.000	0.010	0.044	0.000	0.044	2.642	1.880	1.885	1.885	1.904	1.914	1.909
0.005	-0.010	-0.005	0.010	0.078	0.005	0.039	2.666	1.875	1.880	1.880	1.904	1.919	1.909
0.005	0.000	-0.005	0.010	0.049	0.005	0.044	2.646	1.875	1.880	1.880	1.899	1.899	1.909
-0.005	0.000	-0.005	0.010	0.015	0.000	0.039	2.720	1.885	1.880	1.880	1.899	1.895	1.904
0.000	0.005	0.000	-0.005	-0.010	-0.005	0.039	2.656	1.885	1.880	1.880	1.895	1.885	1.895
0.010	0.024	0.000	-0.005	-0.029	-0.015	0.039	2.676	1.885	1.890	1.880	1.895	1.880	1.890
0.005	0.024	0.000	-0.005	-0.020	-0.005	0.039	2.646	1.885	1.890	1.885	1.895	1.890	1.890
0.000	0.020	0.005	-0.010	0.005	0.005	0.039	2.661	1.885	1.885	1.885	1.899	1.895	1.895
-0.010	0.010	0.010	0.000	-0.010	0.000	0.039	2.744	1.890	1.885	1.885	1.899	1.890	1.890
-0.005	0.010	0.000	0.000	0.000	-0.020	0.044	2.671	1.885	1.885	1.885	1.899	1.895	1.890
-0.010	0.015	0.005	0.000	0.005	0.000	0.039	2.642	1.880	1.885	1.880	1.899	1.899	1.895
-0.005	0.010	0.005	0.005	0.005	0.005	0.039	2.715	1.895	1.885	1.880	1.904	1.899	1.899
0.000	0.000	0.000	0.010	0.005	0.005	0.044	2.651	1.885	1.880	1.880	1.904	1.895	1.899
0.005	0.000	0.005	0.010	-0.005	-0.005	0.044	2.666	1.890	1.885	1.880	1.904	1.895	1.895
0.005	0.005	0.000	0.005	0.005	0.005	0.039	2.666	1.885	1.885	1.880	1.904	1.899	1.899
0.005	-0.010	0.000	0.005	0.015	0.000	0.039	2.671	1.885	1.880	1.880	1.899	1.899	1.899
0.010	-0.029	0.000	0.005	-0.010	0.000	0.039	2.700	1.890	1.875	1.875	1.899	1.890	1.895
0.015	-0.020	0.000	-0.005	-0.024	-0.015	0.039	2.700	1.895	1.880	1.880	1.895	1.885	1.890
0.005	-0.015	-0.005	-0.005	0.000	0.000	0.039	2.695	1.890	1.885	1.880	1.895	1.895	1.895
0.005	-0.015	-0.005	-0.005	0.010	-0.005	0.044	2.695	1.890	1.885	1.880	1.895	1.895	1.895
0.000	0.000	-0.005	-0.010	0.034	0.020	0.039	2.671	1.890	1.890	1.885	1.895	1.899	1.904
0.005	0.015	0.000	-0.005	0.039	0.034	0.044	2.695	1.890	1.895	1.885	1.899	1.899	1.904
0.005	0.010	0.000	-0.005	-0.005	0.020	0.039	2.695	1.895	1.890	1.885	1.899	1.885	1.895
0.000	0.015	0.000	0.005	-0.068	0.010	0.039	2.671	1.890	1.890	1.885	1.904	1.875	1.885
0.000	0.010	0.000	0.005	-0.063	0.005	0.039	2.676	1.890	1.890	1.890	1.909	1.885	1.885
0.000	0.010	0.005	0.005	0.005	0.000	0.039	2.671	1.885	1.885	1.890	1.909	1.909	1.890
-0.010	0.010	0.005	0.005	0.093	0.005	0.039	2.705	1.885	1.885	1.890	1.909	1.929	1.899
-0.010	0.015	0.005	0.000	0.117	-0.005	0.039	2.676	1.890	1.890	1.885	1.909	1.929	1.909
-0.005	0.005	0.010	0.005	0.068	0.005	0.039	2.695	1.890	1.885	1.885	1.909	1.909	1.909
0.005	-0.005	0.005	-0.005	0.034	-0.010	0.039	2.705	1.895	1.885	1.885	1.904	1.895	1.899
0.000	0.005	0.000	0.000	0.000	-0.005	0.039	2.676	1.890	1.890	1.885	1.904	1.890	1.899
0.000	0.000	0.000	0.010	-0.005	-0.005	0.039	2.671	1.895	1.890	1.885	1.904	1.890	1.895
-0.005	0.005	-0.005	0.010	-0.005	-0.005	0.039	2.666	1.890	1.890	1.885	1.904	1.895	1.895
0.000	0.005	-0.005	0.010	-0.024	-0.005	0.039	2.676	1.890	1.885	1.885	1.904	1.890	1.890
0.000	-0.010	-0.005	0.005	-0.049	-0.005	0.044	2.671	1.880	1.880	1.880	1.899	1.885	1.890
0.005	-0.010	-0.005	0.005	-0.044	-0.005	0.044	2.686	1.885	1.880	1.880	1.899	1.890	1.890
0.005	-0.015	-0.005	0.005	-0.029	-0.005	0.039	2.656	1.880	1.880	1.880	1.899	1.895	1.890
0.000	-0.010	0.000	-0.005	-0.005	0.000	0.039	2.651	1.875	1.880	1.880	1.899	1.904	1.895
0.000	0.000	0.000	0.000	0.010	0.005	0.039	2.666	1.880	1.880	1.880	1.899	1.904	1.899
0.005	0.000	-0.005	0.000	0.005	-0.010	0.039	2.646	1.875	1.875	1.880	1.899	1.899	1.895
0.000	0.010	0.010	0.005	-0.005	0.010	0.039	2.642	1.875	1.880	1.885	1.899	1.899	1.899
0.005	0.010	0.005	0.010	0.020	0.000	0.039	2.651	1.875	1.880	1.880	1.904	1.904	1.899
0.000	0.015	0.010	0.005	0.010	0.005	0.039	2.749	1.885	1.880	1.880	1.899	1.899	1.899
0.000	0.010	0.015	0.000	0.000	-0.005	0.039	2.749	1.895	1.880	1.880	1.895	1.895	1.895
-0.010	0.020	0.005	-0.005	0.000	0.010	0.039	2.720	1.895	1.890	1.880	1.895	1.895	1.899
-0.005	0.010	0.000	-0.005	0.020	0.005	0.039	2.651	1.890	1.885	1.880	1.895	1.899	1.899
0.000	0.005	0.000	-0.005	0.010	0.005	0.039	2.651	1.885	1.885	1.880	1.899	1.895	1.895
0.000	0.000	0.000	-0.005	-0.005	0.000	0.044	2.690	1.890	1.885	1.880	1.895	1.890	1.895
-0.005	0.000	0.000	-0.005	-0.034	0.000	0.039	2.720	1.890	1.885	1.880	1.895	1.880	1.890
0.000	0.000	-0.005	0.005	-0.044	0.000	0.039	2.695	1.890	1.885	1.880	1.899	1.885	1.885
0.000	-0.010	0.000	0.000	-0.020	-0.010	0.044	2.744	1.895	1.885	1.880	1.899	1.895	1.885
0.000	-0.010	-0.005	0.000	-0.010	0.000	0.044	2.715	1.895	1.885	1.880	1.899	1.899	1.890
0.005	-0.015	0.005	-0.005	-0.024	0.000	0.039	2.754	1.899	1.890	1.885	1.899	1.890	1.890
0.005	-0.010	0.000	0.000	-0.005	0.000	0.039	2.671	1.890	1.890	1.885	1.899	1.899	1.895
0.000	0.000	0.000	-0.005	0.015	0.015	0.044	2.681	1.890	1.890	1.885	1.904	1.904	1.899
0.000	0.005	0.005	0.000	0.044	0.010	0.044	2.676	1.890	1.895	1.890	1.904	1.909	1.904
0.000	0.024	-0.005	0.015	0.034	0.010	0.039	2.676	1.885	1.895	1.890	1.904	1.904	1.904
0.010	0.020	0.000	0.020	0.020	0.010	0.039	2.695	1.890	1.890	1.890	1.909	1.899	1.899
0.020	0.005	0.005	0.015	-0.005	0.000	0.039	2.671	1.885	1.890	1.890	1.909	1.895	1.899
0.000	0.005	0.005	0.010	-0.005	-0.005	0.039	2.705	1.885	1.885	1.890	1.904	1.899	1.899
0.000	0.015	0.005	0.010	0.005	0.005	0.039	2.661	1.890	1.890	1.890	1.909	1.899	1.899
-0.005	0.010	0.000	0.005	0.005	-0.010	0.039	2.695	1.885	1.885	1.885	1.904	1.899	1.899
0.000	0.005	0.005	0.000	0.000	0.005	0.039	2.666	1.880	1.880	1.885	1.904	1.899	1.899
0.000	0.005	0.000	-0.005	-0.005	-0.010	0.039	2.695	1.885	1.880	1.880	1.899	1.895	1.895
0.000	0.005	0.000	-0.005	0.005	0.000	0.039	2.676	1.890	1.885	1.880	1.899	1.899	1.899
0.005	0.000	-0.005	0.000	0.005	0.000	0.039	2.695	1.890	1.885	1.880	1.899	1.899	1.899
-0.005	-0.010	-0.005	-0.005	-0.005	0.010	0.039	2.681	1.885	1.875	1.880	1.899	1.895	1.899
0.000	-0.010	0.000	-0.005	-0.010	0.005	0.044	2.705	1.890	1.885	1.880	1.899	1.895	1.895
0.010	-0.015	0.000	0.000	0.015	0.000	0.044	2.690	1.890	1.880	1.880	1.899	1.899	1.895
0.005	-0.010	-0.005	-0.005	0.039	-0.010	0.039	2.671	1.885	1.880	1.880	1.899	1.904	1.899
0.000	-0.005	0.000	-0.010	0.024	-0.015	0.044	2.686	1.885	1.885	1.880	1.895	1.895	1.895
0.005	0.005	-0.005	0.005	0.000	-0.010	0.044	2.681	1.885	1.890	1.880	1.899	1.890	1.895
0.000	-0.010	0.000	0.005	-0.015	-0.010	0.039	2.676	1.880	1.880	1.880	1.899	1.885	1.895
0.000	-0.010	0.005	0.000	-0.020	0.010	0.039	2.671	1.885	1.880	1.880	1.899	1.890	1.895
0.005	0.005	0.005	0.010	-0.024	0.010	0.044	2.666	1.885	1.885	1.880	1.899	1.890	1.895
0.005	0.010	0.000	0.000	-0.005	0.020	0.039	2.686	1.885	1.890	1.880	1.899	1.895	1.899
-0.005	0.005	0.005	0.005	0.000	0.015	0.039	2.651	1.880	1.885	1.885	1.904	1.895	1.895
0.000	0.000	0.005	0.005	0.005	0.000	0.039	2.651	1.880	1.880	1.885	1.899	1.899	1.890
0.005	0.005	0.010	0.000	0.005	-0.010	0.039	2.671	1.880	1.880	1.880	1.899	1.899	1.890
-0.005	0.000	0.005	0.000	-0.005	0.024	0.044	2.783	1.895	1.885	1.880	1.899	1.895	1.899
0.000	0.005	0.005	0.000	-0.010	0.005	0.039	2.729	1.899	1.885	1.880	1.899	1.895	1.895
-0.005	0.000	0.000	-0.005	0.005	-0.020	0.039	2.637	1.890	1.885	1.885	1.899	1.899	1.890
0.000	0.024	0.000	0.000	0.005	-0.010	0.044	2.744	1.899	1.895	1.885	1.899	1.899	1.895
0.000	0.000	-0.005	-0.005	-0.010	-0.005	0.039	2.612	1.890	1.885	1.880	1.899	1.890	1.895
0.005	0.000	-0.005	0.000	-0.005	-0.010	0.039	2.744	1.895	1.890	1.885	1.899	1.895	1.895
0.000	0.000	0.000	0.005	0.000	0.005	0.039	2.642	1.890	1.885	1.885	1.904	1.899	1.895
0.010	-0.010	-0.005	0.010	-0.005	-0.005	0.039	2.632	1.880	1.880	1.885	1.899	1.895	1.895
0.010	-0.010	-0.005	0.005	-0.005	0.005	0.039	2.666	1.880	1.880	1.880	1.899	1.895	1.899
0.000	0.000	0.000	0.005	0.015	0.010	0.039	2.729	1.895	1.885	1.885	1.904	1.899	1.899
-0.005	0.000	0.000	0.005	0.044	0.005	0.039	2.676	1.890	1.885	1.885	1.904	1.909	1.899
-0.005	0.005	0.000	0.005	0.054	0.010	0.044	2.651	1.885	1.885	1.885	1.904	1.909	1.904
-0.005	0.010	0.005	0.000	0.049	0.005	0.039	2.744	1.890	1.890	1.885	1.904	1.904	1.904
0.000	-0.010	0.010	0.000	0.029	-0.015	0.044	2.627	1.885	1.880	1.885	1.904	1.895	1.895
-0.005	-0.005	0.005	0.005	0.000	0.010	0.039	2.700	1.885	1.885	1.885	1.899	1.890	1.899
-0.010	-0.020	0.010	0.000	0.000	0.010	0.044	2.695	1.885	1.880	1.885	1.904	1.890	1.899
-0.010	-0.010	0.005	0.000	-0.010	0.000	0.039	2.676	1.885	1.885	1.880	1.899	1.890	1.895
0.000	0.005	-0.005	0.000	-0.024	-0.010	0.044	2.671	1.890	1.890	1.880	1.899	1.885	1.885
-0.005	0.005	0.010	-0.005	-0.015	0.000	0.039	2.686	1.890	1.890	1.880	1.899	1.895	1.890
-0.010	0.005	0.000	0.010	-0.010	-0.024	0.044	2.686	1.880	1.890	1.885	1.904	1.895	1.890
-0.005	0.010	0.000	0.000	-0.015	0.000	0.044	2.705	1.890	1.890	1.885	1.904	1.895	1.895
0.000	0.010	0.000	0.010	0.000	-0.005	0.044	2.686	1.890	1.890	1.880	1.899	1.899	1.899
0.000	0.005	-0.005	0.000	0.005	0.010	0.039	2.695	1.890	1.885	1.885	1.899	1.899	1.895
0.005	0.000	0.000	-0.005	-0.005	0.015	0.039	2.671	1.885	1.885	1.880	1.899	1.899	1.895
0.010	0.005	0.000	-0.005	0.024	0.015	0.039	2.686	1.890	1.890	1.885	1.899	1.904	1.899
0.005	0.000	-0.005	-0.005	0.000	0.005	0.039	2.671	1.885	1.885	1.885	1.899	1.895	1.899
0.005	0.005	-0.005	-0.005	-0.039	0.020	0.039	2.676	1.885	1.885	1.880	1.899	1.885	1.895
0.015	0.000	0.005	-0.005	-0.010	0.005	0.039	2.690	1.890	1.885	1.885	1.899	1.895	1.890
0.000	0.000	0.005	0.000	0.000	-0.015	0.039	2.666	1.880	1.885	1.885	1.899	1.899	1.890
-0.005	0.010	0.010	0.000	-0.005	-0.005	0.039	2.676	1.885	1.885	1.885	1.904	1.895	1.895
-0.005	0.010	0.005	0.000	0.000	0.005	0.039	2.700	1.885	1.885	1.885	1.904	1.899	1.899
0.000	0.005	0.005	-0.005	0.005	0.005	0.039	2.671	1.885	1.885	1.885	1.899	1.899	1.899
0.000	0.000	0.005	-0.005	-0.010	-0.005	0.044	2.700	1.890	1.885	1.885	1.899	1.895	1.895
-0.005	0.015	0.005	-0.010	-0.020	0.010	0.044	2.705	1.890	1.890	1.885	1.899	1.895	1.895
0.005	0.005	0.000	-0.005	-0.005	0.010	0.044	2.695	1.890	1.885	1.885	1.899	1.899	1.899
0.000	0.000	0.000	0.000	0.000	0.005	0.039	2.671	1.885	1.880	1.880	1.904	1.899	1.895
0.010	-0.005	0.000	0.000	-0.015	0.015	0.044	2.676	1.890	1.885	1.880	1.899	1.895	1.895
-0.005	-0.010	0.000	0.000	-0.034	0.000	0.039	2.676	1.885	1.880	1.880	1.899	1.890	1.895
0.005	-0.020	0.005	0.010	-0.020	0.010	0.044	2.651	1.880	1.880	1.880	1.904	1.895	1.895
0.015	-0.010	-0.005	0.010	-0.010	0.005	0.039	2.656	1.880	1.880	1.880	1.899	1.895	1.890
0.005	-0.015	-0.010	0.015	0.005	0.000	0.039	2.627	1.880	1.880	1.875	1.904	1.899	1.895
0.005	0.000	-0.010	0.010	0.015	0.000	0.039	2.632	1.875	1.880	1.880	1.899	1.904	1.895
0.005	0.005	0.000	0.010	0.010	-0.020	0.039	2.646	1.875	1.875	1.880	1.895	1.899	1.890
0.005	0.005	0.000	0.015	0.005	-0.010	0.039	2.651	1.885	1.880	1.880	1.899	1.895	1.895
0.005	0.000	0.005	0.015	-0.005	0.020	0.039	2.744	1.890	1.880	1.880	1.899	1.890	1.899
-0.005	0.015	0.005	0.010	-0.073	0.010	0.039	2.637	1.885	1.890	1.880	1.895	1.875	1.890
-0.005	0.010	0.010	0.010	-0.078	-0.015	0.044	2.651	1.880	1.885	1.880	1.899	1.880	1.880
-0.005	0.020	0.010	0.010	-0.039	-0.015	0.039	2.651	1.875	1.885	1.885	1.899	1.890	1.885
0.000	0.024	0.000	0.005	0.010	-0.020	0.044	2.686	1.880	1.885	1.880	1.899	1.904	1.890
-0.005	0.010	0.005	0.000	0.044	-0.005	0.039	2.754	1.890	1.880	1.885	1.899	1.914	1.899
0.000	0.005	0.000	-0.005	0.020	0.005	0.044	2.671	1.890	1.880	1.880	1.895	1.899	1.899
0.000	0.005	0.005	0.000	0.000	0.020	0.039	2.739	1.895	1.880	1.880	1.899	1.895	1.904
0.005	0.005	0.005	0.000	0.083	0.024	0.039	2.715	1.899	1.885	1.880	1.899	1.914	1.909
0.000	-0.010	0.000	-0.005	0.063	0.015	0.039	2.617	1.885	1.880	1.885	1.899	1.904	1.904
0.000	-0.005	0.000	-0.005	0.093	0.010	0.044	2.681	1.885	1.885	1.880	1.899	1.909	1.904
0.005	-0.005	-0.005	0.000	0.122	-0.005	0.039	2.690	1.890	1.885	1.880	1.899	1.914	1.904
0.005	-0.010	0.000	0.000	0.088	-0.015	0.044	2.676	1.885	1.885	1.880	1.899	1.895	1.899
0.005	-0.010	-0.005	0.000	0.029	-0.005	0.039	2.671	1.885	1.885	1.880	1.899	1.880	1.895
0.010	-0.005	0.000	0.000	0.000	-0.005	0.039	2.700	1.885	1.885	1.880	1.895	1.875	1.890
0.000	0.015	-0.005	0.000	0.000	-0.010	0.039	2.695	1.885	1.890	1.885	1.899	1.880	1.885
0.005	0.000	0.005	0.000	-0.005	-0.005	0.039	2.690	1.890	1.890	1.885	1.899	1.885	1.885
0.000	0.010	0.000	0.000	0.000	-0.015	0.039	2.661	1.880	1.890	1.885	1.899	1.890	1.885
-0.005	0.015	0.005	0.000	0.049	0.010	0.039	2.710	1.885	1.885	1.885	1.904	1.904	1.895
0.000	-0.010	0.010	0.005	0.024	0.005	0.039	2.690	1.885	1.880	1.885	1.899	1.895	1.895
-0.005	0.005	0.015	0.000	0.015	0.010	0.039	2.671	1.885	1.885	1.885	1.904	1.895	1.895
-0.005	0.000	0.010	0.000	0.005	-0.015	0.039	2.690	1.890	1.885	1.885	1.904	1.895	1.890
0.000	-0.015	0.005	0.005	0.000	-0.015	0.044	2.671	1.885	1.880	1.880	1.899	1.895	1.890
-0.005	-0.015	0.005	0.005	-0.010	0.010	0.039	2.695	1.880	1.880	1.880	1.899	1.890	1.899
0.000	-0.010	0.005	-0.005	0.005	0.000	0.039	2.705	1.890	1.880	1.875	1.899	1.895	1.895
0.000	0.005	-0.005	0.005	-0.005	-0.024	0.039	2.695	1.890	1.885	1.880	1.899	1.895	1.885
-0.005	-0.005	0.000	0.010	-0.024	0.015	0.039	2.666	1.885	1.885	1.880	1.899	1.885	1.899
0.000	-0.005	0.000	0.000	-0.044	-0.005	0.044	2.705	1.890	1.885	1.880	1.899	1.885	1.885
0.005	0.000	-0.005	-0.005	-0.039	0.000	0.044	2.686	1.890	1.885	1.880	1.895	1.890	1.885
0.010	-0.010	-0.005	-0.005	-0.024	-0.029	0.044	2.656	1.885	1.885	1.880	1.895	1.890	1.880
-0.005	0.000	-0.005	-0.005	-0.020	-0.034	0.044	2.676	1.880	1.885	1.880	1.895	1.890	1.885
0.000	-0.005	-0.005	0.000	-0.024	-0.034	0.044	2.676	1.880	1.880	1.875	1.899	1.890	1.885
0.000	-0.005	0.000	0.000	-0.005	-0.034	0.044	2.681	1.885	1.880	1.880	1.899	1.895	1.890
0.015	0.000	0.000	0.000	-0.005	-0.020	0.039	2.686	1.890	1.885	1.880	1.899	1.895	1.890
0.005	0.010	0.005	0.005	-0.005	-0.015	0.039	2.651	1.885	1.885	1.885	1.899	1.899	1.895
0.005	0.015	0.005	0.005	0.005	-0.005	0.039	2.651	1.880	1.885	1.885	1.899	1.899	1.904
-0.005	0.010	0.005	0.010	0.024	0.005	0.039	2.651	1.875	1.880	1.885	1.904	1.904	1.899
0.010	0.015	0.005	0.010	0.010	-0.005	0.039	2.632	1.875	1.880	1.880	1.904	1.899	1.899
-0.005	0.010	0.000	0.010	-0.015	-0.005	0.039	2.637	1.875	1.880	1.880	1.899	1.890	1.899
0.000	0.010	0.000	0.015	-0.010	0.010	0.039	2.705	1.885	1.880	1.880	1.899	1.895	1.899
0.000	0.000	0.000	0.005	0.029	0.015	0.039	2.710	1.885	1.875	1.880	1.899	1.904	1.899
-0.005	0.000	0.005	0.000	0.029	0.010	0.039	2.749	1.895	1.880	1.880	1.895	1.899	1.899
-0.005	0.000	0.000	-0.005	0.024	0.024	0.044	2.646	1.885	1.885	1.875	1.895	1.899	1.904
0.005	0.005	0.000	-0.010	0.063	0.020	0.039	2.651	1.885	1.885	1.880	1.895	1.904	1.904
0.005	0.000	-0.005	-0.005	0.039	0.020	0.044	2.695	1.890	1.880	1.880	1.895	1.895	1.904
0.010	-0.005	0.000	-0.010	-0.029	0.024	0.039	2.729	1.895	1.885	1.875	1.895	1.875	1.895
0.000	-0.010	0.005	-0.005	-0.044	0.020	0.044	2.700	1.890	1.885	1.880	1.899	1.875	1.885
0.005	-0.005	-0.005	0.000	-0.049	0.020	0.039	2.617	1.880	1.885	1.880	1.895	1.875	1.885
0.005	0.020	0.000	0.000	-0.073	0.005	0.039	2.715	1.885	1.890	1.885	1.895	1.875	1.875
0.005	0.020	0.005	0.005	-0.049	0.005	0.039	2.744	1.890	1.890	1.885	1.899	1.890	1.880
-0.005	0.010	-0.005	0.010	-0.034	0.020	0.039	2.666	1.885	1.885	1.885	1.904	1.895	1.890
0.005	0.015	0.000	0.005	-0.029	0.015	0.039	2.700	1.890	1.890	1.885	1.904	1.895	1.890
-0.010	0.015	0.005	0.005	-0.024	0.000	0.039	2.681	1.880	1.885	1.890	1.904	1.899	1.890
0.000	0.005	0.005	0.005	-0.015	0.005	0.039	2.705	1.885	1.880	1.885	1.904	1.899	1.895
-0.005	0.000	0.000	0.005	-0.010	0.000	0.039	2.695	1.890	1.880	1.880	1.904	1.899	1.890
-0.005	0.000	0.000	0.010	-0.005	-0.010	0.039	2.676	1.885	1.880	1.880	1.904	1.899	1.895
0.000	0.000	0.005	0.005	0.015	0.005	0.039	2.700	1.885	1.880	1.880	1.904	1.904	1.904
-0.005	-0.015	0.005	0.005	0.015	-0.010	0.044	2.695	1.890	1.880	1.880	1.904	1.904	1.895
0.000	-0.005	0.000	0.010	0.010	-0.010	0.044	2.686	1.890	1.885	1.880	1.899	1.899	1.899
0.005	-0.005	0.005	0.005	0.015	0.005	0.044	2.676	1.890	1.885	1.885	1.904	1.904	1.904
0.010	-0.010	0.000	-0.005	0.015	0.005	0.039	2.676	1.885	1.885	1.880	1.899	1.899	1.899
0.005	-0.015	-0.005	0.000	-0.010	0.005	0.039	2.705	1.890	1.885	1.880	1.899	1.890	1.899
0.005	-0.015	-0.005	0.005	0.000	0.000	0.039	2.700	1.890	1.880	1.880	1.899	1.895	1.895
0.015	-0.010	-0.005	0.005	0.020	0.000	0.039	2.676	1.890	1.885	1.885	1.899	1.899	1.899
0.015	0.000	-0.005	0.010	0.039	-0.005	0.039	2.671	1.890	1.890	1.885	1.899	1.904	1.899
0.005	0.010	0.000	0.005	0.049	0.010	0.044	2.705	1.890	1.890	1.885	1.899	1.904	1.904
0.000	0.000	-0.005	0.015	0.020	0.010	0.039	2.671	1.885	1.885	1.885	1.904	1.895	1.899
0.005	0.010	0.005	0.015	-0.005	0.020	0.039	2.695	1.885	1.890	1.885	1.904	1.890	1.899
0.000	0.010	0.005	0.005	0.010	0.000	0.039	2.700	1.885	1.885	1.885	1.899	1.895	1.895
-0.005	0.010	0.005	-0.005	0.010	-0.020	0.039	2.700	1.890	1.885	1.885	1.895	1.895	1.890
-0.015	0.020	0.005	-0.015	0.000	0.010	0.039	2.666	1.885	1.890	1.885	1.899	1.895	1.899
-0.005	0.020	0.005	-0.005	-0.020	0.010	0.039	2.676	1.885	1.885	1.885	1.899	1.885	1.895
0.000	0.005	0.000	-0.010	-0.083	0.010	0.039	2.686	1.885	1.880	1.880	1.899	1.870	1.885
0.005	0.005	0.000	-0.005	-0.083	0.000	0.039	2.661	1.890	1.885	1.880	1.899	1.885	1.880
-0.005	0.000	-0.005	0.000	-0.024	-0.005	0.039	2.656	1.880	1.880	1.880	1.904	1.899	1.885
0.000	0.005	0.005	-0.005	0.044	-0.015	0.044	2.661	1.880	1.880	1.885	1.904	1.919	1.895
0.000	-0.005	0.000	0.005	0.063	0.000	0.044	2.646	1.880	1.875	1.880	1.904	1.919	1.904
0.010	-0.005	0.000	0.005	0.044	0.010	0.044	2.632	1.880	1.880	1.880	1.899	1.909	1.904
0.000	-0.005	-0.005	0.015	0.039	0.000	0.039	2.622	1.875	1.875	1.875	1.899	1.904	1.899
0.010	-0.005	-0.005	0.010	0.034	0.005	0.044	2.749	1.885	1.875	1.875	1.899	1.899	1.904
0.010	-0.005	-0.005	0.010	0.044	-0.015	0.044	2.749	1.875	1.875	1.875	1.895	1.899	1.895
0.015	-0.010	0.000	0.010	0.024	0.005	0.044	2.651	1.875	1.875	1.875	1.895	1.895	1.899
0.010	-0.005	0.000	0.010	0.015	-0.005	0.039	2.651	1.875	1.875	1.875	1.895	1.885	1.890
0.000	0.005	0.000	0.005	0.010	0.015	0.044	2.744	1.885	1.875	1.875	1.890	1.890	1.899
0.005	0.020	0.000	0.000	-0.005	0.000	0.044	2.705	1.890	1.885	1.880	1.890	1.885	1.890
-0.005	-0.005	0.005	-0.005	-0.010	-0.020	0.039	2.744	1.890	1.880	1.880	1.890	1.885	1.885
-0.015	0.005	0.005	-0.005	-0.015	0.015	0.044	2.676	1.885	1.885	1.875	1.895	1.885	1.890
-0.010	0.000	0.010	0.000	-0.010	0.005	0.039	2.632	1.880	1.880	1.880	1.895	1.885	1.890
-0.005	0.005	0.010	0.005	-0.005	0.010	0.044	2.720	1.885	1.885	1.880	1.895	1.890	1.890
-0.005	-0.005	0.005	0.000	-0.005	0.000	0.039	2.705	1.890	1.880	1.880	1.895	1.890	1.885
0.000	0.005	0.005	0.000	-0.015	-0.015	0.039	2.676	1.890	1.885	1.880	1.899	1.885	1.885
0.005	0.000	0.000	0.010	-0.005	-0.034	0.039	2.690	1.890	1.880	1.880	1.899	1.890	1.880
0.000	-0.005	0.000	0.005	0.010	-0.015	0.039	2.676	1.885	1.880	1.880	1.899	1.899	1.890
0.010	-0.005	-0.005	0.000	0.024	-0.015	0.039	2.666	1.885	1.880	1.880	1.899	1.899	1.895
0.005	-0.010	-0.005	0.005	0.034	0.005	0.039	2.700	1.890	1.880	1.880	1.899	1.904	1.899
0.010	0.010	-0.005	0.000	0.024	-0.010	0.039	2.676	1.890	1.890	1.880	1.899	1.895	1.895
0.015	0.000	-0.005	0.005	-0.024	0.010	0.039	2.695	1.890	1.880	1.880	1.895	1.880	1.895
0.005	0.005	-0.005	0.000	-0.039	0.000	0.044	2.695	1.890	1.885	1.885	1.895	1.880	1.890
0.005	0.005	-0.005	0.005	-0.015	0.010	0.039	2.661	1.885	1.885	1.880	1.899	1.890	1.890
0.005	0.010	0.000	0.000	0.015	0.000	0.039	2.690	1.885	1.885	1.885	1.899	1.899	1.890
0.010	0.005	0.000	0.000	0.010	0.015	0.044	2.700	1.885	1.885	1.880	1.899	1.895	1.895
0.010	0.010	0.010	0.000	0.000	-0.015	0.039	2.695	1.885	1.885	1.885	1.899	1.895	1.890
0.000	0.005	0.005	0.005	-0.029	0.010	0.044	2.700	1.890	1.885	1.885	1.899	1.885	1.895
-0.005	0.015	0.005	0.000	-0.049	0.000	0.039	2.686	1.885	1.885	1.885	1.899	1.885	1.890
-0.010	0.015	0.010	0.000	-0.049	0.005	0.039	2.661	1.880	1.885	1.885	1.904	1.890	1.890
-0.010	0.010	0.005	0.000	-0.049	0.010	0.039	2.705	1.890	1.885	1.885	1.899	1.890	1.890
0.000	-0.005	0.005	0.000	-0.029	0.005	0.039	2.681	1.890	1.880	1.885	1.899	1.899	1.890
-0.005	-0.005	0.005	0.000	0.015	0.010	0.039	2.681	1.885	1.880	1.880	1.904	1.909	1.899
0.000	0.005	0.000	0.000	0.015	0.005	0.039	2.705	1.890	1.885	1.880	1.904	1.904	1.899
-0.010	0.010	-0.005	-0.005	0.005	-0.010	0.039	2.705	1.890	1.885	1.875	1.899	1.899	1.890
0.000	0.000	0.000	0.000	0.010	-0.010	0.039	2.676	1.890	1.885	1.880	1.899	1.899	1.899
0.005	0.005	-0.005	0.000	0.015	0.010	0.039	2.666	1.885	1.885	1.880	1.899	1.899	1.904
0.005	-0.015	0.000	0.000	-0.010	0.000	0.039	2.686	1.885	1.880	1.880	1.899	1.890	1.895
0.005	-0.005	-0.005	-0.005	0.015	-0.010	0.039	2.671	1.885	1.885	1.880	1.899	1.899	1.890
0.005	-0.010	0.005	0.000	0.015	-0.005	0.044	2.715	1.875	1.880	1.880	1.899	1.895	1.895
0.015	-0.005	0.000	0.000	-0.005	-0.005	0.039	2.656	1.880	1.880	1.880	1.899	1.890	1.895
0.000	0.000	0.000	0.000	0.000	0.005	0.044	2.632	1.870	1.880	1.880	1.899	1.890	1.895
0.015	-0.005	0.005	0.000	0.000	0.010	0.039	2.642	1.875	1.875	1.880	1.899	1.895	1.895
-0.005	0.010	0.010	0.000	-0.034	0.000	0.039	2.725	1.880	1.880	1.880	1.895	1.885	1.890
-0.005	0.010	0.010	0.000	-0.024	0.015	0.039	2.749	1.890	1.880	1.880	1.899	1.890	1.895
0.000	0.015	0.005	0.000	-0.049	-0.020	0.039	2.739	1.890	1.885	1.880	1.899	1.885	1.885
-0.005	0.005	0.005	0.000	0.005	0.010	0.039	2.656	1.890	1.885	1.880	1.899	1.904	1.895
0.000	0.005	0.000	0.000	0.103	-0.015	0.039	2.676	1.890	1.885	1.880	1.899	1.929	1.904
-0.005	0.005	0.005	0.000	0.142	0.005	0.039	2.656	1.885	1.885	1.880	1.904	1.929	1.914
0.005	0.000	-0.005	0.005	0.078	-0.010	0.039	2.695	1.890	1.880	1.880	1.899	1.899	1.904
0.000	-0.015	0.000	0.005	-0.005	0.010	0.039	2.744	1.895	1.880	1.880	1.895	1.880	1.895
-0.005	-0.010	0.000	0.000	0.005	0.015	0.039	2.681	1.895	1.885	1.880	1.899	1.885	1.899
0.000	-0.005	0.000	0.000	0.029	0.005	0.039	2.632	1.890	1.885	1.880	1.899	1.895	1.895
0.000	-0.015	0.000	0.005	0.078	0.015	0.039	2.734	1.895	1.885	1.885	1.899	1.909	1.904
0.000	-0.010	0.000	0.000	0.059	0.000	0.039	2.734	1.899	1.890	1.880	1.895	1.899	1.899
-0.005	-0.005	-0.005	0.000	0.034	0.015	0.039	2.671	1.890	1.885	1.885	1.899	1.890	1.899
0.000	0.010	0.000	0.005	0.039	-0.010	0.039	2.686	1.895	1.895	1.885	1.899	1.895	1.890
0.010	0.005	0.005	0.005	0.015	-0.015	0.044	2.666	1.890	1.895	1.885	1.899	1.885	1.885
0.010	0.010	0.000	0.000	-0.005	-0.005	0.039	2.700	1.890	1.890	1.890	1.904	1.885	1.890
-0.005	0.005	0.005	0.010	-0.020	0.000	0.044	2.700	1.885	1.890	1.890	1.904	1.885	1.885
0.005	0.010	0.000	0.005	-0.049	-0.005	0.039	2.676	1.885	1.885	1.885	1.904	1.880	1.885
-0.005	0.010	0.005	0.000	-0.049	-0.010	0.039	2.695	1.885	1.885	1.885	1.904	1.885	1.880
-0.005	0.005	0.005	0.000	-0.039	-0.005	0.039	2.700	1.890	1.885	1.885	1.904	1.895	1.885
-0.010	0.015	0.000	0.010	-0.049	0.010	0.039	2.700	1.890	1.885	1.885	1.904	1.895	1.895
-0.015	-0.005	0.005	-0.005	-0.024	0.015	0.039	2.681	1.880	1.880	1.880	1.899	1.899	1.895
-0.005	-0.005	0.005	-0.010	-0.034	0.000	0.039	2.666	1.880	1.880	1.880	1.899	1.895	1.890
0.000	0.005	0.000	-0.010	-0.068	0.024	0.039	2.700	1.890	1.885	1.880	1.899	1.885	1.895
0.000	-0.005	0.000	-0.010	-0.063	0.015	0.039	2.690	1.890	1.885	1.880	1.899	1.895	1.890
0.000	-0.005	0.005	-0.005	-0.054	0.010	0.039	2.666	1.885	1.885	1.885	1.899	1.895	1.890
0.005	0.010	-0.005	0.000	-0.054	0.000	0.039	2.666	1.885	1.890	1.880	1.904	1.899	1.890
0.000	-0.010	0.000	0.000	0.015	0.005	0.044	2.695	1.880	1.880	1.880	1.904	1.914	1.899
0.005	-0.005	0.000	0.005	0.073	0.015	0.039	2.671	1.885	1.885	1.880	1.904	1.924	1.909
0.000	0.000	0.000	0.005	0.024	0.020	0.039	2.700	1.885	1.885	1.880	1.904	1.899	1.904
0.005	0.005	0.000	0.005	0.015	0.015	0.044	2.705	1.890	1.885	1.880	1.899	1.904	1.904
0.010	-0.015	0.005	0.010	0.073	0.015	0.039	2.700	1.895	1.880	1.885	1.904	1.914	1.904
0.000	-0.020	0.005	0.020	0.039	-0.005	0.044	2.681	1.890	1.880	1.885	1.904	1.899	1.899
0.000	-0.005	0.005	0.024	-0.029	-0.005	0.039	2.671	1.890	1.890	1.880	1.904	1.885	1.890
0.000	0.005	0.005	0.020	-0.049	-0.029	0.039	2.681	1.885	1.890	1.885	1.899	1.880	1.880
-0.005	0.010	0.005	0.010	-0.039	-0.010	0.044	2.666	1.885	1.890	1.885	1.899	1.890	1.890
-0.005	0.024	0.010	-0.015	-0.005	-0.034	0.039	2.666	1.880	1.890	1.885	1.895	1.899	1.885
0.005	0.000	0.005	-0.029	0.029	0.015	0.039	2.661	1.880	1.880	1.885	1.895	1.909	1.909
0.000	-0.010	0.000	-0.024	0.059	0.029	0.039	2.642	1.875	1.875	1.880	1.899	1.914	1.909
-0.005	-0.010	0.005	-0.020	0.103	0.020	0.044	2.637	1.875	1.880	1.880	1.899	1.924	1.914
0.005	-0.005	0.000	-0.005	0.146	0.044	0.039	2.725	1.890	1.880	1.880	1.904	1.929	1.924
0.010	0.015	0.000	0.005	0.137	0.020	0.039	2.744	1.895	1.890	1.880	1.904	1.914	1.914
0.015	0.020	-0.005	0.010	0.098	-0.010	0.039	2.734	1.904	1.890	1.880	1.904	1.899	1.899
0.015	-0.010	0.000	0.010	0.029	-0.005	0.039	2.705	1.899	1.885	1.885	1.904	1.880	1.895
0.005	-0.024	-0.005	0.020	0.010	-0.015	0.039	2.646	1.890	1.880	1.880	1.904	1.880	1.890
0.005	-0.015	-0.005	0.020	-0.015	-0.020	0.039	2.739	1.890	1.885	1.880	1.899	1.875	1.880
0.000	-0.010	-0.005	0.010	-0.024	-0.029	0.039	2.666	1.885	1.885	1.880	1.895	1.875	1.880
0.005	0.005	0.000	-0.005	-0.078	-0.029	0.039	2.705	1.890	1.890	1.885	1.895	1.870	1.875
0.000	0.029	-0.005	0.010	-0.107	-0.034	0.044	2.666	1.880	1.895	1.885	1.899	1.870	1.870
0.005	0.020	0.005	0.020	-0.098	-0.024	0.039	2.744	1.895	1.890	1.890	1.904	1.880	1.875
0.000	0.024	0.010	0.029	-0.073	-0.020	0.039	2.720	1.890	1.890	1.890	1.909	1.890	1.880
-0.005	0.044	0.000	0.029	-0.039	0.000	0.039	2.617	1.880	1.895	1.895	1.909	1.909	1.895
-0.010	0.039	0.005	0.029	-0.024	0.005	0.039	2.676	1.880	1.885	1.890	1.909	1.909	1.899
-0.005	0.024	0.005	-0.005	-0.020	0.020	0.039	2.671	1.880	1.885	1.885	1.899	1.904	1.904
-0.015	0.029	0.005	-0.039	-0.020	0.020	0.039	2.676	1.875	1.880	1.880	1.890	1.904	1.904
-0.010	0.000	0.005	-0.068	-0.015	0.015	0.039	2.700	1.880	1.875	1.880	1.885	1.895	1.899
-0.010	-0.020	0.005	-0.059	-0.020	0.015	0.039	2.700	1.885	1.870	1.875	1.890	1.890	1.899
0.000	-0.020	0.005	-0.020	-0.015	0.005	0.044	2.686	1.885	1.875	1.875	1.904	1.895	1.895
0.010	-0.024	0.005	0.024	-0.005	0.000	0.039	2.700	1.890	1.875	1.880	1.914	1.899	1.899
0.005	-0.015	0.000	0.049	-0.005	0.015	0.044	2.676	1.890	1.880	1.875	1.914	1.904	1.899
0.010	-0.015	-0.010	0.049	-0.015	0.010	0.039	2.695	1.885	1.880	1.875	1.909	1.899	1.899
0.010	-0.029	-0.005	0.024	0.000	-0.015	0.039	2.705	1.890	1.880	1.875	1.895	1.904	1.890
0.010	-0.020	-0.005	-0.005	0.005	0.000	0.044	2.661	1.885	1.885	1.875	1.885	1.895	1.895
0.010	-0.005	0.000	-0.044	0.000	0.015	0.044	2.705	1.890	1.885	1.880	1.880	1.890	1.899
0.000	0.000	-0.005	-0.054	0.000	0.005	0.039	2.671	1.885	1.885	1.880	1.880	1.885	1.895
0.000	0.005	0.005	-0.044	-0.015	0.010	0.039	2.700	1.885	1.890	1.880	1.890	1.880	1.885
0.010	0.015	0.000	-0.034	-0.020	0.010	0.044	2.666	1.885	1.890	1.885	1.895	1.880	1.890
0.005	0.039	0.000	-0.005	0.000	0.010	0.044	2.700	1.885	1.890	1.890	1.909	1.895	1.890
0.005	0.020	0.010	0.024	-0.015	0.000	0.039	2.710	1.890	1.890	1.890	1.919	1.895	1.890
0.010	0.029	0.010	0.044	-0.005	-0.005	0.039	2.681	1.890	1.890	1.890	1.919	1.904	1.890
-0.010	0.020	0.005	0.054	0.015	-0.020	0.039	2.690	1.875	1.885	1.890	1.919	1.914	1.895
-0.010	0.024	0.010	0.039	0.029	0.015	0.039	2.676	1.880	1.885	1.885	1.914	1.914	1.909
-0.010	0.010	0.005	0.024	0.029	0.010	0.044	2.695	1.885	1.880	1.885	1.904	1.914	1.909
-0.005	0.000	0.000	0.005	0.034	0.020	0.039	2.671	1.885	1.875	1.880	1.899	1.909	1.909
0.000	-0.020	0.005	0.005	0.024	0.015	0.039	2.690	1.890	1.875	1.875	1.895	1.899	1.904
0.000	-0.020	0.005	0.020	0.034	0.015	0.039	2.642	1.885	1.875	1.875	1.899	1.904	1.904
0.010	-0.020	0.000	0.044	0.044	0.015	0.039	2.656	1.885	1.880	1.875	1.904	1.904	1.904
-0.005	-0.010	0.000	0.010	0.029	0.010	0.044	2.666	1.880	1.880	1.875	1.890	1.895	1.899
-0.005	0.000	-0.005	-0.010	0.015	-0.020	0.039	2.778	1.895	1.885	1.875	1.885	1.885	1.890
0.000	-0.005	0.000	-0.029	0.000	0.005	0.044	2.729	1.899	1.885	1.875	1.885	1.880	1.895
0.005	0.000	-0.005	-0.029	-0.005	0.015	0.044	2.632	1.890	1.890	1.880	1.885	1.880	1.890
-0.005	0.005	0.000	-0.024	-0.015	-0.005	0.044	2.725	1.895	1.890	1.885	1.890	1.875	1.880
-0.005	0.010	0.005	-0.020	-0.010	-0.010	0.039	2.622	1.880	1.890	1.890	1.895	1.885	1.880
-0.005	0.005	0.005	-0.010	0.000	0.005	0.039	2.744	1.890	1.890	1.885	1.899	1.890	1.885
0.005	0.010	0.005	0.000	0.005	0.005	0.039	2.676	1.890	1.890	1.890	1.904	1.895	1.890
0.005	0.000	0.005	0.000	-0.005	0.005	0.039	2.646	1.885	1.885	1.885	1.909	1.895	1.890
0.000	0.005	0.005	0.005	0.010	-0.005	0.039	2.695	1.885	1.885	1.885	1.909	1.899	1.890
-0.005	0.005	0.005	0.015	0.005	-0.005	0.039	2.754	1.885	1.885	1.885	1.909	1.904	1.895
-0.005	0.000	0.000	0.015	0.015	0.005	0.039	2.666	1.885	1.885	1.885	1.909	1.899	1.899
-0.005	0.005	0.005	0.024	0.015	0.005	0.039	2.651	1.885	1.885	1.885	1.909	1.904	1.899
0.005	0.005	0.000	0.024	0.005	-0.020	0.039	2.715	1.890	1.885	1.885	1.909	1.899	1.890
0.005	-0.015	0.005	0.015	0.000	0.005	0.039	2.725	1.890	1.880	1.880	1.904	1.899	1.904
0.010	-0.010	-0.005	0.010	0.005	0.005	0.044	2.690	1.890	1.885	1.880	1.899	1.899	1.899
0.005	-0.010	-0.005	-0.005	-0.005	0.015	0.044	2.671	1.890	1.885	1.880	1.895	1.895	1.899
0.005	-0.005	-0.005	-0.005	-0.010	0.020	0.044	2.656	1.885	1.885	1.880	1.895	1.895	1.899
0.005	-0.005	-0.005	0.005	0.000	0.000	0.039	2.700	1.885	1.885	1.885	1.904	1.895	1.895
0.010	-0.010	-0.005	0.029	0.000	-0.005	0.039	2.671	1.890	1.885	1.880	1.909	1.899	1.890
0.000	-0.010	0.000	0.000	0.005	-0.020	0.039	2.690	1.885	1.885	1.880	1.895	1.899	1.890
0.000	-0.005	0.000	-0.024	-0.005	-0.020	0.039	2.695	1.885	1.885	1.885	1.890	1.890	1.890
0.000	0.000	0.005	-0.049	0.005	-0.020	0.039	2.686	1.885	1.885	1.880	1.885	1.890	1.890
0.005	0.005	0.000	-0.059	0.005	-0.039	0.039	2.705	1.890	1.885	1.885	1.890	1.885	1.885
-0.005	0.010	0.005	-0.039	0.000	-0.010	0.039	2.700	1.890	1.890	1.885	1.899	1.890	1.890
0.010	0.015	0.005	-0.015	-0.015	-0.010	0.039	2.695	1.895	1.890	1.890	1.909	1.890	1.890
0.000	0.010	0.000	0.010	0.000	0.020	0.039	2.710	1.890	1.890	1.890	1.914	1.899	1.899
0.015	0.015	0.005	0.024	0.010	0.034	0.039	2.666	1.895	1.895	1.890	1.914	1.909	1.909
0.000	0.005	0.000	0.034	0.000	0.039	0.039	2.695	1.890	1.890	1.890	1.914	1.904	1.909
0.005	0.005	0.005	0.029	-0.005	0.029	0.039	2.710	1.895	1.890	1.890	1.914	1.904	1.904
0.005	-0.005	0.000	0.034	-0.020	0.010	0.039	2.681	1.895	1.890	1.885	1.909	1.904	1.899
0.005	-0.005	0.000	0.029	0.034	0.010	0.039	2.690	1.890	1.890	1.885	1.904	1.914	1.904
0.005	0.005	0.000	0.005	0.063	-0.015	0.039	2.705	1.899	1.890	1.890	1.904	1.919	1.899
0.010	-0.005	-0.005	0.005	0.068	-0.034	0.039	2.700	1.895	1.885	1.885	1.899	1.909	1.895
-0.005	-0.005	0.000	0.000	0.039	-0.044	0.039	2.676	1.885	1.885	1.885	1.899	1.899	1.895
-0.005	0.010	0.005	0.000	0.034	-0.039	0.044	2.710	1.890	1.895	1.885	1.904	1.895	1.895
-0.010	-0.005	0.000	0.000	0.005	-0.039	0.044	2.651	1.880	1.885	1.885	1.899	1.890	1.895
-0.005	0.015	-0.005	0.000	0.000	-0.029	0.039	2.686	1.885	1.885	1.885	1.899	1.890	1.895
-0.005	0.015	-0.010	0.000	-0.063	-0.034	0.044	2.671	1.880	1.885	1.885	1.899	1.875	1.890
-0.010	0.024	0.005	0.000	-0.142	-0.005	0.039	2.671	1.880	1.885	1.885	1.899	1.860	1.885
-0.015	0.020	0.005	0.000	-0.166	0.020	0.039	2.671	1.880	1.880	1.885	1.899	1.865	1.885
-0.005	0.010	0.000	-0.005	-0.073	0.020	0.039	2.646	1.880	1.880	1.885	1.904	1.899	1.885
0.005	-0.015	0.010	-0.005	0.005	0.029	0.039	2.646	1.880	1.875	1.880	1.904	1.919	1.904
0.005	-0.020	0.010	0.000	-0.024	0.010	0.039	2.734	1.890	1.875	1.875	1.899	1.899	1.899
0.010	-0.049	0.005	0.000	-0.044	0.005	0.039	2.734	1.895	1.875	1.875	1.899	1.899	1.899
0.010	-0.034	0.000	0.000	0.039	0.024	0.039	2.739	1.899	1.885	1.875	1.899	1.919	1.909
-0.005	-0.005	0.005	-0.005	0.103	0.015	0.039	2.651	1.890	1.890	1.880	1.899	1.929	1.909
0.010	0.000	0.000	-0.005	0.117	0.024	0.039	2.646	1.890	1.890	1.880	1.899	1.924	1.914
0.010	-0.054	0.005	-0.005	0.122	0.029	0.039	2.744	1.895	1.880	1.880	1.899	1.914	1.919
0.015	-0.015	0.000	0.000	0.073	0.015	0.039	2.661	1.895	1.895	1.880	1.899	1.899	1.914
0.000	0.020	-0.005	0.005	0.015	0.029	0.039	2.725	1.890	1.899	1.885	1.899	1.885	1.904
-0.015	0.063	0.000	0.000	-0.010	0.034	0.039	2.666	1.890	1.909	1.895	1.904	1.880	1.899
-0.015	0.054	0.000	0.000	-0.020	0.029	0.039	2.710	1.890	1.899	1.895	1.904	1.880	1.895
0.000	0.024	-0.010	-0.005	-0.020	0.015	0.044	2.744	1.895	1.885	1.890	1.904	1.885	1.885
-0.010	0.005	-0.005	0.000	-0.005	0.020	0.039	2.651	1.880	1.885	1.890	1.904	1.895	1.890
-0.005	0.015	0.000	0.005	0.010	0.020	0.039	2.666	1.885	1.885	1.885	1.909	1.899	1.895
-0.005	0.020	0.005	0.005	-0.005	0.000	0.044	2.676	1.890	1.885	1.885	1.904	1.895	1.890
-0.005	0.020	0.005	0.005	-0.015	-0.024	0.039	2.671	1.885	1.885	1.890	1.909	1.895	1.885
0.000	0.000	0.010	0.005	-0.020	-0.024	0.044	2.690	1.885	1.880	1.885	1.909	1.895	1.885
-0.005	-0.010	0.005	0.005	-0.039	-0.039	0.039	2.700	1.890	1.880	1.880	1.904	1.890	1.880
0.000	-0.024	0.010	0.005	-0.054	-0.029	0.039	2.681	1.890	1.875	1.880	1.904	1.890	1.885
0.000	-0.020	0.005	0.005	-0.039	-0.044	0.039	2.700	1.890	1.880	1.880	1.899	1.895	1.885
0.005	-0.024	0.005	0.000	-0.020	-0.059	0.039	2.705	1.895	1.885	1.880	1.899	1.899	1.885
0.015	-0.005	0.000	0.005	0.005	-0.078	0.039	2.700	1.895	1.890	1.880	1.904	1.904	1.890
0.010	0.020	0.000	0.005	-0.005	-0.039	0.039	2.671	1.890	1.895	1.885	1.904	1.899	1.899
0.005	0.024	-0.005	0.005	-0.044	0.000	0.039	2.666	1.885	1.890	1.885	1.904	1.890	1.909
0.010	0.015	-0.005	0.000	-0.063	0.015	0.039	2.695	1.890	1.890	1.885	1.899	1.885	1.904
-0.005	0.015	-0.005	0.000	-0.034	0.034	0.044	2.671	1.885	1.885	1.885	1.904	1.899	1.909
0.005	0.029	0.000	0.000	-0.005	0.059	0.039	2.700	1.890	1.890	1.890	1.904	1.904	1.914
0.005	0.015	-0.005	0.000	-0.005	0.063	0.044	2.666	1.890	1.885	1.885	1.904	1.904	1.914
0.005	0.029	-0.005	-0.005	0.112	0.049	0.044	2.695	1.890	1.890	1.885	1.904	1.938	1.919
-0.010	0.010	0.000	-0.005	0.146	0.044	0.039	2.671	1.885	1.880	1.885	1.904	1.934	1.924
-0.015	-0.010	-0.005	-0.005	0.122	0.034	0.039	2.686	1.890	1.875	1.880	1.904	1.919	1.919
0.000	-0.015	0.000	0.005	0.083	0.005	0.039	2.690	1.895	1.880	1.880	1.904	1.899	1.904
0.015	-0.010	0.005	0.000	0.015	0.010	0.039	2.666	1.895	1.890	1.880	1.899	1.880	1.899
0.005	-0.005	0.000	0.000	-0.010	0.000	0.039	2.676	1.895	1.890	1.885	1.899	1.880	1.890
-0.005	-0.010	0.000	0.010	-0.044	0.015	0.039	2.671	1.890	1.890	1.885	1.899	1.875	1.890
-0.010	-0.015	0.005	0.005	-0.039	0.000	0.039	2.686	1.890	1.890	1.885	1.904	1.880	1.880
0.000	-0.015	0.010	0.005	-0.029	-0.020	0.039	2.666	1.890	1.885	1.885	1.904	1.890	1.880
-0.005	-0.024	0.000	0.005	-0.020	-0.005	0.039	2.656	1.880	1.880	1.885	1.899	1.895	1.885
0.000	-0.010	0.000	0.000	-0.015	-0.005	0.039	2.661	1.885	1.885	1.880	1.904	1.895	1.890
0.005	-0.029	0.000	0.000	0.000	-0.005	0.044	2.642	1.880	1.880	1.880	1.899	1.899	1.890
0.005	-0.015	-0.005	-0.005	-0.020	-0.005	0.039	2.627	1.875	1.880	1.880	1.899	1.890	1.890
0.010	-0.010	-0.005	-0.005	-0.024	0.000	0.039	2.646	1.875	1.880	1.875	1.899	1.890	1.895
0.005	0.029	-0.005	-0.005	-0.015	-0.010	0.039	2.661	1.890	1.890	1.880	1.899	1.895	1.890
0.005	0.010	-0.005	0.005	-0.010	-0.005	0.039	2.754	1.895	1.885	1.880	1.899	1.895	1.895
0.005	0.000	-0.005	0.000	-0.005	0.000	0.039	2.651	1.880	1.880	1.885	1.899	1.899	1.895
0.010	0.000	-0.005	0.005	0.005	-0.020	0.039	2.646	1.885	1.880	1.880	1.899	1.899	1.895
0.000	-0.015	0.000	0.005	-0.015	-0.005	0.039	2.646	1.880	1.875	1.875	1.899	1.890	1.895
-0.005	0.015	0.010	0.005	-0.015	0.000	0.039	2.676	1.885	1.890	1.885	1.899	1.895	1.895
0.015	0.010	0.005	0.000	0.005	-0.010	0.039	2.739	1.890	1.885	1.880	1.899	1.899	1.895
0.000	-0.005	0.000	0.005	0.034	-0.010	0.039	2.695	1.890	1.880	1.880	1.904	1.904	1.895
0.005	-0.005	0.010	0.000	0.034	-0.015	0.039	2.646	1.890	1.885	1.880	1.899	1.904	1.899
0.005	-0.015	0.010	0.000	0.010	-0.010	0.039	2.715	1.890	1.885	1.885	1.899	1.895	1.895
0.020	-0.005	0.010	0.000	-0.015	0.010	0.039	2.651	1.890	1.885	1.885	1.899	1.890	1.899
0.005	0.005	0.000	0.000	0.015	0.015	0.044	2.666	1.885	1.890	1.885	1.899	1.904	1.904
0.005	-0.010	0.005	0.010	0.015	0.020	0.039	2.705	1.890	1.885	1.880	1.904	1.899	1.904
-0.005	0.005	0.005	0.000	0.000	0.010	0.039	2.671	1.885	1.890	1.885	1.904	1.895	1.895
0.005	0.010	0.000	0.000	0.005	0.015	0.039	2.676	1.885	1.885	1.880	1.899	1.895	1.895
0.000	0.000	0.000	0.000	-0.005	0.000	0.039	2.700	1.885	1.880	1.880	1.899	1.890	1.895
0.005	0.015	0.000	0.005	-0.005	0.000	0.039	2.700	1.895	1.890	1.880	1.899	1.890	1.890
0.005	0.005	0.000	-0.005	0.005	0.005	0.044	2.700	1.890	1.885	1.880	1.899	1.895	1.895
0.015	-0.005	-0.005	0.000	-0.005	-0.010	0.039	2.695	1.890	1.885	1.880	1.899	1.890	1.890
0.010	0.020	0.000	-0.005	0.000	0.000	0.039	2.700	1.890	1.890	1.885	1.899	1.895	1.890
0.000	0.029	0.000	-0.010	0.010	-0.010	0.044	2.710	1.890	1.890	1.885	1.899	1.895	1.890
0.005	0.034	-0.005	-0.010	0.005	0.000	0.039	2.700	1.890	1.895	1.890	1.899	1.895	1.895
-0.005	0.015	0.000	-0.010	-0.010	0.000	0.039	2.700	1.890	1.885	1.890	1.904	1.890	1.895
0.000	0.039	0.005	0.005	-0.010	-0.005	0.039	2.690	1.890	1.895	1.890	1.909	1.895	1.895
0.000	0.020	0.010	0.020	-0.020	-0.020	0.039	2.705	1.890	1.885	1.890	1.914	1.895	1.890
-0.010	0.020	0.000	0.020	-0.005	0.005	0.039	2.700	1.890	1.885	1.890	1.909	1.904	1.904
-0.010	-0.005	0.005	0.015	-0.015	-0.010	0.039	2.695	1.885	1.880	1.885	1.909	1.899	1.895
-0.015	-0.010	0.000	0.010	-0.010	0.010	0.039	2.700	1.890	1.880	1.880	1.904	1.899	1.904
-0.005	-0.034	0.000	0.000	-0.010	0.005	0.039	2.695	1.890	1.875	1.880	1.899	1.899	1.899
0.010	-0.068	0.005	0.005	-0.024	0.010	0.039	2.700	1.895	1.875	1.875	1.899	1.895	1.904
0.020	-0.039	0.005	0.005	0.005	0.015	0.039	2.666	1.895	1.885	1.880	1.899	1.904	1.904
0.020	0.059	0.000	0.005	0.063	0.005	0.039	2.661	1.895	1.914	1.885	1.899	1.914	1.904
0.024	-0.005	-0.005	0.005	0.068	0.000	0.039	2.671	1.890	1.885	1.885	1.899	1.909	1.904
0.010	-0.024	-0.005	0.000	0.049	0.005	0.039	2.695	1.885	1.885	1.880	1.899	1.899	1.904
0.015	-0.029	-0.005	-0.010	0.015	0.005	0.039	2.666	1.885	1.880	1.880	1.895	1.890	1.899
0.010	0.005	0.000	-0.010	0.005	0.000	0.039	2.651	1.880	1.895	1.890	1.895	1.890	1.895
0.000	0.005	0.005	-0.010	0.020	0.005	0.039	2.661	1.880	1.885	1.890	1.899	1.895	1.895
-0.005	-0.005	0.005	-0.005	0.000	0.000	0.039	2.637	1.875	1.885	1.885	1.904	1.890	1.890
0.005	0.015	0.000	0.000	-0.020	0.010	0.044	2.632	1.875	1.880	1.880	1.904	1.890	1.890
-0.005	0.015	0.005	-0.010	-0.010	-0.005	0.039	2.734	1.875	1.880	1.880	1.904	1.890	1.890
0.000	-0.020	0.010	0.000	-0.015	0.000	0.039	2.739	1.890	1.875	1.880	1.899	1.895	1.890
-0.005	0.000	0.005	-0.005	-0.044	0.005	0.044	2.725	1.895	1.885	1.880	1.899	1.885	1.890
0.005	0.020	0.005	0.005	-0.088	0.000	0.044	2.622	1.885	1.890	1.880	1.904	1.880	1.885
0.005	-0.010	0.010	0.020	-0.122	0.000	0.039	2.676	1.885	1.880	1.880	1.904	1.875	1.885
-0.015	0.034	0.005	0.010	-0.088	-0.005	0.039	2.749	1.890	1.890	1.885	1.899	1.890	1.885
-0.015	0.005	0.000	0.000	-0.039	-0.005	0.039	2.695	1.890	1.880	1.880	1.899	1.904	1.885
0.000	0.015	0.005	0.000	-0.005	-0.015	0.039	2.739	1.895	1.890	1.885	1.899	1.909	1.895
0.005	0.005	0.000	0.000	0.010	-0.010	0.039	2.681	1.895	1.885	1.885	1.899	1.909	1.899
0.010	0.010	-0.010	-0.010	0.000	0.015	0.039	2.729	1.899	1.890	1.880	1.895	1.904	1.909
0.010	0.010	-0.010	-0.015	0.010	0.010	0.044	2.715	1.904	1.890	1.885	1.899	1.904	1.904
-0.005	0.015	-0.005	0.000	0.029	-0.024	0.039	2.617	1.885	1.895	1.885	1.904	1.904	1.895
0.005	0.020	0.000	0.010	0.024	0.005	0.039	2.666	1.885	1.890	1.890	1.904	1.904	1.904
0.005	0.000	-0.005	0.000	0.005	-0.010	0.039	2.666	1.885	1.880	1.885	1.904	1.895	1.895
-0.015	-0.020	0.000	0.000	-0.039	0.000	0.044	2.676	1.880	1.875	1.880	1.899	1.885	1.895
0.000	-0.015	0.000	0.010	-0.063	-0.005	0.039	2.666	1.880	1.880	1.880	1.899	1.880	1.890
-0.005	-0.020	0.000	0.010	-0.034	-0.005	0.039	2.705	1.885	1.875	1.880	1.904	1.895	1.890
-0.005	-0.010	0.005	0.000	-0.010	0.020	0.044	2.676	1.885	1.880	1.880	1.899	1.904	1.904
0.000	-0.029	0.010	-0.005	0.024	0.034	0.039	2.700	1.885	1.880	1.880	1.899	1.909	1.909
-0.005	0.015	0.005	-0.010	0.063	0.010	0.039	2.700	1.890	1.895	1.885	1.899	1.919	1.909
-0.005	0.010	0.000	-0.005	0.107	0.005	0.039	2.681	1.890	1.890	1.885	1.899	1.924	1.909
-0.005	0.000	0.010	0.000	0.132	-0.010	0.039	2.666	1.890	1.890	1.885	1.904	1.924	1.909
-0.010	0.054	0.005	0.005	0.132	-0.029	0.039	2.671	1.890	1.899	1.890	1.909	1.914	1.904
0.005	-0.010	0.010	0.005	0.117	-0.015	0.044	2.710	1.895	1.880	1.885	1.909	1.909	1.909
0.005	-0.015	-0.005	0.010	0.093	-0.015	0.044	2.690	1.895	1.885	1.880	1.904	1.904	1.904
0.010	-0.024	-0.010	0.005	0.127	-0.010	0.039	2.690	1.895	1.880	1.880	1.904	1.909	1.909
0.000	0.010	0.000	0.005	0.107	-0.029	0.039	2.671	1.895	1.899	1.885	1.904	1.899	1.899
0.015	0.039	-0.005	0.010	0.132	-0.010	0.044	2.700	1.899	1.904	1.890	1.904	1.909	1.909
0.020	-0.010	-0.005	0.000	0.098	-0.005	0.039	2.700	1.895	1.880	1.885	1.899	1.895	1.904
0.000	-0.034	0.000	0.000	0.054	-0.015	0.039	2.671	1.890	1.880	1.885	1.899	1.885	1.895
-0.005	-0.010	0.000	0.005	-0.010	0.029	0.039	2.705	1.890	1.890	1.885	1.899	1.870	1.899
-0.015	0.005	0.005	0.000	-0.063	0.029	0.039	2.671	1.885	1.890	1.885	1.899	1.870	1.890
0.000	-0.005	0.005	0.000	-0.073	0.034	0.044	2.686	1.890	1.885	1.885	1.899	1.870	1.885
-0.005	0.029	0.005	0.000	-0.078	0.034	0.039	2.676	1.890	1.895	1.890	1.904	1.875	1.880
-0.010	0.093	0.005	0.000	-0.083	0.029	0.039	2.695	1.895	1.914	1.890	1.904	1.880	1.880
-0.010	0.073	0.005	0.000	-0.088	0.015	0.039	2.681	1.885	1.899	1.895	1.909	1.885	1.875
0.000	-0.010	0.005	-0.005	-0.093	0.024	0.039	2.803	1.885	1.870	1.890	1.904	1.890	1.880
0.010	-0.024	0.010	-0.010	-0.107	0.005	0.039	2.681	1.890	1.870	1.880	1.904	1.885	1.880
0.005	-0.020	0.005	-0.005	-0.073	0.020	0.039	2.642	1.880	1.875	1.880	1.904	1.899	1.890
-0.010	-0.010	0.005	-0.010	-0.073	0.010	0.044	2.720	1.875	1.875	1.875	1.899	1.899	1.890
-0.010	-0.010	0.010	-0.005	-0.078	-0.015	0.044	2.637	1.875	1.875	1.880	1.899	1.895	1.885
0.005	-0.020	0.005	0.000	-0.049	-0.015	0.039	2.642	1.875	1.875	1.875	1.904	1.904	1.890
-0.005	-0.005	0.000	0.015	-0.020	-0.024	0.039	2.695	1.880	1.875	1.875	1.904	1.909	1.895
0.005	-0.005	-0.005	0.020	-0.010	-0.024	0.039	2.661	1.880	1.880	1.875	1.904	1.909	1.895
0.005	-0.024	-0.005	0.015	-0.005	-0.049	0.039	2.676	1.880	1.870	1.875	1.899	1.904	1.895
0.005	-0.015	-0.010	0.010	-0.024	-0.010	0.039	2.661	1.890	1.880	1.870	1.890	1.895	1.904
0.015	-0.005	-0.005	0.015	-0.068	0.020	0.039	2.681	1.890	1.885	1.875	1.895	1.885	1.904
0.010	-0.015	0.000	0.010	-0.020	0.020	0.039	2.720	1.890	1.880	1.880	1.890	1.899	1.904
0.010	0.000	0.005	0.005	0.039	0.024	0.039	2.710	1.895	1.890	1.880	1.895	1.909	1.904
0.000	0.049	0.005	0.000	0.093	0.005	0.039	2.627	1.890	1.904	1.885	1.899	1.924	1.909
0.015	0.054	0.000	0.005	0.122	0.010	0.044	2.744	1.899	1.904	1.890	1.904	1.924	1.914
-0.020	0.024	0.005	0.000	0.107	-0.020	0.044	2.715	1.895	1.890	1.890	1.904	1.909	1.904
-0.015	0.000	0.005	0.000	0.073	-0.010	0.039	2.671	1.895	1.880	1.890	1.904	1.899	1.904
-0.005	-0.005	0.010	0.000	0.029	-0.010	0.044	2.705	1.895	1.885	1.885	1.904	1.885	1.899
-0.010	0.020	0.010	-0.005	-0.015	-0.010	0.039	2.671	1.895	1.895	1.890	1.904	1.880	1.895
-0.015	-0.005	0.010	-0.005	0.000	-0.010	0.044	2.700	1.890	1.885	1.885	1.904	1.890	1.890
-0.015	-0.005	0.005	-0.005	0.039	-0.005	0.039	2.695	1.890	1.885	1.885	1.904	1.904	1.899
-0.005	-0.015	0.005	0.000	0.083	0.024	0.039	2.661	1.890	1.885	1.885	1.904	1.919	1.909
-0.010	-0.024	0.000	0.000	0.068	0.029	0.039	2.705	1.890	1.885	1.880	1.899	1.904	1.909
0.005	-0.020	0.000	-0.005	-0.024	0.010	0.039	2.666	1.895	1.885	1.880	1.899	1.875	1.895
-0.005	0.000	0.000	-0.010	-0.063	0.015	0.039	2.695	1.895	1.895	1.885	1.899	1.875	1.885
0.005	-0.005	-0.005	-0.005	-0.049	0.000	0.039	2.686	1.895	1.890	1.885	1.899	1.880	1.880
0.005	-0.005	-0.005	-0.005	-0.044	0.000	0.039	2.700	1.890	1.885	1.885	1.899	1.885	1.885
0.015	-0.020	0.000	-0.005	-0.054	0.015	0.039	2.700	1.895	1.885	1.885	1.904	1.885	1.890
0.015	-0.020	0.000	0.005	-0.063	0.010	0.039	2.671	1.885	1.885	1.880	1.904	1.885	1.885
0.020	-0.005	-0.005	0.005	-0.068	0.015	0.039	2.676	1.885	1.885	1.885	1.904	1.890	1.890
0.005	-0.020	0.000	0.005	-0.063	0.015	0.044	2.700	1.885	1.885	1.885	1.904	1.890	1.890
-0.005	-0.010	0.005	0.015	-0.063	-0.005	0.044	2.695	1.885	1.885	1.885	1.904	1.899	1.890
-0.010	0.010	0.010	0.010	-0.044	0.010	0.044	2.705	1.885	1.890	1.885	1.904	1.904	1.895
-0.010	0.015	0.010	0.005	-0.024	0.015	0.044	2.676	1.890	1.890	1.890	1.904	1.909	1.899
0.000	0.010	0.010	0.000	-0.034	0.010	0.044	2.671	1.895	1.890	1.885	1.904	1.899	1.899
-0.005	0.015	0.010	-0.005	-0.078	0.010	0.039	2.700	1.890	1.895	1.890	1.904	1.890	1.895
0.000	0.054	0.010	-0.005	-0.103	-0.005	0.044	2.676	1.895	1.904	1.890	1.904	1.885	1.890
0.015	-0.024	0.010	0.000	-0.088	-0.005	0.039	2.656	1.890	1.875	1.885	1.904	1.890	1.890
0.020	-0.098	0.005	0.005	-0.068	-0.024	0.044	2.686	1.890	1.860	1.875	1.904	1.899	1.885
0.020	-0.049	0.000	0.005	-0.068	-0.010	0.039	2.666	1.885	1.880	1.880	1.899	1.899	1.890
0.015	0.010	-0.005	-0.005	-0.083	-0.015	0.039	2.661	1.880	1.895	1.880	1.899	1.890	1.890
0.020	0.039	-0.005	0.000	-0.068	-0.034	0.039	2.656	1.880	1.899	1.885	1.899	1.899	1.890
0.020	0.010	-0.015	0.005	-0.039	-0.029	0.039	2.622	1.875	1.885	1.880	1.899	1.909	1.895
0.024	0.000	-0.010	0.000	0.005	-0.005	0.039	2.637	1.875	1.875	1.880	1.899	1.914	1.909
0.015	0.000	-0.010	0.010	0.039	0.010	0.039	2.632	1.870	1.875	1.880	1.904	1.919	1.914
0.005	0.000	-0.005	0.000	0.078	0.024	0.039	2.646	1.870	1.875	1.880	1.899	1.924	1.924
-0.005	0.010	0.000	0.005	0.093	0.024	0.039	2.725	1.880	1.880	1.880	1.904	1.924	1.924
-0.015	0.020	0.005	0.020	0.088	0.015	0.039	2.720	1.890	1.880	1.880	1.904	1.914	1.919
-0.015	0.024	0.000	0.024	0.093	0.015	0.039	2.642	1.885	1.885	1.880	1.904	1.914	1.914
-0.024	0.049	0.000	0.010	0.093	0.010	0.039	2.642	1.880	1.890	1.880	1.904	1.909	1.914
-0.034	0.039	0.000	0.010	0.093	0.005	0.044	2.700	1.885	1.885	1.885	1.899	1.904	1.909
-0.034	0.024	0.005	0.005	0.093	-0.020	0.039	2.749	1.895	1.880	1.885	1.899	1.899	1.899
0.000	0.015	0.005	0.005	0.073	0.000	0.039	2.661	1.899	1.885	1.885	1.899	1.895	1.904
0.000	0.020	0.000	0.005	0.063	0.000	0.039	2.705	1.899	1.890	1.885	1.899	1.895	1.899
-0.005	0.024	0.000	0.000	0.059	0.000	0.039	2.705	1.899	1.895	1.885	1.899	1.890	1.899
0.015	-0.010	0.005	0.010	0.063	0.000	0.044	2.607	1.890	1.880	1.885	1.899	1.895	1.895
0.024	-0.029	0.005	0.015	0.059	-0.010	0.044	2.661	1.890	1.880	1.885	1.904	1.895	1.895
0.029	-0.044	0.000	0.015	0.059	0.005	0.039	2.676	1.890	1.875	1.880	1.899	1.895	1.895
0.029	-0.029	0.000	0.000	0.034	-0.005	0.039	2.671	1.890	1.885	1.875	1.895	1.885	1.890
0.015	-0.024	-0.010	0.000	0.000	-0.005	0.039	2.690	1.885	1.885	1.875	1.895	1.875	1.885
0.010	-0.020	-0.010	0.000	0.000	0.005	0.039	2.700	1.890	1.885	1.880	1.895	1.880	1.885
0.015	-0.005	0.005	-0.005	-0.010	0.005	0.039	2.681	1.890	1.890	1.885	1.895	1.880	1.885
0.010	0.000	0.000	-0.005	-0.010	-0.005	0.039	2.695	1.885	1.895	1.885	1.895	1.885	1.880
0.010	0.034	0.000	0.000	0.005	-0.020	0.039	2.700	1.885	1.899	1.890	1.899	1.895	1.880
0.015	0.005	-0.005	0.000	0.024	-0.005	0.039	2.700	1.890	1.890	1.890	1.904	1.899	1.890
0.010	0.039	0.010	-0.010	0.034	0.000	0.044	2.681	1.890	1.899	1.895	1.904	1.904	1.895
0.005	0.073	0.015	-0.010	0.044	-0.034	0.039	2.671	1.890	1.904	1.899	1.904	1.904	1.890
0.005	0.005	0.010	-0.005	0.039	-0.005	0.039	2.705	1.885	1.875	1.890	1.909	1.904	1.899
0.000	-0.024	0.015	0.000	0.000	-0.010	0.044	2.671	1.885	1.875	1.885	1.909	1.895	1.895
-0.005	-0.005	0.005	0.000	0.005	-0.005	0.039	2.681	1.885	1.880	1.880	1.904	1.899	1.895
-0.010	0.000	0.005	-0.005	0.020	-0.015	0.044	2.681	1.885	1.880	1.880	1.904	1.899	1.895
-0.005	-0.010	-0.005	-0.010	0.034	-0.005	0.039	2.700	1.885	1.880	1.875	1.899	1.904	1.899
0.000	-0.005	-0.010	-0.015	0.083	0.010	0.039	2.671	1.885	1.880	1.875	1.895	1.914	1.909
-0.010	0.000	-0.010	0.000	0.098	0.039	0.039	2.661	1.880	1.880	1.880	1.899	1.914	1.919
-0.029	0.000	-0.010	0.015	0.059	0.029	0.044	2.690	1.880	1.885	1.875	1.904	1.899	1.909
-0.029	0.005	-0.005	0.029	0.049	0.024	0.044	2.700	1.885	1.880	1.880	1.904	1.895	1.904
-0.010	-0.005	-0.010	0.029	0.049	0.024	0.044	2.700	1.895	1.880	1.880	1.904	1.899	1.904
0.005	-0.005	-0.005	0.034	0.093	0.010	0.044	2.671	1.895	1.885	1.880	1.904	1.909	1.899
-0.005	0.010	0.005	0.015	0.063	0.005	0.039	2.695	1.895	1.890	1.885	1.899	1.895	1.899
-0.015	0.000	0.000	-0.005	0.015	-0.015	0.039	2.646	1.885	1.885	1.885	1.895	1.880	1.885
-0.015	0.000	0.000	-0.020	-0.015	0.010	0.039	2.661	1.885	1.885	1.880	1.890	1.875	1.885
-0.005	0.005	0.005	-0.005	-0.015	0.000	0.039	2.676	1.885	1.885	1.885	1.895	1.880	1.885
-0.005	0.005	0.015	-0.010	-0.005	0.000	0.039	2.773	1.895	1.890	1.885	1.899	1.885	1.885
0.010	0.005	0.015	-0.005	-0.029	0.005	0.039	2.729	1.899	1.890	1.885	1.899	1.885	1.880
-0.005	0.010	0.010	-0.005	-0.039	0.000	0.039	2.729	1.899	1.895	1.890	1.904	1.885	1.885
-0.005	0.015	0.005	0.010	-0.029	0.000	0.039	2.715	1.890	1.895	1.890	1.909	1.890	1.890
-0.020	0.010	0.010	0.005	-0.020	0.044	0.044	2.627	1.880	1.890	1.890	1.909	1.899	1.899
-0.015	0.010	0.005	-0.005	-0.024	0.039	0.039	2.725	1.885	1.885	1.885	1.904	1.895	1.899
-0.005	0.005	-0.005	0.010	-0.039	0.020	0.039	2.671	1.885	1.885	1.885	1.904	1.895	1.895
0.010	-0.020	0.000	0.010	-0.029	0.000	0.039	2.734	1.895	1.880	1.880	1.904	1.899	1.890
0.010	-0.034	-0.005	0.005	-0.010	-0.024	0.044	2.661	1.890	1.875	1.875	1.899	1.899	1.885
0.015	-0.049	0.000	0.000	-0.024	-0.029	0.039	2.715	1.890	1.880	1.880	1.899	1.895	1.885
0.020	-0.015	-0.005	0.000	-0.049	-0.039	0.044	2.666	1.890	1.890	1.880	1.895	1.885	1.885
0.020	0.005	0.000	-0.010	-0.029	-0.015	0.039	2.710	1.895	1.895	1.880	1.895	1.895	1.895
0.000	-0.005	0.005	-0.015	-0.020	-0.034	0.039	2.710	1.885	1.890	1.885	1.895	1.895	1.885
0.005	0.010	0.010	-0.005	-0.010	-0.073	0.039	2.642	1.885	1.895	1.890	1.904	1.899	1.880
-0.005	0.049	0.010	0.005	-0.005	-0.039	0.039	2.671	1.880	1.899	1.890	1.909	1.904	1.895
-0.029	0.029	0.000	0.000	-0.005	-0.044	0.039	2.676	1.870	1.885	1.890	1.904	1.899	1.895
-0.034	0.020	-0.005	0.005	0.005	-0.010	0.039	2.671	1.875	1.880	1.885	1.904	1.904	1.904
-0.024	-0.005	0.005	0.005	0.010	-0.020	0.039	2.690	1.880	1.875	1.880	1.904	1.904	1.904
-0.015	-0.010	0.005	0.005	-0.015	0.020	0.039	2.671	1.885	1.875	1.880	1.904	1.899	1.914
0.000	-0.005	0.005	0.005	-0.020	0.015	0.039	2.700	1.895	1.880	1.880	1.904	1.895	1.904
0.024	-0.029	-0.005	0.005	0.015	0.000	0.039	2.700	1.899	1.880	1.875	1.899	1.904	1.904
0.024	0.049	0.000	-0.005	0.049	0.000	0.044	2.695	1.899	1.909	1.890	1.899	1.914	1.909
0.015	0.005	0.000	0.000	0.049	0.015	0.039	2.686	1.895	1.890	1.885	1.899	1.909	1.914
0.015	-0.029	-0.005	0.000	0.044	0.024	0.039	2.666	1.890	1.880	1.880	1.899	1.904	1.914
-0.005	0.010	-0.010	0.005	0.054	0.034	0.039	2.700	1.890	1.895	1.885	1.899	1.904	1.909
0.005	0.015	-0.005	0.010	0.034	0.020	0.039	2.690	1.890	1.890	1.890	1.904	1.895	1.904
0.010	-0.020	0.000	-0.005	-0.005	0.034	0.039	2.695	1.890	1.880	1.885	1.899	1.885	1.899
0.010	0.024	0.000	-0.010	-0.010	0.024	0.039	2.671	1.890	1.895	1.885	1.895	1.890	1.895
0.010	-0.068	0.000	-0.010	-0.034	0.005	0.039	2.695	1.885	1.870	1.880	1.895	1.880	1.885
0.020	-0.078	0.000	-0.010	-0.049	0.010	0.039	2.676	1.890	1.870	1.875	1.895	1.880	1.885
0.024	-0.083	0.005	0.000	-0.059	0.005	0.039	2.700	1.890	1.875	1.875	1.899	1.880	1.880
0.015	-0.044	0.000	0.010	-0.063	-0.005	0.039	2.705	1.890	1.890	1.880	1.904	1.885	1.880
0.020	-0.034	0.000	0.010	-0.059	-0.005	0.039	2.671	1.890	1.890	1.880	1.899	1.890	1.880
0.005	0.132	0.010	0.005	-0.044	-0.005	0.039	2.686	1.890	1.943	1.904	1.904	1.899	1.885
0.000	0.127	0.015	0.010	-0.034	0.000	0.039	2.671	1.885	1.914	1.904	1.909	1.899	1.890
-0.020	-0.005	0.015	0.005	-0.029	-0.024	0.039	2.671	1.870	1.870	1.895	1.909	1.904	1.890
-0.020	-0.034	0.010	0.000	-0.020	-0.029	0.039	2.686	1.880	1.865	1.880	1.909	1.904	1.895
-0.005	-0.005	0.000	0.000	-0.020	0.015	0.044	2.656	1.885	1.875	1.880	1.904	1.904	1.909
-0.015	-0.015	-0.010	-0.005	-0.015	0.020	0.044	2.671	1.875	1.870	1.870	1.899	1.904	1.909
-0.005	0.005	-0.010	-0.005	-0.020	0.015	0.039	2.661	1.880	1.880	1.875	1.895	1.899	1.904
0.000	0.010	-0.010	0.010	-0.020	-0.020	0.039	2.646	1.880	1.880	1.875	1.899	1.895	1.895
0.005	0.024	-0.005	0.005	-0.024	0.005	0.039	2.651	1.880	1.885	1.880	1.899	1.895	1.899
0.029	-0.010	0.000	0.000	-0.029	0.005	0.044	2.681	1.895	1.875	1.875	1.895	1.895	1.895
0.039	-0.029	0.000	-0.005	-0.029	-0.005	0.039	2.754	1.899	1.875	1.875	1.895	1.890	1.890
0.034	-0.029	0.005	-0.005	-0.034	-0.010	0.039	2.754	1.904	1.885	1.880	1.895	1.890	1.890
0.029	0.010	0.000	0.005	-0.020	-0.010	0.039	2.710	1.899	1.899	1.885	1.899	1.895	1.895
0.024	0.029	0.005	0.005	-0.020	-0.020	0.039	2.651	1.890	1.899	1.890	1.904	1.895	1.890
-0.020	0.059	0.005	0.020	-0.024	-0.024	0.039	2.744	1.880	1.899	1.890	1.904	1.895	1.890
-0.049	0.073	0.010	0.015	-0.020	-0.010	0.039	2.700	1.880	1.904	1.895	1.909	1.899	1.895
-0.029	0.044	0.010	0.010	-0.020	-0.005	0.039	2.754	1.899	1.890	1.890	1.909	1.899	1.895
-0.010	0.010	0.010	0.015	-0.020	0.005	0.039	2.695	1.895	1.880	1.890	1.909	1.904	1.904
-0.005	0.000	0.010	0.015	-0.020	0.015	0.039	2.627	1.890	1.880	1.885	1.909	1.904	1.904
-0.005	-0.005	0.000	0.005	-0.024	0.005	0.044	2.739	1.895	1.885	1.880	1.899	1.899	1.899
-0.005	-0.020	-0.005	-0.005	-0.020	-0.010	0.044	2.622	1.890	1.880	1.880	1.899	1.899	1.899
-0.005	-0.010	-0.005	-0.005	-0.015	0.015	0.039	2.671	1.885	1.885	1.880	1.899	1.899	1.904
-0.005	-0.020	0.000	-0.005	-0.010	0.020	0.044	2.686	1.890	1.880	1.880	1.904	1.899	1.904
0.000	-0.029	0.000	0.005	-0.015	0.015	0.044	2.676	1.890	1.880	1.880	1.899	1.899	1.899
0.000	-0.029	0.000	0.000	-0.015	0.005	0.039	2.700	1.890	1.880	1.880	1.899	1.895	1.895
0.000	0.000	-0.005	-0.005	-0.015	0.010	0.039	2.700	1.890	1.890	1.880	1.899	1.895	1.895
0.005	0.010	-0.005	0.000	-0.015	-0.005	0.039	2.681	1.890	1.895	1.885	1.899	1.895	1.895
0.005	0.005	0.000	-0.005	-0.015	0.005	0.039	2.705	1.895	1.890	1.885	1.899	1.895	1.895
0.010	0.029	-0.005	-0.005	-0.010	0.015	0.039	2.705	1.895	1.899	1.890	1.899	1.895	1.899
0.020	-0.005	0.005	0.000	-0.010	0.000	0.039	2.700	1.890	1.885	1.890	1.904	1.895	1.895
0.015	0.000	0.005	0.000	-0.010	0.000	0.039	2.666	1.885	1.885	1.890	1.904	1.895	1.895
0.020	-0.059	-0.005	-0.005	-0.010	0.015	0.044	2.695	1.890	1.870	1.880	1.899	1.899	1.899
0.015	-0.044	0.000	-0.010	-0.015	0.005	0.039	2.695	1.890	1.880	1.880	1.899	1.895	1.895
0.010	-0.024	0.005	-0.015	-0.010	0.010	0.044	2.705	1.890	1.890	1.885	1.899	1.895	1.895
0.020	0.005	0.010	-0.005	-0.005	0.000	0.044	2.695	1.895	1.899	1.890	1.904	1.899	1.895
0.005	-0.015	0.000	0.010	-0.010	0.000	0.039	2.676	1.890	1.885	1.885	1.909	1.895	1.895
-0.005	0.005	0.010	-0.005	-0.015	-0.010	0.039	2.695	1.890	1.895	1.890	1.904	1.899	1.890
-0.005	0.049	0.010	-0.010	-0.005	-0.010	0.039	2.676	1.890	1.909	1.895	1.904	1.899	1.895
-0.005	0.015	0.000	-0.020	-0.005	-0.015	0.044	2.671	1.885	1.890	1.890	1.904	1.899	1.895
-0.005	-0.005	0.005	-0.005	-0.005	-0.005	0.044	2.666	1.885	1.880	1.890	1.909	1.904	1.899
0.000	0.010	-0.005	0.020	-0.005	-0.015	0.044	2.676	1.885	1.885	1.885	1.914	1.904	1.895
0.005	0.000	0.000	0.020	0.000	-0.024	0.039	2.676	1.885	1.880	1.885	1.909	1.909	1.899
0.005	-0.005	0.000	0.010	0.005	-0.005	0.039	2.676	1.880	1.880	1.885	1.904	1.904	1.904
-0.005	0.000	0.000	0.005	-0.005	-0.005	0.039	2.690	1.880	1.880	1.880	1.904	1.899	1.904
-0.010	0.005	0.000	0.005	0.000	0.005	0.039	2.651	1.880	1.880	1.880	1.899	1.899	1.904
-0.010	0.015	-0.005	0.015	0.005	0.015	0.039	2.671	1.880	1.880	1.880	1.904	1.899	1.904
0.000	0.034	0.005	0.024	0.005	0.000	0.039	2.666	1.885	1.890	1.885	1.909	1.904	1.899
-0.005	0.020	0.000	0.015	0.010	-0.005	0.044	2.646	1.880	1.880	1.880	1.899	1.899	1.899
0.000	0.000	0.005	0.010	0.024	0.020	0.044	2.627	1.880	1.875	1.880	1.899	1.904	1.909
0.000	-0.010	0.005	0.000	0.049	0.015	0.039	2.720	1.885	1.875	1.875	1.895	1.909	1.909
0.000	-0.005	0.000	-0.005	0.039	0.010	0.039	2.734	1.895	1.885	1.880	1.895	1.899	1.904
0.000	0.005	0.005	-0.010	0.010	0.029	0.044	2.720	1.895	1.890	1.880	1.890	1.890	1.904
-0.005	0.005	0.000	-0.005	-0.010	0.015	0.039	2.749	1.904	1.890	1.885	1.895	1.885	1.895
-0.010	0.000	0.005	-0.005	-0.024	0.010	0.039	2.676	1.895	1.890	1.885	1.895	1.880	1.890
0.000	0.015	0.000	0.000	-0.039	-0.005	0.044	2.642	1.890	1.895	1.885	1.899	1.880	1.885
0.005	0.005	0.005	0.000	-0.034	0.010	0.039	2.651	1.890	1.890	1.890	1.904	1.890	1.890
0.000	-0.005	0.000	0.000	-0.024	0.020	0.039	2.744	1.890	1.885	1.890	1.904	1.895	1.890
0.005	-0.020	-0.005	0.000	-0.034	0.015	0.039	2.671	1.890	1.880	1.885	1.899	1.890	1.890
0.005	-0.010	-0.010	-0.005	-0.020	0.000	0.039	2.637	1.885	1.885	1.880	1.899	1.895	1.890
0.015	-0.010	-0.005	-0.010	-0.034	-0.015	0.039	2.710	1.890	1.885	1.880	1.899	1.890	1.880
0.000	0.000	-0.005	-0.005	-0.049	0.029	0.039	2.725	1.890	1.885	1.885	1.899	1.890	1.895
0.010	0.024	-0.005	0.000	-0.034	0.020	0.039	2.661	1.885	1.895	1.890	1.904	1.895	1.895
0.000	0.015	0.005	0.000	-0.024	0.044	0.039	2.695	1.885	1.890	1.890	1.904	1.899	1.904
-0.015	0.029	0.024	0.015	-0.034	0.010	0.044	2.681	1.880	1.890	1.895	1.909	1.899	1.890
-0.005	0.010	0.020	0.010	-0.039	-0.024	0.039	2.700	1.880	1.885	1.890	1.909	1.895	1.885
-0.005	0.020	0.010	0.020	-0.034	0.010	0.039	2.710	1.885	1.885	1.885	1.909	1.904	1.899
0.000	0.010	0.000	0.010	-0.029	0.020	0.039	2.690	1.890	1.885	1.880	1.904	1.904	1.899
0.000	-0.005	0.005	0.005	-0.005	0.005	0.044	2.700	1.890	1.880	1.880	1.904	1.909	1.904
-0.005	-0.010	0.005	-0.005	0.010	0.005	0.039	2.676	1.890	1.880	1.880	1.899	1.909	1.904
0.000	-0.010	0.005	-0.015	0.015	0.005	0.039	2.695	1.885	1.885	1.880	1.895	1.904	1.904
-0.005	0.010	0.000	-0.024	0.024	-0.010	0.044	2.700	1.885	1.890	1.880	1.895	1.899	1.899
-0.010	0.015	0.005	-0.029	0.000	-0.005	0.044	2.681	1.885	1.890	1.885	1.895	1.890	1.899
-0.010	0.020	0.000	-0.020	-0.020	0.015	0.039	2.700	1.890	1.890	1.885	1.899	1.890	1.899
0.005	0.005	-0.010	0.029	-0.029	0.010	0.039	2.666	1.890	1.885	1.885	1.914	1.890	1.895
0.020	-0.005	-0.005	0.044	-0.034	-0.024	0.039	2.710	1.895	1.885	1.880	1.914	1.895	1.885
0.020	-0.005	-0.005	0.039	-0.029	0.000	0.039	2.681	1.890	1.885	1.880	1.909	1.899	1.895
0.015	-0.005	-0.005	0.039	-0.034	-0.005	0.039	2.695	1.890	1.885	1.885	1.904	1.895	1.895
0.015	-0.010	0.000	0.015	-0.024	0.005	0.039	2.666	1.885	1.885	1.880	1.895	1.899	1.899
0.010	-0.024	-0.010	-0.005	-0.005	0.020	0.039	2.666	1.885	1.880	1.880	1.890	1.899	1.904
0.015	-0.029	-0.010	-0.020	0.005	0.005	0.039	2.676	1.890	1.880	1.875	1.890	1.899	1.895
0.005	-0.020	0.000	-0.020	0.020	0.010	0.044	2.700	1.890	1.885	1.880	1.895	1.899	1.899
0.020	-0.015	0.000	-0.010	0.034	0.010	0.039	2.676	1.890	1.885	1.885	1.895	1.899	1.899
-0.010	0.015	0.005	0.010	0.034	-0.005	0.039	2.681	1.880	1.890	1.885	1.904	1.899	1.899
-0.015	0.029	0.000	0.015	0.044	0.024	0.044	2.671	1.885	1.895	1.890	1.909	1.909	1.904
-0.024	0.034	-0.005	0.005	0.063	0.010	0.044	2.671	1.885	1.895	1.885	1.904	1.909	1.904
-0.010	0.024	0.005	0.000	0.044	-0.005	0.044	2.671	1.885	1.885	1.890	1.904	1.899	1.899
-0.015	0.020	0.005	0.010	0.049	0.005	0.039	2.666	1.885	1.885	1.885	1.909	1.899	1.904
-0.005	0.000	0.005	-0.005	0.039	-0.010	0.039	2.642	1.885	1.880	1.885	1.899	1.899	1.895
0.005	-0.020	0.005	-0.020	0.049	-0.015	0.039	2.632	1.880	1.875	1.880	1.895	1.899	1.895
0.015	-0.054	0.005	-0.015	0.044	-0.039	0.039	2.710	1.890	1.870	1.875	1.899	1.895	1.890
0.020	-0.034	0.010	-0.010	0.049	-0.015	0.044	2.666	1.904	1.880	1.880	1.899	1.895	1.895
0.020	-0.024	0.010	0.010	0.059	-0.034	0.039	2.744	1.904	1.890	1.880	1.904	1.899	1.890
0.024	-0.005	0.005	0.010	0.073	-0.029	0.039	2.646	1.895	1.895	1.885	1.904	1.904	1.895
0.005	0.034	0.000	0.005	0.098	-0.024	0.044	2.651	1.885	1.904	1.890	1.904	1.909	1.899
-0.010	0.034	-0.005	0.000	0.117	-0.020	0.044	2.651	1.875	1.895	1.890	1.899	1.909	1.909
0.005	0.024	0.000	0.000	0.117	-0.005	0.039	2.676	1.885	1.890	1.890	1.904	1.909	1.909
-0.024	0.044	-0.005	0.000	0.142	0.005	0.039	2.739	1.890	1.890	1.890	1.904	1.914	1.914
0.000	0.000	0.000	0.000	0.156	0.015	0.039	2.695	1.895	1.885	1.885	1.904	1.914	1.914
0.000	-0.005	0.000	0.000	0.142	0.015	0.039	2.622	1.885	1.885	1.885	1.904	1.909	1.914
-0.010	-0.005	0.005	0.010	0.132	0.015	0.039	2.749	1.890	1.885	1.885	1.909	1.904	1.909
-0.010	0.000	0.000	0.005	0.107	-0.010	0.039	2.627	1.885	1.885	1.880	1.904	1.895	1.895
-0.005	-0.010	0.000	0.005	0.078	0.020	0.039	2.676	1.885	1.885	1.885	1.904	1.890	1.904
-0.015	0.034	0.000	-0.010	0.078	0.024	0.039	2.671	1.885	1.895	1.885	1.899	1.890	1.899
-0.005	0.044	0.000	-0.024	0.088	0.005	0.044	2.681	1.890	1.895	1.890	1.895	1.895	1.895
-0.005	0.034	-0.005	-0.015	0.088	0.024	0.039	2.681	1.895	1.890	1.885	1.904	1.895	1.899
0.005	0.005	0.000	-0.010	0.054	0.029	0.044	2.700	1.895	1.885	1.890	1.899	1.885	1.895
0.015	-0.020	0.000	-0.005	0.034	0.039	0.039	2.671	1.895	1.880	1.885	1.904	1.885	1.895
0.024	-0.039	0.000	0.029	0.020	0.029	0.039	2.705	1.899	1.880	1.880	1.914	1.890	1.885
0.044	-0.103	0.000	0.034	0.015	0.020	0.044	2.671	1.895	1.865	1.875	1.909	1.890	1.890
0.034	-0.093	0.000	0.020	0.010	0.010	0.039	2.710	1.890	1.875	1.875	1.899	1.890	1.885
0.005	-0.059	0.000	0.020	0.005	0.000	0.044	2.666	1.875	1.885	1.880	1.899	1.890	1.885
0.015	0.000	-0.005	0.010	0.015	-0.005	0.044	2.661	1.880	1.899	1.880	1.895	1.895	1.885
0.000	0.005	-0.010	0.005	0.015	-0.005	0.039	2.710	1.885	1.890	1.885	1.895	1.890	1.885
-0.005	0.005	0.000	-0.005	0.000	-0.015	0.039	2.700	1.880	1.890	1.885	1.895	1.890	1.885
-0.010	-0.020	0.000	0.005	-0.005	0.020	0.039	2.695	1.875	1.875	1.885	1.899	1.890	1.895
-0.015	0.024	-0.005	0.005	-0.005	0.015	0.039	2.705	1.880	1.890	1.885	1.899	1.890	1.890
-0.044	0.088	0.010	0.000	-0.005	0.020	0.039	2.700	1.880	1.904	1.895	1.904	1.895	1.895
-0.044	0.015	0.005	-0.010	-0.020	0.029	0.039	2.695	1.880	1.875	1.885	1.899	1.890	1.895
0.005	-0.010	0.005	-0.015	-0.015	0.010	0.039	2.676	1.895	1.880	1.880	1.899	1.890	1.890
0.005	0.068	0.010	-0.005	-0.010	0.020	0.039	2.710	1.899	1.904	1.890	1.904	1.899	1.890
0.000	0.044	0.010	0.005	0.000	0.010	0.039	2.671	1.895	1.895	1.890	1.909	1.899	1.895
0.010	0.059	0.010	0.015	0.015	0.005	0.044	2.700	1.895	1.899	1.890	1.914	1.904	1.895
-0.010	0.059	-0.005	0.005	0.034	-0.015	0.044	2.671	1.880	1.890	1.890	1.909	1.909	1.890
0.010	-0.024	-0.005	0.010	0.024	-0.015	0.039	2.676	1.885	1.870	1.880	1.904	1.904	1.899
0.005	-0.044	0.005	0.010	0.024	-0.024	0.039	2.671	1.890	1.870	1.880	1.904	1.904	1.895
0.015	-0.029	0.005	-0.005	0.039	0.000	0.039	2.793	1.899	1.880	1.880	1.899	1.904	1.904
0.015	0.005	0.015	-0.015	0.039	0.015	0.044	2.666	1.895	1.890	1.885	1.895	1.899	1.909
0.005	0.005	0.015	-0.024	0.044	0.015	0.044	2.651	1.885	1.890	1.885	1.895	1.899	1.904
-0.010	0.020	0.010	-0.020	0.049	0.010	0.039	2.725	1.880	1.890	1.885	1.899	1.899	1.904
-0.005	-0.005	0.000	-0.015	0.029	0.000	0.039	2.632	1.875	1.880	1.880	1.899	1.895	1.895
-0.005	-0.020	0.000	-0.015	0.005	0.010	0.044	2.651	1.880	1.875	1.875	1.899	1.890	1.895
0.005	-0.005	-0.010	-0.010	-0.010	0.010	0.039	2.705	1.885	1.885	1.875	1.895	1.885	1.890
-0.005	0.010	-0.010	-0.005	-0.010	0.000	0.039	2.632	1.885	1.880	1.875	1.899	1.885	1.885
-0.005	-0.010	-0.010	0.039	-0.015	0.010	0.039	2.656	1.880	1.880	1.880	1.914	1.890	1.890
0.000	0.010	-0.005	0.078	0.010	0.000	0.039	2.749	1.895	1.890	1.885	1.919	1.904	1.890
0.015	0.063	0.000	0.054	0.005	0.005	0.039	2.686	1.899	1.904	1.890	1.909	1.904	1.899
0.005	0.024	0.005	0.000	0.015	-0.010	0.039	2.725	1.899	1.890	1.890	1.895	1.904	1.895
-0.010	-0.034	0.015	-0.005	0.024	0.000	0.039	2.681	1.885	1.875	1.885	1.895	1.904	1.899
0.005	-0.034	0.015	-0.010	0.020	-0.005	0.044	2.622	1.880	1.875	1.880	1.895	1.899	1.899
0.005	-0.020	0.005	-0.029	0.024	-0.005	0.039	2.720	1.890	1.880	1.880	1.890	1.895	1.895
-0.005	-0.034	0.005	-0.049	0.000	-0.010	0.039	2.622	1.890	1.875	1.875	1.885	1.885	1.890
0.005	-0.034	-0.010	-0.049	-0.015	-0.005	0.039	2.676	1.890	1.880	1.875	1.890	1.880	1.890
0.015	-0.039	-0.010	-0.034	-0.039	-0.029	0.044	2.666	1.890	1.880	1.875	1.890	1.875	1.880
0.000	-0.034	0.000	-0.034	-0.049	-0.005	0.039	2.671	1.880	1.880	1.880	1.890	1.875	1.885
-0.010	0.020	0.010	-0.020	-0.049	-0.005	0.039	2.700	1.885	1.899	1.885	1.899	1.880	1.880
-0.020	0.063	0.000	0.005	-0.044	-0.015	0.039	2.686	1.885	1.909	1.890	1.909	1.885	1.880
-0.020	0.122	-0.010	0.024	-0.049	0.000	0.039	2.700	1.885	1.914	1.895	1.914	1.890	1.885
-0.024	0.078	-0.010	0.034	-0.049	0.005	0.044	2.710	1.885	1.890	1.890	1.919	1.899	1.890
-0.015	0.093	-0.005	0.024	-0.039	0.000	0.039	2.671	1.890	1.899	1.895	1.914	1.904	1.895
0.000	0.078	0.005	0.024	-0.044	-0.005	0.044	2.695	1.895	1.890	1.899	1.914	1.904	1.895
0.039	0.005	0.010	0.029	-0.039	-0.005	0.044	2.700	1.899	1.875	1.890	1.914	1.904	1.899
0.039	-0.093	0.010	0.015	-0.039	-0.010	0.039	2.695	1.895	1.855	1.875	1.904	1.904	1.895
0.024	-0.088	0.020	0.000	-0.029	0.000	0.039	2.700	1.890	1.865	1.875	1.899	1.904	1.904
0.015	-0.093	0.015	0.000	-0.029	-0.005	0.039	2.671	1.880	1.870	1.875	1.899	1.899	1.899
0.000	-0.049	0.015	0.000	-0.034	-0.015	0.039	2.681	1.885	1.885	1.875	1.895	1.895	1.895
-0.005	0.010	0.005	0.005	-0.044	-0.010	0.044	2.690	1.885	1.904	1.880	1.895	1.895	1.899
-0.005	0.039	-0.005	0.000	-0.029	0.010	0.039	2.705	1.890	1.899	1.885	1.899	1.895	1.899
0.010	-0.010	-0.020	0.000	-0.029	0.000	0.039	2.700	1.895	1.885	1.880	1.899	1.899	1.899
0.010	-0.034	-0.010	0.010	-0.024	0.010	0.039	2.695	1.890	1.880	1.885	1.899	1.899	1.899
0.005	-0.034	-0.010	0.005	-0.015	-0.015	0.044	2.671	1.885	1.880	1.880	1.899	1.895	1.895
-0.010	-0.005	-0.010	-0.010	-0.020	0.015	0.044	2.700	1.885	1.890	1.880	1.895	1.895	1.899
0.000	0.000	0.000	-0.005	-0.020	-0.015	0.039	2.690	1.885	1.890	1.885	1.899	1.895	1.890
0.005	-0.005	-0.005	0.005	-0.024	0.010	0.044	2.671	1.885	1.885	1.885	1.904	1.895	1.895
0.005	0.015	-0.005	0.005	-0.034	-0.005	0.044	2.690	1.890	1.895	1.885	1.904	1.895	1.890
-0.010	0.093	-0.005	0.010	-0.024	0.010	0.039	2.671	1.885	1.909	1.895	1.909	1.899	1.899
-0.088	0.107	-0.005	0.005	-0.015	0.015	0.039	2.754	1.860	1.895	1.895	1.909	1.899	1.899
-0.083	0.005	0.005	0.000	-0.029	0.010	0.039	2.671	1.865	1.860	1.885	1.904	1.899	1.899
-0.093	-0.015	0.005	-0.005	-0.034	0.010	0.039	2.642	1.865	1.855	1.875	1.899	1.899	1.899
-0.044	-0.010	0.000	0.005	-0.034	-0.005	0.039	2.642	1.880	1.865	1.875	1.899	1.899	1.890
-0.020	-0.005	0.010	0.005	-0.034	-0.020	0.039	2.632	1.890	1.875	1.875	1.899	1.895	1.895
0.034	0.005	0.010	0.005	-0.034	0.015	0.039	2.734	1.914	1.885	1.880	1.899	1.899	1.899
0.088	-0.020	0.010	0.010	-0.034	-0.005	0.039	2.749	1.929	1.895	1.880	1.899	1.895	1.895
0.103	-0.010	0.024	-0.005	-0.029	0.000	0.039	2.715	1.934	1.904	1.890	1.899	1.895	1.895
0.117	-0.029	0.010	-0.024	-0.020	0.015	0.039	2.642	1.914	1.904	1.885	1.895	1.899	1.899
0.098	-0.029	0.005	0.000	-0.015	0.010	0.044	2.754	1.909	1.899	1.890	1.904	1.899	1.899
0.093	-0.029	-0.010	0.015	-0.010	-0.005	0.044	2.676	1.899	1.899	1.890	1.909	1.904	1.895
0.054	-0.015	-0.020	0.020	-0.010	-0.024	0.039	2.710	1.885	1.899	1.890	1.909	1.899	1.890
0.015	0.000	0.000	0.020	0.000	0.010	0.044	2.676	1.875	1.895	1.895	1.909	1.909	1.904
-0.005	0.020	0.000	-0.005	-0.020	0.010	0.039	2.651	1.870	1.890	1.895	1.899	1.899	1.899
-0.039	0.015	0.000	0.000	-0.015	0.000	0.039	2.744	1.870	1.885	1.890	1.904	1.899	1.899
-0.039	0.000	-0.010	0.010	-0.029	0.000	0.044	2.646	1.870	1.875	1.885	1.904	1.899	1.899
-0.054	0.029	-0.005	0.005	-0.015	0.000	0.044	2.666	1.870	1.880	1.885	1.904	1.899	1.899
-0.054	0.034	-0.005	0.020	-0.015	0.044	0.039	2.700	1.875	1.875	1.880	1.904	1.904	1.914
-0.049	0.000	-0.010	0.000	0.000	0.049	0.039	2.681	1.880	1.870	1.875	1.899	1.904	1.909
-0.044	0.000	0.000	-0.015	-0.010	0.029	0.039	2.666	1.885	1.875	1.875	1.890	1.895	1.904
-0.024	0.010	0.005	-0.020	-0.010	0.015	0.039	2.700	1.895	1.885	1.880	1.890	1.895	1.899
-0.005	-0.005	0.034	-0.015	0.005	0.020	0.039	2.681	1.895	1.885	1.890	1.899	1.899	1.899
-0.005	0.020	0.039	-0.005	0.020	0.010	0.044	2.705	1.899	1.895	1.890	1.904	1.904	1.899
0.020	-0.010	0.020	0.005	0.024	0.005	0.039	2.705	1.909	1.890	1.885	1.909	1.904	1.899
0.005	-0.020	0.005	0.010	0.029	-0.005	0.039	2.700	1.899	1.890	1.880	1.904	1.904	1.895
0.005	-0.020	-0.010	0.039	0.029	-0.010	0.039	2.700	1.895	1.890	1.880	1.914	1.904	1.895
0.020	-0.024	-0.015	0.024	0.034	0.000	0.039	2.700	1.899	1.885	1.880	1.899	1.904	1.904
0.020	-0.039	-0.015	-0.029	0.049	-0.005	0.039	2.700	1.899	1.885	1.880	1.885	1.899	1.904
0.034	-0.034	-0.010	-0.054	0.015	-0.020	0.039	2.690	1.899	1.890	1.880	1.885	1.885	1.895
0.034	-0.020	-0.015	-0.029	0.015	-0.015	0.039	2.686	1.899	1.895	1.885	1.899	1.885	1.890
0.034	-0.024	0.000	0.020	0.005	0.000	0.044	2.681	1.895	1.895	1.890	1.914	1.890	1.890
-0.005	-0.010	0.010	0.000	-0.005	-0.029	0.044	2.705	1.880	1.895	1.890	1.904	1.890	1.880
-0.015	0.034	0.005	-0.010	0.005	-0.029	0.039	2.681	1.880	1.899	1.895	1.904	1.895	1.890
-0.010	0.068	0.015	-0.005	0.015	-0.024	0.039	2.700	1.890	1.909	1.899	1.914	1.904	1.895
-0.024	0.049	0.005	0.024	0.010	-0.024	0.039	2.705	1.885	1.895	1.895	1.919	1.904	1.895
-0.029	0.063	0.005	0.039	0.010	-0.034	0.044	2.700	1.890	1.895	1.899	1.924	1.909	1.895
-0.029	0.063	0.000	0.039	0.005	-0.020	0.044	2.686	1.885	1.895	1.895	1.919	1.909	1.904
-0.093	0.088	0.005	0.034	0.010	-0.010	0.039	2.671	1.870	1.890	1.895	1.914	1.909	1.904
-0.068	0.049	0.005	0.020	0.010	0.000	0.039	2.690	1.880	1.875	1.890	1.909	1.909	1.909
-0.010	-0.015	0.000	0.020	0.020	0.000	0.044	2.637	1.895	1.870	1.880	1.904	1.909	1.909
0.020	-0.039	0.000	0.015	0.015	-0.005	0.044	2.666	1.899	1.870	1.875	1.899	1.904	1.904
0.024	-0.024	-0.010	0.005	0.015	-0.005	0.044	2.666	1.899	1.880	1.875	1.895	1.899	1.904
0.029	-0.010	-0.010	-0.005	0.010	-0.010	0.044	2.773	1.909	1.890	1.875	1.890	1.895	1.904
0.049	-0.010	-0.020	-0.020	0.010	-0.010	0.044	2.725	1.909	1.895	1.880	1.885	1.890	1.899
0.054	-0.010	-0.005	-0.020	0.015	-0.024	0.039	2.710	1.909	1.899	1.890	1.895	1.890	1.895
0.029	0.000	0.010	-0.020	0.005	-0.015	0.039	2.725	1.899	1.899	1.895	1.899	1.890	1.895
0.000	-0.015	0.000	-0.010	0.005	0.015	0.039	2.627	1.875	1.890	1.890	1.904	1.895	1.899
-0.010	-0.054	0.000	0.000	0.015	0.005	0.039	2.744	1.885	1.875	1.885	1.904	1.899	1.895
-0.005	-0.049	-0.005	-0.010	0.024	0.000	0.044	2.666	1.885	1.880	1.885	1.899	1.899	1.895
0.005	-0.044	0.005	0.010	0.020	-0.005	0.039	2.656	1.890	1.885	1.885	1.909	1.899	1.899
0.010	-0.010	0.010	0.000	0.015	0.005	0.039	2.676	1.890	1.895	1.890	1.904	1.899	1.895
0.015	0.044	0.010	-0.005	0.005	-0.015	0.044	2.744	1.899	1.909	1.895	1.904	1.895	1.890
-0.010	0.015	0.000	-0.005	0.024	-0.010	0.039	2.700	1.890	1.890	1.890	1.909	1.904	1.899
-0.010	-0.044	0.000	-0.005	0.015	-0.010	0.039	2.632	1.885	1.875	1.885	1.909	1.899	1.899
0.000	-0.010	0.005	-0.005	0.005	-0.010	0.039	2.729	1.895	1.890	1.885	1.909	1.899	1.895
0.005	0.039	0.005	-0.005	0.005	0.000	0.039	2.627	1.890	1.904	1.895	1.904	1.899	1.899
0.010	0.039	0.000	-0.010	-0.005	-0.005	0.044	2.676	1.890	1.904	1.895	1.904	1.899	1.899
0.010	0.029	0.000	-0.005	-0.005	0.010	0.044	2.686	1.885	1.890	1.890	1.909	1.899	1.904
0.000	-0.010	0.000	-0.005	-0.010	0.010	0.039	2.676	1.885	1.875	1.885	1.909	1.899	1.899
-0.005	-0.029	-0.005	-0.005	-0.005	-0.020	0.044	2.700	1.885	1.870	1.880	1.904	1.899	1.895
-0.010	-0.088	-0.005	-0.010	-0.010	0.010	0.039	2.676	1.880	1.855	1.875	1.899	1.899	1.899
-0.005	-0.083	-0.005	0.000	-0.005	0.010	0.039	2.700	1.885	1.870	1.870	1.899	1.895	1.899
0.015	-0.024	0.000	0.010	-0.015	-0.005	0.039	2.700	1.895	1.890	1.880	1.899	1.895	1.895
0.034	-0.054	-0.005	0.010	-0.024	0.015	0.039	2.710	1.899	1.880	1.875	1.895	1.895	1.899
0.029	-0.010	-0.005	0.010	-0.020	0.000	0.039	2.705	1.899	1.899	1.885	1.899	1.890	1.890
0.015	0.073	0.010	0.015	-0.010	-0.005	0.039	2.700	1.895	1.924	1.899	1.904	1.899	1.895
0.005	0.176	0.000	0.015	-0.005	0.000	0.039	2.700	1.895	1.943	1.909	1.914	1.904	1.899
-0.044	0.244	0.000	0.020	0.000	0.000	0.039	2.661	1.880	1.943	1.919	1.924	1.904	1.904
-0.020	0.083	0.010	0.000	-0.010	0.000	0.039	2.671	1.875	1.875	1.904	1.919	1.904	1.904
-0.029	-0.015	0.010	-0.005	-0.015	0.010	0.044	2.705	1.880	1.855	1.890	1.914	1.904	1.904
-0.020	-0.029	0.005	0.005	-0.010	-0.024	0.039	2.671	1.885	1.860	1.880	1.914	1.904	1.895
-0.015	-0.034	0.010	0.010	0.005	0.000	0.039	2.700	1.890	1.865	1.875	1.909	1.909	1.904
-0.005	-0.059	0.010	0.005	-0.010	0.005	0.039	2.676	1.890	1.870	1.870	1.904	1.904	1.904
0.000	-0.049	0.005	-0.010	-0.024	-0.005	0.039	2.690	1.890	1.875	1.870	1.895	1.895	1.899
0.005	0.010	0.010	-0.010	-0.024	0.005	0.039	2.690	1.895	1.899	1.880	1.895	1.895	1.899
0.015	0.044	0.005	-0.005	-0.029	-0.005	0.039	2.695	1.899	1.904	1.885	1.895	1.895	1.899
0.015	-0.024	0.000	-0.005	-0.020	0.000	0.039	2.705	1.899	1.880	1.880	1.899	1.895	1.895
0.029	-0.073	-0.005	-0.010	-0.024	-0.024	0.039	2.671	1.895	1.875	1.875	1.895	1.890	1.890
0.015	-0.024	-0.005	-0.015	-0.015	0.000	0.039	2.686	1.890	1.890	1.880	1.895	1.895	1.899
0.010	-0.034	-0.005	-0.024	-0.010	0.024	0.039	2.666	1.885	1.885	1.880	1.895	1.895	1.899
0.010	-0.024	0.000	-0.010	-0.005	0.010	0.039	2.788	1.885	1.890	1.885	1.899	1.895	1.895
0.020	0.020	0.005	0.024	0.005	0.005	0.039	2.661	1.885	1.904	1.890	1.914	1.904	1.895
-0.005	0.049	0.005	0.024	0.010	0.010	0.039	2.646	1.875	1.899	1.895	1.914	1.904	1.899
-0.029	0.034	0.010	0.049	0.005	-0.005	0.039	2.656	1.870	1.885	1.895	1.919	1.904	1.899
-0.020	-0.005	0.015	0.054	0.005	-0.005	0.044	2.632	1.875	1.870	1.890	1.919	1.904	1.904
0.005	-0.044	0.005	0.068	0.005	0.015	0.044	2.651	1.885	1.865	1.880	1.919	1.909	1.909
0.010	-0.024	0.000	0.049	0.015	0.005	0.039	2.734	1.895	1.875	1.875	1.909	1.909	1.904
0.010	-0.005	0.015	0.005	0.005	-0.005	0.044	2.710	1.899	1.890	1.880	1.890	1.899	1.904
-0.020	0.000	0.020	-0.034	0.010	-0.005	0.044	2.671	1.885	1.890	1.885	1.885	1.895	1.899
-0.010	-0.015	0.015	-0.034	0.005	0.010	0.044	2.646	1.885	1.880	1.880	1.885	1.890	1.904
0.000	0.044	0.005	-0.068	0.015	0.015	0.044	2.666	1.890	1.904	1.885	1.880	1.890	1.899
0.000	0.063	-0.010	-0.020	0.010	0.020	0.039	2.710	1.890	1.899	1.885	1.904	1.890	1.899
-0.010	0.044	0.010	-0.005	0.000	0.005	0.044	2.705	1.895	1.895	1.890	1.909	1.890	1.890
0.010	0.010	0.005	-0.029	-0.010	-0.020	0.044	2.720	1.899	1.885	1.885	1.899	1.890	1.880
0.010	0.005	-0.005	-0.039	-0.005	0.000	0.039	2.715	1.895	1.885	1.880	1.895	1.890	1.890
-0.020	0.015	0.000	-0.029	-0.010	0.010	0.039	2.705	1.885	1.885	1.885	1.899	1.890	1.890
-0.010	-0.005	0.000	-0.015	-0.005	0.010	0.039	2.676	1.890	1.880	1.880	1.904	1.895	1.895
0.029	-0.054	0.000	0.020	0.000	0.010	0.039	2.681	1.899	1.875	1.880	1.914	1.904	1.895
0.039	-0.083	0.005	0.044	0.010	0.000	0.039	2.671	1.895	1.870	1.880	1.914	1.904	1.895
0.015	-0.063	0.010	0.044	0.005	0.005	0.039	2.695	1.890	1.880	1.880	1.909	1.904	1.899
-0.010	-0.020	0.010	0.020	-0.015	0.015	0.044	2.700	1.885	1.890	1.880	1.899	1.899	1.899
-0.015	-0.039	0.020	-0.010	-0.015	0.005	0.039	2.695	1.885	1.880	1.880	1.890	1.895	1.895
-0.005	-0.049	0.000	-0.029	-0.005	0.000	0.044	2.695	1.890	1.885	1.875	1.890	1.890	1.895
0.020	0.010	-0.005	-0.005	-0.010	0.000	0.039	2.671	1.899	1.904	1.885	1.899	1.895	1.895
0.039	0.039	0.010	0.034	-0.015	0.010	0.039	2.695	1.904	1.914	1.899	1.914	1.895	1.895
0.000	0.068	0.010	0.034	-0.029	0.010	0.039	2.690	1.890	1.909	1.899	1.914	1.899	1.899
-0.010	0.078	0.010	0.024	-0.010	0.000	0.039	2.700	1.885	1.909	1.904	1.914	1.904	1.895
-0.024	0.098	0.010	0.015	-0.005	0.020	0.044	2.666	1.885	1.904	1.904	1.914	1.909	1.904
-0.020	-0.020	0.005	0.000	-0.005	0.015	0.039	2.695	1.885	1.865	1.890	1.909	1.904	1.904
0.010	-0.024	-0.005	0.005	0.005	-0.005	0.039	2.690	1.890	1.870	1.880	1.904	1.904	1.899
0.015	-0.068	-0.024	0.000	0.000	0.000	0.039	2.690	1.890	1.865	1.870	1.899	1.904	1.904
0.005	-0.044	-0.020	0.010	0.010	0.000	0.039	2.705	1.895	1.880	1.875	1.899	1.904	1.904
-0.020	-0.010	-0.010	0.039	0.015	-0.005	0.039	2.710	1.890	1.890	1.880	1.909	1.904	1.899
-0.015	-0.020	0.000	0.034	0.000	0.000	0.039	2.695	1.890	1.885	1.885	1.904	1.899	1.904
0.000	0.024	0.005	0.005	-0.005	0.000	0.039	2.676	1.895	1.904	1.890	1.895	1.895	1.899
0.015	0.156	0.005	-0.024	0.005	0.005	0.044	2.700	1.904	1.934	1.904	1.895	1.899	1.899
0.010	0.024	0.005	-0.068	0.000	0.005	0.039	2.695	1.895	1.885	1.895	1.890	1.895	1.899
0.010	0.005	-0.005	-0.063	-0.005	0.000	0.044	2.671	1.890	1.880	1.890	1.895	1.890	1.895
-0.005	-0.039	-0.010	-0.054	-0.020	0.000	0.039	2.690	1.880	1.870	1.880	1.899	1.885	1.890
-0.024	-0.044	-0.010	-0.010	-0.015	-0.010	0.044	2.676	1.880	1.870	1.875	1.909	1.895	1.890
-0.024	-0.015	-0.005	0.010	-0.010	0.005	0.044	2.690	1.880	1.880	1.880	1.914	1.904	1.895
-0.015	0.024	0.000	0.044	0.000	0.000	0.039	2.666	1.885	1.895	1.885	1.919	1.904	1.895
-0.005	0.015	0.015	0.015	0.000	0.015	0.044	2.651	1.885	1.890	1.890	1.909	1.904	1.904
0.000	0.029	0.010	-0.005	0.005	0.005	0.044	2.642	1.880	1.890	1.890	1.904	1.904	1.904
0.024	-0.059	0.015	-0.039	-0.005	0.015	0.039	2.651	1.890	1.865	1.880	1.890	1.899	1.904
0.020	-0.112	0.005	-0.054	-0.005	0.010	0.039	2.646	1.885	1.860	1.870	1.890	1.895	1.899
0.024	0.010	0.005	-0.024	0.005	-0.005	0.039	2.734	1.899	1.899	1.880	1.895	1.895	1.895
0.015	0.024	0.000	0.015	0.000	0.000	0.039	2.739	1.899	1.899	1.885	1.909	1.895	1.895
0.034	-0.044	-0.015	0.039	-0.010	-0.005	0.039	2.642	1.895	1.880	1.880	1.914	1.899	1.895
0.020	-0.034	-0.020	0.024	-0.005	0.015	0.039	2.651	1.880	1.885	1.875	1.904	1.899	1.899
-0.029	0.010	-0.010	0.034	-0.005	-0.020	0.044	2.661	1.870	1.890	1.885	1.909	1.899	1.890
-0.039	0.151	-0.005	0.034	-0.010	0.000	0.044	2.739	1.885	1.934	1.899	1.909	1.899	1.895
0.000	0.156	-0.005	0.020	-0.015	0.005	0.039	2.681	1.895	1.914	1.899	1.909	1.899	1.899
0.015	0.054	-0.010	0.010	-0.015	0.005	0.044	2.627	1.885	1.885	1.895	1.904	1.899	1.899
0.010	0.063	0.005	0.005	-0.015	-0.005	0.044	2.744	1.890	1.890	1.890	1.909	1.899	1.895
0.000	0.059	0.000	0.005	0.005	-0.010	0.039	2.734	1.895	1.885	1.890	1.909	1.904	1.895
0.000	-0.063	0.005	0.005	0.000	-0.010	0.039	2.671	1.885	1.851	1.875	1.904	1.904	1.899
0.005	-0.093	0.000	0.005	-0.005	0.020	0.044	2.676	1.885	1.860	1.870	1.899	1.904	1.909
-0.005	-0.020	0.005	0.010	0.005	0.010	0.039	2.671	1.885	1.885	1.875	1.899	1.904	1.904
0.000	0.000	0.005	0.020	0.015	-0.005	0.039	2.700	1.899	1.890	1.880	1.904	1.904	1.904
0.020	-0.020	0.000	0.034	0.000	0.039	0.044	2.710	1.899	1.885	1.880	1.904	1.899	1.909
0.000	-0.024	-0.010	0.024	-0.034	0.005	0.044	2.690	1.890	1.885	1.875	1.895	1.885	1.899
-0.010	-0.044	-0.005	0.010	-0.122	0.024	0.039	2.695	1.890	1.875	1.875	1.890	1.865	1.890
-0.005	-0.049	-0.010	0.015	-0.156	-0.020	0.039	2.676	1.885	1.875	1.875	1.890	1.865	1.870
0.000	-0.029	0.010	0.005	-0.122	-0.015	0.039	2.710	1.890	1.890	1.885	1.890	1.875	1.875
0.015	-0.020	0.020	-0.010	-0.049	-0.024	0.039	2.695	1.890	1.890	1.885	1.895	1.899	1.880
0.015	0.005	-0.005	-0.020	-0.024	-0.015	0.039	2.681	1.885	1.895	1.880	1.890	1.899	1.885
0.010	0.034	-0.020	-0.024	0.000	-0.039	0.044	2.661	1.880	1.899	1.885	1.895	1.904	1.890
0.010	0.029	-0.020	-0.010	0.029	-0.044	0.039	2.700	1.890	1.890	1.885	1.904	1.909	1.890
0.024	-0.005	-0.015	0.015	0.059	-0.073	0.044	2.681	1.890	1.880	1.885	1.909	1.914	1.890
0.000	-0.020	0.005	0.010	0.059	-0.068	0.044	2.686	1.875	1.880	1.890	1.909	1.909	1.899
-0.034	-0.005	0.029	-0.024	0.034	-0.044	0.044	2.695	1.870	1.880	1.890	1.895	1.899	1.904
-0.063	0.020	0.020	-0.020	-0.010	-0.005	0.044	2.676	1.870	1.880	1.885	1.899	1.890	1.909
-0.024	-0.020	0.034	0.000	-0.044	0.029	0.044	2.695	1.890	1.875	1.885	1.904	1.885	1.914
0.015	-0.029	0.015	0.020	-0.024	0.054	0.044	2.671	1.899	1.880	1.880	1.909	1.899	1.914
0.024	0.010	0.015	0.015	0.117	0.068	0.039	2.695	1.904	1.899	1.885	1.909	1.943	1.929
0.024	-0.020	-0.010	0.000	0.308	0.054	0.044	2.700	1.899	1.885	1.875	1.904	1.987	1.943
0.020	0.039	-0.024	-0.010	0.557	0.049	0.044	2.666	1.899	1.904	1.885	1.909	2.026	1.968
0.015	0.024	-0.020	-0.010	0.635	0.059	0.039	2.686	1.899	1.899	1.890	1.909	2.012	1.987
0.010	0.059	0.010	-0.015	0.410	0.044	0.039	2.666	1.899	1.914	1.899	1.904	1.914	1.958
-0.015	0.005	0.005	-0.005	0.078	0.029	0.044	2.671	1.890	1.890	1.890	1.899	1.821	1.909
-0.024	0.015	-0.015	0.000	-0.127	0.024	0.146	2.671	1.890	1.890	1.880	1.899	1.792	1.875
0.000	0.073	-0.024	0.020	-0.210	0.010	0.225	2.637	1.895	1.909	1.890	1.904	1.797	1.851
-0.015	0.103	-0.020	0.020	-0.234	0.000	0.234	2.646	1.880	1.904	1.895	1.904	1.821	1.841
-0.010	0.010	-0.005	0.005	-0.215	-0.010	0.239	2.671	1.885	1.875	1.890	1.904	1.851	1.836
0.000	-0.049	0.005	0.000	-0.190	-0.029	0.239	2.646	1.875	1.860	1.885	1.904	1.870	1.841
0.000	-0.039	0.015	0.015	-0.151	-0.049	0.239	2.754	1.885	1.870	1.880	1.909	1.885	1.851
0.005	0.005	0.005	0.020	-0.088	-0.044	0.244	2.734	1.895	1.885	1.880	1.904	1.909	1.870
0.000	-0.010	-0.005	-0.005	-0.107	-0.063	0.249	2.681	1.890	1.880	1.875	1.895	1.895	1.870
0.005	-0.034	0.015	-0.015	-0.122	-0.044	0.254	2.651	1.885	1.875	1.880	1.895	1.890	1.885
-0.005	-0.020	0.029	-0.010	-0.107	0.000	0.283	2.666	1.885	1.880	1.885	1.899	1.895	1.899
-0.005	-0.024	0.020	-0.010	-0.083	0.020	0.269	2.705	1.895	1.885	1.880	1.899	1.904	1.904
-0.005	-0.015	0.010	0.010	-0.078	0.000	0.269	2.705	1.899	1.890	1.880	1.909	1.904	1.899
0.000	-0.015	0.020	0.029	-0.049	0.020	0.249	2.642	1.890	1.890	1.885	1.909	1.914	1.909
0.000	-0.015	0.005	0.039	-0.024	0.005	0.225	2.715	1.895	1.890	1.885	1.914	1.919	1.909
0.005	-0.010	-0.010	0.039	-0.020	-0.005	0.186	2.725	1.904	1.890	1.880	1.909	1.914	1.904
0.005	-0.015	-0.024	0.005	-0.039	0.000	0.166	2.681	1.904	1.895	1.880	1.895	1.899	1.899
0.015	-0.029	-0.020	-0.010	-0.039	-0.010	0.137	2.700	1.904	1.890	1.880	1.890	1.895	1.895
0.005	-0.020	-0.039	-0.010	-0.029	0.020	0.122	2.676	1.890	1.895	1.880	1.890	1.899	1.904
0.000	0.000	-0.049	-0.020	-0.034	0.029	0.088	2.705	1.890	1.895	1.880	1.890	1.890	1.899
0.000	-0.015	-0.029	-0.010	-0.044	0.034	0.049	2.700	1.890	1.890	1.885	1.899	1.890	1.899
-0.020	0.005	0.005	-0.010	0.059	0.029	0.044	2.695	1.880	1.895	1.899	1.904	1.924	1.909
-0.005	0.034	0.029	-0.010	0.088	0.029	0.044	2.705	1.895	1.899	1.904	1.914	1.924	1.914
0.000	0.044	0.073	-0.005	0.107	0.000	0.044	2.681	1.895	1.904	1.914	1.924	1.929	1.909
0.010	0.015	0.068	-0.005	0.068	-0.020	0.044	2.700	1.890	1.895	1.904	1.924	1.909	1.899
0.005	0.005	0.015	0.015	-0.024	-0.029	0.044	2.695	1.890	1.885	1.885	1.919	1.885	1.895
-0.005	0.034	-0.010	0.015	-0.088	-0.039	0.044	2.661	1.880	1.890	1.880	1.909	1.875	1.885
-0.010	0.005	-0.020	0.024	-0.078	-0.054	0.044	2.705	1.875	1.880	1.880	1.909	1.885	1.880
-0.005	-0.005	-0.015	0.010	-0.005	-0.063	0.044	2.695	1.885	1.880	1.880	1.904	1.909	1.890
0.015	0.000	-0.010	-0.020	0.063	-0.024	0.044	2.676	1.890	1.885	1.880	1.895	1.924	1.909
0.020	-0.005	0.029	-0.029	0.127	-0.005	0.044	2.676	1.895	1.885	1.890	1.899	1.934	1.924
0.024	-0.024	0.024	-0.015	0.190	0.024	0.044	2.700	1.895	1.885	1.885	1.909	1.943	1.938
0.020	-0.020	-0.005	-0.005	0.225	0.034	0.044	2.700	1.895	1.885	1.875	1.904	1.943	1.943
0.015	-0.020	-0.005	0.010	0.166	0.054	0.044	2.690	1.899	1.885	1.880	1.909	1.914	1.938
0.029	-0.020	0.000	0.010	0.112	0.059	0.044	2.695	1.904	1.890	1.885	1.904	1.895	1.929
0.010	0.005	-0.015	0.020	0.015	0.044	0.044	2.695	1.895	1.899	1.885	1.904	1.870	1.899
0.000	0.000	-0.029	0.000	-0.049	0.024	0.039	2.695	1.895	1.895	1.880	1.895	1.860	1.885
0.010	-0.005	-0.020	-0.024	-0.083	-0.010	0.063	2.671	1.890	1.890	1.885	1.890	1.855	1.870
0.005	0.000	0.029	-0.020	-0.103	-0.024	0.083	2.681	1.885	1.890	1.899	1.899	1.860	1.865
-0.005	0.005	-0.015	-0.010	-0.132	-0.020	0.146	2.671	1.875	1.885	1.885	1.899	1.865	1.870
-0.024	0.020	0.029	-0.005	-0.161	0.015	0.181	2.798	1.890	1.890	1.895	1.904	1.865	1.875
-0.039	0.029	0.029	0.005	-0.166	0.005	0.122	2.666	1.880	1.890	1.890	1.909	1.875	1.870
-0.034	0.039	0.024	0.000	-0.127	0.010	0.122	2.651	1.880	1.890	1.895	1.909	1.895	1.875
-0.020	0.029	0.024	0.015	-0.059	-0.005	0.132	2.725	1.890	1.885	1.890	1.914	1.919	1.890
-0.005	0.015	0.020	0.015	-0.063	0.005	0.151	2.637	1.885	1.880	1.885	1.914	1.914	1.895
0.000	0.015	0.010	0.024	-0.044	-0.015	0.132	2.651	1.885	1.885	1.880	1.909	1.914	1.899
0.005	-0.005	0.049	0.015	-0.034	-0.020	0.122	2.734	1.895	1.880	1.895	1.909	1.914	1.899
0.020	-0.010	0.039	0.005	-0.049	-0.010	0.107	2.637	1.890	1.880	1.885	1.904	1.909	1.904
0.024	-0.024	-0.010	0.015	0.039	0.010	0.044	2.651	1.885	1.875	1.870	1.904	1.934	1.919
0.015	-0.020	-0.083	0.015	0.103	0.039	0.044	2.744	1.895	1.880	1.855	1.895	1.934	1.929
0.005	-0.020	-0.093	0.005	0.137	0.049	0.044	2.690	1.895	1.880	1.860	1.885	1.929	1.934
0.005	-0.005	-0.054	-0.005	0.146	0.029	0.049	2.749	1.899	1.890	1.875	1.885	1.924	1.924
-0.015	-0.015	-0.024	0.005	0.244	0.010	0.044	2.671	1.890	1.890	1.885	1.895	1.938	1.924
-0.068	-0.034	-0.020	0.029	0.332	-0.015	0.044	2.612	1.870	1.880	1.885	1.909	1.953	1.924
-0.049	-0.005	0.010	0.044	0.308	-0.005	0.044	2.715	1.890	1.890	1.895	1.909	1.934	1.934
-0.049	0.044	-0.020	0.015	0.283	-0.015	0.044	2.651	1.890	1.899	1.885	1.899	1.914	1.919
-0.010	0.020	-0.015	-0.024	0.161	0.000	0.044	2.666	1.899	1.895	1.890	1.890	1.875	1.909
0.024	0.015	0.024	-0.029	0.034	0.010	0.044	2.690	1.909	1.899	1.904	1.895	1.846	1.895
0.054	0.024	0.054	-0.020	-0.044	0.015	0.044	2.666	1.909	1.904	1.909	1.904	1.841	1.880
0.098	0.010	0.024	-0.020	-0.034	0.034	0.044	2.671	1.909	1.904	1.899	1.904	1.865	1.875
0.103	-0.005	0.039	-0.024	-0.015	-0.005	0.044	2.695	1.909	1.899	1.904	1.909	1.875	1.870
0.073	-0.015	0.029	-0.015	-0.054	-0.020	0.044	2.676	1.890	1.895	1.895	1.914	1.875	1.865
0.068	-0.024	-0.015	-0.005	-0.132	-0.020	0.640	2.710	1.890	1.890	1.885	1.909	1.865	1.880
0.044	0.000	-0.020	0.015	-0.146	-0.054	0.684	2.681	1.885	1.890	1.885	1.914	1.875	1.870
-0.015	0.005	-0.010	0.005	-0.132	-0.059	0.693	2.700	1.875	1.885	1.885	1.909	1.885	1.870
-0.049	0.005	0.010	-0.005	-0.186	-0.063	0.449	2.700	1.875	1.880	1.890	1.904	1.870	1.865
-0.044	-0.005	0.020	0.000	-0.225	-0.049	0.430	2.676	1.880	1.880	1.885	1.904	1.870	1.870
-0.029	-0.010	-0.005	0.005	-0.200	0.005	0.449	2.134	1.826	1.865	1.875	1.899	1.885	1.885
-0.015	-0.020	0.039	0.000	-0.122	0.024	0.679	1.372	1.704	1.831	1.875	1.904	1.909	1.904
-0.024	0.005	0.020	-0.005	-0.020	0.015	0.693	1.177	1.597	1.777	1.846	1.890	1.929	1.909
-0.020	0.005	-0.005	0.010	-0.024	0.029	0.645	1.162	1.523	1.714	1.802	1.875	1.909	1.914
-0.005	0.020	-0.020	0.005	0.005	0.083	0.151	1.167	1.479	1.660	1.763	1.851	1.904	1.909
0.005	0.015	-0.010	0.005	0.063	0.083	0.151	1.157	1.440	1.602	1.724	1.826	1.899	1.904
0.005	0.005	-0.005	0.000	0.029	0.059	0.200	1.162	1.416	1.558	1.680	1.787	1.855	1.885
-0.005	0.020	0.020	-0.005	0.000	0.020	0.342	1.182	1.401	1.523	1.641	1.753	1.821	1.865
-0.005	0.015	0.015	0.000	-0.015	0.029	0.347	1.187	1.387	1.489	1.597	1.719	1.787	1.846
-0.010	0.015	0.024	-0.005	-0.088	0.000	0.347	1.187	1.382	1.465	1.562	1.680	1.733	1.807
-0.015	0.034	0.010	0.000	-0.127	-0.029	0.361	1.157	1.367	1.445	1.528	1.641	1.699	1.768
-0.005	0.020	0.024	0.000	-0.122	-0.044	0.386	1.157	1.362	1.421	1.504	1.611	1.675	1.743
-0.005	0.005	0.015	0.005	-0.088	-0.010	0.439	1.167	1.357	1.401	1.470	1.577	1.660	1.733
-0.005	-0.010	-0.024	0.020	-0.029	0.029	0.488	1.294	1.348	1.387	1.440	1.553	1.650	1.724
-0.020	-0.020	-0.059	0.015	0.044	0.059	0.513	1.143	1.338	1.372	1.411	1.519	1.631	1.709
-0.010	-0.015	-0.059	0.000	0.063	0.068	0.508	1.133	1.338	1.362	1.401	1.489	1.592	1.670
0.005	-0.020	-0.044	-0.005	0.063	0.044	0.435	1.221	1.343	1.362	1.392	1.470	1.558	1.631
0.024	-0.015	0.000	0.020	0.093	0.024	0.444	1.113	1.343	1.362	1.396	1.460	1.538	1.602
0.029	-0.015	0.010	0.005	0.156	-0.010	0.444	1.128	1.333	1.353	1.387	1.440	1.523	1.572
0.029	-0.015	-0.010	0.015	0.190	-0.039	0.435	1.226	1.323	1.348	1.372	1.431	1.504	1.548
0.034	0.005	0.000	0.020	0.225	-0.073	0.298	1.138	1.309	1.343	1.367	1.421	1.489	1.519
0.020	0.010	0.005	0.020	0.181	-0.078	0.308	1.133	1.284	1.333	1.357	1.406	1.455	1.499
0.000	0.010	-0.020	0.010	0.151	-0.078	0.308	1.133	1.270	1.318	1.343	1.392	1.426	1.479
-0.020	0.015	0.000	0.000	0.112	-0.054	0.308	1.152	1.250	1.304	1.338	1.377	1.401	1.465
-0.024	0.015	0.024	-0.010	0.044	-0.068	0.327	1.211	1.245	1.289	1.323	1.367	1.372	1.431
-0.024	0.005	0.029	-0.015	-0.039	-0.044	0.322	1.167	1.240	1.274	1.313	1.353	1.343	1.411
-0.029	0.005	0.034	-0.020	-0.112	-0.015	0.327	1.201	1.240	1.265	1.304	1.343	1.323	1.396
-0.005	0.005	0.024	-0.005	-0.161	-0.020	0.332	1.196	1.235	1.260	1.289	1.338	1.313	1.367
0.005	0.000	0.054	0.005	-0.161	-0.005	0.347	2.056	1.323	1.274	1.294	1.333	1.318	1.362
0.024	-0.005	0.034	0.010	-0.171	0.020	0.386	1.992	1.382	1.299	1.284	1.328	1.318	1.362
0.024	-0.005	0.005	0.015	-0.098	0.015	0.503	2.031	1.421	1.328	1.284	1.323	1.343	1.362
0.034	-0.005	-0.024	0.010	-0.015	0.044	0.537	2.002	1.436	1.353	1.299	1.323	1.357	1.367
0.029	-0.010	-0.039	-0.005	0.049	0.059	0.537	2.012	1.445	1.372	1.313	1.318	1.362	1.372
0.020	-0.015	-0.054	-0.015	0.034	0.073	0.547	2.026	1.455	1.396	1.333	1.323	1.343	1.367
0.000	-0.020	-0.029	-0.005	-0.010	0.059	0.522	2.021	1.450	1.401	1.357	1.343	1.323	1.353
-0.010	-0.015	-0.010	0.015	-0.068	0.039	0.493	2.017	1.445	1.416	1.377	1.357	1.318	1.333
-0.005	-0.015	-0.010	0.000	-0.122	0.039	0.435	1.992	1.440	1.421	1.387	1.367	1.313	1.323
-0.010	-0.010	0.020	-0.015	-0.112	0.015	0.396	2.017	1.431	1.421	1.401	1.377	1.333	1.318
-0.020	0.000	0.029	-0.020	-0.073	-0.015	0.410	1.987	1.421	1.426	1.411	1.392	1.357	1.323
-0.024	0.010	0.024	-0.029	-0.029	-0.015	0.396	2.012	1.411	1.426	1.416	1.401	1.382	1.338
-0.024	0.029	0.024	-0.024	0.000	-0.020	0.415	2.021	1.406	1.426	1.421	1.411	1.392	1.353
-0.024	0.024	0.020	-0.010	0.010	-0.020	0.400	1.997	1.401	1.416	1.416	1.426	1.401	1.367
-0.010	0.015	0.010	0.010	0.078	0.029	0.420	1.987	1.401	1.411	1.416	1.436	1.431	1.401
-0.029	0.005	0.000	0.010	0.088	0.039	0.425	1.982	1.396	1.401	1.406	1.431	1.436	1.411
-0.029	0.000	-0.020	0.015	0.103	0.039	0.430	2.017	1.401	1.401	1.401	1.431	1.436	1.416
-0.029	-0.005	-0.015	0.015	0.059	0.059	0.547	1.997	1.401	1.401	1.401	1.426	1.421	1.426
-0.005	-0.010	-0.029	0.010	0.063	0.015	0.620	1.992	1.401	1.401	1.396	1.421	1.421	1.416
0.010	0.000	-0.034	0.010	0.132	-0.024	1.001	2.017	1.411	1.401	1.396	1.421	1.440	1.426
0.049	-0.005	-0.034	0.010	0.156	-0.034	0.908	2.021	1.421	1.406	1.401	1.421	1.440	1.426
0.068	-0.010	-0.020	0.010	0.161	-0.049	0.986	2.021	1.421	1.411	1.406	1.421	1.436	1.426
0.068	-0.005	-0.005	0.015	0.156	-0.044	1.035	2.021	1.421	1.416	1.411	1.426	1.431	1.426
0.068	-0.015	-0.005	0.010	0.103	-0.039	0.967	2.002	1.416	1.411	1.411	1.421	1.411	1.421
0.044	-0.005	0.010	0.000	-0.029	-0.039	1.030	1.973	1.401	1.411	1.411	1.421	1.377	1.401
0.029	0.005	0.029	0.000	-0.132	-0.039	1.060	2.002	1.396	1.406	1.416	1.426	1.362	1.392
0.005	0.015	0.029	0.000	-0.181	-0.034	1.074	1.982	1.387	1.401	1.411	1.421	1.367	1.387
-0.005	0.015	0.020	-0.005	-0.166	-0.005	1.079	1.958	1.377	1.396	1.401	1.421	1.387	1.396
-0.029	0.020	0.010	-0.005	-0.146	-0.010	1.104	1.978	1.377	1.392	1.396	1.421	1.401	1.392
-0.039	0.034	0.005	0.000	-0.059	0.015	0.693	2.041	1.377	1.387	1.392	1.426	1.431	1.401
-0.034	0.015	-0.005	0.000	0.083	0.039	0.537	1.963	1.392	1.387	1.392	1.421	1.465	1.421
-0.029	0.000	0.010	0.000	0.146	0.049	0.537	2.075	1.401	1.387	1.392	1.421	1.465	1.436
0.000	-0.005	0.010	0.005	0.186	0.059	0.532	2.061	1.406	1.387	1.392	1.421	1.460	1.450
0.000	-0.020	0.000	0.010	0.044	0.039	0.537	2.007	1.401	1.392	1.387	1.411	1.406	1.426
-0.015	0.000	-0.005	0.020	-0.068	0.020	0.547	2.056	1.396	1.396	1.387	1.411	1.382	1.406
-0.024	0.024	-0.010	0.039	-0.093	0.024	0.576	2.017	1.387	1.401	1.387	1.416	1.382	1.401
0.000	0.010	-0.005	0.039	-0.039	0.020	0.566	2.061	1.392	1.396	1.392	1.416	1.401	1.401
0.015	0.000	-0.015	0.034	-0.029	0.044	0.601	2.026	1.387	1.387	1.392	1.411	1.406	1.416
0.015	-0.010	-0.010	0.024	-0.010	0.103	0.576	1.963	1.377	1.382	1.392	1.406	1.411	1.431
0.015	-0.020	-0.005	0.024	-0.015	0.142	0.679	2.017	1.377	1.377	1.387	1.406	1.411	1.436
0.015	-0.010	-0.010	0.000	-0.010	0.181	0.649	2.026	1.377	1.382	1.387	1.401	1.406	1.440
0.024	-0.020	-0.005	-0.029	-0.020	0.142	0.645	1.987	1.377	1.377	1.382	1.392	1.401	1.416
0.005	-0.005	0.010	-0.024	-0.010	0.068	0.649	2.026	1.367	1.377	1.387	1.392	1.396	1.392
-0.005	0.010	0.020	-0.024	-0.010	-0.049	0.620	2.002	1.362	1.377	1.387	1.396	1.392	1.357
-0.010	0.020	0.020	-0.020	0.029	-0.156	0.537	2.007	1.357	1.372	1.382	1.401	1.401	1.338
-0.015	0.015	0.020	-0.024	0.015	-0.220	0.552	2.026	1.353	1.367	1.372	1.396	1.392	1.333
-0.015	0.005	0.015	-0.020	-0.024	-0.264	0.571	2.012	1.348	1.357	1.367	1.392	1.377	1.333
-0.010	0.015	0.005	-0.020	-0.039	-0.234	0.581	2.012	1.348	1.353	1.362	1.392	1.382	1.357
-0.010	0.010	0.010	-0.024	-0.049	-0.166	0.620	1.992	1.343	1.353	1.362	1.387	1.382	1.382
0.000	0.010	0.005	-0.015	-0.029	-0.103	0.991	2.012	1.357	1.357	1.357	1.387	1.392	1.411
0.005	0.000	0.005	-0.005	-0.024	-0.039	1.016	2.007	1.357	1.353	1.357	1.387	1.392	1.426
0.005	-0.010	-0.005	0.005	0.005	0.020	1.001	2.007	1.367	1.348	1.353	1.387	1.401	1.436
0.020	-0.015	-0.015	0.005	-0.005	0.015	0.977	2.012	1.367	1.357	1.353	1.382	1.387	1.416
0.024	-0.010	-0.020	0.005	-0.020	0.073	0.942	1.997	1.372	1.357	1.353	1.377	1.382	1.421
0.024	-0.010	-0.029	0.020	-0.039	0.078	0.684	2.017	1.377	1.362	1.353	1.382	1.377	1.396
-0.005	-0.005	-0.010	0.010	-0.024	0.063	0.723	1.987	1.362	1.362	1.357	1.372	1.377	1.392
-0.005	0.000	0.000	-0.020	-0.010	0.049	0.781	2.017	1.362	1.362	1.362	1.367	1.377	1.387
-0.005	-0.010	0.000	-0.029	-0.020	0.039	0.776	2.007	1.362	1.362	1.357	1.367	1.372	1.377
-0.034	0.005	0.005	-0.029	-0.020	0.005	0.762	2.007	1.353	1.362	1.362	1.372	1.367	1.362
-0.024	0.000	0.010	-0.015	-0.020	0.015	0.767	2.026	1.353	1.357	1.362	1.377	1.367	1.367
-0.034	0.010	0.010	0.005	-0.034	0.020	0.771	2.026	1.353	1.357	1.362	1.387	1.372	1.367
-0.024	0.020	0.010	0.024	-0.029	0.010	0.669	1.987	1.353	1.357	1.357	1.392	1.377	1.362
-0.024	0.020	0.005	0.029	-0.015	0.015	0.669	2.026	1.353	1.357	1.362	1.387	1.382	1.372
-0.024	0.029	0.000	0.049	-0.039	0.015	0.669	2.012	1.353	1.357	1.357	1.392	1.377	1.372
0.020	0.010	0.005	0.039	-0.068	0.039	0.762	1.978	1.362	1.357	1.357	1.382	1.372	1.382
0.049	0.000	0.010	0.034	-0.068	0.000	0.781	2.129	1.362	1.353	1.357	1.377	1.372	1.367
0.059	-0.010	0.010	0.034	-0.068	0.010	0.776	1.978	1.362	1.353	1.353	1.377	1.372	1.372
0.068	-0.020	-0.005	0.034	-0.059	0.000	0.874	1.963	1.357	1.348	1.348	1.377	1.377	1.372
0.073	-0.020	-0.029	0.024	-0.054	0.029	1.084	2.065	1.348	1.348	1.343	1.367	1.372	1.387
0.039	-0.010	-0.029	0.000	-0.054	0.010	1.099	1.973	1.338	1.348	1.343	1.362	1.372	1.377
0.020	-0.005	-0.015	-0.015	0.020	-0.005	1.089	2.075	1.348	1.348	1.348	1.357	1.387	1.372
-0.010	0.000	-0.020	-0.010	0.049	0.005	1.094	2.041	1.348	1.348	1.348	1.362	1.387	1.382
-0.020	0.005	0.015	-0.010	0.117	-0.010	1.089	1.982	1.353	1.353	1.357	1.367	1.396	1.387
-0.020	0.000	0.010	-0.010	0.186	0.010	1.094	2.026	1.357	1.348	1.353	1.372	1.411	1.396
-0.024	-0.020	0.024	-0.005	0.181	0.054	1.089	1.953	1.353	1.348	1.357	1.372	1.396	1.406
-0.020	-0.005	0.029	-0.015	0.127	0.083	0.742	1.992	1.357	1.353	1.353	1.367	1.372	1.392
-0.015	-0.005	0.044	0.000	0.156	0.107	0.630	2.046	1.362	1.353	1.357	1.377	1.382	1.392
-0.010	0.000	0.049	0.005	0.225	0.107	0.620	2.021	1.362	1.357	1.357	1.382	1.401	1.396
0.005	0.010	0.000	0.000	0.249	0.059	1.079	2.075	1.372	1.362	1.343	1.377	1.396	1.396
-0.005	0.005	0.015	0.005	0.161	0.024	1.089	2.026	1.367	1.362	1.357	1.372	1.362	1.377
-0.005	0.010	0.039	-0.015	0.054	0.000	1.084	1.982	1.362	1.367	1.362	1.367	1.338	1.353
-0.015	0.010	0.029	-0.024	0.039	-0.059	1.060	1.997	1.353	1.362	1.357	1.367	1.338	1.333
-0.005	0.005	0.010	0.010	-0.015	-0.044	1.084	2.026	1.357	1.357	1.353	1.377	1.333	1.333
-0.010	0.010	-0.005	-0.005	-0.088	-0.020	1.089	1.992	1.348	1.357	1.353	1.367	1.323	1.338
-0.005	0.005	0.005	-0.015	-0.073	0.000	1.089	2.007	1.348	1.348	1.353	1.367	1.338	1.343
0.015	-0.010	0.000	-0.020	-0.073	0.034	1.084	2.041	1.357	1.348	1.348	1.367	1.348	1.353
0.015	-0.015	-0.020	-0.015	-0.029	0.000	1.084	2.026	1.357	1.348	1.343	1.367	1.357	1.348
0.029	-0.010	-0.020	0.000	-0.122	-0.024	1.089	2.017	1.357	1.353	1.348	1.367	1.333	1.333
0.024	0.000	-0.005	0.005	-0.112	-0.059	1.094	2.031	1.353	1.353	1.353	1.372	1.348	1.323
0.005	-0.005	-0.005	0.005	-0.063	-0.107	1.089	2.007	1.343	1.353	1.353	1.372	1.362	1.323
0.000	0.000	-0.015	0.000	-0.049	-0.122	1.094	1.997	1.333	1.343	1.348	1.367	1.367	1.333
-0.005	0.015	-0.015	0.000	-0.029	-0.146	1.094	2.026	1.338	1.348	1.348	1.367	1.367	1.333
-0.010	0.010	-0.015	0.005	-0.015	-0.151	1.099	2.017	1.333	1.343	1.348	1.367	1.372	1.343
-0.005	0.015	-0.010	0.020	0.020	-0.122	1.094	2.026	1.338	1.338	1.348	1.372	1.382	1.362
-0.005	0.005	0.005	0.020	0.020	-0.098	1.099	2.026	1.343	1.338	1.348	1.372	1.377	1.372
-0.005	0.024	0.000	0.010	0.024	-0.039	1.099	2.026	1.343	1.343	1.348	1.367	1.377	1.392
-0.010	0.020	0.000	-0.005	0.054	0.020	1.104	2.026	1.348	1.343	1.343	1.362	1.387	1.401
-0.005	0.034	0.020	-0.015	0.122	0.063	1.099	2.012	1.348	1.348	1.353	1.362	1.396	1.416
-0.005	0.015	0.015	0.010	0.181	0.088	1.104	2.017	1.353	1.343	1.348	1.377	1.406	1.416
-0.010	0.020	0.010	0.024	0.127	0.068	1.104	2.007	1.353	1.348	1.348	1.372	1.377	1.401
-0.005	-0.005	0.000	0.015	0.034	0.112	1.104	2.036	1.357	1.338	1.343	1.367	1.353	1.396
-0.024	-0.010	-0.005	0.000	-0.010	0.146	1.108	1.997	1.348	1.338	1.338	1.357	1.343	1.392
-0.029	-0.024	-0.024	-0.010	-0.024	0.200	1.113	2.026	1.348	1.338	1.333	1.353	1.343	1.392
-0.020	-0.029	-0.063	-0.015	-0.039	0.249	1.113	2.012	1.353	1.343	1.323	1.348	1.338	1.392
0.010	-0.024	-0.049	-0.010	-0.044	0.234	1.118	2.002	1.362	1.348	1.333	1.348	1.338	1.372
0.034	-0.024	-0.029	-0.005	-0.029	0.171	1.128	2.144	1.362	1.353	1.343	1.353	1.343	1.343
0.034	-0.020	0.000	0.005	-0.039	0.024	1.133	1.982	1.353	1.357	1.353	1.362	1.338	1.304
0.034	-0.010	0.039	0.005	-0.063	-0.107	1.138	1.973	1.338	1.353	1.362	1.367	1.333	1.274
0.044	-0.010	0.049	0.024	-0.107	-0.225	1.138	2.002	1.323	1.348	1.357	1.372	1.323	1.255
0.015	0.005	0.029	0.024	-0.146	-0.317	1.147	2.056	1.309	1.338	1.348	1.367	1.323	1.250
-0.005	0.010	0.005	-0.010	-0.156	-0.317	1.143	1.987	1.299	1.323	1.333	1.357	1.328	1.265
-0.015	0.024	0.000	0.000	-0.151	-0.234	1.147	2.056	1.309	1.323	1.333	1.357	1.338	1.313
-0.029	0.034	0.005	-0.010	-0.127	-0.146	1.152	2.046	1.313	1.323	1.328	1.353	1.353	1.348
-0.039	0.039	0.000	-0.005	-0.059	-0.059	1.147	1.997	1.313	1.318	1.328	1.357	1.372	1.377
-0.024	0.029	0.015	0.005	-0.010	0.015	1.143	2.017	1.323	1.318	1.328	1.362	1.382	1.401
-0.005	0.005	-0.005	0.015	0.068	0.039	1.147	2.026	1.338	1.318	1.323	1.357	1.401	1.406
0.005	0.000	0.005	0.020	0.098	0.049	1.147	2.080	1.353	1.323	1.323	1.357	1.396	1.406
-0.005	-0.005	0.015	0.015	0.093	0.068	1.157	2.036	1.348	1.328	1.328	1.353	1.377	1.401
0.005	-0.024	0.010	0.010	0.044	0.063	1.147	2.051	1.357	1.328	1.323	1.348	1.353	1.387
0.010	-0.015	0.000	0.010	-0.005	0.059	1.152	2.026	1.362	1.338	1.323	1.343	1.338	1.372
0.024	-0.024	0.005	0.010	0.005	0.117	1.147	1.938	1.343	1.338	1.333	1.343	1.343	1.382
0.015	-0.024	0.005	0.000	-0.020	0.127	1.147	2.026	1.348	1.343	1.333	1.343	1.338	1.367
0.029	-0.015	0.010	0.000	-0.039	0.098	1.143	2.017	1.348	1.343	1.338	1.343	1.328	1.348
0.024	0.000	0.015	-0.005	0.020	0.083	0.791	1.997	1.338	1.348	1.343	1.348	1.348	1.333
0.015	0.005	0.005	-0.020	0.063	0.024	0.781	1.997	1.328	1.343	1.338	1.348	1.353	1.323
0.005	0.000	-0.005	-0.020	0.088	-0.034	0.781	2.012	1.318	1.338	1.333	1.348	1.357	1.318
0.005	0.020	0.000	-0.005	0.044	-0.073	0.776	1.997	1.313	1.328	1.333	1.353	1.338	1.309
-0.005	0.024	0.005	0.005	-0.024	-0.063	0.781	2.017	1.309	1.328	1.333	1.353	1.323	1.318
-0.005	0.029	0.000	0.005	-0.088	-0.063	0.786	1.992	1.304	1.323	1.328	1.348	1.313	1.313
-0.020	0.015	-0.010	0.005	-0.039	-0.078	0.786	2.026	1.299	1.309	1.323	1.348	1.333	1.318
-0.024	0.015	-0.010	-0.005	-0.044	-0.020	0.786	2.021	1.304	1.309	1.318	1.343	1.338	1.338
-0.034	0.015	-0.020	0.005	-0.068	-0.034	0.781	2.017	1.304	1.309	1.309	1.343	1.333	1.333
-0.015	0.020	-0.010	0.015	-0.039	0.005	0.786	2.026	1.313	1.309	1.318	1.343	1.343	1.343
0.005	0.000	0.000	0.020	-0.015	0.029	0.776	2.002	1.313	1.304	1.313	1.343	1.353	1.353
0.010	-0.015	-0.015	0.024	0.063	0.029	0.791	1.997	1.313	1.304	1.309	1.338	1.367	1.362
0.005	-0.024	0.034	0.020	0.098	0.054	0.791	2.026	1.313	1.304	1.323	1.338	1.367	1.372
0.010	-0.029	0.024	0.005	0.107	0.083	0.791	2.026	1.318	1.304	1.309	1.333	1.362	1.377
0.010	-0.024	-0.015	0.015	0.093	0.039	0.786	1.997	1.313	1.309	1.299	1.328	1.348	1.357
0.020	-0.020	-0.034	0.005	0.093	0.010	0.796	2.017	1.318	1.309	1.299	1.323	1.333	1.343
0.010	-0.010	-0.020	0.005	0.122	-0.024	0.918	1.997	1.318	1.313	1.304	1.328	1.338	1.338
0.000	-0.005	-0.010	0.039	0.083	-0.029	1.084	1.987	1.309	1.313	1.309	1.333	1.323	1.333
-0.063	0.000	-0.029	0.029	0.063	-0.005	1.123	2.002	1.294	1.309	1.304	1.323	1.323	1.338
-0.068	0.010	-0.034	-0.020	0.039	0.010	1.133	2.041	1.309	1.309	1.304	1.309	1.309	1.333
-0.063	0.020	-0.020	-0.039	-0.024	0.054	1.138	2.002	1.309	1.313	1.309	1.304	1.294	1.333
-0.039	0.005	-0.010	-0.054	-0.068	0.117	1.143	2.002	1.323	1.313	1.309	1.309	1.284	1.338
0.000	0.029	0.005	-0.044	-0.059	0.166	1.147	2.119	1.338	1.323	1.318	1.323	1.299	1.338
0.049	0.034	0.024	-0.020	-0.024	0.161	1.143	1.978	1.343	1.333	1.328	1.333	1.318	1.333
0.093	0.024	0.034	-0.010	0.005	0.122	1.147	1.973	1.348	1.338	1.333	1.343	1.333	1.323
0.112	0.015	0.059	-0.005	-0.039	0.034	1.147	1.982	1.343	1.338	1.343	1.348	1.313	1.289
0.112	0.005	0.059	-0.005	-0.098	-0.083	1.147	2.046	1.328	1.333	1.338	1.348	1.309	1.265
0.098	-0.005	0.039	-0.015	-0.073	-0.161	1.147	2.070	1.328	1.323	1.328	1.348	1.318	1.260
0.059	-0.005	0.029	-0.010	-0.044	-0.181	1.147	2.036	1.318	1.318	1.323	1.348	1.333	1.274
0.020	-0.020	0.029	-0.005	-0.020	-0.156	1.147	2.051	1.309	1.313	1.318	1.348	1.343	1.299
0.000	-0.020	0.000	-0.010	0.015	-0.146	1.152	1.992	1.299	1.309	1.309	1.338	1.357	1.318
-0.020	-0.020	-0.015	0.000	0.103	-0.107	1.152	2.065	1.304	1.304	1.304	1.343	1.372	1.348
-0.039	-0.015	-0.029	0.000	0.073	-0.044	1.157	2.012	1.309	1.309	1.299	1.333	1.353	1.362
-0.063	-0.020	-0.020	0.020	0.049	0.015	1.152	2.041	1.309	1.304	1.304	1.333	1.343	1.372
-0.059	-0.020	-0.015	0.029	0.073	0.039	1.152	2.021	1.318	1.309	1.304	1.333	1.348	1.372
-0.049	-0.005	-0.015	0.015	0.132	0.054	1.152	2.056	1.333	1.318	1.309	1.333	1.357	1.372
-0.049	0.000	-0.010	0.010	0.103	0.049	1.157	2.036	1.338	1.323	1.313	1.328	1.338	1.362
-0.034	0.005	-0.010	0.005	0.024	0.049	1.152	1.973	1.333	1.328	1.313	1.323	1.313	1.348
-0.015	0.005	0.005	0.005	-0.034	0.034	1.152	2.002	1.333	1.328	1.323	1.328	1.299	1.328
-0.020	0.015	0.015	0.005	-0.054	0.010	1.152	2.021	1.333	1.333	1.328	1.333	1.299	1.309
-0.015	0.015	0.005	0.010	-0.098	-0.029	1.152	1.997	1.328	1.333	1.323	1.333	1.294	1.299
0.000	0.015	0.010	0.024	-0.078	-0.059	1.157	2.007	1.323	1.328	1.328	1.343	1.318	1.294
0.000	0.000	0.005	0.020	-0.024	-0.054	1.152	2.026	1.323	1.323	1.328	1.343	1.338	1.309
0.020	-0.005	0.024	0.015	0.034	-0.024	1.157	2.017	1.328	1.323	1.333	1.348	1.353	1.328
