-0.015	0.005	0.005	0.000	0.010	-0.010	0.029	2.671	4.639	2.617	2.261	1.836	1.943	1.748
0.000	0.005	0.005	-0.005	-0.005	0.010	0.029	2.656	3.926	2.998	2.456	2.002	1.948	1.802
0.020	0.000	0.005	-0.005	-0.005	0.010	0.029	2.661	3.413	3.125	2.642	2.178	2.002	1.860
0.024	0.010	0.000	-0.010	-0.010	0.005	0.029	2.646	3.037	3.115	2.773	2.339	2.090	1.919
0.034	-0.010	0.005	-0.005	-0.010	-0.005	0.029	2.651	2.764	3.022	2.847	2.485	2.192	1.987
0.015	0.000	0.000	0.000	-0.005	0.005	0.029	2.725	2.573	2.905	2.866	2.598	2.305	2.075
0.010	-0.005	0.000	0.000	0.010	-0.024	0.029	2.627	2.427	2.778	2.847	2.671	2.402	2.153
0.005	-0.005	0.000	0.000	0.024	-0.024	0.029	2.642	2.329	2.656	2.803	2.715	2.495	2.246
-0.010	-0.005	-0.005	0.000	0.015	0.010	0.029	2.847	2.285	2.554	2.734	2.729	2.554	2.339
-0.010	-0.005	0.000	0.000	0.000	0.005	0.029	2.681	2.246	2.471	2.666	2.720	2.598	2.407
-0.020	-0.010	-0.005	0.000	0.005	0.015	0.029	2.671	2.222	2.407	2.593	2.690	2.622	2.471
-0.024	0.000	0.000	0.005	0.005	0.000	0.029	2.671	2.207	2.354	2.529	2.651	2.632	2.505
-0.020	-0.005	-0.005	0.000	0.000	-0.020	0.029	2.676	2.202	2.310	2.471	2.607	2.627	2.534
-0.015	0.000	0.000	0.000	0.000	0.005	0.029	2.681	2.207	2.285	2.417	2.563	2.612	2.559
-0.015	0.005	0.000	0.000	0.000	0.005	0.029	2.666	2.212	2.271	2.378	2.515	2.583	2.568
-0.005	0.005	0.000	0.005	0.005	0.005	0.029	2.656	2.217	2.256	2.344	2.476	2.554	2.563
0.005	0.005	0.000	0.000	0.000	0.000	0.029	2.651	2.217	2.246	2.319	2.437	2.520	2.554
0.000	0.015	0.000	0.005	0.000	0.005	0.029	2.656	2.222	2.251	2.300	2.407	2.490	2.534
-0.005	0.034	0.000	0.005	0.000	0.000	0.029	2.646	2.217	2.246	2.280	2.378	2.461	2.515
-0.015	0.020	0.000	0.005	0.000	0.000	0.029	2.695	2.212	2.236	2.271	2.349	2.427	2.490
-0.015	0.010	0.000	0.010	0.010	-0.005	0.029	2.656	2.217	2.231	2.261	2.334	2.402	2.466
-0.010	0.010	0.005	0.000	0.005	-0.015	0.029	2.632	2.212	2.227	2.246	2.314	2.373	2.441
-0.010	-0.005	0.005	0.000	0.005	0.005	0.029	2.852	2.231	2.222	2.241	2.300	2.354	2.422
-0.005	0.000	0.000	0.010	-0.005	-0.005	0.029	2.656	2.227	2.231	2.236	2.285	2.334	2.393
0.000	-0.015	-0.005	0.005	0.005	0.000	0.029	2.671	2.222	2.222	2.231	2.275	2.319	2.373
0.015	-0.020	0.000	0.005	0.000	0.005	0.029	2.676	2.217	2.222	2.231	2.266	2.300	2.354
0.000	-0.005	0.005	0.000	0.000	0.005	0.029	2.671	2.207	2.222	2.227	2.261	2.285	2.334
-0.020	-0.010	0.000	-0.005	0.000	0.005	0.029	2.676	2.202	2.217	2.222	2.256	2.275	2.319
0.024	-0.010	-0.005	0.000	-0.005	0.000	0.029	2.666	2.202	2.212	2.217	2.251	2.266	2.300
0.039	-0.015	0.000	0.005	0.000	-0.005	0.029	2.627	2.192	2.207	2.217	2.246	2.261	2.290
0.029	-0.005	0.000	0.005	0.000	-0.005	0.029	2.725	2.212	2.212	2.212	2.246	2.251	2.280
0.029	0.000	0.005	0.005	0.005	0.000	0.029	2.681	2.202	2.212	2.212	2.236	2.251	2.271
0.015	-0.005	0.000	0.000	0.005	-0.020	0.029	2.681	2.187	2.202	2.207	2.231	2.246	2.261
-0.005	0.005	0.000	-0.005	0.005	0.010	0.034	2.671	2.173	2.197	2.207	2.227	2.241	2.261
-0.020	0.010	0.000	-0.005	0.000	0.005	0.029	2.686	2.168	2.192	2.197	2.227	2.231	2.256
-0.029	0.000	0.000	-0.010	-0.005	0.010	0.029	2.754	2.173	2.183	2.197	2.222	2.227	2.246
-0.034	0.024	0.000	-0.010	0.000	-0.010	0.029	2.627	2.163	2.187	2.192	2.217	2.222	2.236
-0.034	0.015	0.000	-0.010	0.005	0.005	0.029	2.832	2.178	2.178	2.187	2.217	2.222	2.231
-0.010	0.010	0.005	-0.005	-0.005	-0.005	0.029	2.676	2.168	2.178	2.187	2.212	2.217	2.227
-0.005	-0.005	0.010	0.005	-0.010	0.000	0.029	2.676	2.168	2.173	2.183	2.212	2.212	2.222
0.010	-0.005	0.005	0.005	-0.010	0.005	0.034	2.681	2.163	2.173	2.178	2.207	2.212	2.222
-0.005	0.005	0.005	0.005	-0.005	0.010	0.029	2.666	2.153	2.168	2.178	2.202	2.212	2.222
0.010	-0.005	0.005	0.005	0.015	0.005	0.029	2.671	2.148	2.158	2.173	2.197	2.207	2.217
0.005	0.000	0.005	0.010	0.000	0.000	0.029	2.622	2.139	2.158	2.163	2.192	2.202	2.212
-0.005	-0.005	-0.005	0.010	0.010	0.000	0.029	2.793	2.144	2.148	2.158	2.192	2.197	2.212
0.000	0.000	0.000	0.010	0.000	0.000	0.029	2.700	2.144	2.148	2.153	2.187	2.192	2.202
0.005	0.005	-0.005	0.005	0.005	0.000	0.029	2.671	2.139	2.148	2.148	2.183	2.187	2.197
0.010	0.000	-0.005	0.010	0.005	0.000	0.029	2.676	2.134	2.144	2.148	2.178	2.183	2.197
0.010	0.000	0.000	-0.005	0.000	0.005	0.029	2.681	2.124	2.139	2.144	2.173	2.178	2.187
0.005	0.000	0.000	-0.010	0.005	0.000	0.029	2.686	2.119	2.134	2.139	2.168	2.178	2.183
0.005	0.005	0.000	-0.015	0.015	0.005	0.029	2.676	2.114	2.129	2.139	2.163	2.173	2.183
0.005	0.015	-0.005	-0.010	0.000	0.000	0.029	2.671	2.114	2.129	2.134	2.158	2.163	2.178
0.010	0.015	0.005	-0.010	0.000	-0.020	0.029	2.666	2.109	2.124	2.134	2.158	2.158	2.168
0.015	0.005	0.005	-0.005	0.000	0.005	0.029	2.656	2.100	2.114	2.124	2.158	2.163	2.168
-0.005	0.010	0.000	0.005	-0.005	0.010	0.029	2.637	2.095	2.109	2.124	2.153	2.158	2.168
-0.015	0.005	0.000	0.005	-0.005	0.000	0.029	2.666	2.090	2.100	2.114	2.148	2.153	2.163
-0.010	0.000	0.005	0.000	0.005	0.000	0.029	2.686	2.090	2.100	2.109	2.144	2.153	2.158
-0.005	0.000	0.000	0.015	0.000	-0.005	0.029	2.671	2.090	2.100	2.104	2.144	2.148	2.158
0.000	-0.005	0.005	0.010	-0.005	-0.005	0.029	2.676	2.090	2.095	2.104	2.134	2.144	2.148
0.015	-0.010	0.000	0.015	0.000	0.010	0.029	2.627	2.080	2.090	2.100	2.129	2.139	2.148
0.024	0.005	0.000	0.015	-0.005	0.000	0.029	2.656	2.080	2.095	2.100	2.124	2.134	2.144
0.010	0.010	0.000	0.010	0.000	0.000	0.029	2.676	2.070	2.085	2.090	2.119	2.129	2.139
0.020	0.005	0.000	0.005	0.000	-0.005	0.029	2.681	2.075	2.080	2.090	2.114	2.124	2.134
0.015	-0.010	-0.005	0.005	0.000	-0.005	0.029	2.666	2.070	2.075	2.080	2.109	2.119	2.129
0.000	-0.005	-0.005	0.005	0.000	0.015	0.029	2.681	2.065	2.070	2.080	2.109	2.114	2.129
0.000	-0.005	0.000	0.005	0.000	0.005	0.029	2.671	2.061	2.070	2.075	2.104	2.109	2.119
0.000	0.000	-0.005	0.000	0.010	-0.024	0.029	2.661	2.065	2.070	2.075	2.100	2.109	2.109
0.005	-0.005	0.005	0.000	0.010	0.010	0.029	2.656	2.061	2.065	2.070	2.100	2.104	2.119
0.005	-0.005	0.005	-0.005	0.010	-0.015	0.029	2.671	2.056	2.065	2.070	2.095	2.100	2.104
0.010	0.000	-0.005	0.000	0.010	0.000	0.029	2.798	2.046	2.061	2.065	2.090	2.095	2.109
0.010	0.000	0.000	-0.005	0.000	0.010	0.029	2.671	2.046	2.056	2.065	2.090	2.095	2.104
0.000	0.010	0.000	-0.005	0.000	-0.005	0.029	2.681	2.051	2.061	2.061	2.085	2.090	2.095
-0.005	0.020	0.005	-0.005	0.000	-0.010	0.029	2.798	2.056	2.056	2.061	2.085	2.085	2.090
-0.010	0.005	0.005	0.000	0.000	0.005	0.029	2.817	2.065	2.056	2.061	2.085	2.085	2.095
-0.010	-0.005	0.000	0.000	0.000	0.010	0.029	2.627	2.051	2.056	2.056	2.080	2.085	2.095
-0.015	0.000	-0.005	0.000	0.000	0.005	0.029	2.817	2.061	2.056	2.056	2.080	2.080	2.090
-0.020	-0.010	0.005	0.000	-0.005	0.010	0.034	2.686	2.051	2.051	2.056	2.080	2.075	2.085
0.000	-0.010	0.000	-0.005	-0.005	0.005	0.034	2.646	2.041	2.051	2.051	2.075	2.075	2.080
-0.010	-0.005	0.000	-0.005	0.000	-0.005	0.029	2.666	2.031	2.046	2.051	2.070	2.075	2.075
-0.010	-0.020	0.005	0.005	0.005	0.005	0.034	2.681	2.036	2.036	2.046	2.070	2.075	2.075
-0.005	-0.010	0.000	0.005	0.010	0.000	0.029	2.661	2.026	2.036	2.041	2.070	2.070	2.075
-0.005	0.005	0.000	0.000	-0.005	0.000	0.029	2.686	2.026	2.036	2.041	2.065	2.065	2.070
-0.005	0.010	0.000	0.010	-0.005	-0.005	0.029	2.690	2.026	2.036	2.041	2.065	2.065	2.070
0.005	0.010	0.005	0.005	-0.005	0.000	0.029	2.676	2.026	2.036	2.041	2.061	2.065	2.065
0.005	0.000	0.000	0.000	0.005	0.000	0.029	2.681	2.026	2.031	2.036	2.056	2.065	2.065
0.010	-0.005	0.005	0.000	0.005	0.000	0.029	2.690	2.026	2.026	2.031	2.056	2.061	2.065
0.010	0.005	0.005	0.000	0.005	-0.024	0.029	2.690	2.021	2.026	2.031	2.056	2.056	2.061
0.010	0.005	0.000	0.000	0.000	-0.010	0.029	2.661	2.021	2.026	2.031	2.056	2.056	2.056
0.000	0.000	0.005	0.005	-0.005	-0.005	0.029	2.661	2.007	2.021	2.026	2.051	2.051	2.056
-0.005	0.000	0.005	0.000	0.000	0.015	0.029	2.681	2.012	2.017	2.026	2.051	2.051	2.061
0.000	-0.005	0.000	0.000	0.010	0.005	0.029	2.676	2.012	2.017	2.021	2.046	2.051	2.056
0.000	0.000	-0.005	0.005	0.010	-0.005	0.029	2.671	2.012	2.017	2.017	2.041	2.046	2.051
0.000	0.000	0.000	0.005	0.010	-0.020	0.029	2.676	2.007	2.012	2.017	2.041	2.041	2.041
-0.010	0.010	0.000	0.005	0.005	-0.024	0.029	2.681	2.002	2.012	2.017	2.036	2.041	2.041
-0.005	-0.015	0.000	0.000	0.005	0.000	0.029	2.681	2.002	2.002	2.012	2.036	2.036	2.046
0.020	0.000	0.000	0.000	0.000	0.020	0.029	2.710	2.012	2.007	2.007	2.031	2.031	2.046
-0.005	0.005	0.000	0.000	0.005	-0.005	0.029	2.695	2.002	2.007	2.007	2.031	2.031	2.036
0.000	0.005	-0.005	0.005	0.005	-0.005	0.029	2.666	1.997	2.002	2.002	2.026	2.031	2.036
0.010	0.010	0.000	0.000	0.005	0.015	0.029	2.681	1.997	2.007	2.007	2.026	2.026	2.036
0.015	0.010	-0.005	0.000	0.000	-0.005	0.029	2.671	2.002	2.002	2.002	2.026	2.026	2.026
0.020	0.015	-0.005	0.000	0.000	-0.015	0.029	2.690	1.997	2.002	2.002	2.026	2.026	2.026
0.010	0.010	0.000	0.000	0.000	0.015	0.029	2.695	1.997	2.002	2.002	2.026	2.021	2.026
0.015	0.015	0.000	0.005	-0.005	-0.010	0.029	2.681	1.992	1.997	2.002	2.026	2.021	2.021
0.010	0.005	0.000	0.015	0.000	-0.005	0.029	2.661	1.987	1.992	2.002	2.026	2.021	2.021
0.000	0.010	0.005	0.015	0.010	0.010	0.024	2.661	1.982	1.992	1.997	2.021	2.026	2.026
-0.005	-0.010	0.010	0.005	0.005	0.010	0.029	2.681	1.982	1.982	1.992	2.017	2.021	2.026
0.000	-0.005	0.000	-0.005	0.005	0.015	0.029	2.676	1.982	1.982	1.992	2.012	2.017	2.026
-0.015	-0.005	0.005	-0.010	0.000	0.015	0.029	2.690	1.982	1.982	1.987	2.012	2.012	2.017
-0.010	-0.005	0.000	-0.010	-0.005	0.010	0.029	2.666	1.978	1.982	1.982	2.007	2.007	2.012
-0.010	-0.010	0.000	-0.010	-0.005	0.010	0.029	2.676	1.978	1.978	1.978	2.007	2.007	2.012
-0.005	-0.015	0.000	-0.010	0.000	0.010	0.029	2.681	1.978	1.973	1.978	2.002	2.007	2.007
-0.005	-0.010	0.005	0.000	0.000	-0.010	0.029	2.656	1.973	1.978	1.978	2.002	2.002	2.002
-0.005	-0.015	0.000	0.000	-0.005	0.005	0.029	2.681	1.973	1.973	1.973	2.002	2.002	2.007
0.005	0.005	0.000	0.000	0.000	0.000	0.029	2.666	1.973	1.978	1.973	1.997	1.997	2.002
-0.005	-0.005	0.000	0.005	-0.005	-0.010	0.029	2.671	1.968	1.973	1.978	1.997	1.997	1.997
-0.010	0.005	0.005	0.000	0.005	-0.005	0.029	2.681	1.968	1.973	1.978	1.997	1.997	1.997
-0.005	0.010	0.000	0.000	0.005	0.000	0.029	2.686	1.968	1.973	1.973	1.992	1.992	1.997
-0.005	0.005	0.005	-0.005	0.000	0.010	0.029	2.690	1.968	1.968	1.973	1.992	1.992	1.997
-0.005	0.005	0.000	0.000	0.000	0.005	0.029	2.690	1.973	1.968	1.968	1.992	1.992	1.997
-0.005	0.010	0.000	0.005	-0.005	0.005	0.029	2.690	1.973	1.973	1.968	1.992	1.992	1.992
0.000	0.010	0.000	0.010	-0.005	0.000	0.034	2.676	1.968	1.973	1.973	1.992	1.987	1.992
0.005	0.010	0.005	0.005	0.000	0.010	0.029	2.676	1.968	1.973	1.973	1.992	1.992	1.992
0.010	0.000	-0.005	0.000	0.010	0.010	0.029	2.681	1.968	1.968	1.968	1.987	1.992	1.992
-0.005	-0.005	0.000	0.000	0.000	-0.010	0.029	2.671	1.963	1.968	1.968	1.987	1.987	1.987
0.020	-0.005	0.000	-0.005	-0.005	0.000	0.029	2.686	1.968	1.963	1.963	1.987	1.982	1.987
0.005	0.000	0.000	-0.005	0.000	-0.020	0.029	2.681	1.958	1.963	1.963	1.982	1.982	1.982
0.005	0.000	0.000	-0.005	-0.005	0.005	0.029	2.676	1.958	1.963	1.963	1.982	1.982	1.987
0.000	0.000	0.000	0.000	-0.005	0.005	0.029	2.690	1.958	1.958	1.963	1.982	1.982	1.982
-0.005	-0.010	0.000	0.000	-0.010	0.005	0.029	2.661	1.953	1.953	1.953	1.982	1.978	1.982
0.000	-0.010	0.005	0.000	0.005	0.000	0.029	2.681	1.953	1.953	1.958	1.978	1.982	1.982
-0.010	-0.005	0.000	0.005	0.005	-0.005	0.029	2.676	1.948	1.953	1.953	1.978	1.978	1.978
-0.005	0.005	0.005	0.005	0.005	0.000	0.034	2.676	1.953	1.953	1.953	1.978	1.978	1.978
0.000	0.005	0.000	0.000	0.000	0.010	0.029	2.676	1.953	1.958	1.953	1.973	1.973	1.982
0.005	0.010	0.000	0.000	0.015	0.000	0.029	2.686	1.953	1.953	1.953	1.973	1.978	1.978
0.010	-0.005	0.000	0.000	0.010	-0.005	0.029	2.686	1.953	1.948	1.953	1.973	1.973	1.973
0.015	0.005	0.000	0.005	0.005	0.010	0.029	2.690	1.958	1.953	1.953	1.973	1.973	1.978
0.020	0.010	-0.010	0.005	0.000	0.005	0.029	2.666	1.953	1.953	1.953	1.973	1.968	1.973
0.034	0.010	0.000	0.000	0.005	0.005	0.029	2.671	1.953	1.953	1.953	1.973	1.968	1.973
0.020	-0.005	0.005	0.005	0.000	0.005	0.029	2.666	1.948	1.953	1.953	1.973	1.968	1.973
0.010	-0.005	0.000	0.005	0.005	0.000	0.029	2.681	1.943	1.943	1.948	1.973	1.968	1.968
0.000	0.000	0.000	0.010	0.000	-0.005	0.029	2.690	1.943	1.948	1.948	1.973	1.968	1.968
0.000	0.005	0.000	0.015	-0.005	0.000	0.029	2.686	1.943	1.948	1.948	1.973	1.968	1.963
-0.005	0.005	0.000	0.010	0.000	0.010	0.029	2.690	1.938	1.943	1.943	1.968	1.968	1.968
0.000	-0.024	0.000	0.005	0.000	0.010	0.029	2.661	1.938	1.934	1.938	1.963	1.963	1.968
0.010	-0.020	-0.005	0.000	0.000	0.000	0.029	2.666	1.938	1.934	1.938	1.958	1.963	1.963
-0.005	0.000	-0.005	-0.005	0.000	0.000	0.029	2.661	1.934	1.938	1.938	1.953	1.958	1.963
-0.010	0.000	0.000	-0.010	-0.005	0.000	0.029	2.676	1.934	1.938	1.938	1.958	1.958	1.958
-0.005	0.005	0.000	-0.010	-0.005	0.000	0.029	2.686	1.934	1.938	1.938	1.953	1.953	1.958
-0.005	0.005	0.000	-0.015	0.000	0.000	0.029	2.666	1.934	1.938	1.938	1.953	1.953	1.958
-0.005	0.010	0.000	-0.005	-0.005	0.000	0.029	2.676	1.934	1.934	1.938	1.958	1.953	1.958
-0.015	0.010	0.000	0.000	-0.005	0.010	0.029	2.661	1.929	1.934	1.934	1.958	1.953	1.958
-0.015	0.005	0.000	0.000	0.000	0.010	0.029	2.676	1.929	1.929	1.934	1.958	1.953	1.958
-0.020	-0.010	0.005	0.000	-0.005	0.010	0.029	2.695	1.929	1.924	1.934	1.953	1.953	1.953
-0.020	-0.005	0.005	0.005	-0.010	0.005	0.029	2.681	1.929	1.929	1.929	1.953	1.953	1.953
-0.005	-0.005	0.000	0.005	-0.010	0.005	0.029	2.671	1.938	1.929	1.934	1.953	1.948	1.953
0.005	0.000	0.005	0.005	-0.005	0.000	0.029	2.676	1.938	1.934	1.934	1.953	1.953	1.953
0.010	0.010	0.005	0.005	-0.005	-0.010	0.029	2.690	1.938	1.934	1.934	1.953	1.948	1.943
0.000	0.000	0.000	0.005	-0.005	0.005	0.029	2.690	1.929	1.934	1.934	1.948	1.948	1.953
-0.010	0.010	0.000	0.005	0.000	0.010	0.029	2.690	1.929	1.934	1.929	1.948	1.948	1.948
-0.015	-0.010	0.005	0.005	0.000	0.010	0.029	2.676	1.929	1.924	1.929	1.948	1.943	1.948
0.000	-0.010	0.005	0.000	0.010	0.005	0.029	2.690	1.929	1.924	1.929	1.948	1.948	1.948
0.005	-0.005	0.005	0.000	-0.005	0.005	0.029	2.671	1.929	1.929	1.924	1.943	1.943	1.943
0.000	-0.005	0.000	0.000	-0.010	0.005	0.029	2.686	1.929	1.929	1.924	1.943	1.938	1.943
0.015	0.000	0.005	0.000	-0.010	0.010	0.029	2.671	1.934	1.929	1.929	1.943	1.938	1.943
0.024	0.005	0.000	0.000	-0.010	-0.010	0.029	2.681	1.934	1.929	1.929	1.943	1.938	1.934
0.029	0.010	-0.005	0.000	-0.010	0.005	0.029	2.671	1.934	1.929	1.929	1.943	1.938	1.938
0.024	0.010	0.005	0.005	-0.010	0.020	0.029	2.666	1.929	1.929	1.929	1.948	1.938	1.948
0.015	0.015	0.000	0.005	-0.010	0.015	0.029	2.695	1.924	1.929	1.929	1.948	1.943	1.943
0.024	0.010	0.000	0.005	-0.005	0.015	0.029	2.690	1.929	1.924	1.929	1.948	1.943	1.943
0.005	0.010	0.000	0.000	-0.010	-0.005	0.029	2.686	1.919	1.924	1.924	1.948	1.938	1.934
-0.005	0.000	0.005	0.000	0.000	-0.005	0.029	2.695	1.919	1.919	1.924	1.943	1.943	1.938
-0.005	0.010	0.000	0.005	-0.005	0.005	0.029	2.671	1.919	1.924	1.919	1.943	1.943	1.943
-0.005	-0.005	-0.005	0.005	0.010	0.010	0.029	2.671	1.914	1.914	1.919	1.943	1.943	1.943
-0.010	0.000	0.000	0.010	0.005	-0.005	0.029	2.681	1.914	1.919	1.919	1.943	1.943	1.938
-0.010	-0.005	-0.005	0.010	0.005	-0.005	0.029	2.637	1.909	1.914	1.914	1.938	1.943	1.943
-0.015	0.000	0.005	0.010	0.000	0.005	0.029	2.661	1.909	1.914	1.914	1.938	1.938	1.943
-0.005	0.000	0.005	0.000	0.010	-0.005	0.029	2.666	1.909	1.914	1.914	1.934	1.938	1.934
-0.005	0.005	0.000	0.000	0.020	0.010	0.029	2.686	1.919	1.914	1.914	1.934	1.938	1.943
-0.005	-0.010	0.000	-0.005	0.020	0.005	0.029	2.676	1.914	1.909	1.909	1.934	1.934	1.938
0.000	-0.015	-0.005	-0.005	0.020	-0.015	0.029	2.690	1.919	1.909	1.909	1.929	1.929	1.929
0.005	-0.005	0.000	0.000	0.020	0.010	0.029	2.671	1.919	1.914	1.909	1.934	1.929	1.934
0.010	-0.010	0.005	-0.005	0.020	-0.015	0.029	2.676	1.919	1.914	1.914	1.929	1.929	1.934
0.015	0.000	0.000	-0.005	0.024	-0.005	0.034	2.656	1.914	1.919	1.914	1.929	1.929	1.929
0.005	0.000	0.005	0.000	0.015	-0.010	0.029	2.666	1.909	1.914	1.914	1.934	1.924	1.929
0.005	0.005	0.000	-0.005	0.015	0.005	0.029	2.671	1.909	1.914	1.909	1.929	1.929	1.934
0.005	-0.005	0.000	0.000	0.015	-0.005	0.029	2.686	1.914	1.914	1.909	1.929	1.929	1.929
0.005	0.010	0.000	0.000	0.020	-0.005	0.029	2.666	1.914	1.914	1.914	1.929	1.929	1.929
0.000	0.000	0.000	-0.005	0.020	0.000	0.029	2.686	1.914	1.909	1.909	1.929	1.924	1.929
0.005	0.000	0.000	0.000	0.024	-0.005	0.029	2.676	1.914	1.909	1.909	1.934	1.929	1.924
-0.005	0.010	-0.005	0.010	0.034	-0.005	0.029	2.686	1.909	1.914	1.909	1.934	1.934	1.929
-0.010	-0.005	0.000	0.000	0.034	0.000	0.029	2.700	1.909	1.909	1.909	1.929	1.929	1.929
-0.010	0.000	0.005	0.005	0.024	-0.015	0.029	2.671	1.909	1.909	1.909	1.929	1.929	1.924
0.005	-0.010	0.005	0.005	0.024	-0.005	0.029	2.686	1.914	1.909	1.909	1.929	1.924	1.929
-0.005	-0.005	0.000	0.010	0.005	-0.020	0.029	2.681	1.909	1.909	1.909	1.929	1.919	1.919
-0.010	-0.005	0.000	0.005	0.005	-0.015	0.029	2.671	1.909	1.904	1.904	1.929	1.919	1.924
-0.010	0.000	-0.005	0.005	0.005	0.005	0.029	2.671	1.909	1.909	1.904	1.929	1.919	1.924
0.005	-0.005	0.005	0.000	0.005	0.000	0.029	2.686	1.909	1.904	1.904	1.924	1.919	1.924
0.010	-0.005	0.005	0.000	-0.005	-0.005	0.029	2.676	1.909	1.909	1.904	1.924	1.919	1.919
0.005	0.005	0.000	0.000	0.005	0.000	0.029	2.700	1.909	1.909	1.909	1.924	1.919	1.919
0.010	0.010	0.005	0.000	0.000	0.005	0.029	2.666	1.904	1.909	1.909	1.924	1.919	1.919
0.005	0.010	0.000	-0.005	-0.015	0.000	0.029	2.676	1.904	1.909	1.904	1.924	1.914	1.919
0.005	0.000	0.005	0.000	-0.010	-0.015	0.029	2.681	1.904	1.904	1.904	1.924	1.914	1.914
0.000	0.005	0.000	0.000	0.000	0.000	0.029	2.686	1.904	1.904	1.904	1.924	1.919	1.919
0.000	0.010	0.000	-0.005	-0.005	-0.015	0.029	2.681	1.904	1.904	1.904	1.924	1.919	1.914
0.000	0.005	0.000	0.005	-0.020	0.000	0.029	2.686	1.904	1.904	1.904	1.924	1.914	1.919
0.010	0.005	0.005	0.005	-0.024	0.005	0.029	2.681	1.909	1.904	1.904	1.929	1.919	1.919
0.005	-0.010	0.000	0.005	-0.024	0.010	0.029	2.642	1.904	1.899	1.899	1.924	1.919	1.919
0.000	-0.005	-0.005	0.005	-0.020	0.010	0.029	2.661	1.899	1.904	1.904	1.924	1.919	1.919
0.000	-0.005	0.000	0.005	-0.015	0.005	0.029	2.681	1.899	1.899	1.899	1.924	1.919	1.919
-0.005	0.000	0.000	0.005	-0.020	0.010	0.029	2.681	1.899	1.899	1.899	1.919	1.919	1.919
0.005	-0.010	0.000	0.000	-0.015	0.015	0.029	2.671	1.899	1.899	1.899	1.919	1.914	1.919
-0.010	-0.005	0.000	0.000	-0.020	0.010	0.029	2.686	1.899	1.895	1.895	1.919	1.914	1.914
0.005	0.000	0.000	0.005	-0.029	0.010	0.029	2.681	1.904	1.899	1.895	1.914	1.909	1.914
0.005	-0.005	-0.005	0.000	-0.029	0.010	0.029	2.686	1.904	1.899	1.899	1.914	1.909	1.914
0.005	0.000	-0.005	-0.005	-0.015	0.000	0.029	2.695	1.904	1.899	1.895	1.914	1.909	1.909
0.005	0.010	0.000	0.000	0.000	0.010	0.029	2.681	1.904	1.904	1.899	1.914	1.919	1.914
0.010	0.015	0.005	0.000	-0.005	0.005	0.029	2.681	1.904	1.904	1.904	1.919	1.914	1.914
0.005	0.005	-0.005	0.000	-0.010	0.000	0.029	2.681	1.899	1.904	1.899	1.919	1.914	1.914
0.010	0.005	0.000	0.000	0.000	0.010	0.029	2.690	1.904	1.904	1.899	1.919	1.919	1.919
-0.005	0.034	0.005	0.000	0.010	-0.005	0.029	2.686	1.904	1.909	1.904	1.919	1.919	1.914
-0.010	0.000	0.005	-0.005	0.005	0.005	0.029	2.695	1.899	1.895	1.899	1.919	1.914	1.914
-0.005	0.005	0.005	0.000	0.000	0.015	0.029	2.690	1.904	1.899	1.899	1.919	1.919	1.919
0.000	-0.015	-0.005	0.000	0.010	0.005	0.029	2.676	1.904	1.895	1.899	1.919	1.914	1.914
-0.005	0.005	0.000	0.000	0.010	0.005	0.029	2.676	1.899	1.899	1.899	1.919	1.919	1.919
0.000	-0.010	0.010	0.000	0.005	0.005	0.029	2.686	1.899	1.895	1.899	1.919	1.914	1.914
0.000	-0.010	0.005	0.005	-0.005	0.010	0.029	2.671	1.904	1.895	1.895	1.919	1.909	1.914
-0.005	-0.005	0.000	0.000	0.000	-0.015	0.029	2.686	1.899	1.895	1.895	1.914	1.914	1.904
-0.005	0.000	0.000	0.005	0.005	-0.015	0.029	2.676	1.895	1.899	1.895	1.914	1.914	1.909
0.000	0.024	0.000	0.005	0.000	-0.015	0.029	2.690	1.904	1.904	1.895	1.914	1.909	1.909
0.000	0.015	-0.005	0.005	0.000	0.010	0.029	2.676	1.895	1.899	1.895	1.914	1.909	1.919
0.005	0.000	0.005	0.000	0.000	0.010	0.029	2.710	1.904	1.895	1.895	1.914	1.909	1.909
0.000	0.005	0.000	0.005	0.010	-0.015	0.029	2.676	1.899	1.899	1.899	1.914	1.909	1.909
0.015	0.015	0.005	0.005	0.015	0.000	0.029	2.676	1.904	1.904	1.899	1.914	1.914	1.909
0.005	0.015	-0.005	0.005	-0.005	0.005	0.029	2.671	1.895	1.899	1.895	1.914	1.909	1.914
0.015	0.005	0.000	0.005	-0.005	0.010	0.029	2.666	1.899	1.895	1.895	1.914	1.909	1.914
0.000	0.005	0.005	0.010	0.005	-0.005	0.029	2.681	1.895	1.895	1.899	1.919	1.914	1.909
0.010	0.005	0.000	0.005	0.015	-0.024	0.029	2.681	1.899	1.895	1.895	1.919	1.914	1.904
0.010	0.000	0.000	0.000	-0.005	0.010	0.029	2.681	1.895	1.895	1.895	1.914	1.909	1.914
0.005	0.005	0.000	-0.010	0.005	0.015	0.029	2.651	1.895	1.895	1.895	1.909	1.914	1.914
0.000	0.000	0.005	-0.005	0.000	0.005	0.029	2.700	1.895	1.895	1.895	1.914	1.909	1.909
-0.005	-0.005	0.000	-0.005	0.005	0.000	0.029	2.676	1.895	1.890	1.890	1.909	1.909	1.909
0.000	0.000	0.000	0.000	0.000	0.010	0.029	2.676	1.895	1.895	1.895	1.909	1.909	1.914
0.005	-0.005	0.000	0.000	-0.005	0.000	0.029	2.681	1.895	1.895	1.890	1.909	1.904	1.904
0.005	0.005	-0.005	0.005	0.000	-0.020	0.029	2.661	1.895	1.895	1.890	1.909	1.909	1.904
0.000	-0.005	0.000	0.000	0.015	0.000	0.029	2.671	1.890	1.890	1.890	1.914	1.909	1.909
-0.005	-0.010	0.000	0.005	0.010	-0.010	0.029	2.686	1.890	1.885	1.890	1.909	1.909	1.904
-0.010	-0.005	0.005	0.005	0.000	0.010	0.029	2.661	1.895	1.890	1.890	1.909	1.904	1.909
0.000	-0.005	0.000	0.000	-0.010	-0.005	0.029	2.671	1.895	1.890	1.890	1.909	1.899	1.904
0.010	-0.005	0.000	0.000	0.000	0.010	0.029	2.690	1.899	1.890	1.890	1.904	1.904	1.909
0.010	0.000	0.000	-0.005	0.005	0.015	0.029	2.686	1.899	1.890	1.890	1.904	1.909	1.909
0.010	-0.005	0.005	0.000	0.015	-0.024	0.029	2.661	1.899	1.899	1.890	1.904	1.909	1.895
0.000	0.000	0.000	0.005	0.005	0.005	0.029	2.681	1.890	1.895	1.890	1.909	1.904	1.909
0.000	0.000	0.000	0.005	0.015	0.010	0.029	2.686	1.895	1.895	1.895	1.909	1.909	1.909
-0.015	0.010	0.005	0.010	0.005	0.000	0.029	2.690	1.890	1.895	1.890	1.909	1.904	1.904
-0.020	0.010	0.000	0.005	-0.005	0.000	0.029	2.695	1.890	1.895	1.895	1.909	1.899	1.904
-0.010	0.000	0.000	0.000	-0.005	0.000	0.029	2.671	1.895	1.890	1.890	1.909	1.899	1.899
0.000	0.000	0.005	-0.005	0.000	0.005	0.029	2.666	1.895	1.890	1.890	1.904	1.904	1.904
0.000	0.005	0.005	-0.010	0.005	0.000	0.034	2.686	1.895	1.895	1.895	1.904	1.904	1.904
-0.005	0.005	-0.005	-0.005	0.015	-0.020	0.029	2.671	1.895	1.890	1.890	1.904	1.904	1.904
0.005	0.000	0.000	0.000	0.015	0.015	0.029	2.681	1.895	1.895	1.890	1.909	1.909	1.909
0.010	-0.015	0.000	0.005	0.005	-0.005	0.029	2.666	1.890	1.885	1.890	1.909	1.904	1.904
0.010	-0.005	0.000	0.005	0.005	0.010	0.029	2.671	1.890	1.890	1.885	1.909	1.904	1.904
0.010	-0.005	0.000	0.005	-0.005	0.015	0.029	2.661	1.895	1.890	1.890	1.909	1.899	1.904
0.005	-0.005	0.000	0.005	-0.005	0.005	0.029	2.690	1.895	1.890	1.885	1.909	1.899	1.904
0.000	0.000	0.000	0.005	-0.015	-0.010	0.029	2.690	1.895	1.890	1.885	1.904	1.899	1.895
-0.005	0.000	0.000	0.005	-0.015	0.005	0.029	2.671	1.890	1.890	1.890	1.904	1.899	1.899
-0.005	0.000	0.000	0.000	-0.005	0.005	0.029	2.666	1.890	1.890	1.890	1.904	1.904	1.899
-0.005	0.000	-0.005	0.005	0.000	0.000	0.029	2.671	1.890	1.890	1.885	1.909	1.904	1.899
0.005	0.005	0.000	0.000	0.000	-0.005	0.029	2.681	1.890	1.890	1.890	1.909	1.904	1.899
0.005	0.015	0.000	0.000	0.005	-0.005	0.029	2.681	1.895	1.895	1.885	1.909	1.904	1.899
-0.005	0.010	0.000	0.000	0.005	0.000	0.029	2.676	1.890	1.890	1.890	1.909	1.904	1.904
0.005	0.005	0.005	0.005	-0.005	0.000	0.029	2.666	1.890	1.890	1.890	1.904	1.904	1.904
-0.005	0.005	0.005	0.005	-0.005	-0.005	0.029	2.686	1.890	1.890	1.890	1.909	1.899	1.899
-0.005	0.000	0.005	0.005	-0.005	0.005	0.029	2.686	1.890	1.885	1.890	1.909	1.904	1.904
-0.005	0.020	0.000	0.010	0.000	0.005	0.029	2.676	1.895	1.895	1.890	1.909	1.904	1.904
0.000	0.015	0.000	0.010	0.010	0.000	0.029	2.686	1.890	1.890	1.890	1.909	1.909	1.904
-0.005	0.015	0.000	0.000	0.010	0.010	0.029	2.676	1.895	1.890	1.885	1.909	1.904	1.904
-0.005	0.000	0.000	-0.005	0.015	0.005	0.029	2.681	1.890	1.885	1.885	1.904	1.904	1.904
-0.010	0.000	0.000	-0.005	0.000	0.005	0.029	2.681	1.895	1.885	1.885	1.899	1.899	1.899
0.005	-0.010	-0.005	-0.005	0.010	-0.015	0.029	2.671	1.890	1.885	1.885	1.899	1.899	1.895
0.000	-0.010	0.000	-0.005	0.000	-0.010	0.029	2.676	1.885	1.880	1.885	1.899	1.895	1.899
0.015	0.005	0.000	-0.005	0.005	-0.005	0.029	2.676	1.890	1.890	1.885	1.904	1.899	1.899
0.010	0.005	0.000	0.000	-0.005	0.010	0.029	2.681	1.895	1.890	1.885	1.904	1.895	1.899
0.020	0.010	0.000	0.000	0.000	0.005	0.029	2.690	1.895	1.895	1.890	1.904	1.899	1.895
0.010	-0.005	0.000	0.010	0.005	-0.015	0.029	2.686	1.890	1.890	1.890	1.909	1.899	1.895
0.015	0.010	0.000	0.005	0.005	-0.005	0.029	2.671	1.890	1.895	1.890	1.909	1.904	1.899
-0.010	-0.015	0.000	0.010	0.000	0.010	0.029	2.666	1.880	1.885	1.885	1.904	1.899	1.899
-0.005	-0.015	-0.005	0.005	0.000	-0.015	0.029	2.661	1.885	1.880	1.885	1.904	1.899	1.899
0.000	-0.020	0.000	0.010	0.000	0.015	0.029	2.676	1.885	1.880	1.880	1.904	1.899	1.904
-0.005	-0.015	0.000	-0.005	-0.005	0.000	0.029	2.690	1.895	1.885	1.880	1.899	1.899	1.895
-0.005	-0.015	0.000	0.000	-0.005	0.005	0.029	2.676	1.890	1.885	1.880	1.899	1.899	1.899
-0.005	-0.005	0.000	0.005	0.000	-0.005	0.029	2.676	1.890	1.885	1.885	1.904	1.899	1.895
0.010	-0.005	0.000	0.005	0.000	0.005	0.029	2.676	1.890	1.890	1.885	1.904	1.899	1.899
0.015	-0.005	-0.005	0.005	-0.005	0.010	0.029	2.671	1.895	1.890	1.885	1.899	1.895	1.899
0.005	-0.005	0.000	0.000	-0.005	0.005	0.029	2.676	1.890	1.890	1.885	1.899	1.899	1.899
0.015	-0.005	0.005	-0.005	0.010	-0.005	0.029	2.681	1.890	1.885	1.885	1.904	1.899	1.899
0.010	0.005	0.000	-0.005	0.000	0.010	0.029	2.686	1.890	1.890	1.885	1.904	1.899	1.899
-0.005	0.005	0.000	0.000	-0.005	0.000	0.029	2.676	1.885	1.890	1.885	1.904	1.895	1.890
0.000	0.005	0.000	-0.005	0.000	0.005	0.029	2.681	1.890	1.885	1.885	1.904	1.899	1.895
-0.005	0.005	0.000	-0.005	0.000	0.005	0.029	2.681	1.885	1.885	1.885	1.904	1.895	1.899
-0.005	0.015	0.000	0.000	0.000	0.010	0.029	2.671	1.885	1.890	1.885	1.904	1.899	1.899
-0.015	0.000	0.000	0.000	0.000	0.005	0.029	2.681	1.885	1.885	1.885	1.904	1.899	1.895
-0.010	-0.005	0.000	-0.005	-0.005	0.000	0.029	2.686	1.890	1.880	1.880	1.904	1.895	1.895
-0.010	0.000	0.000	0.005	-0.005	0.010	0.029	2.690	1.890	1.885	1.885	1.904	1.899	1.895
0.005	0.005	0.000	0.000	-0.005	-0.005	0.029	2.686	1.890	1.890	1.885	1.904	1.899	1.895
0.000	0.000	0.005	0.000	0.000	-0.010	0.029	2.676	1.890	1.890	1.885	1.904	1.899	1.895
-0.005	0.005	0.000	0.005	-0.010	-0.005	0.029	2.681	1.890	1.890	1.885	1.904	1.899	1.895
-0.005	0.005	0.000	0.000	-0.005	0.005	0.029	2.686	1.890	1.890	1.885	1.904	1.899	1.895
0.005	-0.005	0.000	0.000	-0.005	0.000	0.029	2.686	1.885	1.885	1.885	1.904	1.899	1.899
0.010	0.015	0.000	0.005	0.005	-0.005	0.029	2.686	1.890	1.890	1.885	1.904	1.899	1.895
-0.005	0.015	0.005	0.000	0.015	0.000	0.029	2.671	1.885	1.890	1.885	1.904	1.904	1.899
0.000	0.005	0.000	0.005	0.015	-0.005	0.029	2.681	1.885	1.885	1.885	1.904	1.904	1.895
0.000	0.000	0.010	0.000	0.015	0.005	0.029	2.690	1.885	1.880	1.885	1.904	1.899	1.904
0.005	-0.005	-0.005	0.000	0.020	0.000	0.029	2.671	1.885	1.880	1.880	1.904	1.904	1.899
0.010	0.000	0.000	0.000	0.020	0.000	0.029	2.671	1.890	1.885	1.880	1.899	1.899	1.899
0.010	-0.015	0.000	0.000	0.015	-0.005	0.029	2.676	1.885	1.880	1.880	1.899	1.899	1.895
0.005	0.000	0.000	0.000	0.005	0.000	0.029	2.676	1.885	1.880	1.880	1.899	1.895	1.895
0.000	-0.005	-0.005	0.005	-0.005	-0.024	0.029	2.695	1.890	1.885	1.880	1.899	1.890	1.890
0.005	0.005	0.000	0.000	0.000	0.010	0.029	2.695	1.890	1.890	1.880	1.899	1.895	1.899
0.000	0.005	0.005	0.000	-0.010	-0.015	0.029	2.681	1.890	1.890	1.885	1.899	1.890	1.895
-0.005	0.015	0.000	0.000	0.005	0.000	0.029	2.666	1.885	1.890	1.885	1.899	1.899	1.895
-0.005	0.005	0.000	0.000	0.029	0.000	0.029	2.690	1.890	1.885	1.885	1.904	1.904	1.899
-0.010	0.005	0.005	0.000	0.015	0.000	0.029	2.681	1.890	1.885	1.885	1.904	1.895	1.899
0.000	-0.010	0.005	0.005	-0.010	-0.005	0.029	2.681	1.890	1.885	1.880	1.904	1.890	1.895
0.000	0.024	0.000	0.005	-0.015	0.000	0.029	2.666	1.890	1.890	1.885	1.899	1.890	1.890
0.000	0.010	0.000	0.000	-0.020	-0.010	0.029	2.676	1.885	1.885	1.885	1.899	1.890	1.890
0.000	0.005	0.000	-0.005	-0.015	0.005	0.029	2.686	1.885	1.885	1.880	1.899	1.895	1.895
-0.005	0.000	0.000	0.005	0.010	0.010	0.029	2.676	1.885	1.880	1.885	1.904	1.904	1.899
0.005	-0.005	0.005	0.000	0.005	0.005	0.029	2.681	1.885	1.880	1.880	1.899	1.899	1.899
0.000	0.000	-0.005	0.000	0.005	0.015	0.029	2.681	1.885	1.880	1.880	1.899	1.899	1.899
0.000	-0.005	0.000	0.000	0.010	0.010	0.029	2.671	1.885	1.885	1.880	1.899	1.899	1.895
0.000	0.000	0.000	0.005	-0.015	0.010	0.029	2.686	1.885	1.885	1.880	1.899	1.890	1.895
0.000	-0.010	0.000	0.000	-0.029	0.015	0.029	2.686	1.885	1.880	1.880	1.899	1.890	1.895
0.000	-0.010	0.000	0.005	-0.015	0.005	0.029	2.676	1.885	1.880	1.880	1.899	1.890	1.895
0.000	0.005	0.000	0.000	0.005	-0.005	0.029	2.666	1.885	1.890	1.880	1.899	1.899	1.890
0.000	0.005	0.005	0.000	0.020	-0.005	0.029	2.681	1.885	1.890	1.880	1.899	1.904	1.895
-0.005	0.024	0.000	0.000	0.015	-0.005	0.029	2.681	1.880	1.890	1.885	1.899	1.899	1.895
0.000	0.020	0.000	0.000	0.000	-0.005	0.034	2.676	1.885	1.890	1.885	1.899	1.895	1.895
0.005	0.010	0.005	-0.005	-0.005	0.000	0.029	2.686	1.890	1.885	1.885	1.904	1.895	1.895
0.000	0.005	0.005	-0.005	0.005	0.005	0.034	2.681	1.885	1.880	1.880	1.899	1.899	1.895
0.000	-0.005	0.005	0.000	0.010	0.005	0.029	2.676	1.885	1.880	1.880	1.899	1.899	1.899
0.000	-0.005	0.000	0.000	0.010	0.005	0.029	2.690	1.885	1.880	1.880	1.899	1.899	1.895
-0.005	-0.005	-0.005	0.000	0.005	0.000	0.034	2.686	1.885	1.880	1.880	1.899	1.895	1.895
-0.010	-0.005	0.000	0.000	0.005	-0.005	0.029	2.676	1.885	1.880	1.880	1.899	1.895	1.895
0.005	0.000	0.005	0.005	-0.005	0.010	0.029	2.666	1.885	1.880	1.880	1.895	1.890	1.895
-0.005	-0.005	0.000	0.000	-0.005	0.005	0.029	2.676	1.885	1.880	1.875	1.899	1.890	1.895
-0.005	0.000	0.005	0.000	0.005	0.005	0.029	2.671	1.885	1.880	1.880	1.899	1.895	1.895
0.000	0.000	0.000	0.005	0.010	0.005	0.029	2.690	1.885	1.880	1.875	1.899	1.895	1.890
0.010	0.000	0.000	0.005	0.020	0.010	0.029	2.671	1.885	1.885	1.880	1.895	1.895	1.899
0.000	0.005	0.000	0.000	0.000	0.005	0.029	2.690	1.885	1.880	1.880	1.895	1.890	1.895
0.000	0.010	-0.005	0.005	0.000	0.000	0.029	2.690	1.890	1.885	1.880	1.899	1.890	1.890
0.005	-0.005	0.000	0.000	-0.005	-0.005	0.029	2.681	1.885	1.880	1.880	1.899	1.890	1.890
0.005	0.010	0.000	0.000	0.000	0.000	0.029	2.686	1.890	1.885	1.885	1.899	1.890	1.890
0.005	0.010	0.005	0.000	-0.024	0.005	0.029	2.676	1.885	1.885	1.885	1.895	1.890	1.890
0.000	0.000	0.000	0.005	-0.029	0.000	0.029	2.676	1.885	1.880	1.880	1.899	1.890	1.890
0.005	-0.005	0.000	0.005	-0.024	-0.005	0.029	2.676	1.885	1.880	1.880	1.899	1.890	1.890
0.005	0.000	0.005	0.005	-0.010	-0.005	0.029	2.681	1.880	1.880	1.880	1.899	1.899	1.890
0.000	-0.015	0.000	0.000	0.010	0.000	0.029	2.666	1.880	1.875	1.880	1.904	1.904	1.895
0.010	-0.015	0.000	0.000	0.015	0.000	0.029	2.681	1.885	1.875	1.880	1.899	1.899	1.899
0.005	-0.015	0.000	0.005	0.020	-0.015	0.029	2.681	1.885	1.880	1.875	1.899	1.899	1.895
0.015	-0.005	0.005	0.000	0.034	0.020	0.029	2.686	1.885	1.885	1.880	1.895	1.904	1.904
0.010	-0.005	0.000	0.000	0.039	0.010	0.029	2.676	1.885	1.880	1.880	1.895	1.899	1.899
0.015	-0.005	0.005	-0.005	0.020	0.000	0.029	2.686	1.890	1.885	1.880	1.895	1.890	1.895
0.010	0.000	0.000	0.005	0.005	0.005	0.029	2.661	1.885	1.885	1.880	1.895	1.890	1.895
0.015	0.000	0.005	0.000	0.005	0.005	0.029	2.695	1.885	1.885	1.880	1.899	1.890	1.895
0.024	0.005	0.000	0.010	0.010	0.005	0.029	2.671	1.885	1.885	1.880	1.899	1.895	1.895
0.015	0.005	0.000	0.010	0.005	-0.010	0.029	2.681	1.880	1.885	1.885	1.899	1.890	1.885
0.000	0.000	-0.005	0.015	-0.005	0.000	0.029	2.676	1.875	1.880	1.880	1.899	1.890	1.895
0.010	0.010	0.005	0.005	-0.005	0.000	0.029	2.690	1.885	1.885	1.880	1.899	1.890	1.890
-0.010	0.015	-0.005	0.005	-0.005	-0.005	0.029	2.686	1.880	1.885	1.880	1.899	1.890	1.890
-0.010	0.015	0.005	-0.005	0.000	0.000	0.029	2.676	1.875	1.880	1.880	1.895	1.895	1.895
0.000	0.010	0.005	-0.015	0.000	0.000	0.029	2.666	1.885	1.880	1.880	1.895	1.895	1.890
-0.005	0.010	0.005	-0.010	0.000	-0.010	0.029	2.681	1.880	1.880	1.880	1.895	1.890	1.890
-0.024	0.000	-0.005	-0.005	-0.005	-0.024	0.029	2.681	1.875	1.875	1.875	1.899	1.890	1.890
-0.034	0.010	0.000	0.000	0.000	0.010	0.029	2.681	1.875	1.875	1.875	1.899	1.895	1.895
-0.020	-0.010	0.005	0.005	0.000	-0.010	0.029	2.666	1.880	1.875	1.875	1.899	1.895	1.895
0.005	-0.010	0.000	0.005	-0.010	0.010	0.029	2.681	1.890	1.875	1.875	1.895	1.890	1.895
0.020	-0.005	-0.005	0.000	-0.005	0.010	0.029	2.686	1.895	1.880	1.875	1.895	1.890	1.890
0.015	0.000	0.000	-0.005	-0.005	0.010	0.029	2.681	1.890	1.885	1.875	1.895	1.890	1.895
0.000	0.005	-0.005	0.000	0.000	0.010	0.029	2.686	1.885	1.885	1.875	1.895	1.895	1.890
0.020	-0.010	0.005	0.005	0.000	0.010	0.029	2.676	1.890	1.880	1.880	1.895	1.890	1.890
0.024	-0.005	0.000	-0.005	0.000	0.000	0.029	2.661	1.885	1.880	1.880	1.895	1.890	1.885
0.010	0.000	0.000	-0.005	0.005	0.005	0.029	2.700	1.885	1.885	1.880	1.895	1.890	1.890
0.010	0.005	0.000	0.000	0.000	-0.005	0.029	2.646	1.880	1.885	1.880	1.895	1.890	1.890
0.005	0.005	0.005	0.000	0.015	-0.005	0.029	2.686	1.880	1.880	1.880	1.899	1.895	1.890
-0.005	0.010	0.005	0.000	0.005	0.000	0.029	2.676	1.875	1.885	1.880	1.899	1.895	1.895
-0.029	0.015	0.000	0.010	0.010	0.005	0.029	2.700	1.875	1.880	1.880	1.899	1.895	1.890
-0.054	0.005	0.000	0.010	0.005	-0.015	0.029	2.642	1.865	1.870	1.875	1.899	1.890	1.890
-0.068	0.005	0.000	0.005	0.000	-0.005	0.029	2.754	1.875	1.870	1.875	1.899	1.890	1.890
-0.063	0.000	0.000	0.010	-0.010	0.000	0.029	2.656	1.875	1.870	1.875	1.895	1.890	1.895
-0.049	-0.005	0.000	0.010	-0.005	0.000	0.029	2.817	1.880	1.870	1.875	1.895	1.890	1.895
-0.039	-0.010	0.000	0.010	-0.005	0.005	0.029	2.842	1.885	1.875	1.875	1.895	1.890	1.890
-0.024	-0.005	0.000	0.005	0.010	-0.005	0.029	2.671	1.885	1.875	1.875	1.890	1.890	1.890
0.005	-0.015	0.000	0.005	0.015	0.000	0.029	2.671	1.890	1.880	1.875	1.890	1.890	1.890
0.010	-0.005	0.000	0.000	0.010	-0.005	0.029	2.661	1.890	1.885	1.875	1.890	1.890	1.890
0.029	0.000	0.000	0.005	0.015	-0.015	0.029	2.676	1.895	1.885	1.880	1.890	1.890	1.885
0.034	0.000	0.000	-0.005	0.000	0.010	0.029	2.676	1.890	1.890	1.880	1.895	1.885	1.890
0.044	0.000	0.000	0.000	0.005	-0.010	0.029	2.661	1.890	1.890	1.880	1.895	1.885	1.885
0.034	-0.020	0.005	0.000	0.005	0.010	0.029	2.666	1.885	1.880	1.885	1.899	1.890	1.890
0.059	0.015	0.000	0.000	0.005	0.015	0.029	2.656	1.890	1.890	1.885	1.899	1.895	1.890
0.068	-0.005	0.000	0.005	0.005	0.015	0.029	2.642	1.885	1.885	1.885	1.899	1.895	1.890
0.054	0.000	-0.005	0.010	0.005	0.010	0.029	2.651	1.875	1.880	1.885	1.899	1.890	1.890
0.039	-0.005	0.000	0.010	0.005	0.005	0.029	2.729	1.880	1.880	1.880	1.899	1.895	1.890
0.015	0.000	0.000	0.005	-0.005	0.000	0.029	2.646	1.870	1.880	1.885	1.899	1.890	1.890
0.010	0.000	0.000	0.000	-0.015	-0.005	0.029	2.642	1.870	1.875	1.875	1.899	1.890	1.890
-0.005	0.005	0.005	0.000	-0.024	-0.010	0.029	2.837	1.885	1.880	1.875	1.895	1.885	1.880
-0.024	0.005	0.000	-0.005	-0.039	0.000	0.029	2.681	1.885	1.880	1.875	1.895	1.885	1.885
-0.029	0.010	0.005	0.000	-0.044	0.000	0.029	2.666	1.880	1.880	1.875	1.895	1.885	1.885
-0.015	0.010	0.000	-0.005	-0.044	-0.020	0.029	2.661	1.880	1.875	1.875	1.895	1.885	1.885
-0.024	0.005	0.000	0.000	-0.039	-0.005	0.029	2.676	1.880	1.875	1.875	1.895	1.890	1.885
-0.015	0.010	0.000	-0.005	-0.029	0.010	0.029	2.676	1.885	1.880	1.875	1.895	1.895	1.890
-0.005	0.015	0.000	0.000	-0.020	-0.015	0.029	2.661	1.880	1.880	1.875	1.895	1.895	1.885
0.000	-0.005	0.000	0.000	-0.015	0.005	0.029	2.671	1.880	1.875	1.875	1.895	1.895	1.895
0.005	0.005	0.000	0.005	-0.010	0.005	0.029	2.642	1.875	1.880	1.875	1.895	1.895	1.895
0.000	0.000	0.005	0.010	-0.010	0.000	0.029	2.656	1.875	1.875	1.875	1.895	1.895	1.890
0.005	0.000	0.005	0.005	-0.010	-0.010	0.029	2.651	1.875	1.875	1.875	1.895	1.890	1.890
0.015	-0.005	0.000	0.005	-0.010	-0.010	0.029	2.705	1.875	1.875	1.875	1.890	1.890	1.890
0.020	0.005	0.000	0.005	-0.024	0.005	0.029	2.822	1.880	1.880	1.875	1.890	1.885	1.895
0.015	0.015	0.005	0.000	-0.020	0.000	0.029	2.656	1.880	1.880	1.880	1.895	1.885	1.890
0.005	-0.015	0.010	-0.005	-0.029	-0.010	0.029	2.842	1.895	1.875	1.875	1.890	1.885	1.885
0.000	0.000	0.000	0.000	-0.029	0.010	0.029	2.686	1.890	1.880	1.875	1.890	1.885	1.890
-0.010	-0.005	0.000	-0.005	-0.020	-0.005	0.029	2.671	1.880	1.880	1.875	1.890	1.890	1.890
-0.020	0.000	0.000	0.000	0.015	0.005	0.029	2.681	1.880	1.880	1.880	1.895	1.899	1.895
-0.005	0.000	0.005	0.005	0.044	-0.020	0.029	2.681	1.890	1.880	1.880	1.899	1.904	1.895
0.000	0.000	0.005	0.010	0.063	-0.015	0.029	2.681	1.885	1.885	1.880	1.899	1.909	1.895
0.000	-0.010	0.000	0.005	0.122	0.005	0.029	2.642	1.885	1.880	1.880	1.899	1.924	1.909
-0.005	-0.005	0.000	0.000	0.161	-0.015	0.029	2.656	1.880	1.880	1.880	1.899	1.924	1.909
-0.005	0.000	0.005	-0.005	0.127	0.020	0.029	2.666	1.885	1.880	1.875	1.895	1.904	1.914
0.010	-0.010	0.000	0.000	0.059	-0.010	0.029	2.651	1.880	1.880	1.875	1.895	1.880	1.899
0.015	-0.010	0.000	0.005	0.039	0.005	0.029	2.651	1.880	1.875	1.875	1.895	1.880	1.895
0.005	0.000	-0.005	0.000	0.000	0.000	0.029	2.690	1.880	1.880	1.875	1.890	1.870	1.885
-0.005	0.000	0.005	-0.005	-0.020	0.000	0.029	2.827	1.895	1.880	1.880	1.890	1.870	1.880
0.015	-0.005	0.005	0.005	-0.029	-0.005	0.029	2.642	1.890	1.885	1.880	1.895	1.870	1.875
0.005	0.005	0.000	0.005	0.005	0.005	0.029	2.832	1.904	1.890	1.880	1.899	1.890	1.885
0.005	0.015	0.000	0.000	0.049	-0.010	0.029	2.690	1.899	1.895	1.885	1.899	1.904	1.885
0.010	0.000	0.005	-0.005	0.063	0.000	0.029	2.690	1.895	1.890	1.885	1.899	1.904	1.895
0.005	0.010	0.000	0.010	0.049	-0.005	0.029	2.686	1.895	1.895	1.890	1.904	1.899	1.895
0.015	0.010	0.005	0.010	0.029	0.024	0.029	2.681	1.895	1.895	1.890	1.904	1.895	1.899
0.015	0.020	0.000	0.000	0.039	0.029	0.029	2.671	1.890	1.895	1.890	1.904	1.899	1.899
0.005	0.005	0.005	-0.005	0.010	0.024	0.029	2.676	1.885	1.885	1.890	1.904	1.890	1.895
-0.005	0.000	0.000	-0.010	-0.049	0.015	0.029	2.656	1.875	1.885	1.885	1.899	1.880	1.885
-0.015	0.000	0.005	-0.005	-0.059	0.020	0.029	2.651	1.875	1.880	1.885	1.899	1.880	1.885
-0.029	-0.005	0.005	-0.005	-0.044	-0.010	0.029	2.661	1.870	1.875	1.880	1.904	1.885	1.875
-0.039	0.000	0.000	-0.005	-0.039	-0.005	0.029	2.656	1.865	1.870	1.875	1.899	1.890	1.885
-0.029	-0.005	-0.005	0.005	-0.029	-0.010	0.034	2.681	1.870	1.870	1.875	1.899	1.895	1.885
-0.010	-0.005	0.000	0.010	-0.078	-0.029	0.029	2.651	1.875	1.870	1.870	1.895	1.880	1.875
-0.015	0.000	0.000	0.010	-0.073	-0.010	0.029	2.646	1.870	1.870	1.870	1.895	1.890	1.885
-0.005	0.000	0.005	0.005	-0.049	-0.010	0.029	2.827	1.895	1.875	1.875	1.895	1.890	1.890
0.010	0.000	-0.005	0.000	-0.054	0.010	0.029	2.676	1.890	1.880	1.875	1.890	1.890	1.895
-0.005	0.010	0.005	-0.005	-0.034	0.005	0.029	2.686	1.885	1.880	1.880	1.890	1.895	1.895
-0.005	0.005	0.005	-0.015	-0.034	0.005	0.034	2.671	1.885	1.885	1.875	1.890	1.890	1.890
-0.005	0.000	0.010	-0.010	-0.005	-0.015	0.029	2.676	1.880	1.880	1.880	1.895	1.899	1.885
-0.005	0.005	0.005	-0.005	0.034	-0.010	0.034	2.681	1.885	1.880	1.880	1.899	1.909	1.899
-0.005	0.005	0.000	0.005	0.068	-0.005	0.029	2.666	1.880	1.885	1.880	1.899	1.914	1.904
-0.005	0.000	-0.005	0.015	0.068	-0.005	0.029	2.666	1.880	1.880	1.880	1.904	1.909	1.904
0.010	-0.005	-0.005	0.015	0.112	-0.020	0.029	2.661	1.885	1.880	1.880	1.904	1.919	1.904
0.015	-0.020	-0.005	0.015	0.122	0.010	0.029	2.651	1.880	1.875	1.875	1.899	1.914	1.914
0.015	-0.015	0.000	0.005	0.068	0.010	0.029	2.646	1.880	1.880	1.880	1.895	1.890	1.909
0.034	-0.005	-0.005	0.005	0.000	-0.010	0.029	2.666	1.885	1.885	1.880	1.890	1.875	1.895
0.000	0.005	-0.005	-0.005	-0.044	0.010	0.029	2.803	1.870	1.880	1.875	1.890	1.870	1.890
-0.010	-0.005	-0.005	-0.005	-0.039	0.015	0.029	2.627	1.865	1.870	1.875	1.890	1.875	1.885
-0.005	0.000	-0.005	-0.005	-0.034	0.005	0.029	2.651	1.890	1.875	1.875	1.890	1.875	1.880
0.000	0.000	0.000	-0.005	-0.039	-0.020	0.029	2.666	1.885	1.875	1.875	1.890	1.880	1.875
0.000	0.000	-0.005	-0.005	-0.034	0.005	0.029	2.661	1.880	1.875	1.875	1.890	1.880	1.880
0.000	0.005	0.000	-0.005	-0.039	-0.005	0.029	2.671	1.880	1.880	1.875	1.890	1.885	1.880
0.000	0.015	0.000	-0.005	-0.034	-0.005	0.029	2.681	1.880	1.880	1.875	1.895	1.885	1.880
-0.005	0.015	0.005	0.000	-0.029	-0.005	0.029	2.681	1.880	1.880	1.880	1.899	1.890	1.885
-0.010	0.020	0.005	0.005	-0.020	0.000	0.029	2.656	1.875	1.880	1.875	1.899	1.895	1.885
-0.010	0.010	0.005	0.010	-0.010	0.010	0.029	2.671	1.875	1.875	1.880	1.899	1.895	1.890
0.000	0.000	0.005	0.010	-0.010	0.015	0.029	2.666	1.880	1.875	1.875	1.899	1.895	1.895
-0.005	0.015	0.010	0.010	-0.024	0.024	0.029	2.661	1.880	1.880	1.875	1.899	1.890	1.895
0.005	0.010	0.000	0.005	-0.029	0.020	0.029	2.651	1.880	1.875	1.875	1.895	1.890	1.895
0.000	0.005	0.000	0.005	-0.024	0.010	0.029	2.666	1.875	1.875	1.875	1.895	1.890	1.890
0.005	-0.010	-0.005	0.005	-0.015	0.005	0.029	2.646	1.875	1.870	1.875	1.890	1.890	1.885
0.020	0.000	0.000	0.010	-0.005	-0.015	0.029	2.793	1.899	1.880	1.875	1.895	1.895	1.885
0.010	-0.020	0.000	0.015	0.010	-0.010	0.029	2.646	1.885	1.875	1.875	1.895	1.899	1.890
0.034	-0.015	0.000	0.010	0.010	-0.015	0.029	2.686	1.890	1.875	1.875	1.890	1.895	1.890
0.000	-0.015	0.000	0.000	0.005	-0.015	0.029	2.681	1.875	1.875	1.875	1.890	1.890	1.890
0.000	-0.010	-0.005	-0.005	0.020	-0.005	0.029	2.671	1.875	1.875	1.875	1.890	1.890	1.895
0.000	-0.010	0.000	0.000	0.005	-0.010	0.029	2.661	1.880	1.880	1.875	1.890	1.885	1.890
0.005	0.000	-0.005	0.000	-0.005	0.000	0.029	2.666	1.880	1.880	1.875	1.890	1.885	1.890
0.015	0.000	0.005	0.000	0.000	0.000	0.029	2.666	1.880	1.880	1.875	1.895	1.885	1.885
0.000	0.005	0.000	-0.010	0.000	0.015	0.029	2.642	1.875	1.880	1.875	1.890	1.890	1.890
0.010	0.010	0.000	-0.015	0.015	-0.010	0.029	2.852	1.899	1.885	1.880	1.895	1.890	1.885
0.000	0.015	-0.005	-0.020	0.015	-0.005	0.029	2.681	1.890	1.885	1.880	1.890	1.890	1.885
0.005	0.020	0.005	-0.024	0.010	0.005	0.029	2.676	1.885	1.890	1.880	1.895	1.890	1.890
0.010	0.015	0.005	-0.010	0.010	0.010	0.029	2.676	1.890	1.890	1.885	1.899	1.890	1.890
0.005	0.020	0.005	-0.005	0.010	0.015	0.029	2.676	1.885	1.885	1.885	1.899	1.895	1.895
-0.005	0.010	0.005	0.005	0.005	0.024	0.029	2.656	1.880	1.880	1.885	1.909	1.895	1.895
0.005	0.005	-0.005	0.044	0.005	0.000	0.029	2.642	1.875	1.880	1.880	1.914	1.899	1.890
-0.005	0.005	0.000	0.044	0.005	0.015	0.029	2.778	1.895	1.880	1.880	1.909	1.904	1.895
-0.029	-0.005	0.000	0.034	0.005	0.005	0.029	2.686	1.880	1.875	1.880	1.904	1.899	1.895
-0.024	-0.015	0.005	0.020	0.005	-0.005	0.029	2.681	1.880	1.875	1.880	1.895	1.895	1.895
-0.039	0.005	-0.005	-0.005	0.005	-0.015	0.029	2.666	1.875	1.880	1.875	1.890	1.895	1.890
-0.034	0.010	-0.005	-0.029	0.005	-0.010	0.029	2.676	1.880	1.875	1.875	1.885	1.890	1.890
-0.024	-0.010	0.005	-0.039	0.005	-0.020	0.029	2.671	1.880	1.875	1.875	1.880	1.885	1.885
-0.015	-0.015	-0.005	-0.049	0.000	-0.005	0.029	2.637	1.875	1.875	1.875	1.880	1.880	1.890
-0.010	-0.015	0.000	-0.034	0.000	-0.005	0.029	2.646	1.875	1.875	1.875	1.890	1.885	1.885
-0.005	0.020	0.005	-0.020	0.005	0.000	0.029	2.847	1.899	1.890	1.875	1.895	1.885	1.890
-0.005	0.010	0.005	-0.015	0.005	0.000	0.029	2.681	1.895	1.890	1.880	1.895	1.890	1.885
0.010	0.000	0.005	0.000	0.010	-0.024	0.029	2.681	1.890	1.885	1.880	1.904	1.890	1.885
0.015	0.010	0.000	0.005	0.000	0.005	0.029	2.686	1.890	1.890	1.880	1.904	1.895	1.890
0.010	0.015	0.005	0.015	-0.005	0.015	0.029	2.681	1.890	1.890	1.885	1.904	1.890	1.895
0.005	0.005	0.005	0.024	-0.005	-0.005	0.029	2.671	1.885	1.885	1.885	1.909	1.899	1.885
0.024	0.005	0.010	0.029	0.000	0.000	0.029	2.666	1.885	1.890	1.885	1.909	1.899	1.895
0.015	-0.005	0.000	0.020	-0.005	0.010	0.029	2.671	1.875	1.880	1.885	1.904	1.899	1.899
0.015	-0.010	0.000	0.015	0.000	0.015	0.029	2.651	1.880	1.880	1.875	1.899	1.899	1.899
0.010	-0.005	0.000	0.000	0.000	0.010	0.034	2.651	1.880	1.880	1.875	1.895	1.899	1.899
0.005	-0.015	0.000	0.005	0.005	0.010	0.029	2.651	1.875	1.875	1.875	1.899	1.895	1.895
0.005	0.005	0.005	-0.005	0.015	0.005	0.029	2.671	1.875	1.880	1.875	1.890	1.899	1.895
0.000	-0.020	0.000	-0.010	0.010	-0.010	0.029	2.671	1.875	1.870	1.875	1.890	1.895	1.895
0.005	0.015	0.000	-0.010	0.005	-0.010	0.029	2.676	1.880	1.885	1.875	1.890	1.890	1.890
0.005	0.024	-0.005	0.000	0.005	0.005	0.029	2.642	1.875	1.880	1.875	1.895	1.890	1.890
0.000	0.015	0.000	0.005	0.005	-0.010	0.029	2.837	1.895	1.880	1.880	1.895	1.890	1.890
0.005	0.005	0.000	0.015	-0.015	0.010	0.029	2.690	1.895	1.885	1.880	1.899	1.890	1.895
0.015	-0.015	0.000	0.024	0.005	0.020	0.029	2.671	1.890	1.875	1.875	1.899	1.895	1.899
0.020	-0.015	0.005	0.024	-0.024	0.024	0.029	2.681	1.890	1.880	1.880	1.899	1.890	1.895
0.015	0.000	0.005	0.020	-0.068	0.024	0.029	2.686	1.885	1.885	1.880	1.899	1.875	1.885
0.015	0.010	0.000	0.015	-0.112	0.010	0.029	2.681	1.885	1.885	1.880	1.895	1.870	1.880
0.005	0.010	0.005	0.005	-0.117	0.005	0.029	2.676	1.885	1.885	1.880	1.890	1.875	1.875
-0.005	0.005	0.005	0.010	-0.093	-0.005	0.029	2.671	1.880	1.880	1.880	1.899	1.885	1.875
-0.005	0.005	0.005	0.005	-0.034	-0.015	0.029	2.671	1.875	1.875	1.880	1.899	1.904	1.880
-0.015	0.000	0.005	0.020	0.015	-0.049	0.029	2.803	1.870	1.875	1.880	1.904	1.914	1.875
-0.020	0.000	0.005	0.039	0.024	-0.063	0.029	2.676	1.870	1.870	1.875	1.904	1.914	1.885
-0.029	0.000	0.000	0.015	0.054	-0.063	0.029	2.671	1.870	1.870	1.875	1.895	1.914	1.895
-0.020	0.000	0.000	-0.005	0.103	-0.034	0.029	2.690	1.875	1.870	1.870	1.890	1.924	1.909
-0.005	0.000	0.000	-0.015	0.103	-0.010	0.029	2.778	1.895	1.875	1.870	1.885	1.909	1.914
0.010	-0.005	0.005	-0.039	0.015	0.015	0.029	2.632	1.895	1.880	1.870	1.880	1.880	1.909
0.024	-0.015	0.000	-0.044	0.151	0.034	0.029	2.808	1.909	1.885	1.875	1.885	1.919	1.919
0.010	0.000	0.000	-0.054	0.239	0.029	0.029	2.681	1.904	1.890	1.880	1.885	1.929	1.924
0.010	-0.010	-0.005	-0.049	0.229	0.049	0.029	2.661	1.899	1.890	1.880	1.890	1.919	1.924
0.005	0.000	-0.005	-0.034	0.225	0.044	0.029	2.690	1.895	1.895	1.885	1.899	1.904	1.919
0.000	0.010	0.000	-0.010	0.146	0.029	0.029	2.676	1.890	1.895	1.890	1.904	1.880	1.899
-0.010	0.020	0.005	0.000	0.015	0.024	0.029	2.686	1.890	1.899	1.890	1.904	1.855	1.880
-0.010	0.005	0.000	0.015	-0.083	0.015	0.029	2.671	1.885	1.890	1.890	1.904	1.841	1.870
-0.005	0.000	0.005	0.020	-0.078	0.015	0.029	2.676	1.885	1.885	1.890	1.909	1.865	1.870
0.000	0.010	0.000	0.029	-0.073	0.005	0.034	2.681	1.885	1.885	1.890	1.914	1.875	1.865
0.000	0.020	0.000	0.049	-0.073	0.005	0.029	2.681	1.880	1.890	1.890	1.914	1.885	1.870
0.000	0.024	0.000	0.029	-0.083	-0.005	0.029	2.686	1.885	1.890	1.885	1.909	1.885	1.875
0.000	-0.010	0.000	0.024	-0.098	0.000	0.029	2.676	1.880	1.875	1.885	1.904	1.890	1.875
0.010	-0.005	0.000	0.015	-0.093	0.005	0.029	2.695	1.885	1.880	1.880	1.899	1.895	1.880
0.010	-0.015	0.000	0.000	-0.054	0.000	0.029	2.681	1.880	1.875	1.880	1.899	1.899	1.885
0.015	-0.015	-0.005	0.005	-0.034	0.000	0.029	2.681	1.880	1.875	1.880	1.895	1.904	1.890
0.010	-0.015	0.000	0.005	-0.020	-0.005	0.029	2.686	1.885	1.875	1.875	1.899	1.904	1.895
0.020	-0.024	0.000	0.010	-0.005	0.000	0.029	2.681	1.880	1.875	1.875	1.899	1.904	1.899
-0.020	-0.005	0.000	0.005	0.010	0.005	0.029	2.686	1.870	1.880	1.875	1.895	1.904	1.899
-0.010	-0.010	0.000	0.015	0.005	0.005	0.029	2.686	1.885	1.880	1.875	1.895	1.899	1.899
0.000	-0.005	-0.005	0.010	-0.005	-0.005	0.029	2.666	1.885	1.880	1.875	1.895	1.895	1.895
0.029	0.000	0.000	0.005	-0.024	-0.029	0.029	2.686	1.895	1.885	1.875	1.895	1.885	1.885
0.039	0.005	0.000	-0.005	-0.029	-0.015	0.029	2.676	1.895	1.890	1.880	1.890	1.885	1.890
0.044	0.000	-0.005	-0.005	-0.034	0.005	0.029	2.681	1.890	1.890	1.885	1.895	1.885	1.895
0.020	0.005	0.000	-0.005	-0.015	0.000	0.029	2.681	1.885	1.890	1.885	1.895	1.895	1.895
0.015	0.010	0.000	0.000	-0.010	-0.005	0.029	2.676	1.880	1.885	1.885	1.899	1.895	1.890
0.005	0.010	0.005	-0.005	-0.005	-0.015	0.029	2.666	1.875	1.880	1.885	1.899	1.895	1.890
0.000	0.010	0.000	-0.010	-0.005	-0.020	0.029	2.681	1.880	1.880	1.880	1.899	1.895	1.890
-0.020	0.005	0.005	-0.010	-0.005	0.000	0.029	2.661	1.870	1.875	1.880	1.899	1.895	1.895
-0.029	0.005	0.005	-0.015	-0.010	0.010	0.029	2.686	1.870	1.875	1.880	1.895	1.895	1.899
-0.015	0.000	0.005	-0.015	-0.010	0.005	0.029	2.676	1.875	1.875	1.880	1.895	1.890	1.895
-0.034	-0.005	0.005	-0.010	-0.015	-0.010	0.029	2.686	1.875	1.875	1.875	1.895	1.890	1.890
-0.024	-0.010	0.005	0.000	-0.015	0.005	0.029	2.676	1.880	1.875	1.875	1.899	1.890	1.895
-0.029	0.005	0.000	0.000	-0.020	0.015	0.029	2.676	1.880	1.875	1.875	1.895	1.890	1.895
-0.020	0.000	0.000	0.005	-0.029	0.010	0.029	2.681	1.880	1.875	1.875	1.895	1.890	1.890
-0.010	-0.005	0.000	0.015	-0.010	0.010	0.029	2.671	1.885	1.875	1.875	1.895	1.895	1.890
-0.020	-0.010	0.000	0.010	-0.005	0.015	0.029	2.690	1.885	1.875	1.875	1.895	1.895	1.895
-0.010	0.000	-0.005	0.015	0.005	0.000	0.029	2.676	1.885	1.880	1.875	1.895	1.895	1.890
0.000	0.000	0.000	0.005	0.010	-0.020	0.029	2.686	1.890	1.880	1.875	1.895	1.895	1.890
0.005	0.010	0.005	0.000	0.015	0.000	0.029	2.686	1.890	1.890	1.880	1.895	1.895	1.895
0.005	0.010	-0.005	0.000	0.024	0.005	0.029	2.686	1.890	1.885	1.880	1.895	1.895	1.895
0.015	0.015	0.000	0.000	0.020	0.000	0.029	2.690	1.885	1.890	1.880	1.895	1.895	1.890
0.015	0.010	0.000	0.000	0.015	0.000	0.029	2.676	1.885	1.885	1.880	1.895	1.895	1.895
0.005	0.010	0.005	-0.005	0.010	-0.005	0.029	2.690	1.885	1.880	1.885	1.899	1.890	1.890
-0.005	0.000	0.005	0.000	0.015	-0.005	0.029	2.686	1.885	1.880	1.885	1.899	1.895	1.890
0.010	0.000	0.005	0.005	0.015	0.010	0.029	2.690	1.885	1.885	1.880	1.904	1.895	1.899
0.010	-0.005	0.000	0.005	0.005	0.010	0.029	2.681	1.885	1.880	1.880	1.899	1.890	1.895
0.020	-0.005	-0.005	0.010	0.005	0.000	0.029	2.676	1.885	1.885	1.880	1.899	1.895	1.890
0.005	-0.010	0.000	-0.005	-0.005	0.000	0.029	2.686	1.885	1.880	1.880	1.895	1.890	1.895
0.010	-0.020	0.000	0.000	-0.010	0.005	0.034	2.686	1.885	1.875	1.875	1.895	1.890	1.890
0.020	-0.015	0.000	0.005	-0.005	-0.010	0.029	2.681	1.885	1.880	1.875	1.899	1.890	1.885
0.010	-0.020	0.005	0.000	-0.010	0.010	0.029	2.690	1.885	1.875	1.880	1.895	1.890	1.895
0.005	-0.010	-0.005	0.005	-0.005	-0.010	0.029	2.671	1.880	1.875	1.875	1.895	1.895	1.890
0.005	0.015	0.000	-0.005	-0.005	0.000	0.029	2.690	1.880	1.885	1.880	1.895	1.890	1.890
0.000	0.015	0.000	-0.010	0.005	0.000	0.029	2.681	1.880	1.880	1.875	1.895	1.890	1.890
-0.005	0.020	0.000	-0.020	0.000	-0.005	0.029	2.695	1.885	1.885	1.880	1.890	1.890	1.885
-0.005	0.024	0.000	-0.020	0.000	0.000	0.029	2.681	1.880	1.880	1.880	1.895	1.890	1.890
0.000	0.029	0.000	0.005	0.005	0.015	0.029	2.671	1.885	1.885	1.880	1.904	1.895	1.895
-0.005	0.024	0.005	0.010	0.000	0.010	0.029	2.676	1.885	1.880	1.885	1.904	1.895	1.895
0.000	0.020	0.000	0.020	0.005	0.010	0.029	2.681	1.885	1.880	1.880	1.904	1.899	1.895
-0.005	0.000	0.005	0.010	0.005	-0.015	0.029	2.686	1.885	1.875	1.880	1.899	1.895	1.890
0.010	-0.005	0.000	0.005	0.005	0.010	0.029	2.686	1.890	1.875	1.880	1.899	1.895	1.895
0.000	-0.010	0.000	0.005	0.005	0.010	0.029	2.681	1.885	1.880	1.875	1.899	1.895	1.895
-0.005	0.005	0.005	0.005	-0.005	0.000	0.029	2.686	1.885	1.885	1.875	1.895	1.895	1.890
0.000	0.000	0.005	0.005	0.000	0.005	0.029	2.690	1.885	1.885	1.880	1.895	1.895	1.890
0.000	0.005	0.000	0.000	0.005	0.005	0.029	2.671	1.885	1.885	1.880	1.895	1.895	1.895
0.000	-0.005	0.000	-0.005	0.000	-0.005	0.029	2.676	1.880	1.875	1.880	1.895	1.890	1.890
0.010	-0.015	0.000	0.005	-0.005	0.000	0.029	2.666	1.880	1.880	1.880	1.895	1.890	1.895
0.000	-0.015	0.000	0.015	-0.010	0.005	0.029	2.676	1.880	1.880	1.880	1.895	1.890	1.895
-0.020	-0.010	-0.005	0.010	-0.015	0.005	0.029	2.700	1.875	1.875	1.875	1.895	1.890	1.890
-0.020	0.000	-0.005	0.000	-0.015	-0.005	0.029	2.695	1.880	1.880	1.875	1.895	1.890	1.885
0.000	0.005	0.000	-0.005	-0.020	0.005	0.029	2.666	1.885	1.880	1.875	1.890	1.890	1.890
0.024	0.010	0.005	-0.010	-0.010	0.005	0.029	2.686	1.895	1.885	1.880	1.895	1.890	1.890
0.044	0.024	0.000	-0.010	0.000	0.005	0.029	2.676	1.895	1.895	1.880	1.895	1.895	1.890
0.039	0.010	0.000	-0.010	0.015	0.005	0.029	2.681	1.890	1.885	1.885	1.895	1.895	1.895
0.029	0.005	0.000	0.000	0.034	0.005	0.029	2.686	1.890	1.885	1.880	1.904	1.904	1.895
0.005	0.005	0.005	0.005	0.029	-0.020	0.029	2.686	1.880	1.885	1.885	1.904	1.899	1.895
0.000	-0.015	0.005	0.010	0.020	0.015	0.029	2.666	1.880	1.880	1.880	1.899	1.899	1.899
-0.005	-0.010	0.005	0.005	0.020	0.000	0.029	2.686	1.880	1.880	1.880	1.904	1.899	1.895
-0.010	0.000	0.000	0.015	0.005	-0.015	0.029	2.671	1.880	1.880	1.880	1.899	1.895	1.895
-0.010	-0.024	0.005	0.010	-0.010	-0.005	0.029	2.681	1.880	1.875	1.875	1.899	1.890	1.890
-0.015	-0.005	0.000	0.000	0.005	-0.010	0.029	2.686	1.885	1.880	1.880	1.895	1.890	1.890
-0.005	0.010	-0.005	0.005	0.015	0.005	0.029	2.656	1.880	1.885	1.880	1.895	1.895	1.895
-0.010	0.024	0.000	0.005	0.020	-0.005	0.029	2.676	1.880	1.890	1.880	1.895	1.895	1.895
-0.015	0.024	0.000	0.010	0.029	0.000	0.029	2.676	1.880	1.885	1.880	1.899	1.899	1.895
0.000	-0.005	0.000	0.010	0.034	0.005	0.029	2.681	1.885	1.875	1.880	1.895	1.899	1.899
0.000	-0.015	0.000	0.000	0.029	0.010	0.029	2.671	1.885	1.875	1.875	1.895	1.890	1.895
-0.005	-0.015	0.000	-0.005	0.000	0.024	0.029	2.686	1.880	1.875	1.875	1.890	1.885	1.895
0.000	0.000	0.005	-0.005	0.000	-0.015	0.029	2.666	1.885	1.885	1.875	1.895	1.885	1.880
0.000	0.024	-0.005	-0.005	0.000	0.005	0.029	2.681	1.880	1.890	1.880	1.895	1.885	1.895
0.005	-0.005	0.000	-0.005	-0.005	0.005	0.029	2.690	1.885	1.875	1.875	1.895	1.885	1.885
0.000	0.005	0.000	0.000	-0.034	0.005	0.029	2.700	1.885	1.885	1.875	1.895	1.880	1.885
0.010	0.015	0.000	0.005	-0.024	-0.020	0.029	2.676	1.885	1.890	1.880	1.899	1.885	1.880
0.000	-0.010	0.000	0.010	-0.010	0.000	0.029	2.695	1.880	1.875	1.880	1.899	1.895	1.890
0.005	-0.044	0.000	0.005	0.010	0.000	0.029	2.671	1.885	1.870	1.875	1.895	1.899	1.890
0.005	-0.054	0.000	0.000	0.029	0.000	0.029	2.686	1.885	1.870	1.875	1.895	1.899	1.895
0.005	-0.020	0.000	-0.005	0.039	-0.020	0.029	2.671	1.885	1.880	1.875	1.895	1.899	1.890
0.005	-0.015	0.005	-0.005	0.039	-0.020	0.029	2.681	1.885	1.880	1.880	1.895	1.895	1.890
-0.005	-0.015	0.000	-0.005	0.020	-0.005	0.029	2.681	1.880	1.880	1.875	1.895	1.890	1.895
0.000	0.005	0.000	0.000	0.005	0.005	0.034	2.666	1.880	1.890	1.880	1.895	1.890	1.895
0.000	0.024	0.000	0.000	-0.015	-0.005	0.029	2.656	1.880	1.890	1.880	1.895	1.885	1.890
0.015	0.049	0.000	0.000	-0.029	-0.005	0.029	2.681	1.885	1.895	1.885	1.899	1.880	1.890
-0.010	0.112	0.000	0.000	-0.020	0.015	0.029	2.686	1.880	1.904	1.890	1.904	1.890	1.890
-0.010	0.103	0.000	-0.005	-0.005	0.015	0.029	2.686	1.885	1.895	1.890	1.904	1.895	1.895
-0.005	0.015	0.005	-0.005	0.020	0.020	0.029	2.676	1.880	1.870	1.880	1.904	1.899	1.895
0.010	-0.029	0.000	0.000	0.024	0.039	0.029	2.666	1.880	1.860	1.875	1.899	1.904	1.904
0.000	-0.024	0.005	0.005	-0.010	0.020	0.029	2.686	1.880	1.865	1.870	1.899	1.890	1.895
-0.010	-0.034	0.000	0.005	-0.054	0.020	0.029	2.671	1.880	1.870	1.870	1.895	1.880	1.890
0.000	-0.029	0.000	0.005	-0.059	0.010	0.029	2.695	1.885	1.875	1.870	1.890	1.880	1.885
0.000	-0.039	0.000	0.000	-0.049	-0.005	0.029	2.690	1.885	1.870	1.870	1.890	1.885	1.880
0.000	-0.039	0.000	0.000	-0.073	0.000	0.029	2.676	1.885	1.875	1.875	1.890	1.875	1.880
0.005	-0.015	0.010	0.010	-0.127	-0.015	0.029	2.686	1.885	1.885	1.875	1.890	1.865	1.875
-0.005	0.015	0.000	0.010	-0.142	-0.005	0.029	2.686	1.880	1.890	1.875	1.890	1.870	1.870
0.000	0.054	0.005	0.005	-0.093	-0.063	0.029	2.686	1.890	1.899	1.885	1.899	1.885	1.860
0.000	0.073	0.000	0.005	-0.029	-0.063	0.029	2.676	1.880	1.899	1.890	1.899	1.904	1.875
-0.010	0.024	-0.005	-0.005	0.044	-0.078	0.029	2.681	1.875	1.875	1.880	1.899	1.924	1.885
0.005	-0.010	-0.005	0.000	0.176	-0.049	0.029	2.666	1.880	1.870	1.875	1.904	1.953	1.914
0.000	0.015	-0.005	0.000	0.200	-0.015	0.029	2.681	1.885	1.875	1.880	1.899	1.943	1.934
-0.005	0.034	0.005	0.000	0.142	-0.010	0.029	2.676	1.885	1.885	1.880	1.899	1.914	1.929
-0.005	0.010	0.005	-0.005	0.122	0.039	0.029	2.681	1.885	1.875	1.880	1.895	1.904	1.934
0.010	-0.010	0.000	-0.005	0.166	0.063	0.029	2.686	1.890	1.875	1.875	1.899	1.914	1.934
0.015	-0.015	0.000	-0.005	0.137	0.063	0.029	2.676	1.895	1.880	1.875	1.895	1.904	1.924
-0.005	-0.005	0.000	-0.005	0.137	0.054	0.029	2.661	1.890	1.880	1.875	1.895	1.899	1.914
0.005	-0.010	0.000	0.000	0.073	0.034	0.029	2.666	1.890	1.885	1.880	1.895	1.875	1.899
-0.005	0.005	0.000	0.000	-0.020	0.015	0.029	2.700	1.890	1.890	1.880	1.895	1.855	1.880
0.005	-0.005	0.005	0.005	-0.078	0.010	0.029	2.676	1.890	1.885	1.880	1.895	1.851	1.865
0.015	-0.015	0.000	0.005	-0.103	0.000	0.029	2.690	1.890	1.885	1.880	1.895	1.860	1.865
0.000	-0.010	0.005	0.015	-0.083	-0.010	0.029	2.671	1.880	1.885	1.885	1.899	1.870	1.865
-0.005	0.010	0.005	0.015	-0.063	-0.005	0.029	2.686	1.880	1.885	1.885	1.904	1.885	1.870
0.005	0.000	0.000	0.010	-0.054	-0.005	0.029	2.690	1.880	1.880	1.880	1.899	1.890	1.875
0.000	-0.010	0.010	0.000	-0.049	-0.020	0.029	2.695	1.880	1.875	1.880	1.899	1.890	1.875
0.005	-0.015	0.000	-0.005	-0.054	-0.010	0.029	2.671	1.880	1.880	1.880	1.895	1.890	1.885
0.005	-0.015	0.005	-0.020	-0.049	0.010	0.029	2.690	1.880	1.875	1.880	1.890	1.890	1.890
0.005	-0.015	-0.005	-0.024	-0.034	0.005	0.029	2.686	1.880	1.875	1.875	1.890	1.895	1.890
0.000	-0.010	-0.005	-0.015	-0.029	0.005	0.029	2.681	1.880	1.875	1.875	1.890	1.890	1.890
0.000	-0.005	0.000	0.000	-0.020	0.010	0.029	2.671	1.875	1.875	1.875	1.899	1.895	1.890
-0.005	-0.005	0.000	0.005	-0.029	0.005	0.029	2.671	1.880	1.875	1.875	1.895	1.895	1.890
0.000	-0.010	0.000	0.010	-0.015	-0.005	0.029	2.681	1.880	1.875	1.875	1.899	1.895	1.890
-0.005	-0.010	0.005	0.005	-0.010	0.005	0.029	2.676	1.880	1.875	1.875	1.895	1.895	1.895
0.005	-0.005	0.000	0.010	-0.015	0.000	0.029	2.671	1.885	1.880	1.875	1.895	1.895	1.895
0.000	0.000	0.000	0.005	-0.015	0.000	0.029	2.681	1.880	1.880	1.875	1.895	1.890	1.895
0.010	0.005	-0.005	0.020	-0.015	0.000	0.029	2.690	1.885	1.885	1.875	1.899	1.895	1.890
0.015	0.010	0.005	0.010	-0.015	-0.020	0.029	2.695	1.890	1.885	1.880	1.899	1.890	1.885
0.010	0.010	0.000	0.015	-0.015	0.000	0.029	2.686	1.885	1.885	1.880	1.899	1.895	1.895
0.000	0.024	0.000	0.010	-0.010	0.005	0.029	2.671	1.885	1.890	1.885	1.899	1.895	1.895
-0.010	0.029	-0.005	0.000	-0.005	0.010	0.029	2.671	1.880	1.885	1.880	1.895	1.895	1.895
-0.010	0.015	0.005	-0.005	0.000	-0.005	0.034	2.671	1.880	1.880	1.880	1.895	1.895	1.895
-0.015	0.000	0.000	-0.015	0.000	-0.005	0.034	2.676	1.880	1.875	1.880	1.890	1.890	1.890
-0.010	-0.015	-0.005	-0.015	0.000	0.000	0.029	2.695	1.885	1.875	1.875	1.895	1.890	1.895
0.000	-0.015	0.000	-0.010	0.010	0.005	0.034	2.681	1.885	1.875	1.875	1.895	1.890	1.895
0.005	-0.020	0.005	-0.005	0.010	0.000	0.029	2.686	1.885	1.880	1.875	1.895	1.895	1.895
0.000	-0.005	0.005	-0.005	0.015	-0.005	0.029	2.681	1.885	1.885	1.875	1.895	1.895	1.890
0.005	-0.005	0.000	0.000	0.015	0.000	0.029	2.681	1.885	1.880	1.875	1.895	1.890	1.890
0.005	-0.005	-0.005	0.005	0.010	0.005	0.029	2.671	1.885	1.880	1.875	1.899	1.895	1.895
0.010	0.000	0.000	-0.005	0.010	0.010	0.029	2.681	1.885	1.885	1.880	1.895	1.890	1.895
0.000	-0.005	-0.005	-0.005	0.010	0.005	0.029	2.690	1.885	1.880	1.880	1.895	1.890	1.890
0.005	-0.005	0.005	0.005	0.010	0.005	0.029	2.690	1.885	1.880	1.880	1.899	1.895	1.890
0.005	-0.005	0.000	-0.005	0.020	-0.015	0.029	2.681	1.885	1.880	1.880	1.895	1.895	1.885
0.005	-0.010	0.005	0.010	0.010	-0.010	0.029	2.690	1.885	1.880	1.880	1.899	1.895	1.885
0.000	0.000	0.005	0.039	0.010	0.010	0.029	2.686	1.885	1.885	1.885	1.909	1.899	1.899
0.010	0.000	0.005	0.024	0.005	0.010	0.029	2.681	1.890	1.885	1.880	1.904	1.895	1.895
-0.005	0.024	0.005	0.010	-0.005	-0.005	0.029	2.690	1.885	1.895	1.885	1.899	1.895	1.895
0.000	0.034	0.005	0.005	-0.005	0.000	0.029	2.690	1.890	1.890	1.885	1.899	1.890	1.895
0.010	0.010	0.005	-0.005	-0.010	0.000	0.029	2.686	1.890	1.885	1.885	1.895	1.890	1.890
0.015	-0.015	0.000	-0.010	-0.005	0.010	0.029	2.646	1.885	1.875	1.880	1.895	1.890	1.895
0.024	-0.049	-0.005	-0.005	-0.005	0.010	0.029	2.651	1.885	1.870	1.875	1.895	1.890	1.895
0.010	-0.049	0.005	0.000	0.000	0.010	0.029	2.686	1.880	1.870	1.875	1.895	1.895	1.890
0.000	-0.044	0.005	0.000	0.000	-0.015	0.029	2.681	1.880	1.870	1.875	1.895	1.890	1.890
-0.005	-0.034	0.000	0.010	0.000	0.010	0.029	2.671	1.875	1.875	1.875	1.895	1.895	1.895
-0.005	0.024	0.000	-0.005	0.000	0.010	0.029	2.686	1.880	1.890	1.880	1.895	1.890	1.895
-0.005	0.073	-0.005	-0.005	0.010	0.005	0.029	2.671	1.880	1.904	1.885	1.895	1.890	1.890
-0.005	0.117	-0.005	-0.005	0.010	-0.015	0.029	2.681	1.885	1.904	1.890	1.899	1.890	1.890
-0.010	0.024	0.000	-0.005	0.015	0.010	0.029	2.705	1.880	1.875	1.885	1.899	1.895	1.895
-0.005	-0.010	0.000	-0.005	0.015	0.015	0.029	2.690	1.885	1.870	1.880	1.899	1.895	1.895
0.000	0.005	0.000	-0.005	0.015	0.000	0.029	2.676	1.885	1.875	1.880	1.899	1.895	1.890
0.005	0.029	0.000	-0.005	0.010	0.010	0.029	2.681	1.890	1.885	1.880	1.899	1.895	1.895
-0.005	0.020	0.005	0.000	0.005	-0.005	0.029	2.671	1.885	1.885	1.880	1.899	1.895	1.890
-0.015	0.020	-0.005	0.005	-0.005	-0.010	0.029	2.681	1.880	1.880	1.880	1.899	1.895	1.890
-0.010	0.024	0.000	0.005	-0.005	-0.020	0.029	2.686	1.885	1.885	1.880	1.904	1.895	1.890
-0.005	0.083	0.005	0.005	-0.005	0.005	0.029	2.671	1.885	1.899	1.890	1.899	1.895	1.895
0.015	-0.020	0.010	0.000	-0.005	0.005	0.029	2.681	1.890	1.865	1.880	1.899	1.895	1.895
0.020	-0.098	0.005	0.000	-0.010	0.010	0.029	2.686	1.890	1.851	1.870	1.895	1.895	1.895
0.015	-0.083	0.000	0.010	0.000	0.005	0.029	2.686	1.885	1.865	1.865	1.895	1.895	1.895
-0.005	-0.039	-0.005	0.015	-0.005	0.000	0.034	2.666	1.880	1.875	1.870	1.895	1.890	1.890
-0.005	-0.034	0.000	0.005	0.015	0.000	0.029	2.681	1.880	1.880	1.870	1.890	1.895	1.890
0.000	-0.068	-0.005	0.005	0.015	0.005	0.029	2.676	1.880	1.870	1.870	1.890	1.890	1.895
0.000	-0.068	0.000	0.000	-0.010	0.005	0.029	2.681	1.880	1.870	1.870	1.885	1.880	1.890
0.000	-0.029	-0.005	-0.005	-0.010	0.005	0.029	2.681	1.880	1.885	1.875	1.885	1.880	1.885
-0.005	0.029	0.000	-0.005	0.000	-0.015	0.029	2.695	1.885	1.904	1.880	1.890	1.885	1.880
-0.005	0.063	0.000	-0.005	0.015	0.005	0.029	2.676	1.885	1.904	1.885	1.895	1.890	1.885
0.000	0.020	-0.005	0.000	-0.005	-0.020	0.029	2.686	1.885	1.885	1.885	1.899	1.885	1.880
-0.010	0.000	-0.005	-0.005	0.000	0.000	0.029	2.681	1.880	1.880	1.885	1.899	1.890	1.885
0.000	-0.020	0.000	0.000	-0.005	0.005	0.029	2.686	1.890	1.875	1.885	1.899	1.890	1.890
0.005	0.137	0.005	0.000	-0.010	0.015	0.029	2.671	1.895	1.929	1.899	1.904	1.895	1.895
-0.005	0.244	0.005	-0.005	-0.005	0.000	0.029	2.681	1.895	1.943	1.914	1.909	1.895	1.890
0.000	0.146	0.005	-0.005	0.000	0.000	0.029	2.686	1.890	1.899	1.909	1.919	1.904	1.895
0.015	0.015	0.005	0.005	0.000	-0.024	0.029	2.676	1.885	1.860	1.890	1.919	1.904	1.890
0.015	-0.034	0.000	0.005	-0.005	-0.015	0.029	2.681	1.880	1.851	1.875	1.909	1.904	1.890
0.005	-0.073	0.000	0.000	0.020	0.000	0.029	2.681	1.880	1.851	1.870	1.904	1.909	1.904
0.000	-0.015	-0.005	0.000	0.020	0.005	0.029	2.661	1.880	1.875	1.870	1.899	1.904	1.904
0.010	-0.020	-0.005	0.010	0.024	-0.005	0.029	2.681	1.880	1.870	1.870	1.895	1.904	1.904
0.005	-0.044	0.000	0.010	0.015	0.010	0.029	2.690	1.880	1.870	1.870	1.895	1.899	1.904
0.000	-0.024	0.005	0.000	0.005	-0.005	0.029	2.686	1.885	1.880	1.870	1.890	1.890	1.899
0.000	0.020	0.010	0.000	-0.010	0.029	0.029	2.686	1.885	1.890	1.875	1.890	1.885	1.904
-0.005	0.005	0.000	0.000	-0.015	0.044	0.029	2.700	1.885	1.880	1.875	1.890	1.885	1.899
0.005	-0.005	0.000	0.005	-0.054	0.059	0.029	2.671	1.885	1.880	1.875	1.890	1.875	1.895
0.000	-0.024	0.000	0.000	-0.146	0.010	0.029	2.676	1.885	1.875	1.875	1.890	1.851	1.870
-0.010	-0.024	0.000	0.000	-0.181	0.020	0.029	2.686	1.880	1.875	1.875	1.890	1.851	1.870
-0.005	0.000	0.000	0.005	-0.176	0.010	0.029	2.676	1.880	1.885	1.875	1.890	1.865	1.865
-0.010	0.000	-0.005	0.010	-0.122	-0.020	0.029	2.681	1.875	1.880	1.875	1.895	1.880	1.865
-0.010	-0.010	0.000	0.000	-0.103	-0.049	0.029	2.676	1.875	1.875	1.875	1.895	1.895	1.860
-0.015	-0.005	0.000	0.000	-0.063	-0.098	0.029	2.671	1.875	1.875	1.875	1.895	1.899	1.865
-0.010	0.024	0.000	0.005	0.005	-0.093	0.029	2.695	1.875	1.885	1.880	1.899	1.919	1.880
0.005	-0.010	0.000	0.000	0.088	-0.117	0.029	2.671	1.880	1.875	1.880	1.899	1.934	1.890
0.010	-0.020	0.005	-0.005	0.151	-0.063	0.029	2.656	1.880	1.875	1.875	1.899	1.943	1.919
0.005	-0.020	0.000	0.000	0.195	-0.034	0.029	2.681	1.885	1.875	1.875	1.899	1.943	1.934
-0.005	-0.029	-0.005	0.000	0.234	0.010	0.029	2.686	1.880	1.870	1.875	1.899	1.943	1.948
0.005	-0.015	0.000	0.000	0.278	0.039	0.029	2.686	1.890	1.880	1.875	1.899	1.943	1.953
0.000	-0.010	0.000	-0.005	0.317	0.054	0.029	2.686	1.895	1.885	1.875	1.899	1.938	1.953
0.005	0.010	-0.005	-0.005	0.288	0.059	0.029	2.671	1.895	1.895	1.880	1.895	1.919	1.943
-0.005	0.015	0.005	-0.005	0.200	0.068	0.029	2.686	1.899	1.895	1.885	1.895	1.885	1.924
0.005	0.005	0.000	0.000	0.083	0.054	0.029	2.686	1.895	1.895	1.885	1.895	1.860	1.899
0.010	-0.010	0.005	0.005	0.059	0.029	0.029	2.681	1.895	1.890	1.885	1.899	1.865	1.885
0.015	-0.024	0.000	0.010	0.117	0.034	0.029	2.690	1.895	1.885	1.885	1.904	1.885	1.885
0.010	-0.029	0.005	0.020	0.078	0.034	0.029	2.686	1.885	1.885	1.885	1.904	1.880	1.880
0.000	-0.010	0.005	0.020	0.015	0.015	0.029	2.700	1.890	1.890	1.885	1.904	1.870	1.875
0.000	-0.005	0.005	0.010	-0.078	0.020	0.029	2.686	1.890	1.890	1.890	1.899	1.851	1.865
0.000	0.000	0.005	0.000	-0.171	0.000	0.029	2.671	1.885	1.895	1.885	1.895	1.841	1.851
-0.005	0.005	0.010	-0.005	-0.181	-0.010	0.029	2.700	1.880	1.890	1.890	1.899	1.851	1.846
-0.005	0.005	0.000	-0.010	-0.171	-0.010	0.034	2.661	1.875	1.885	1.885	1.899	1.865	1.855
0.005	0.005	0.000	-0.005	-0.166	0.005	0.029	2.681	1.880	1.880	1.880	1.899	1.875	1.865
0.005	-0.010	0.000	0.005	-0.166	0.015	0.029	2.686	1.875	1.875	1.880	1.904	1.880	1.870
0.005	-0.015	-0.005	0.005	-0.132	0.020	0.029	2.681	1.875	1.875	1.875	1.899	1.895	1.875
0.000	-0.010	0.000	0.010	-0.107	0.000	0.029	2.686	1.875	1.875	1.875	1.899	1.899	1.880
-0.005	-0.005	0.000	0.010	-0.083	-0.024	0.029	2.690	1.875	1.880	1.875	1.899	1.904	1.880
-0.010	0.020	0.000	0.005	-0.044	-0.029	0.029	2.666	1.875	1.880	1.875	1.895	1.909	1.885
0.000	-0.005	0.000	0.005	-0.029	-0.005	0.029	2.656	1.875	1.875	1.875	1.895	1.914	1.899
0.005	0.044	0.000	0.000	-0.024	-0.010	0.029	2.681	1.880	1.885	1.875	1.895	1.904	1.899
0.010	0.029	0.000	0.000	-0.015	0.005	0.029	2.690	1.885	1.880	1.875	1.895	1.904	1.904
0.000	0.000	0.000	-0.005	-0.015	0.005	0.029	2.676	1.880	1.870	1.875	1.895	1.899	1.904
0.000	-0.029	0.000	0.000	-0.029	0.005	0.029	2.676	1.875	1.870	1.870	1.895	1.890	1.899
0.005	-0.005	0.000	-0.005	-0.049	0.000	0.029	2.651	1.875	1.875	1.875	1.890	1.885	1.895
-0.010	0.010	0.000	-0.005	-0.054	-0.005	0.029	2.695	1.880	1.885	1.875	1.890	1.885	1.890
0.000	0.020	0.005	0.000	-0.029	0.015	0.029	2.676	1.885	1.890	1.880	1.895	1.895	1.895
0.000	0.024	0.000	0.005	0.010	0.015	0.029	2.695	1.885	1.885	1.880	1.895	1.904	1.899
0.010	-0.020	0.000	0.005	0.049	-0.010	0.029	2.671	1.885	1.875	1.875	1.895	1.909	1.895
0.020	-0.024	0.000	-0.005	0.078	0.015	0.029	2.671	1.885	1.875	1.875	1.895	1.914	1.909
0.024	-0.015	0.005	-0.015	0.093	0.000	0.029	2.681	1.890	1.880	1.880	1.890	1.909	1.904
0.020	-0.010	0.000	-0.015	0.103	-0.020	0.029	2.666	1.885	1.885	1.875	1.890	1.904	1.899
0.000	-0.005	0.005	-0.015	0.103	-0.024	0.029	2.676	1.875	1.880	1.880	1.895	1.899	1.895
-0.005	-0.015	0.005	-0.005	0.083	-0.029	0.029	2.671	1.880	1.880	1.875	1.895	1.895	1.895
-0.020	-0.015	-0.005	0.005	0.073	-0.015	0.029	2.676	1.875	1.875	1.875	1.895	1.890	1.899
-0.020	0.005	0.000	0.015	0.054	-0.010	0.029	2.686	1.880	1.880	1.880	1.899	1.885	1.895
-0.010	0.000	0.000	0.024	0.034	-0.015	0.029	2.666	1.880	1.880	1.875	1.899	1.885	1.885
-0.010	0.000	0.000	0.024	0.010	-0.005	0.029	2.686	1.885	1.880	1.880	1.899	1.880	1.885
-0.005	0.005	0.000	0.020	-0.010	-0.005	0.029	2.671	1.885	1.885	1.880	1.895	1.880	1.885
0.010	0.005	0.000	0.010	-0.024	0.005	0.029	2.681	1.890	1.885	1.880	1.895	1.875	1.885
0.010	0.010	0.005	-0.005	-0.024	-0.010	0.029	2.695	1.885	1.885	1.880	1.895	1.880	1.880
-0.005	0.015	0.005	-0.010	-0.020	0.005	0.029	2.686	1.885	1.885	1.880	1.895	1.885	1.885
-0.020	0.015	0.005	-0.015	-0.029	0.000	0.029	2.671	1.880	1.885	1.880	1.895	1.885	1.885
-0.024	0.020	0.005	0.010	-0.024	0.000	0.029	2.686	1.875	1.880	1.885	1.899	1.890	1.885
-0.010	0.005	0.000	0.005	-0.020	0.010	0.029	2.681	1.880	1.875	1.880	1.899	1.895	1.890
-0.005	-0.005	0.005	-0.005	-0.015	0.000	0.029	2.676	1.880	1.875	1.875	1.895	1.890	1.890
-0.005	0.000	0.000	-0.010	-0.020	0.000	0.029	2.686	1.885	1.880	1.875	1.895	1.890	1.885
0.005	0.000	0.000	-0.020	-0.015	0.020	0.029	2.690	1.890	1.880	1.875	1.890	1.890	1.895
0.005	-0.005	0.000	-0.029	-0.010	-0.015	0.029	2.676	1.885	1.875	1.875	1.890	1.890	1.885
0.005	0.010	0.000	-0.015	-0.005	0.015	0.029	2.690	1.885	1.885	1.875	1.895	1.890	1.895
0.010	0.010	0.000	-0.005	-0.005	0.000	0.029	2.705	1.890	1.880	1.875	1.899	1.890	1.890
0.015	-0.029	0.000	0.015	-0.010	0.000	0.029	2.671	1.885	1.875	1.875	1.904	1.890	1.890
0.010	-0.039	0.000	0.015	-0.005	0.020	0.029	2.686	1.885	1.870	1.875	1.899	1.895	1.895
0.010	-0.015	0.000	0.010	-0.010	0.015	0.029	2.676	1.885	1.880	1.875	1.895	1.895	1.895
-0.010	0.015	0.000	0.005	-0.015	0.010	0.029	2.666	1.880	1.890	1.875	1.895	1.890	1.890
0.000	0.005	0.000	0.000	-0.010	0.010	0.029	2.676	1.880	1.880	1.875	1.895	1.890	1.890
0.010	-0.039	0.000	-0.005	-0.005	0.010	0.029	2.690	1.880	1.870	1.875	1.895	1.890	1.890
0.010	-0.068	0.005	-0.010	-0.010	0.005	0.029	2.700	1.885	1.865	1.875	1.895	1.890	1.890
0.015	-0.010	0.000	-0.005	-0.005	0.005	0.029	2.686	1.890	1.890	1.875	1.895	1.890	1.890
0.005	0.063	-0.005	0.000	-0.005	0.005	0.029	2.686	1.885	1.909	1.885	1.899	1.890	1.890
-0.020	0.073	-0.005	0.000	-0.005	0.005	0.029	2.676	1.880	1.899	1.890	1.899	1.890	1.890
-0.005	0.029	-0.005	-0.020	0.000	0.005	0.029	2.686	1.880	1.885	1.885	1.895	1.895	1.890
-0.020	0.034	-0.005	-0.010	-0.005	0.000	0.029	2.681	1.880	1.885	1.885	1.899	1.890	1.890
-0.005	0.059	-0.005	0.010	0.005	0.000	0.029	2.705	1.885	1.890	1.890	1.909	1.899	1.895
-0.015	0.083	0.000	0.015	0.000	-0.015	0.029	2.671	1.880	1.895	1.890	1.909	1.899	1.890
-0.005	-0.020	0.010	0.010	0.005	0.000	0.029	2.671	1.880	1.860	1.880	1.904	1.899	1.899
0.000	-0.073	0.005	0.020	0.000	-0.005	0.029	2.651	1.875	1.851	1.870	1.904	1.899	1.899
0.010	-0.093	0.000	0.020	-0.005	0.010	0.029	2.681	1.880	1.851	1.865	1.899	1.899	1.899
0.005	-0.063	0.000	0.015	0.005	0.015	0.029	2.676	1.880	1.870	1.865	1.890	1.895	1.899
0.000	-0.020	0.010	0.010	0.005	0.000	0.029	2.661	1.880	1.880	1.870	1.890	1.895	1.895
-0.005	0.049	0.005	0.010	0.005	0.005	0.029	2.681	1.885	1.904	1.880	1.890	1.890	1.895
0.010	0.088	0.005	0.010	0.005	0.005	0.029	2.676	1.890	1.909	1.885	1.895	1.890	1.895
0.010	0.054	0.005	0.010	0.010	-0.005	0.029	2.690	1.885	1.890	1.885	1.895	1.890	1.890
0.020	0.044	-0.005	0.015	0.005	0.005	0.029	2.671	1.890	1.890	1.885	1.899	1.890	1.890
0.020	0.015	0.005	0.010	0.010	0.000	0.029	2.710	1.890	1.875	1.880	1.899	1.895	1.895
0.010	0.020	0.000	0.005	0.005	0.020	0.029	2.637	1.880	1.885	1.880	1.895	1.895	1.895
0.005	0.034	0.000	0.000	0.000	0.005	0.029	2.642	1.875	1.880	1.880	1.895	1.895	1.890
0.005	-0.015	0.000	-0.020	0.000	0.005	0.029	2.646	1.875	1.870	1.875	1.895	1.890	1.890
0.005	-0.044	0.000	-0.020	0.000	-0.005	0.029	2.632	1.875	1.860	1.870	1.890	1.890	1.890
0.010	-0.054	0.000	-0.015	-0.005	-0.010	0.029	2.651	1.875	1.860	1.865	1.890	1.890	1.885
0.000	-0.039	0.005	-0.015	0.010	-0.005	0.029	2.729	1.880	1.865	1.870	1.890	1.890	1.890
0.005	-0.029	0.005	-0.010	0.024	-0.010	0.029	2.651	1.880	1.875	1.870	1.890	1.890	1.890
0.000	-0.005	0.005	0.005	0.020	-0.020	0.029	2.661	1.875	1.880	1.870	1.895	1.890	1.885
0.005	0.020	0.005	0.010	0.020	-0.005	0.029	2.710	1.885	1.885	1.875	1.895	1.895	1.890
0.010	-0.015	0.000	-0.010	0.015	-0.010	0.029	2.642	1.875	1.875	1.870	1.885	1.885	1.890
0.005	-0.005	0.000	-0.015	0.024	0.010	0.029	2.651	1.875	1.880	1.875	1.885	1.890	1.890
0.000	0.010	0.005	-0.020	0.020	0.005	0.029	2.632	1.870	1.875	1.875	1.890	1.885	1.890
0.000	0.000	0.005	0.000	0.010	0.000	0.029	2.642	1.870	1.875	1.875	1.895	1.885	1.885
-0.015	0.015	0.000	0.020	0.005	0.015	0.029	2.793	1.880	1.875	1.870	1.899	1.885	1.890
-0.005	0.005	-0.005	0.015	0.000	0.015	0.029	2.627	1.880	1.875	1.870	1.895	1.880	1.885
-0.015	0.010	0.000	0.005	-0.005	0.010	0.029	2.622	1.875	1.875	1.875	1.890	1.885	1.880
-0.024	-0.010	-0.005	0.000	-0.005	-0.005	0.029	2.651	1.870	1.870	1.870	1.890	1.885	1.880
-0.034	-0.034	0.000	0.000	-0.005	0.000	0.029	2.783	1.880	1.865	1.870	1.890	1.885	1.880
-0.010	-0.024	0.000	0.010	0.005	0.010	0.029	2.637	1.885	1.875	1.870	1.890	1.890	1.890
0.000	0.015	0.005	0.005	0.020	-0.010	0.029	2.632	1.880	1.885	1.875	1.890	1.890	1.880
0.005	-0.015	0.005	-0.005	0.015	0.010	0.029	2.739	1.885	1.875	1.875	1.890	1.885	1.890
0.010	-0.010	0.000	0.000	-0.005	0.005	0.029	2.690	1.899	1.885	1.875	1.890	1.885	1.885
0.029	0.083	0.000	0.005	-0.005	0.000	0.029	2.744	1.909	1.919	1.890	1.895	1.885	1.885
0.020	0.122	0.005	0.010	-0.005	0.005	0.029	2.632	1.895	1.914	1.899	1.904	1.890	1.885
0.015	0.049	0.005	0.005	-0.005	0.005	0.029	2.637	1.880	1.885	1.895	1.904	1.890	1.885
0.010	-0.063	-0.005	0.010	0.020	0.010	0.029	2.749	1.885	1.855	1.875	1.904	1.899	1.895
0.010	-0.112	-0.005	0.015	0.024	0.034	0.029	2.666	1.885	1.851	1.870	1.899	1.899	1.899
-0.005	-0.083	-0.010	0.010	-0.005	0.005	0.029	2.754	1.890	1.870	1.865	1.890	1.890	1.890
-0.005	-0.015	-0.005	-0.005	-0.005	0.005	0.029	2.676	1.890	1.890	1.875	1.890	1.885	1.890
-0.005	0.039	-0.005	-0.015	-0.005	0.000	0.029	2.715	1.885	1.904	1.880	1.890	1.885	1.885
-0.005	0.049	0.000	-0.020	-0.020	-0.015	0.029	2.632	1.880	1.899	1.885	1.890	1.880	1.880
-0.015	0.039	0.005	-0.010	-0.039	0.015	0.029	2.651	1.870	1.890	1.890	1.899	1.880	1.885
-0.005	0.010	0.005	-0.005	-0.034	-0.044	0.029	2.705	1.875	1.875	1.885	1.899	1.885	1.870
-0.005	0.010	0.005	0.000	-0.005	-0.015	0.029	2.676	1.875	1.880	1.880	1.904	1.899	1.885
-0.005	0.034	0.000	0.000	-0.010	-0.024	0.029	2.681	1.880	1.880	1.880	1.899	1.895	1.885
0.000	0.049	0.000	0.000	-0.010	-0.015	0.029	2.671	1.880	1.885	1.885	1.899	1.895	1.890
0.000	0.068	0.005	0.010	-0.020	-0.010	0.029	2.715	1.880	1.895	1.885	1.904	1.895	1.890
0.005	0.005	-0.005	0.010	-0.059	-0.005	0.029	2.700	1.880	1.865	1.875	1.904	1.885	1.895
0.015	-0.156	-0.005	0.005	-0.078	0.015	0.029	2.710	1.880	1.826	1.860	1.895	1.880	1.895
0.000	-0.142	-0.010	0.000	-0.063	0.010	0.029	2.705	1.880	1.851	1.855	1.885	1.885	1.890
0.000	-0.029	-0.005	0.010	-0.044	0.024	0.029	2.705	1.885	1.890	1.865	1.890	1.895	1.895
-0.015	-0.024	-0.005	0.010	0.029	0.029	0.029	2.710	1.885	1.890	1.870	1.890	1.909	1.899
-0.005	-0.020	-0.005	0.005	0.073	0.005	0.029	2.676	1.885	1.885	1.875	1.890	1.914	1.899
-0.010	-0.010	0.005	0.000	0.098	0.015	0.029	2.705	1.885	1.890	1.880	1.895	1.914	1.904
0.000	0.137	0.005	0.000	0.088	0.010	0.029	2.695	1.895	1.934	1.895	1.895	1.904	1.904
0.010	0.078	0.010	-0.015	0.044	-0.005	0.029	2.705	1.890	1.904	1.899	1.899	1.890	1.890
-0.005	0.054	0.010	-0.020	0.020	0.024	0.029	2.700	1.890	1.890	1.895	1.899	1.885	1.895
0.000	-0.005	0.010	-0.029	0.005	0.015	0.029	2.710	1.890	1.875	1.890	1.895	1.880	1.890
0.005	-0.005	0.015	-0.015	-0.024	-0.010	0.029	2.705	1.895	1.880	1.885	1.904	1.880	1.880
0.000	-0.029	0.005	0.005	-0.039	-0.024	0.029	2.695	1.890	1.875	1.880	1.909	1.880	1.875
0.005	0.000	0.005	0.005	-0.034	-0.015	0.029	2.676	1.890	1.890	1.880	1.904	1.890	1.880
0.010	0.020	0.010	0.015	-0.010	-0.049	0.029	2.710	1.885	1.895	1.885	1.909	1.899	1.875
0.005	-0.010	0.010	0.020	-0.010	-0.044	0.029	2.700	1.885	1.880	1.880	1.909	1.899	1.885
0.000	0.010	0.005	0.024	-0.024	-0.039	0.029	2.671	1.880	1.885	1.885	1.909	1.899	1.890
0.005	0.000	0.005	0.034	-0.024	-0.024	0.029	2.686	1.880	1.885	1.885	1.909	1.899	1.895
0.000	-0.010	0.000	0.024	-0.005	-0.005	0.029	2.622	1.875	1.875	1.880	1.904	1.909	1.904
-0.005	-0.020	0.000	0.034	0.034	0.005	0.029	2.632	1.870	1.870	1.875	1.904	1.914	1.909
0.015	0.005	0.000	0.029	0.112	0.005	0.029	2.642	1.880	1.880	1.875	1.899	1.929	1.919
0.015	0.000	0.005	0.005	0.137	0.034	0.029	2.651	1.880	1.875	1.875	1.890	1.924	1.924
0.010	-0.034	-0.005	0.005	0.132	0.034	0.029	2.632	1.875	1.865	1.870	1.890	1.914	1.924
0.015	0.044	0.000	0.010	0.137	0.005	0.029	2.642	1.890	1.895	1.880	1.895	1.909	1.914
0.010	0.020	0.000	-0.005	0.112	0.029	0.029	2.622	1.885	1.885	1.875	1.890	1.895	1.909
0.010	0.034	0.000	-0.015	0.059	0.029	0.029	2.632	1.880	1.885	1.880	1.890	1.875	1.899
-0.015	0.029	0.000	-0.015	-0.010	0.010	0.029	2.725	1.880	1.880	1.875	1.885	1.860	1.880
0.005	0.000	0.000	-0.020	-0.039	0.010	0.029	2.642	1.880	1.875	1.875	1.885	1.855	1.875
0.000	0.015	0.000	-0.010	-0.073	0.020	0.029	2.661	1.890	1.885	1.880	1.895	1.860	1.875
0.000	-0.015	0.010	-0.010	-0.083	0.000	0.029	2.686	1.885	1.875	1.875	1.890	1.865	1.870
-0.005	-0.034	0.000	-0.010	-0.078	0.020	0.029	2.749	1.895	1.875	1.875	1.890	1.875	1.870
-0.005	-0.005	0.005	-0.005	-0.049	0.020	0.029	2.705	1.890	1.885	1.880	1.895	1.885	1.875
0.005	-0.020	0.005	0.000	-0.034	0.044	0.029	2.720	1.895	1.880	1.880	1.899	1.895	1.890
-0.005	-0.049	0.000	0.010	-0.039	0.059	0.029	2.759	1.895	1.880	1.880	1.899	1.895	1.895
-0.010	0.054	0.000	0.005	-0.063	0.044	0.029	2.622	1.899	1.909	1.885	1.899	1.885	1.885
-0.020	0.073	0.000	-0.005	-0.142	0.010	0.029	2.671	1.890	1.904	1.890	1.899	1.865	1.870
-0.020	0.010	0.000	0.005	-0.156	0.015	0.029	2.671	1.880	1.880	1.885	1.899	1.870	1.870
-0.010	-0.029	-0.005	0.000	-0.166	-0.005	0.029	2.700	1.880	1.870	1.880	1.899	1.875	1.865
-0.015	-0.010	-0.005	-0.005	-0.156	-0.005	0.029	2.705	1.880	1.880	1.875	1.899	1.885	1.870
-0.005	-0.010	-0.005	-0.005	-0.073	-0.039	0.029	2.666	1.880	1.880	1.880	1.899	1.909	1.870
-0.005	0.000	-0.005	0.000	0.000	-0.078	0.029	2.695	1.880	1.880	1.880	1.899	1.924	1.875
-0.005	0.029	0.000	-0.005	0.059	-0.098	0.029	2.681	1.880	1.890	1.880	1.904	1.929	1.885
0.010	-0.034	-0.005	0.000	0.088	-0.103	0.029	2.656	1.880	1.870	1.875	1.899	1.929	1.899
0.015	-0.078	0.005	-0.010	0.127	-0.117	0.029	2.676	1.880	1.855	1.875	1.899	1.929	1.904
0.024	-0.054	0.005	-0.010	0.171	-0.112	0.029	2.671	1.885	1.875	1.875	1.895	1.934	1.914
0.024	0.054	0.010	-0.010	0.181	-0.024	0.029	2.676	1.890	1.909	1.885	1.899	1.929	1.943
0.010	0.083	0.010	-0.010	0.137	0.010	0.029	2.671	1.885	1.909	1.890	1.899	1.904	1.938
0.010	0.024	0.015	0.010	0.073	0.068	0.029	2.671	1.885	1.885	1.890	1.909	1.890	1.938
0.005	0.020	0.010	0.024	0.024	0.059	0.029	2.700	1.890	1.890	1.890	1.909	1.880	1.919
-0.005	0.029	0.000	0.024	0.034	0.073	0.029	2.700	1.890	1.890	1.885	1.909	1.895	1.914
-0.005	0.000	-0.010	0.024	0.024	0.054	0.029	2.700	1.890	1.880	1.880	1.904	1.890	1.904
0.000	-0.015	-0.015	0.010	-0.005	0.044	0.029	2.705	1.895	1.875	1.875	1.899	1.880	1.895
0.000	0.000	-0.020	0.020	-0.020	0.020	0.029	2.671	1.890	1.885	1.875	1.899	1.885	1.885
-0.005	0.049	-0.020	0.024	-0.015	0.039	0.029	2.666	1.885	1.899	1.885	1.899	1.890	1.890
-0.005	-0.034	-0.005	0.020	0.034	0.034	0.029	2.681	1.880	1.870	1.880	1.899	1.904	1.890
0.020	-0.063	-0.005	0.010	0.010	0.029	0.029	2.705	1.890	1.870	1.875	1.895	1.890	1.890
0.010	-0.049	0.000	0.005	-0.044	0.005	0.029	2.676	1.885	1.875	1.875	1.890	1.875	1.880
-0.005	-0.024	0.005	-0.020	-0.073	0.010	0.029	2.686	1.880	1.880	1.880	1.890	1.870	1.875
-0.005	0.005	0.015	-0.005	-0.078	0.010	0.029	2.656	1.880	1.890	1.885	1.895	1.875	1.875
0.000	0.029	0.015	-0.010	-0.063	0.005	0.029	2.646	1.875	1.890	1.885	1.895	1.880	1.875
0.010	0.015	0.015	-0.005	-0.059	0.000	0.029	2.642	1.875	1.885	1.885	1.899	1.890	1.875
0.010	0.010	0.015	0.024	-0.039	-0.024	0.029	2.666	1.875	1.875	1.885	1.909	1.895	1.880
-0.010	-0.005	0.015	-0.005	-0.020	0.015	0.029	2.627	1.865	1.870	1.880	1.899	1.904	1.895
-0.015	0.000	0.005	-0.044	-0.010	0.010	0.029	2.734	1.875	1.875	1.875	1.890	1.899	1.895
-0.015	0.005	0.005	-0.044	-0.010	0.000	0.029	2.759	1.885	1.875	1.875	1.890	1.899	1.895
-0.015	0.000	0.000	-0.029	-0.010	-0.005	0.034	2.646	1.880	1.875	1.875	1.890	1.890	1.890
-0.015	0.005	0.000	-0.005	-0.015	-0.020	0.029	2.705	1.890	1.880	1.875	1.899	1.890	1.890
0.010	-0.005	-0.005	0.010	-0.005	-0.005	0.029	2.671	1.890	1.875	1.875	1.899	1.899	1.895
0.020	0.010	-0.005	0.034	0.000	-0.005	0.029	2.632	1.895	1.890	1.880	1.909	1.904	1.895
0.015	0.024	-0.010	0.029	0.010	-0.024	0.029	2.686	1.890	1.890	1.880	1.899	1.904	1.895
-0.020	0.034	-0.005	0.020	0.005	-0.015	0.029	2.710	1.885	1.890	1.880	1.899	1.899	1.895
-0.039	0.029	0.000	0.039	0.000	-0.005	0.029	2.686	1.875	1.885	1.885	1.904	1.899	1.899
-0.020	0.020	0.005	0.059	0.000	-0.005	0.029	2.632	1.875	1.875	1.885	1.909	1.899	1.899
-0.010	-0.010	0.015	0.034	0.005	0.005	0.029	2.812	1.899	1.875	1.880	1.899	1.899	1.899
0.000	-0.029	0.000	0.010	0.005	0.010	0.029	2.671	1.899	1.875	1.875	1.895	1.895	1.899
0.015	-0.010	-0.005	-0.005	0.000	0.000	0.029	2.671	1.895	1.885	1.875	1.885	1.890	1.895
0.010	-0.073	0.000	-0.024	0.005	-0.005	0.029	2.666	1.890	1.865	1.870	1.885	1.890	1.890
0.015	-0.098	-0.010	-0.024	0.000	0.005	0.029	2.700	1.890	1.870	1.865	1.880	1.885	1.895
0.005	-0.039	-0.015	-0.039	0.015	0.005	0.029	2.700	1.890	1.890	1.870	1.880	1.885	1.890
0.005	0.010	-0.010	-0.034	0.034	-0.005	0.029	2.671	1.890	1.899	1.885	1.890	1.890	1.890
0.010	0.029	0.000	-0.010	0.039	0.005	0.029	2.710	1.895	1.909	1.895	1.904	1.895	1.890
0.010	0.146	0.005	0.000	0.044	0.000	0.029	2.700	1.899	1.938	1.909	1.914	1.899	1.895
0.020	0.142	0.005	0.010	0.024	-0.005	0.029	2.705	1.899	1.919	1.914	1.919	1.899	1.895
0.000	0.024	0.010	0.005	0.015	0.010	0.029	2.666	1.880	1.875	1.899	1.919	1.899	1.899
0.000	-0.015	0.015	-0.029	0.034	0.005	0.029	2.686	1.880	1.870	1.890	1.904	1.904	1.899
0.005	-0.044	0.015	-0.049	0.039	0.010	0.029	2.676	1.880	1.865	1.880	1.899	1.904	1.899
0.000	-0.078	0.024	-0.039	0.024	-0.010	0.029	2.671	1.880	1.860	1.875	1.899	1.899	1.895
0.005	-0.078	0.010	0.010	0.010	0.000	0.029	2.695	1.885	1.865	1.870	1.909	1.895	1.895
0.020	-0.010	0.010	0.029	-0.010	0.005	0.029	2.676	1.895	1.890	1.875	1.909	1.895	1.895
0.039	-0.024	-0.005	0.059	-0.015	-0.010	0.029	2.695	1.895	1.885	1.875	1.914	1.895	1.890
0.044	-0.015	-0.020	0.083	-0.010	0.005	0.029	2.686	1.895	1.890	1.875	1.914	1.899	1.895
0.000	0.039	-0.024	0.059	-0.010	0.005	0.029	2.681	1.880	1.899	1.880	1.899	1.899	1.895
-0.034	0.063	-0.015	0.015	-0.005	-0.010	0.029	2.700	1.875	1.895	1.885	1.890	1.895	1.895
-0.063	0.059	-0.010	-0.005	-0.010	-0.010	0.029	2.700	1.870	1.885	1.885	1.890	1.890	1.895
-0.054	0.029	-0.005	0.000	-0.005	0.005	0.029	2.671	1.875	1.875	1.885	1.895	1.895	1.899
-0.010	-0.005	0.000	0.015	-0.005	0.020	0.029	2.710	1.895	1.870	1.880	1.904	1.895	1.899
0.020	-0.029	0.000	0.034	-0.005	0.015	0.029	2.705	1.904	1.875	1.875	1.904	1.895	1.899
0.029	-0.039	0.005	0.015	-0.010	0.005	0.029	2.681	1.904	1.880	1.880	1.895	1.895	1.895
0.039	-0.029	0.015	0.005	-0.010	-0.010	0.029	2.642	1.899	1.890	1.880	1.895	1.895	1.890
0.049	-0.039	0.010	-0.015	0.000	-0.005	0.029	2.637	1.890	1.885	1.880	1.890	1.895	1.895
0.039	-0.005	0.010	-0.024	-0.005	-0.005	0.029	2.646	1.885	1.895	1.885	1.890	1.890	1.890
0.015	0.000	0.005	-0.015	0.000	0.010	0.029	2.788	1.890	1.890	1.885	1.899	1.895	1.895
0.029	0.000	0.005	0.000	0.005	-0.015	0.029	2.627	1.885	1.890	1.885	1.904	1.895	1.885
0.005	0.020	0.005	-0.005	-0.005	0.015	0.029	2.637	1.875	1.890	1.885	1.904	1.895	1.895
-0.034	0.054	0.005	-0.005	-0.005	-0.010	0.029	2.690	1.865	1.895	1.890	1.899	1.895	1.895
-0.073	0.059	0.005	-0.010	0.010	0.005	0.029	2.734	1.855	1.880	1.885	1.899	1.899	1.895
-0.078	0.024	0.000	-0.010	0.005	-0.005	0.029	2.632	1.855	1.860	1.875	1.899	1.895	1.895
-0.044	-0.020	0.000	0.010	-0.005	0.000	0.029	2.646	1.865	1.851	1.870	1.904	1.895	1.895
-0.020	-0.059	0.000	0.005	-0.005	0.005	0.029	2.617	1.870	1.846	1.865	1.895	1.890	1.890
0.005	-0.039	0.000	0.000	0.000	0.000	0.029	2.656	1.880	1.860	1.860	1.890	1.890	1.895
0.015	0.059	0.015	0.005	-0.005	0.015	0.029	2.632	1.880	1.899	1.875	1.890	1.890	1.895
0.005	0.117	0.010	0.000	-0.005	0.020	0.029	2.676	1.880	1.904	1.880	1.890	1.890	1.895
0.005	0.000	-0.005	0.000	-0.005	-0.020	0.029	2.720	1.885	1.865	1.870	1.890	1.890	1.885
0.005	-0.024	-0.010	-0.005	0.000	0.010	0.029	2.642	1.895	1.870	1.870	1.890	1.890	1.890
0.005	0.024	-0.005	0.005	0.015	-0.005	0.029	2.622	1.890	1.890	1.875	1.890	1.890	1.890
0.015	0.059	-0.010	0.000	0.010	0.010	0.029	2.686	1.890	1.895	1.875	1.890	1.890	1.890
0.015	0.024	-0.020	0.010	0.010	-0.020	0.029	2.676	1.890	1.880	1.875	1.895	1.890	1.885
0.024	-0.054	-0.010	0.000	0.005	0.005	0.029	2.671	1.885	1.865	1.875	1.895	1.890	1.890
0.020	-0.059	-0.005	0.000	0.010	0.020	0.029	2.705	1.885	1.870	1.870	1.895	1.890	1.895
0.015	-0.049	-0.005	-0.005	0.005	0.015	0.029	2.681	1.885	1.875	1.875	1.890	1.885	1.890
0.000	0.010	0.010	-0.015	0.000	0.010	0.029	2.695	1.885	1.890	1.880	1.890	1.885	1.885
0.005	-0.029	0.015	-0.005	-0.005	0.000	0.029	2.690	1.885	1.875	1.880	1.890	1.885	1.885
-0.010	-0.054	0.015	-0.005	0.000	0.005	0.029	2.700	1.880	1.870	1.875	1.895	1.885	1.885
-0.010	-0.078	0.010	0.000	-0.005	0.000	0.029	2.700	1.880	1.865	1.870	1.895	1.890	1.880
0.000	-0.112	0.005	0.000	-0.010	0.010	0.029	2.681	1.880	1.860	1.865	1.890	1.885	1.885
-0.010	-0.132	0.005	0.005	-0.005	0.015	0.029	2.661	1.880	1.860	1.865	1.890	1.885	1.890
0.000	-0.078	0.005	0.000	0.005	0.015	0.029	2.720	1.890	1.880	1.870	1.885	1.890	1.890
0.024	-0.039	0.005	0.010	0.005	0.015	0.029	2.676	1.895	1.899	1.875	1.890	1.890	1.890
0.029	0.215	0.000	0.010	0.000	-0.015	0.029	2.671	1.904	1.973	1.909	1.899	1.885	1.880
0.024	0.220	0.005	0.005	-0.010	-0.005	0.029	2.715	1.899	1.943	1.914	1.909	1.890	1.885
0.029	0.132	0.010	0.000	-0.005	-0.010	0.029	2.671	1.890	1.909	1.914	1.914	1.895	1.890
0.020	0.010	0.005	0.005	-0.015	-0.015	0.029	2.710	1.880	1.865	1.899	1.914	1.899	1.890
0.005	0.010	0.010	0.000	-0.010	0.000	0.029	2.705	1.880	1.875	1.890	1.909	1.904	1.895
0.000	0.039	0.005	0.000	-0.010	-0.010	0.029	2.695	1.885	1.880	1.890	1.909	1.904	1.890
0.010	0.063	0.010	-0.005	-0.005	0.010	0.029	2.710	1.890	1.890	1.890	1.909	1.904	1.899
-0.005	0.088	0.020	0.000	-0.005	0.005	0.029	2.695	1.885	1.895	1.890	1.909	1.904	1.904
-0.005	-0.010	0.000	0.005	0.000	0.015	0.029	2.700	1.885	1.860	1.880	1.909	1.904	1.904
-0.010	-0.054	-0.010	0.024	0.005	0.000	0.029	2.666	1.880	1.860	1.870	1.904	1.909	1.904
0.000	-0.059	-0.020	0.015	0.015	-0.020	0.029	2.651	1.875	1.860	1.865	1.895	1.904	1.899
-0.005	-0.059	-0.020	0.005	0.005	-0.015	0.029	2.642	1.875	1.865	1.860	1.890	1.895	1.899
-0.020	-0.039	-0.015	-0.005	0.000	-0.005	0.029	2.642	1.870	1.875	1.865	1.880	1.890	1.899
-0.024	-0.005	-0.005	-0.010	-0.005	0.000	0.029	2.725	1.870	1.875	1.870	1.880	1.885	1.895
-0.024	-0.039	0.000	-0.005	-0.010	-0.020	0.029	2.627	1.865	1.865	1.870	1.890	1.880	1.885
-0.020	-0.005	0.005	-0.015	-0.010	0.005	0.029	2.729	1.880	1.880	1.870	1.885	1.880	1.890
0.010	0.024	-0.005	-0.015	-0.005	0.005	0.029	2.734	1.895	1.895	1.875	1.885	1.885	1.890
0.024	0.054	-0.005	0.029	0.005	-0.010	0.029	2.627	1.895	1.895	1.885	1.904	1.890	1.885
0.015	0.068	0.010	0.024	0.005	0.005	0.029	2.690	1.880	1.895	1.890	1.904	1.895	1.890
0.015	-0.039	0.005	0.010	0.020	0.005	0.029	2.651	1.875	1.865	1.880	1.899	1.895	1.890
0.020	0.093	0.010	-0.005	0.029	0.005	0.029	2.661	1.880	1.904	1.885	1.895	1.899	1.895
0.029	0.059	0.000	-0.005	0.029	-0.005	0.029	2.700	1.890	1.890	1.885	1.899	1.899	1.895
-0.005	0.005	-0.005	-0.010	0.020	0.020	0.034	2.617	1.865	1.865	1.875	1.895	1.895	1.899
-0.034	-0.010	-0.005	0.000	0.020	0.010	0.029	2.666	1.865	1.865	1.870	1.895	1.895	1.895
-0.034	-0.024	-0.010	0.005	0.010	0.005	0.029	2.651	1.865	1.860	1.865	1.895	1.890	1.890
0.000	-0.015	-0.005	0.029	0.020	0.000	0.029	2.773	1.890	1.870	1.870	1.899	1.895	1.890
0.005	-0.024	0.005	0.034	0.015	0.005	0.029	2.617	1.895	1.870	1.870	1.899	1.890	1.890
0.005	-0.015	0.005	0.039	0.005	-0.020	0.029	2.676	1.890	1.875	1.870	1.895	1.890	1.880
0.005	-0.015	-0.005	0.015	-0.005	0.005	0.029	2.671	1.885	1.880	1.870	1.885	1.885	1.890
-0.005	-0.020	0.000	-0.005	-0.005	0.010	0.029	2.661	1.880	1.880	1.875	1.880	1.880	1.890
0.015	-0.034	0.000	-0.020	0.000	0.015	0.029	2.690	1.885	1.875	1.870	1.880	1.880	1.890
0.020	-0.044	0.005	-0.029	0.010	-0.010	0.029	2.695	1.890	1.875	1.875	1.880	1.880	1.880
0.015	-0.034	0.005	-0.020	0.015	0.005	0.029	2.705	1.885	1.880	1.875	1.885	1.880	1.885
0.010	-0.015	0.000	-0.005	0.015	0.015	0.029	2.700	1.885	1.885	1.880	1.895	1.885	1.885
0.000	-0.010	0.000	-0.010	0.015	0.000	0.029	2.710	1.885	1.890	1.880	1.895	1.885	1.885
-0.015	0.034	0.005	-0.010	0.010	-0.005	0.029	2.695	1.880	1.899	1.885	1.899	1.885	1.880
-0.005	0.005	0.005	-0.010	0.010	0.000	0.029	2.676	1.885	1.880	1.885	1.899	1.890	1.885
-0.005	-0.029	0.000	-0.005	0.015	0.010	0.029	2.671	1.885	1.875	1.880	1.899	1.890	1.890
-0.010	-0.024	0.000	-0.015	0.010	0.005	0.029	2.700	1.880	1.875	1.880	1.895	1.890	1.885
-0.073	-0.015	0.005	-0.029	0.005	-0.015	0.029	2.700	1.860	1.870	1.875	1.890	1.890	1.880
-0.122	-0.005	0.005	-0.034	0.005	0.010	0.029	2.705	1.860	1.870	1.875	1.890	1.885	1.890
-0.132	-0.010	0.005	-0.059	-0.005	-0.010	0.029	2.690	1.865	1.870	1.870	1.880	1.880	1.880
-0.112	-0.020	0.005	-0.068	-0.005	0.005	0.029	2.695	1.875	1.865	1.870	1.880	1.880	1.880
-0.039	-0.010	0.005	0.024	0.000	-0.010	0.029	2.695	1.899	1.880	1.870	1.909	1.890	1.880
0.044	-0.015	0.000	0.078	0.005	-0.029	0.029	2.700	1.919	1.890	1.875	1.919	1.899	1.880
0.122	-0.010	0.005	0.068	0.010	-0.029	0.029	2.661	1.929	1.904	1.885	1.909	1.904	1.885
0.186	0.000	0.000	0.024	0.015	-0.039	0.029	2.695	1.934	1.914	1.890	1.899	1.899	1.890
0.225	0.000	0.000	0.054	0.010	0.005	0.029	2.700	1.929	1.919	1.899	1.914	1.904	1.899
0.210	0.015	-0.005	0.063	0.015	0.015	0.029	2.700	1.919	1.919	1.904	1.914	1.904	1.909
0.171	-0.010	0.000	0.020	0.015	0.010	0.029	2.681	1.895	1.904	1.904	1.904	1.904	1.904
0.103	0.015	-0.005	0.010	0.005	0.005	0.029	2.622	1.870	1.899	1.899	1.909	1.899	1.904
0.049	0.044	0.000	0.020	0.000	0.005	0.029	2.651	1.851	1.895	1.899	1.914	1.899	1.899
-0.039	0.044	0.005	0.015	0.000	-0.005	0.029	2.651	1.836	1.875	1.895	1.909	1.904	1.899
-0.093	0.034	0.000	-0.020	0.000	-0.024	0.029	2.783	1.821	1.855	1.880	1.899	1.899	1.895
-0.107	0.024	0.010	-0.005	-0.005	-0.010	0.029	2.637	1.831	1.846	1.875	1.904	1.899	1.899
-0.112	0.000	0.010	0.034	-0.010	0.000	0.029	2.734	1.851	1.841	1.865	1.904	1.899	1.904
-0.156	0.000	0.005	0.005	-0.010	0.020	0.029	2.725	1.851	1.841	1.855	1.890	1.899	1.904
-0.205	0.005	0.000	-0.010	-0.024	0.015	0.029	2.705	1.846	1.841	1.851	1.880	1.885	1.899
-0.176	0.015	-0.010	-0.015	-0.015	0.034	0.029	2.617	1.870	1.851	1.846	1.875	1.880	1.899
-0.122	0.020	-0.010	-0.020	-0.015	0.020	0.029	2.656	1.885	1.865	1.851	1.870	1.875	1.890
-0.059	0.005	-0.005	-0.010	-0.015	0.020	0.029	2.651	1.899	1.870	1.855	1.870	1.875	1.885
0.029	-0.005	0.000	-0.010	-0.034	0.005	0.029	2.695	1.924	1.880	1.865	1.875	1.865	1.875
0.103	0.010	0.000	-0.010	-0.029	0.000	0.029	2.627	1.929	1.899	1.870	1.880	1.870	1.870
0.156	0.000	0.000	-0.015	-0.020	-0.010	0.029	2.676	1.924	1.904	1.880	1.880	1.875	1.870
0.156	0.000	0.005	-0.029	-0.024	-0.020	0.029	2.622	1.904	1.904	1.890	1.885	1.875	1.870
0.132	0.010	0.000	-0.024	-0.010	-0.024	0.029	2.759	1.899	1.899	1.890	1.890	1.880	1.870
0.088	0.005	0.000	-0.020	0.015	-0.039	0.029	2.617	1.875	1.895	1.890	1.899	1.890	1.875
0.044	0.000	0.000	-0.015	0.005	-0.029	0.029	2.671	1.860	1.880	1.890	1.904	1.890	1.880
-0.005	0.000	-0.005	-0.010	0.000	-0.029	0.029	2.661	1.851	1.870	1.885	1.904	1.890	1.880
-0.044	-0.005	0.005	-0.010	-0.005	-0.024	0.029	2.676	1.851	1.865	1.875	1.899	1.890	1.885
-0.059	0.005	0.005	0.000	-0.020	-0.020	0.029	2.700	1.860	1.865	1.875	1.899	1.890	1.890
-0.054	-0.020	0.005	0.010	-0.029	0.010	0.029	2.710	1.870	1.855	1.870	1.899	1.890	1.895
-0.039	-0.029	0.005	0.005	-0.010	0.039	0.029	2.695	1.880	1.860	1.865	1.895	1.899	1.904
-0.024	-0.010	0.005	0.010	-0.010	0.049	0.029	2.671	1.885	1.870	1.865	1.895	1.895	1.904
-0.024	-0.005	0.000	0.015	0.015	0.034	0.029	2.690	1.885	1.875	1.870	1.895	1.899	1.899
-0.034	0.020	0.000	0.039	0.073	0.044	0.029	2.686	1.885	1.885	1.875	1.899	1.914	1.904
-0.020	0.049	0.000	0.044	0.068	0.029	0.029	2.695	1.890	1.895	1.875	1.899	1.909	1.904
-0.044	0.063	-0.010	0.020	0.059	0.024	0.029	2.671	1.890	1.895	1.875	1.895	1.895	1.899
-0.068	0.068	-0.010	0.049	0.078	0.020	0.029	2.700	1.880	1.890	1.880	1.904	1.904	1.899
-0.068	0.054	-0.010	0.054	0.078	-0.005	0.029	2.686	1.880	1.880	1.880	1.904	1.899	1.895
-0.020	0.005	-0.005	0.049	0.054	0.020	0.029	2.686	1.895	1.870	1.880	1.899	1.890	1.899
0.015	-0.029	0.000	0.015	0.015	0.015	0.029	2.700	1.904	1.870	1.875	1.885	1.880	1.890
0.034	-0.034	0.005	-0.024	-0.005	0.005	0.029	2.720	1.904	1.875	1.875	1.875	1.870	1.880
0.054	-0.039	0.010	-0.078	-0.020	0.000	0.029	2.710	1.904	1.885	1.875	1.870	1.865	1.875
0.054	-0.049	0.005	-0.078	-0.024	-0.010	0.029	2.705	1.904	1.885	1.875	1.875	1.865	1.870
0.063	-0.049	0.005	-0.063	-0.034	0.005	0.029	2.686	1.899	1.890	1.880	1.885	1.870	1.875
0.039	-0.029	0.005	-0.044	-0.039	0.000	0.029	2.710	1.890	1.895	1.885	1.895	1.875	1.870
0.029	-0.015	0.005	-0.020	-0.039	0.005	0.029	2.710	1.880	1.895	1.890	1.904	1.885	1.875
0.005	0.010	0.005	0.024	-0.024	0.000	0.029	2.671	1.875	1.895	1.895	1.919	1.895	1.875
-0.005	0.015	0.005	0.024	-0.015	0.005	0.029	2.671	1.875	1.890	1.895	1.914	1.899	1.885
0.005	0.015	0.015	-0.005	-0.015	0.000	0.029	2.651	1.875	1.885	1.890	1.904	1.904	1.890
0.020	0.000	0.015	-0.015	-0.015	-0.005	0.029	2.651	1.875	1.880	1.880	1.899	1.899	1.890
0.029	-0.005	0.015	-0.024	-0.010	0.000	0.029	2.646	1.880	1.880	1.880	1.899	1.899	1.890
0.034	0.010	0.020	-0.024	-0.010	0.000	0.029	2.754	1.880	1.880	1.880	1.899	1.899	1.895
0.005	0.029	0.020	0.005	0.000	0.005	0.029	2.617	1.865	1.880	1.885	1.909	1.904	1.899
0.000	0.034	0.020	0.020	-0.005	0.010	0.034	2.642	1.865	1.875	1.880	1.909	1.899	1.899
-0.015	0.029	0.015	0.034	-0.005	0.010	0.029	2.720	1.870	1.870	1.875	1.909	1.904	1.904
-0.024	0.029	0.015	0.034	0.000	0.000	0.029	2.646	1.870	1.870	1.875	1.904	1.904	1.899
-0.010	-0.005	0.015	0.034	-0.005	0.005	0.029	2.646	1.880	1.860	1.870	1.899	1.899	1.904
0.000	-0.029	0.000	0.024	0.010	0.010	0.029	2.642	1.880	1.860	1.865	1.890	1.899	1.899
0.024	-0.029	0.000	0.010	0.000	0.000	0.029	2.651	1.899	1.870	1.865	1.885	1.890	1.899
0.015	-0.020	-0.010	-0.020	0.005	-0.005	0.029	2.661	1.890	1.875	1.865	1.875	1.885	1.895
0.005	-0.015	-0.005	-0.039	0.005	0.000	0.029	2.651	1.880	1.880	1.865	1.875	1.880	1.890
-0.005	0.010	-0.010	-0.039	0.005	-0.015	0.029	2.681	1.880	1.885	1.870	1.875	1.880	1.880
-0.010	0.029	-0.010	0.000	0.010	0.005	0.029	2.617	1.870	1.890	1.880	1.895	1.885	1.890
-0.015	0.010	-0.010	0.029	0.020	0.005	0.029	2.803	1.885	1.880	1.880	1.899	1.890	1.890
-0.010	0.000	-0.010	0.054	0.010	0.005	0.029	2.612	1.885	1.875	1.880	1.909	1.890	1.890
-0.005	-0.020	-0.010	0.049	0.015	0.010	0.029	2.690	1.880	1.875	1.875	1.899	1.890	1.890
-0.015	-0.020	-0.010	0.068	0.010	0.000	0.029	2.671	1.880	1.875	1.875	1.904	1.895	1.890
-0.010	-0.029	-0.005	0.059	0.005	0.015	0.029	2.700	1.885	1.875	1.875	1.899	1.895	1.890
0.005	-0.029	-0.005	0.039	0.005	-0.005	0.029	2.695	1.885	1.875	1.875	1.890	1.890	1.890
0.010	-0.020	0.005	-0.005	0.000	-0.010	0.029	2.700	1.890	1.880	1.880	1.880	1.885	1.885
0.000	-0.020	0.000	-0.020	-0.005	-0.005	0.029	2.695	1.885	1.885	1.875	1.880	1.880	1.885
0.010	0.005	0.000	-0.015	-0.005	0.000	0.029	2.676	1.890	1.890	1.880	1.885	1.880	1.885
0.005	0.005	0.000	-0.039	-0.010	0.010	0.029	2.690	1.880	1.890	1.880	1.880	1.880	1.885
0.005	0.020	0.000	-0.049	0.000	0.000	0.029	2.695	1.880	1.890	1.885	1.885	1.880	1.880
-0.010	0.034	0.005	-0.044	0.000	-0.005	0.029	2.690	1.880	1.885	1.885	1.890	1.885	1.880
-0.005	0.063	0.005	-0.020	0.000	-0.020	0.029	2.676	1.885	1.895	1.890	1.904	1.885	1.875
0.029	0.039	0.000	0.000	0.005	-0.024	0.029	2.681	1.890	1.890	1.890	1.909	1.890	1.885
0.029	0.015	-0.005	0.034	-0.005	-0.005	0.029	2.686	1.890	1.880	1.885	1.919	1.899	1.890
0.024	0.015	0.000	0.059	0.000	0.000	0.029	2.705	1.890	1.885	1.885	1.919	1.904	1.895
0.010	-0.005	-0.005	0.034	0.000	-0.020	0.029	2.695	1.885	1.875	1.880	1.904	1.904	1.895
0.005	-0.029	0.000	0.005	0.000	0.015	0.029	2.671	1.880	1.870	1.875	1.899	1.899	1.904
-0.005	-0.034	-0.005	0.015	0.000	0.010	0.029	2.705	1.880	1.870	1.875	1.899	1.899	1.899
-0.020	-0.024	0.000	-0.020	0.010	0.015	0.029	2.671	1.880	1.870	1.870	1.885	1.895	1.899
-0.020	-0.010	0.005	-0.044	0.005	0.015	0.029	2.705	1.885	1.880	1.875	1.880	1.890	1.895
-0.010	-0.005	0.005	-0.029	0.000	0.000	0.034	2.666	1.885	1.885	1.880	1.890	1.885	1.890
0.000	0.000	0.005	-0.010	0.005	0.010	0.029	2.700	1.890	1.885	1.880	1.895	1.890	1.890
0.015	-0.020	0.000	0.005	0.000	0.000	0.034	2.671	1.890	1.880	1.875	1.899	1.890	1.890
0.005	-0.010	0.000	0.020	0.005	-0.010	0.029	2.676	1.885	1.885	1.880	1.899	1.890	1.885
-0.010	-0.010	-0.005	0.005	0.000	0.015	0.034	2.656	1.875	1.880	1.875	1.899	1.890	1.895
-0.005	0.029	-0.005	-0.020	0.005	0.015	0.029	2.656	1.875	1.890	1.880	1.890	1.890	1.895
-0.005	0.039	0.000	-0.020	0.000	0.010	0.029	2.646	1.875	1.890	1.880	1.895	1.890	1.890
0.000	0.015	-0.005	-0.020	-0.005	0.005	0.029	2.788	1.875	1.875	1.880	1.895	1.885	1.890
0.000	0.000	0.005	-0.005	-0.010	-0.005	0.029	2.627	1.870	1.875	1.875	1.899	1.890	1.885
0.000	0.000	0.015	0.000	0.000	0.000	0.029	2.637	1.870	1.870	1.880	1.899	1.895	1.885
0.005	0.005	0.029	0.005	0.000	0.000	0.029	2.729	1.880	1.875	1.880	1.904	1.895	1.890
-0.015	0.000	0.020	0.010	0.000	0.000	0.029	2.627	1.875	1.875	1.875	1.899	1.895	1.895
-0.020	0.005	0.000	0.049	0.005	-0.005	0.029	2.725	1.880	1.875	1.875	1.909	1.899	1.895
-0.010	0.010	0.000	0.059	0.000	0.000	0.029	2.651	1.880	1.875	1.870	1.909	1.899	1.895
-0.005	0.015	-0.005	0.015	-0.005	-0.010	0.029	2.632	1.880	1.880	1.870	1.890	1.895	1.895
-0.005	0.010	0.000	0.000	0.000	0.000	0.029	2.686	1.880	1.875	1.875	1.885	1.890	1.895
0.005	0.000	0.005	0.000	0.005	-0.010	0.029	2.749	1.885	1.875	1.875	1.890	1.890	1.885
0.010	-0.005	0.005	-0.005	0.005	0.005	0.029	2.695	1.885	1.875	1.875	1.885	1.890	1.890
-0.005	-0.005	0.005	-0.010	-0.005	0.000	0.029	2.715	1.870	1.875	1.875	1.885	1.885	1.885
-0.010	-0.010	0.000	-0.015	0.005	0.005	0.029	2.661	1.875	1.870	1.875	1.885	1.885	1.890
0.005	-0.039	-0.005	-0.020	0.005	0.005	0.029	2.715	1.875	1.860	1.870	1.885	1.885	1.885
0.020	-0.044	-0.005	-0.010	0.005	0.010	0.029	2.666	1.880	1.865	1.865	1.885	1.885	1.890
0.024	0.000	-0.005	-0.005	0.015	0.000	0.029	2.671	1.880	1.880	1.870	1.890	1.885	1.885
0.024	0.005	-0.005	-0.010	0.005	-0.015	0.029	2.705	1.885	1.880	1.870	1.890	1.880	1.880
0.020	-0.029	-0.010	-0.015	0.010	-0.005	0.029	2.676	1.880	1.870	1.870	1.885	1.885	1.885
-0.005	-0.005	-0.005	-0.024	0.005	0.005	0.029	2.676	1.875	1.875	1.875	1.885	1.880	1.885
-0.034	0.000	-0.010	-0.024	0.000	0.005	0.029	2.671	1.875	1.875	1.870	1.885	1.880	1.880
-0.024	0.010	-0.015	-0.020	0.000	-0.015	0.029	2.676	1.880	1.880	1.875	1.890	1.880	1.880
-0.034	0.005	-0.005	0.020	-0.005	0.010	0.029	2.690	1.875	1.875	1.880	1.904	1.890	1.885
-0.005	0.029	-0.005	0.059	0.005	-0.020	0.029	2.666	1.880	1.885	1.885	1.909	1.895	1.885
0.015	0.020	-0.005	0.059	0.005	0.010	0.029	2.705	1.895	1.885	1.880	1.909	1.899	1.890
0.029	0.020	-0.010	0.039	0.005	0.010	0.029	2.666	1.890	1.885	1.880	1.899	1.899	1.895
0.039	0.024	-0.010	0.020	0.005	-0.005	0.029	2.695	1.895	1.890	1.880	1.895	1.895	1.890
0.039	0.015	0.005	0.029	-0.005	-0.010	0.029	2.710	1.890	1.885	1.885	1.899	1.895	1.885
0.029	0.000	0.015	0.024	0.005	0.015	0.029	2.666	1.885	1.880	1.885	1.899	1.895	1.895
0.015	0.000	0.020	0.005	0.005	0.000	0.029	2.695	1.880	1.880	1.885	1.895	1.890	1.895
0.015	-0.005	0.010	0.000	-0.005	0.010	0.029	2.681	1.880	1.875	1.875	1.895	1.890	1.890
0.000	-0.005	0.000	-0.005	0.000	0.010	0.029	2.705	1.875	1.880	1.875	1.890	1.890	1.890
-0.015	0.005	0.005	-0.020	-0.005	0.005	0.029	2.671	1.875	1.875	1.875	1.890	1.885	1.890
-0.024	0.044	0.010	-0.039	-0.005	-0.015	0.029	2.695	1.875	1.890	1.880	1.885	1.885	1.885
-0.010	0.068	0.015	-0.039	-0.010	0.010	0.029	2.700	1.885	1.890	1.885	1.885	1.885	1.890
-0.005	-0.029	0.015	-0.010	-0.005	-0.005	0.029	2.715	1.885	1.860	1.875	1.899	1.890	1.885
0.000	-0.039	0.005	0.054	-0.005	0.005	0.029	2.695	1.885	1.870	1.875	1.914	1.895	1.890
0.000	-0.024	0.015	0.029	0.000	-0.005	0.029	2.690	1.890	1.875	1.875	1.904	1.895	1.890
0.000	-0.034	0.015	0.000	0.005	-0.020	0.029	2.646	1.880	1.875	1.875	1.890	1.895	1.885
0.000	-0.015	0.015	-0.015	0.005	0.000	0.029	2.646	1.880	1.880	1.875	1.885	1.890	1.895
-0.010	-0.005	0.005	-0.020	0.005	0.005	0.029	2.642	1.870	1.875	1.875	1.890	1.890	1.895
-0.020	-0.005	0.000	0.005	0.000	0.010	0.029	2.793	1.870	1.875	1.875	1.899	1.890	1.890
-0.005	0.000	0.005	0.029	0.000	0.005	0.029	2.632	1.870	1.875	1.875	1.899	1.890	1.890
0.010	-0.010	0.000	0.039	-0.005	0.005	0.029	2.744	1.880	1.875	1.875	1.899	1.890	1.895
0.000	0.000	0.000	0.063	-0.010	0.005	0.029	2.651	1.885	1.880	1.875	1.909	1.895	1.890
-0.024	0.029	0.000	0.073	-0.005	-0.005	0.029	2.661	1.875	1.885	1.875	1.909	1.895	1.885
-0.010	0.029	0.000	0.034	0.000	0.005	0.029	2.646	1.885	1.880	1.875	1.890	1.895	1.895
0.015	-0.005	0.000	-0.010	-0.005	0.005	0.029	2.661	1.885	1.875	1.875	1.875	1.885	1.890
0.024	-0.005	-0.005	-0.059	0.005	0.010	0.029	2.651	1.885	1.875	1.870	1.870	1.880	1.890
-0.010	0.005	0.000	-0.078	-0.005	0.000	0.029	2.661	1.875	1.875	1.870	1.870	1.875	1.880
-0.054	0.054	-0.005	-0.078	0.000	-0.015	0.029	2.651	1.860	1.885	1.875	1.875	1.875	1.875
-0.068	0.029	-0.010	-0.078	0.000	-0.005	0.029	2.705	1.865	1.870	1.870	1.880	1.875	1.880
-0.044	0.000	0.000	-0.068	-0.005	0.015	0.029	2.632	1.870	1.865	1.875	1.885	1.875	1.880
0.005	-0.029	0.000	-0.049	-0.005	-0.010	0.029	2.642	1.895	1.865	1.870	1.890	1.880	1.875
0.039	-0.029	0.000	-0.029	-0.010	0.000	0.029	2.622	1.890	1.870	1.870	1.895	1.885	1.880
0.063	-0.020	0.000	0.010	0.000	0.010	0.029	2.690	1.899	1.880	1.875	1.909	1.890	1.885
0.093	-0.020	0.000	0.034	0.000	0.010	0.029	2.671	1.899	1.890	1.880	1.909	1.895	1.885
0.098	-0.015	0.000	0.054	0.005	-0.005	0.029	2.700	1.899	1.895	1.885	1.914	1.899	1.890
0.093	0.034	0.000	0.049	0.005	-0.020	0.029	2.695	1.890	1.904	1.885	1.909	1.899	1.890
0.059	0.103	-0.005	0.073	0.000	0.020	0.029	2.686	1.880	1.919	1.895	1.914	1.904	1.904
0.015	0.093	-0.005	0.039	0.015	0.015	0.029	2.690	1.875	1.895	1.890	1.904	1.904	1.899
-0.005	0.000	0.005	0.015	0.015	0.005	0.029	2.671	1.865	1.860	1.880	1.895	1.904	1.899
-0.034	-0.015	0.000	0.015	0.020	0.000	0.029	2.690	1.855	1.855	1.875	1.899	1.899	1.899
-0.039	-0.068	0.000	0.010	0.015	-0.015	0.029	2.661	1.860	1.841	1.860	1.890	1.895	1.890
-0.044	-0.073	0.005	0.000	0.010	-0.020	0.029	2.700	1.865	1.846	1.855	1.885	1.890	1.890
-0.039	-0.034	-0.005	-0.005	0.005	0.010	0.029	2.681	1.875	1.865	1.860	1.880	1.885	1.895
-0.034	-0.039	-0.005	-0.005	-0.005	0.005	0.029	2.671	1.875	1.865	1.860	1.875	1.875	1.890
-0.044	-0.024	-0.005	-0.005	0.000	-0.010	0.029	2.700	1.875	1.870	1.865	1.875	1.875	1.885
-0.034	0.073	0.000	-0.015	0.000	-0.005	0.029	2.690	1.885	1.904	1.875	1.880	1.880	1.880
-0.020	0.088	0.005	-0.020	-0.005	0.005	0.029	2.690	1.890	1.899	1.880	1.880	1.875	1.880
-0.010	0.059	0.000	-0.005	0.000	0.005	0.029	2.686	1.890	1.890	1.880	1.895	1.880	1.880
0.010	0.015	0.005	0.020	0.000	-0.010	0.029	2.690	1.890	1.880	1.880	1.899	1.885	1.875
0.015	-0.034	0.000	0.044	0.000	0.005	0.029	2.695	1.885	1.870	1.875	1.904	1.890	1.885
-0.005	-0.029	0.005	0.020	-0.005	-0.005	0.034	2.686	1.880	1.875	1.875	1.895	1.890	1.880
0.000	0.010	0.005	-0.010	-0.010	0.000	0.029	2.690	1.880	1.885	1.875	1.885	1.885	1.885
0.005	-0.010	0.005	-0.015	-0.005	0.005	0.029	2.705	1.885	1.875	1.875	1.890	1.885	1.885
0.005	-0.015	0.005	0.005	0.005	0.005	0.029	2.695	1.885	1.875	1.875	1.895	1.890	1.885
0.005	-0.015	0.005	-0.005	0.000	0.015	0.029	2.681	1.885	1.875	1.875	1.890	1.890	1.890
0.000	-0.015	0.010	-0.020	-0.005	0.010	0.029	2.651	1.880	1.875	1.875	1.885	1.885	1.890
-0.010	0.000	0.000	-0.029	-0.005	0.000	0.034	2.651	1.870	1.875	1.870	1.885	1.885	1.885
-0.005	0.010	-0.015	-0.034	0.000	0.005	0.029	2.642	1.875	1.880	1.875	1.880	1.885	1.885
0.020	0.000	-0.015	-0.020	-0.005	0.010	0.029	2.773	1.895	1.880	1.875	1.890	1.885	1.885
0.054	-0.010	0.000	0.024	-0.005	0.000	0.029	2.627	1.890	1.880	1.880	1.904	1.890	1.880
0.034	0.000	0.005	0.039	-0.005	0.005	0.029	2.744	1.890	1.885	1.880	1.904	1.890	1.885
-0.010	0.005	-0.010	0.015	0.005	-0.020	0.029	2.749	1.880	1.885	1.875	1.895	1.895	1.885
-0.039	0.010	0.000	0.000	0.000	0.000	0.029	2.749	1.870	1.885	1.880	1.890	1.890	1.890
-0.029	0.000	-0.005	0.015	-0.005	0.000	0.029	2.651	1.875	1.880	1.880	1.899	1.890	1.890
0.000	0.005	0.000	0.034	-0.010	-0.005	0.029	2.651	1.880	1.880	1.880	1.904	1.895	1.885
0.020	0.000	0.000	0.054	-0.010	0.005	0.029	2.749	1.895	1.880	1.880	1.909	1.899	1.895
0.020	0.024	0.005	0.049	-0.005	0.005	0.029	2.676	1.890	1.890	1.885	1.904	1.899	1.895
0.020	0.015	0.005	0.039	-0.005	0.010	0.029	2.715	1.890	1.890	1.885	1.899	1.899	1.895
0.024	-0.010	0.010	0.005	0.000	0.000	0.029	2.700	1.890	1.880	1.880	1.890	1.895	1.895
0.020	-0.015	0.015	-0.039	0.000	-0.020	0.029	2.632	1.875	1.875	1.880	1.880	1.890	1.890
-0.005	-0.024	0.005	-0.024	0.000	0.005	0.029	2.686	1.885	1.875	1.875	1.890	1.885	1.895
-0.015	-0.020	0.005	-0.044	0.000	0.010	0.029	2.607	1.870	1.875	1.875	1.885	1.885	1.890
-0.029	-0.010	0.005	-0.063	0.000	-0.015	0.029	2.671	1.870	1.875	1.875	1.880	1.880	1.880
-0.024	-0.015	0.005	-0.049	0.010	0.010	0.029	2.676	1.875	1.870	1.870	1.885	1.885	1.890
-0.024	-0.005	0.000	-0.034	0.010	0.010	0.024	2.705	1.880	1.875	1.870	1.895	1.885	1.890
-0.020	-0.024	-0.010	0.005	0.000	0.010	0.029	2.700	1.885	1.870	1.870	1.904	1.885	1.885
-0.005	-0.024	-0.005	0.024	0.000	0.000	0.029	2.686	1.880	1.875	1.870	1.904	1.890	1.885
-0.024	-0.020	0.000	0.034	0.010	-0.010	0.029	2.710	1.880	1.875	1.875	1.904	1.895	1.885
-0.029	-0.029	0.015	0.039	0.005	0.015	0.029	2.686	1.880	1.875	1.875	1.904	1.895	1.895
0.000	-0.015	0.024	0.029	0.000	0.010	0.029	2.705	1.890	1.885	1.880	1.899	1.895	1.890
0.010	-0.005	0.010	0.024	-0.005	-0.005	0.029	2.700	1.895	1.890	1.875	1.895	1.890	1.890
0.020	0.107	0.000	0.020	0.000	0.010	0.029	2.676	1.899	1.929	1.890	1.899	1.895	1.895
0.029	0.059	0.005	0.000	0.005	0.005	0.029	2.700	1.899	1.899	1.890	1.895	1.895	1.895
0.015	-0.063	0.000	0.005	-0.005	-0.005	0.029	2.700	1.885	1.865	1.880	1.899	1.890	1.890
-0.005	-0.024	-0.005	0.000	0.000	0.000	0.029	2.695	1.880	1.880	1.880	1.895	1.895	1.890
-0.005	0.015	-0.010	-0.029	0.005	0.000	0.029	2.671	1.880	1.890	1.880	1.885	1.890	1.890
0.020	-0.005	-0.020	-0.039	0.005	0.010	0.029	2.686	1.890	1.880	1.875	1.885	1.890	1.895
0.010	-0.015	-0.010	-0.015	0.000	0.000	0.029	2.671	1.880	1.880	1.880	1.895	1.885	1.890
0.005	0.020	0.000	0.024	0.000	0.005	0.029	2.700	1.885	1.890	1.885	1.909	1.895	1.890
0.005	0.005	0.005	0.078	0.010	0.005	0.029	2.695	1.885	1.885	1.885	1.924	1.899	1.895
0.010	0.010	0.010	0.044	0.005	-0.005	0.029	2.666	1.885	1.885	1.885	1.909	1.904	1.895
0.005	0.020	0.005	0.010	0.005	0.000	0.029	2.681	1.880	1.885	1.880	1.895	1.899	1.895
0.010	0.005	0.000	-0.073	0.000	-0.020	0.029	2.705	1.885	1.880	1.875	1.870	1.885	1.885
0.015	0.015	-0.005	-0.103	-0.005	-0.010	0.029	2.700	1.890	1.885	1.875	1.870	1.880	1.885
0.005	0.034	0.005	-0.088	-0.005	-0.015	0.029	2.690	1.885	1.890	1.885	1.885	1.880	1.885
0.000	0.024	0.005	-0.049	-0.005	0.005	0.029	2.637	1.880	1.885	1.885	1.904	1.885	1.890
0.015	-0.015	0.005	0.024	0.000	-0.015	0.029	2.651	1.880	1.870	1.885	1.919	1.895	1.885
0.054	-0.015	0.005	0.039	0.005	0.005	0.029	2.642	1.890	1.875	1.880	1.919	1.904	1.895
0.034	-0.005	0.005	0.059	0.000	0.015	0.029	2.661	1.880	1.880	1.880	1.919	1.904	1.899
-0.015	-0.010	0.005	0.034	-0.005	0.005	0.029	2.622	1.860	1.870	1.880	1.904	1.899	1.899
-0.044	0.054	0.005	0.000	-0.005	-0.010	0.029	2.744	1.870	1.885	1.875	1.895	1.895	1.895
-0.039	0.034	-0.010	0.000	0.000	0.010	0.029	2.739	1.880	1.875	1.870	1.895	1.895	1.899
-0.024	0.034	0.000	-0.005	0.000	0.010	0.029	2.617	1.880	1.880	1.875	1.895	1.895	1.899
-0.029	0.029	-0.005	-0.020	0.000	0.005	0.029	2.661	1.875	1.875	1.870	1.885	1.890	1.895
-0.015	-0.005	-0.015	-0.024	0.005	0.005	0.029	2.651	1.875	1.865	1.865	1.885	1.890	1.890
-0.005	-0.024	-0.020	-0.005	0.010	0.005	0.029	2.710	1.885	1.865	1.870	1.890	1.890	1.890
-0.005	-0.005	0.000	-0.010	0.015	-0.005	0.029	2.690	1.890	1.875	1.870	1.885	1.890	1.890
0.005	-0.015	0.010	-0.015	0.010	-0.010	0.029	2.725	1.890	1.875	1.875	1.890	1.885	1.885
0.015	-0.029	0.015	-0.005	0.010	0.005	0.029	2.686	1.890	1.875	1.875	1.890	1.885	1.890
0.020	-0.024	0.005	0.010	0.010	0.000	0.029	2.729	1.899	1.885	1.875	1.895	1.890	1.885
0.005	-0.015	0.044	0.039	0.010	-0.005	0.029	2.808	1.904	1.890	1.890	1.909	1.895	1.890
0.005	-0.024	0.049	0.049	0.000	0.000	0.029	2.695	1.899	1.890	1.890	1.909	1.895	1.890
-0.015	-0.015	0.024	0.044	-0.005	-0.010	0.024	2.676	1.885	1.890	1.885	1.904	1.895	1.890
-0.020	-0.010	0.020	0.024	0.005	0.000	0.029	2.676	1.885	1.890	1.885	1.899	1.895	1.895
-0.005	-0.029	0.024	0.005	0.000	0.005	0.024	2.710	1.895	1.885	1.880	1.895	1.895	1.895
0.000	0.015	0.015	-0.005	-0.005	0.010	0.029	2.700	1.895	1.899	1.885	1.895	1.890	1.895
0.000	-0.010	0.005	-0.005	-0.010	0.005	0.029	2.681	1.885	1.885	1.880	1.895	1.890	1.890
0.000	0.122	-0.015	-0.015	-0.010	-0.005	0.029	2.700	1.895	1.929	1.895	1.899	1.890	1.890
0.015	0.073	-0.010	-0.010	-0.005	-0.010	0.029	2.671	1.890	1.899	1.895	1.904	1.895	1.890
0.029	0.068	-0.005	-0.005	0.000	0.010	0.029	2.690	1.890	1.899	1.895	1.909	1.899	1.895
0.015	-0.015	-0.005	0.000	-0.005	0.005	0.029	2.666	1.880	1.870	1.890	1.909	1.899	1.895
0.015	-0.020	-0.010	0.005	-0.005	-0.020	0.029	2.695	1.880	1.870	1.880	1.909	1.895	1.885
0.015	-0.020	-0.010	0.015	0.005	0.000	0.029	2.690	1.885	1.870	1.880	1.904	1.899	1.895
0.010	-0.039	-0.015	0.020	0.005	-0.020	0.029	2.671	1.875	1.865	1.870	1.904	1.899	1.885
0.005	-0.024	-0.024	0.010	0.000	0.000	0.029	1.416	1.733	1.846	1.860	1.895	1.895	1.890
0.000	-0.005	-0.024	0.005	-0.005	0.010	0.029	1.172	1.611	1.792	1.846	1.885	1.885	1.890
-0.010	0.020	-0.005	0.000	0.010	0.010	0.029	1.172	1.523	1.729	1.821	1.870	1.885	1.890
-0.010	0.039	0.000	0.005	0.015	0.000	0.029	1.157	1.460	1.670	1.782	1.855	1.875	1.885
-0.029	0.049	0.000	0.000	0.010	0.000	0.029	1.196	1.421	1.606	1.738	1.831	1.865	1.880
-0.024	0.034	0.000	0.005	0.005	0.005	0.029	1.167	1.401	1.558	1.689	1.802	1.846	1.870
-0.010	0.088	0.005	0.000	0.010	0.010	0.029	1.162	1.392	1.523	1.646	1.758	1.826	1.860
0.010	-0.068	0.000	-0.005	0.005	0.005	0.029	1.162	1.372	1.445	1.587	1.719	1.792	1.841
0.015	-0.054	0.005	0.005	0.005	0.005	0.029	1.191	1.367	1.436	1.548	1.680	1.763	1.816
-0.005	-0.020	0.010	0.010	-0.005	-0.005	0.029	1.177	1.362	1.426	1.519	1.641	1.724	1.792
0.010	-0.034	0.010	0.000	-0.015	0.010	0.029	1.162	1.362	1.406	1.489	1.602	1.689	1.763
0.049	-0.088	0.000	0.000	-0.005	0.000	0.029	1.143	1.357	1.382	1.455	1.567	1.655	1.738
0.044	-0.083	0.000	-0.005	-0.005	0.000	0.029	1.133	1.348	1.377	1.436	1.538	1.621	1.704
0.015	0.029	0.000	0.000	0.000	0.005	0.029	1.118	1.333	1.401	1.426	1.514	1.592	1.675
0.010	0.059	-0.005	0.000	0.000	0.000	0.029	1.255	1.323	1.387	1.411	1.489	1.558	1.641
0.015	-0.005	0.000	-0.005	0.005	-0.005	0.029	1.113	1.313	1.353	1.396	1.465	1.538	1.611
-0.029	-0.010	0.000	-0.010	0.010	-0.005	0.029	1.196	1.304	1.338	1.382	1.450	1.509	1.582
-0.034	0.020	0.000	-0.005	0.000	0.010	0.029	1.104	1.299	1.338	1.367	1.431	1.484	1.558
-0.063	0.029	0.000	-0.005	0.005	0.010	0.029	1.108	1.279	1.323	1.357	1.416	1.465	1.533
-0.073	0.015	-0.005	-0.005	-0.005	0.005	0.029	1.226	1.279	1.309	1.343	1.401	1.445	1.509
-0.103	0.015	0.010	-0.015	0.000	0.000	0.029	1.157	1.260	1.299	1.333	1.387	1.431	1.484
-0.063	0.000	0.005	-0.024	-0.010	-0.005	0.029	1.104	1.265	1.284	1.318	1.372	1.411	1.465
0.005	-0.005	0.000	-0.029	0.000	0.000	0.029	1.147	1.274	1.284	1.309	1.362	1.396	1.445
0.083	-0.005	-0.005	-0.010	-0.005	-0.015	0.029	1.221	1.289	1.294	1.304	1.353	1.382	1.421
0.156	0.005	-0.010	-0.010	0.000	0.010	0.029	1.162	1.294	1.299	1.299	1.343	1.372	1.421
0.195	0.000	-0.015	0.020	0.010	0.005	0.029	1.191	1.279	1.294	1.299	1.348	1.367	1.401
0.146	0.015	0.000	0.044	0.000	0.005	0.029	1.108	1.255	1.284	1.299	1.348	1.357	1.392
0.059	0.029	0.005	0.059	0.000	0.005	0.029	1.094	1.196	1.265	1.294	1.338	1.353	1.382
-0.098	0.015	0.000	0.073	0.000	0.010	0.029	1.152	1.138	1.226	1.274	1.333	1.348	1.372
-0.161	0.020	0.020	0.068	-0.005	0.005	0.029	1.152	1.133	1.201	1.260	1.313	1.338	1.362
-0.093	0.005	0.015	0.029	0.000	-0.015	0.029	1.162	1.167	1.187	1.235	1.284	1.323	1.343
-0.010	-0.020	0.000	0.000	0.005	0.010	0.029	1.182	1.182	1.182	1.216	1.265	1.304	1.338
-0.044	-0.024	0.010	-0.020	0.010	0.010	0.029	1.138	1.157	1.177	1.206	1.245	1.289	1.323
-0.015	-0.005	-0.005	-0.039	0.020	0.005	0.029	1.172	1.162	1.177	1.191	1.230	1.274	1.309
0.005	-0.005	-0.015	-0.039	0.020	0.000	0.029	1.147	1.162	1.177	1.187	1.226	1.260	1.289
0.044	-0.005	-0.010	-0.015	0.005	-0.024	0.029	1.182	1.157	1.172	1.182	1.230	1.245	1.270
0.044	-0.024	-0.005	0.015	0.000	-0.020	0.029	1.157	1.138	1.162	1.182	1.226	1.235	1.265
0.034	-0.020	-0.005	0.005	0.010	0.010	0.029	1.152	1.123	1.152	1.172	1.216	1.235	1.265
0.000	0.010	-0.005	-0.020	0.005	0.005	0.029	1.187	1.113	1.147	1.162	1.201	1.221	1.250
0.010	0.020	-0.020	-0.029	0.000	0.000	0.029	1.182	1.104	1.143	1.157	1.187	1.211	1.240
0.029	0.015	-0.010	-0.029	-0.010	0.010	0.029	1.157	1.104	1.133	1.152	1.187	1.201	1.230
0.044	0.010	0.020	-0.020	-0.020	0.010	0.029	1.152	1.094	1.123	1.152	1.187	1.196	1.221
0.015	0.015	0.024	-0.029	-0.005	0.000	0.029	1.172	1.084	1.118	1.143	1.177	1.187	1.206
0.024	0.010	0.010	-0.015	-0.005	0.005	0.029	1.147	1.069	1.099	1.128	1.177	1.187	1.201
0.005	-0.005	0.020	0.015	-0.005	-0.005	0.029	1.187	1.060	1.089	1.123	1.172	1.182	1.191
-0.020	-0.010	0.039	-0.005	0.000	0.015	0.029	1.167	1.045	1.074	1.113	1.157	1.172	1.191
-0.054	-0.010	0.039	-0.034	-0.005	0.015	0.029	1.187	1.035	1.064	1.094	1.138	1.162	1.182
-0.054	-0.010	0.020	-0.024	0.000	0.010	0.029	1.172	1.035	1.055	1.079	1.133	1.152	1.177
-0.020	-0.015	0.010	0.010	-0.005	0.015	0.029	1.182	1.035	1.050	1.069	1.128	1.143	1.167
-0.020	-0.020	-0.005	0.039	0.000	0.000	0.029	1.152	1.025	1.045	1.060	1.123	1.138	1.157
-0.034	-0.010	-0.005	0.039	-0.005	-0.005	0.029	1.172	1.021	1.040	1.055	1.108	1.128	1.147
-0.049	0.000	-0.005	0.049	0.000	0.000	0.029	1.147	1.006	1.030	1.050	1.099	1.118	1.138
-0.039	0.010	-0.010	0.034	0.000	0.005	0.029	1.123	1.001	1.030	1.045	1.084	1.108	1.133
-0.020	0.000	-0.015	0.024	0.000	-0.015	0.029	1.123	0.996	1.021	1.035	1.074	1.094	1.118
-0.020	0.010	0.024	0.015	-0.005	0.000	0.029	1.250	1.006	1.021	1.040	1.064	1.089	1.113
-0.010	0.015	0.010	-0.005	0.000	0.020	0.029	1.099	0.986	1.016	1.030	1.055	1.079	1.108
0.000	0.020	0.010	-0.024	-0.005	0.010	0.029	1.128	0.981	1.006	1.021	1.050	1.069	1.094
0.034	0.020	0.000	-0.039	-0.005	0.000	0.029	1.216	0.991	1.006	1.016	1.040	1.060	1.084
0.029	0.010	0.005	-0.015	-0.005	-0.015	0.029	1.191	0.972	0.996	1.011	1.045	1.055	1.069
0.029	-0.010	-0.005	-0.005	-0.005	-0.010	0.029	1.201	0.967	0.981	1.001	1.040	1.050	1.064
0.054	0.000	-0.015	-0.005	-0.005	-0.005	0.029	1.143	0.962	0.981	0.991	1.030	1.045	1.055
-0.005	0.029	-0.034	-0.015	-0.005	-0.005	0.029	1.099	0.928	0.972	0.981	1.021	1.035	1.050
-0.078	0.024	0.005	-0.015	-0.005	-0.029	0.029	1.147	0.908	0.952	0.986	1.021	1.030	1.040
-0.117	0.000	0.010	0.000	0.000	0.015	0.029	1.104	0.894	0.933	0.972	1.016	1.025	1.050
-0.088	-0.005	0.000	0.049	0.005	0.034	0.029	1.177	0.908	0.923	0.952	1.021	1.025	1.045
-0.039	0.000	-0.039	0.127	0.010	0.029	0.029	1.206	0.933	0.928	0.937	1.021	1.025	1.035
0.005	-0.010	-0.039	0.073	0.015	0.024	0.024	1.240	0.952	0.933	0.933	0.986	1.016	1.030
0.073	-0.015	-0.029	0.068	-0.005	0.015	0.029	1.094	0.952	0.942	0.937	0.977	1.001	1.021
0.132	-0.010	-0.010	0.049	-0.020	0.010	0.029	1.182	0.957	0.947	0.942	0.967	0.981	1.006
0.117	-0.005	0.005	0.029	-0.059	-0.010	0.029	1.138	0.928	0.942	0.947	0.962	0.967	0.991
0.083	-0.015	0.024	0.063	-0.054	-0.005	0.029	1.162	0.913	0.933	0.947	0.972	0.967	0.986
0.093	-0.010	0.005	-0.020	-0.039	0.005	0.029	1.177	0.908	0.928	0.937	0.942	0.967	0.977
0.122	0.000	0.020	-0.103	-0.010	-0.024	0.029	1.152	0.903	0.928	0.937	0.928	0.957	0.967
0.127	0.010	0.015	-0.107	0.020	-0.068	0.029	1.191	0.898	0.923	0.933	0.933	0.957	0.947
0.039	0.015	0.010	-0.078	0.005	-0.093	0.029	1.162	0.864	0.903	0.928	0.942	0.947	0.947
-0.020	0.020	0.015	-0.068	-0.083	-0.073	0.029	1.177	0.845	0.889	0.918	0.937	0.918	0.937
-0.039	0.020	0.020	-0.078	-0.127	-0.020	0.029	1.182	0.840	0.874	0.908	0.933	0.918	0.947
-0.039	0.015	0.015	-0.054	-0.088	0.000	0.029	1.152	0.845	0.864	0.889	0.933	0.933	0.947
-0.020	0.015	0.000	-0.015	-0.029	0.015	0.029	1.172	0.854	0.859	0.879	0.937	0.947	0.952
-0.068	-0.010	-0.020	-0.005	-0.005	0.020	0.029	1.147	0.830	0.850	0.869	0.923	0.947	0.952
-0.112	0.005	-0.010	0.010	0.015	0.024	0.029	1.143	0.815	0.845	0.864	0.923	0.947	0.947
-0.151	-0.005	-0.005	0.044	0.059	0.020	0.029	1.177	0.815	0.825	0.859	0.918	0.947	0.947
-0.137	-0.034	-0.020	-0.005	0.093	-0.024	0.029	1.162	0.825	0.825	0.840	0.884	0.937	0.933
-0.063	-0.039	0.000	-0.034	0.103	-0.039	0.029	1.177	0.850	0.825	0.845	0.874	0.923	0.928
0.044	-0.029	0.005	-0.039	0.122	-0.020	0.029	1.182	0.884	0.854	0.845	0.869	0.913	0.933
0.137	0.044	0.000	0.015	0.146	0.015	0.029	1.133	0.889	0.884	0.859	0.889	0.918	0.933
0.029	0.034	-0.015	0.073	0.210	0.000	0.029	1.187	0.840	0.864	0.859	0.903	0.928	0.933
-0.020	0.015	-0.024	0.054	0.244	0.049	0.029	1.187	0.820	0.845	0.850	0.889	0.928	0.937
-0.020	0.029	-0.005	0.049	0.234	0.059	0.029	1.196	0.825	0.850	0.854	0.884	0.913	0.933
-0.020	0.039	-0.005	0.039	0.234	0.059	0.029	1.182	0.825	0.845	0.854	0.879	0.903	0.923
-0.029	0.000	-0.010	-0.010	0.273	0.063	0.034	1.162	0.820	0.825	0.840	0.859	0.898	0.918
-0.024	-0.010	0.000	-0.020	0.176	0.054	0.029	1.143	0.815	0.820	0.840	0.854	0.854	0.894
0.034	-0.020	-0.010	-0.015	0.049	0.049	0.029	1.133	0.825	0.820	0.830	0.854	0.820	0.869
0.078	0.000	0.000	0.005	-0.063	0.000	0.029	1.133	0.845	0.835	0.835	0.854	0.796	0.835
0.098	0.020	0.005	0.005	-0.112	0.000	0.029	1.260	0.825	0.840	0.835	0.854	0.796	0.825
0.054	0.020	0.005	0.024	-0.181	-0.005	0.029	1.099	0.786	0.820	0.830	0.859	0.796	0.811
0.015	0.000	-0.005	0.059	-0.156	-0.039	0.029	1.201	0.776	0.801	0.820	0.864	0.820	0.806
-0.029	-0.005	0.000	0.127	-0.146	-0.010	0.029	1.099	0.752	0.786	0.815	0.874	0.840	0.820
-0.044	0.015	0.005	0.088	-0.039	-0.039	0.029	1.113	0.747	0.781	0.811	0.854	0.874	0.830
-0.024	0.015	0.020	0.039	0.034	-0.010	0.029	1.191	0.752	0.776	0.801	0.830	0.874	0.850
-0.005	-0.015	0.015	-0.078	-0.063	0.010	0.029	1.123	0.757	0.762	0.781	0.786	0.820	0.845
0.005	-0.029	0.029	-0.132	-0.190	0.020	0.029	1.196	0.757	0.757	0.776	0.776	0.776	0.825
-0.020	-0.015	0.020	-0.117	-0.195	0.029	0.029	1.182	0.752	0.757	0.771	0.781	0.776	0.815
-0.039	0.000	0.020	-0.054	-0.151	0.059	0.029	1.118	0.742	0.757	0.771	0.801	0.796	0.815
-0.049	-0.010	0.020	0.000	-0.112	0.054	0.029	1.152	0.742	0.747	0.767	0.811	0.811	0.815
-0.156	-0.029	0.020	0.024	-0.117	0.059	0.029	1.201	0.718	0.737	0.757	0.811	0.806	0.811
-0.151	-0.015	0.024	0.039	-0.151	0.029	0.029	1.128	0.728	0.737	0.752	0.801	0.796	0.801
-0.083	-0.010	0.029	0.024	-0.132	-0.039	0.029	1.191	0.742	0.742	0.752	0.786	0.796	0.776
-0.034	-0.005	0.010	0.020	-0.093	-0.049	0.029	1.187	0.757	0.747	0.742	0.781	0.801	0.781
0.039	-0.005	-0.005	0.024	-0.010	-0.049	0.029	1.152	0.771	0.757	0.747	0.786	0.820	0.796
0.000	0.000	-0.010	0.088	0.054	-0.044	0.029	1.162	0.752	0.757	0.747	0.796	0.830	0.806
0.068	0.000	0.000	0.073	0.122	-0.063	0.029	1.143	0.767	0.762	0.752	0.786	0.835	0.811
0.151	-0.020	-0.005	0.059	0.142	-0.039	0.029	1.157	0.776	0.762	0.757	0.776	0.820	0.815
0.195	0.000	-0.005	0.059	0.059	-0.063	0.029	1.172	0.781	0.771	0.757	0.776	0.781	0.801
