0.005	0.000	-0.005	0.000	0.000	0.000	0.029	1.777	1.865	1.396	1.284	1.191	1.196	1.177
0.000	0.010	0.000	0.010	0.000	0.000	0.029	1.709	1.670	1.479	1.338	1.235	1.206	1.177
-0.005	0.000	0.000	0.005	0.000	-0.005	0.029	1.763	1.538	1.499	1.382	1.274	1.221	1.191
-0.005	0.000	0.000	0.000	0.005	0.005	0.029	1.772	1.436	1.484	1.411	1.318	1.245	1.206
-0.005	0.000	0.000	-0.005	-0.005	-0.005	0.029	1.777	1.367	1.450	1.421	1.353	1.270	1.221
0.000	-0.005	0.010	-0.010	0.000	0.005	0.034	1.772	1.323	1.416	1.426	1.372	1.294	1.245
-0.005	0.010	-0.005	-0.010	-0.005	0.000	0.029	1.787	1.284	1.387	1.411	1.392	1.318	1.265
-0.005	0.000	-0.005	-0.010	0.000	-0.005	0.034	1.738	1.255	1.348	1.396	1.396	1.343	1.284
0.005	-0.005	0.000	-0.005	-0.005	-0.024	0.029	1.753	1.240	1.318	1.377	1.401	1.357	1.299
-0.005	-0.005	-0.005	-0.005	0.000	-0.005	0.029	1.777	1.230	1.294	1.353	1.392	1.367	1.318
-0.005	-0.010	0.000	0.000	0.000	0.000	0.029	1.797	1.230	1.274	1.333	1.382	1.367	1.338
0.000	-0.005	-0.005	-0.005	0.000	0.005	0.029	1.787	1.230	1.265	1.313	1.367	1.367	1.348
-0.005	-0.015	-0.005	0.000	0.000	0.005	0.029	1.709	1.221	1.250	1.294	1.353	1.362	1.348
0.000	-0.005	-0.005	-0.005	-0.010	-0.005	0.029	1.792	1.230	1.245	1.279	1.338	1.353	1.348
0.010	-0.015	0.000	0.000	0.005	0.005	0.029	1.772	1.230	1.240	1.270	1.323	1.348	1.353
0.005	-0.005	0.000	0.000	0.010	0.000	0.029	1.763	1.230	1.240	1.260	1.313	1.338	1.343
0.000	0.000	-0.005	0.000	0.000	0.000	0.029	1.787	1.230	1.235	1.255	1.299	1.323	1.338
0.000	0.000	0.000	0.000	0.005	-0.010	0.034	1.826	1.235	1.235	1.250	1.289	1.313	1.328
0.000	0.010	-0.005	-0.005	0.005	0.005	0.034	1.738	1.230	1.240	1.245	1.284	1.304	1.323
-0.005	0.005	-0.005	-0.005	-0.005	-0.010	0.034	1.777	1.230	1.235	1.245	1.279	1.294	1.313
0.005	0.010	-0.005	0.000	-0.005	0.000	0.034	1.753	1.230	1.235	1.240	1.274	1.289	1.309
0.000	0.005	-0.005	0.000	-0.005	0.000	0.029	1.797	1.235	1.230	1.240	1.270	1.279	1.304
-0.005	-0.005	0.000	0.005	0.000	0.005	0.029	1.772	1.230	1.230	1.235	1.265	1.279	1.294
-0.005	-0.010	0.005	0.005	-0.005	0.000	0.034	1.777	1.226	1.230	1.235	1.260	1.270	1.289
0.010	-0.005	0.000	0.000	-0.005	-0.005	0.029	1.719	1.226	1.230	1.230	1.260	1.265	1.279
-0.005	-0.010	0.000	-0.005	0.000	-0.005	0.029	1.797	1.221	1.226	1.230	1.255	1.265	1.274
-0.015	-0.010	0.020	0.000	0.000	0.005	0.034	1.807	1.221	1.226	1.235	1.255	1.260	1.270
-0.010	0.000	0.078	0.000	0.000	0.000	0.029	1.768	1.226	1.230	1.245	1.255	1.255	1.265
0.000	-0.015	0.029	0.000	0.000	0.005	0.029	1.792	1.226	1.221	1.226	1.255	1.255	1.265
-0.005	-0.010	-0.010	0.000	-0.005	0.000	0.029	1.772	1.226	1.226	1.211	1.245	1.245	1.255
-0.010	-0.005	-0.029	0.005	-0.005	-0.005	0.029	1.743	1.211	1.221	1.211	1.240	1.245	1.255
0.000	-0.010	-0.029	0.005	-0.005	-0.015	0.029	1.772	1.211	1.221	1.211	1.240	1.245	1.250
-0.005	0.000	-0.024	0.010	0.000	0.000	0.034	1.777	1.211	1.216	1.216	1.240	1.245	1.250
-0.010	-0.005	-0.024	0.010	0.005	-0.010	0.034	1.768	1.211	1.211	1.216	1.235	1.240	1.245
0.000	0.000	-0.020	0.000	0.005	0.005	0.029	1.797	1.216	1.211	1.216	1.230	1.235	1.245
-0.005	0.015	-0.020	0.000	0.000	0.005	0.029	1.782	1.211	1.216	1.216	1.235	1.235	1.240
0.000	0.010	-0.015	-0.005	-0.005	-0.005	0.034	1.768	1.201	1.216	1.216	1.230	1.230	1.235
-0.005	0.005	-0.015	0.000	-0.005	-0.005	0.034	1.797	1.206	1.211	1.216	1.235	1.230	1.235
-0.010	0.010	-0.005	0.000	-0.005	0.005	0.029	1.797	1.196	1.206	1.216	1.235	1.230	1.235
-0.005	0.000	-0.005	-0.005	-0.005	-0.015	0.029	1.782	1.201	1.201	1.211	1.230	1.230	1.226
0.005	-0.005	0.000	0.000	-0.005	0.010	0.029	1.768	1.201	1.201	1.211	1.235	1.230	1.230
0.005	-0.005	0.000	0.000	0.000	-0.005	0.029	1.758	1.196	1.201	1.206	1.230	1.230	1.230
-0.005	-0.010	-0.010	0.000	0.000	0.000	0.034	1.787	1.196	1.196	1.201	1.230	1.230	1.235
-0.005	-0.005	-0.005	0.000	0.005	0.005	0.029	1.719	1.191	1.196	1.201	1.226	1.230	1.230
0.000	-0.010	0.000	0.000	0.000	0.005	0.029	1.797	1.196	1.196	1.201	1.226	1.226	1.230
0.005	-0.015	0.000	0.000	0.000	0.005	0.034	1.729	1.196	1.196	1.196	1.221	1.221	1.226
-0.005	-0.015	0.000	-0.005	-0.005	-0.015	0.029	1.831	1.196	1.191	1.196	1.221	1.216	1.216
0.000	-0.015	0.000	0.000	-0.005	0.005	0.029	1.782	1.201	1.196	1.191	1.216	1.216	1.221
-0.005	-0.005	-0.005	-0.005	0.000	-0.005	0.029	1.768	1.191	1.191	1.191	1.211	1.216	1.221
-0.005	-0.005	0.005	-0.005	0.000	-0.005	0.029	1.753	1.191	1.191	1.191	1.211	1.216	1.216
-0.005	-0.010	0.000	0.000	0.005	0.005	0.029	1.772	1.187	1.191	1.191	1.216	1.216	1.221
0.000	0.010	0.005	-0.005	-0.005	0.005	0.034	1.777	1.187	1.196	1.191	1.216	1.211	1.216
0.005	0.005	0.010	0.000	0.000	0.000	0.029	1.738	1.182	1.187	1.191	1.216	1.211	1.211
0.005	0.010	0.000	0.000	0.000	0.005	0.034	1.777	1.182	1.187	1.187	1.216	1.211	1.216
-0.005	0.005	-0.005	0.000	0.000	-0.015	0.034	1.777	1.182	1.187	1.182	1.211	1.211	1.206
0.000	0.015	0.000	0.000	0.000	-0.005	0.034	1.802	1.182	1.187	1.187	1.211	1.211	1.211
0.005	0.010	0.000	0.005	0.000	-0.005	0.029	1.738	1.177	1.182	1.187	1.206	1.206	1.211
0.000	0.010	-0.005	0.005	-0.005	-0.005	0.029	1.787	1.182	1.182	1.182	1.206	1.206	1.211
0.005	0.000	0.000	0.010	-0.005	-0.005	0.034	1.772	1.177	1.182	1.182	1.206	1.206	1.206
-0.005	0.005	0.000	0.000	0.000	0.000	0.029	1.792	1.177	1.177	1.182	1.201	1.201	1.206
0.000	0.000	-0.005	0.000	-0.005	-0.005	0.029	1.792	1.177	1.177	1.177	1.201	1.201	1.201
-0.005	-0.010	0.000	0.005	0.005	-0.005	0.034	1.768	1.172	1.172	1.177	1.201	1.201	1.201
-0.015	-0.010	-0.005	0.000	0.000	0.000	0.029	1.753	1.167	1.167	1.172	1.196	1.196	1.201
-0.005	-0.005	0.000	0.005	0.005	0.005	0.029	1.802	1.172	1.172	1.172	1.196	1.196	1.201
-0.005	-0.005	0.000	0.005	-0.005	-0.005	0.029	1.777	1.167	1.172	1.172	1.191	1.191	1.196
0.000	0.000	0.000	0.000	0.000	0.000	0.034	1.777	1.172	1.172	1.172	1.191	1.191	1.196
-0.005	0.000	0.000	-0.005	0.000	-0.020	0.029	1.782	1.167	1.172	1.172	1.191	1.187	1.187
-0.005	0.000	-0.010	-0.010	-0.005	0.005	0.034	1.748	1.162	1.167	1.167	1.187	1.191	1.196
-0.005	0.005	-0.005	-0.005	0.000	-0.020	0.034	1.787	1.167	1.172	1.172	1.187	1.187	1.187
-0.005	0.005	0.000	-0.010	-0.005	0.005	0.034	1.772	1.167	1.167	1.167	1.187	1.187	1.187
0.000	0.005	0.000	-0.005	0.000	0.010	0.034	1.748	1.162	1.167	1.167	1.187	1.187	1.191
0.000	-0.010	0.000	-0.005	0.000	0.000	0.029	1.802	1.167	1.162	1.167	1.187	1.182	1.187
0.000	-0.005	0.000	0.000	0.000	0.000	0.029	1.797	1.162	1.162	1.167	1.187	1.187	1.187
-0.005	0.000	0.000	0.000	0.000	-0.005	0.029	1.772	1.162	1.162	1.167	1.187	1.187	1.182
-0.005	-0.010	0.005	0.000	0.000	0.005	0.029	1.812	1.167	1.162	1.167	1.187	1.187	1.187
-0.005	-0.005	0.000	0.010	0.000	0.000	0.034	1.768	1.162	1.162	1.162	1.187	1.187	1.187
-0.005	-0.010	0.000	0.005	0.000	0.000	0.029	1.802	1.162	1.162	1.162	1.182	1.182	1.182
-0.005	0.005	-0.005	0.000	0.000	0.000	0.034	1.748	1.157	1.162	1.162	1.182	1.182	1.182
-0.010	0.005	0.000	-0.005	0.000	-0.024	0.029	1.802	1.162	1.162	1.162	1.177	1.177	1.172
-0.005	0.015	-0.005	-0.005	-0.005	-0.005	0.034	1.768	1.157	1.162	1.162	1.177	1.177	1.182
0.005	0.010	0.000	-0.010	0.005	0.010	0.034	1.772	1.157	1.162	1.162	1.177	1.177	1.182
0.000	0.000	0.000	-0.010	0.000	-0.010	0.034	1.777	1.152	1.157	1.157	1.177	1.172	1.172
-0.005	0.000	-0.005	-0.005	-0.005	-0.015	0.034	1.748	1.152	1.152	1.157	1.177	1.172	1.172
-0.005	0.005	0.000	0.000	-0.005	0.010	0.034	1.763	1.143	1.152	1.152	1.177	1.172	1.177
-0.005	-0.005	0.000	0.000	-0.005	0.005	0.029	1.777	1.143	1.147	1.152	1.177	1.172	1.177
-0.005	0.010	0.000	0.005	0.000	0.000	0.034	1.729	1.138	1.147	1.152	1.172	1.172	1.172
-0.015	0.020	0.000	0.000	0.005	0.000	0.029	1.782	1.143	1.147	1.152	1.172	1.172	1.172
-0.010	0.000	-0.005	0.000	-0.005	0.000	0.029	1.748	1.143	1.143	1.147	1.172	1.172	1.172
0.000	0.005	0.000	0.000	-0.005	0.005	0.029	1.768	1.143	1.143	1.147	1.172	1.172	1.177
0.000	-0.005	0.000	0.000	-0.005	-0.005	0.034	1.782	1.152	1.143	1.147	1.172	1.167	1.167
0.000	-0.005	0.000	0.000	0.005	-0.015	0.034	1.738	1.147	1.143	1.143	1.167	1.167	1.167
0.005	-0.005	0.005	-0.005	0.000	0.000	0.034	1.797	1.152	1.147	1.143	1.167	1.167	1.167
0.000	0.000	0.005	-0.005	0.000	-0.005	0.034	1.782	1.152	1.147	1.147	1.167	1.167	1.167
0.000	0.005	0.005	-0.005	-0.005	-0.005	0.029	1.782	1.152	1.147	1.147	1.167	1.162	1.162
-0.005	-0.015	0.000	0.000	0.000	-0.005	0.034	1.738	1.143	1.138	1.143	1.162	1.162	1.162
0.000	-0.024	0.000	0.000	-0.005	0.005	0.029	1.787	1.143	1.138	1.143	1.162	1.162	1.167
0.000	-0.020	-0.005	0.000	0.005	0.005	0.029	1.763	1.147	1.138	1.138	1.162	1.162	1.162
0.005	-0.005	-0.005	0.005	0.000	0.000	0.029	1.802	1.147	1.147	1.138	1.162	1.157	1.162
0.000	-0.010	-0.005	0.000	0.000	0.000	0.029	1.753	1.143	1.143	1.138	1.157	1.157	1.157
0.000	-0.010	-0.005	-0.005	0.000	0.000	0.029	1.768	1.143	1.143	1.138	1.157	1.157	1.157
0.000	-0.005	-0.005	0.000	0.000	-0.005	0.029	1.792	1.143	1.143	1.143	1.157	1.152	1.152
0.000	0.005	0.000	0.000	0.000	-0.005	0.029	1.782	1.143	1.147	1.143	1.157	1.152	1.152
0.000	0.005	-0.005	0.000	-0.005	0.000	0.029	1.777	1.143	1.147	1.143	1.162	1.152	1.157
0.005	0.024	-0.005	0.005	-0.005	-0.005	0.029	1.758	1.143	1.147	1.147	1.162	1.157	1.152
0.005	0.020	-0.005	0.005	-0.005	-0.005	0.029	1.797	1.138	1.143	1.143	1.162	1.157	1.152
0.000	0.015	0.000	0.000	0.000	-0.010	0.034	1.792	1.143	1.143	1.143	1.162	1.157	1.152
0.000	0.015	-0.005	0.000	-0.005	0.000	0.034	1.768	1.143	1.143	1.143	1.162	1.157	1.157
0.005	0.010	0.000	-0.010	-0.005	-0.015	0.029	1.763	1.143	1.143	1.143	1.157	1.157	1.152
-0.005	-0.005	0.000	-0.005	-0.005	0.010	0.034	1.782	1.138	1.133	1.138	1.162	1.157	1.157
0.000	-0.010	0.000	-0.015	0.000	-0.005	0.029	1.792	1.138	1.133	1.138	1.157	1.157	1.152
0.000	-0.015	-0.010	-0.010	0.000	0.000	0.034	1.768	1.138	1.133	1.133	1.152	1.152	1.157
0.000	-0.010	-0.005	-0.010	0.000	-0.015	0.034	1.743	1.133	1.133	1.133	1.152	1.152	1.152
0.005	-0.010	-0.010	-0.005	-0.005	0.005	0.034	1.768	1.133	1.133	1.133	1.152	1.152	1.152
-0.005	-0.005	-0.005	-0.005	0.005	-0.010	0.029	1.787	1.133	1.133	1.133	1.152	1.152	1.152
0.000	-0.010	-0.005	-0.005	-0.005	0.010	0.029	1.738	1.133	1.133	1.133	1.152	1.152	1.152
0.000	-0.010	0.000	0.000	0.000	0.000	0.029	1.733	1.123	1.128	1.133	1.152	1.152	1.152
-0.005	0.000	-0.005	0.000	0.000	-0.015	0.029	1.797	1.128	1.133	1.133	1.152	1.147	1.147
-0.005	0.000	0.000	0.000	0.000	0.005	0.029	1.724	1.123	1.133	1.133	1.152	1.147	1.147
-0.010	0.000	0.000	0.005	-0.005	0.005	0.029	1.753	1.123	1.128	1.133	1.152	1.147	1.147
0.005	0.010	0.000	0.010	0.000	-0.010	0.034	1.802	1.133	1.133	1.133	1.157	1.147	1.143
0.005	0.005	-0.005	0.015	0.000	-0.010	0.029	1.792	1.133	1.133	1.128	1.152	1.147	1.152
-0.005	0.024	-0.005	0.020	0.000	-0.015	0.029	1.792	1.133	1.133	1.133	1.157	1.147	1.147
-0.015	0.015	-0.005	0.015	-0.005	0.005	0.034	1.777	1.133	1.133	1.128	1.152	1.152	1.152
0.000	0.015	-0.005	-0.005	0.000	0.005	0.029	1.802	1.138	1.128	1.128	1.147	1.147	1.152
0.000	0.005	-0.005	-0.010	-0.005	-0.005	0.029	1.753	1.133	1.128	1.128	1.143	1.143	1.143
0.000	-0.005	0.000	-0.015	0.000	0.005	0.029	1.777	1.133	1.128	1.128	1.143	1.143	1.152
-0.005	-0.015	-0.005	-0.020	0.005	0.005	0.034	1.733	1.123	1.123	1.123	1.143	1.143	1.143
0.010	-0.015	-0.005	-0.015	-0.005	-0.020	0.029	1.743	1.128	1.123	1.123	1.143	1.143	1.138
0.010	-0.020	0.000	-0.010	-0.005	0.005	0.034	1.787	1.128	1.123	1.128	1.143	1.143	1.143
0.015	-0.015	0.000	-0.005	-0.005	0.005	0.029	1.802	1.133	1.128	1.123	1.147	1.143	1.143
0.005	-0.005	-0.005	0.005	0.000	0.000	0.029	1.748	1.123	1.128	1.128	1.147	1.143	1.143
-0.049	-0.015	0.000	0.005	0.000	-0.015	0.034	1.782	1.104	1.118	1.123	1.147	1.143	1.138
-0.044	-0.005	0.000	0.005	0.000	-0.010	0.029	1.758	1.113	1.118	1.123	1.143	1.143	1.138
0.010	0.000	0.000	0.010	-0.005	0.000	0.029	1.787	1.133	1.123	1.128	1.143	1.143	1.143
0.054	0.000	0.005	0.005	0.005	0.005	0.029	1.807	1.143	1.128	1.123	1.143	1.143	1.143
0.063	0.010	0.000	0.005	-0.005	-0.015	0.029	1.812	1.143	1.138	1.128	1.143	1.138	1.133
0.049	0.000	0.000	0.000	-0.005	-0.020	0.029	1.768	1.128	1.128	1.128	1.143	1.138	1.133
0.024	0.005	-0.005	0.000	0.000	0.000	0.029	1.792	1.123	1.128	1.128	1.143	1.138	1.143
-0.015	-0.005	-0.005	0.000	-0.005	-0.005	0.029	1.758	1.113	1.123	1.128	1.143	1.138	1.138
-0.029	0.010	0.005	-0.005	0.000	0.000	0.029	1.787	1.113	1.118	1.128	1.143	1.143	1.143
-0.044	0.005	0.005	0.000	0.000	-0.015	0.029	1.763	1.108	1.118	1.123	1.143	1.143	1.138
-0.059	0.000	0.000	-0.005	0.000	0.010	0.029	1.763	1.113	1.113	1.118	1.143	1.138	1.143
-0.063	0.000	0.000	0.000	-0.005	0.000	0.029	1.738	1.113	1.113	1.113	1.138	1.138	1.138
-0.034	-0.005	0.000	-0.005	-0.005	0.000	0.029	1.758	1.118	1.113	1.113	1.138	1.138	1.138
-0.029	-0.010	-0.005	0.000	0.000	-0.029	0.029	1.787	1.118	1.113	1.113	1.138	1.133	1.133
-0.015	-0.005	-0.005	0.000	0.005	0.005	0.029	1.787	1.123	1.113	1.113	1.133	1.133	1.138
-0.015	-0.005	0.000	0.005	0.010	0.005	0.034	1.772	1.128	1.118	1.113	1.138	1.133	1.138
-0.005	-0.005	0.000	0.005	0.005	-0.005	0.029	1.797	1.123	1.118	1.113	1.133	1.133	1.133
0.005	-0.010	-0.005	0.000	0.000	-0.005	0.034	1.758	1.128	1.118	1.113	1.133	1.128	1.128
0.010	-0.010	-0.005	0.005	0.000	0.000	0.034	1.758	1.128	1.123	1.118	1.133	1.128	1.133
0.005	-0.010	-0.005	0.000	0.000	0.000	0.029	1.792	1.123	1.118	1.118	1.133	1.128	1.133
0.015	0.005	-0.005	0.000	0.000	-0.005	0.034	1.753	1.118	1.128	1.118	1.138	1.128	1.128
0.010	0.000	0.000	0.000	-0.005	0.000	0.029	1.807	1.118	1.123	1.118	1.138	1.133	1.133
0.010	-0.005	0.005	0.000	0.000	0.000	0.029	1.777	1.123	1.123	1.123	1.138	1.133	1.128
0.015	0.005	0.000	0.000	0.000	0.000	0.029	1.768	1.123	1.123	1.123	1.138	1.133	1.133
0.005	0.005	0.000	0.000	0.000	0.000	0.029	1.753	1.118	1.118	1.123	1.138	1.133	1.133
0.010	0.000	0.000	-0.005	0.000	0.000	0.029	1.797	1.123	1.118	1.123	1.138	1.133	1.128
0.010	0.005	-0.005	-0.010	0.000	-0.010	0.034	1.768	1.123	1.118	1.118	1.138	1.133	1.128
0.005	-0.005	0.000	-0.020	-0.005	0.010	0.034	1.797	1.128	1.118	1.118	1.133	1.133	1.133
0.010	0.000	0.005	-0.015	0.000	0.000	0.029	1.787	1.123	1.123	1.118	1.138	1.133	1.128
0.010	-0.005	0.000	-0.010	-0.005	0.005	0.029	1.753	1.118	1.123	1.118	1.133	1.133	1.133
0.005	-0.005	0.010	-0.010	0.000	0.010	0.034	1.787	1.118	1.118	1.123	1.138	1.133	1.133
0.000	-0.005	0.000	-0.005	-0.005	-0.015	0.029	1.768	1.118	1.118	1.118	1.138	1.128	1.123
-0.005	-0.005	0.000	-0.005	0.000	0.005	0.029	1.787	1.113	1.118	1.118	1.138	1.133	1.133
0.000	0.000	0.005	0.000	0.000	0.015	0.029	1.777	1.113	1.113	1.118	1.138	1.133	1.133
-0.005	0.005	0.005	0.000	0.000	0.010	0.029	1.758	1.113	1.118	1.118	1.138	1.133	1.133
0.000	-0.005	0.005	0.000	0.000	0.005	0.034	1.768	1.113	1.113	1.113	1.133	1.133	1.133
0.005	-0.005	0.000	0.000	-0.005	0.005	0.029	1.797	1.113	1.108	1.113	1.133	1.128	1.133
0.000	0.005	0.000	0.000	-0.005	0.000	0.034	1.719	1.104	1.113	1.113	1.133	1.128	1.128
0.000	0.005	0.005	0.000	0.000	0.000	0.029	1.758	1.113	1.113	1.113	1.133	1.133	1.128
0.005	0.015	0.000	0.000	-0.005	-0.005	0.034	1.768	1.113	1.113	1.113	1.133	1.128	1.128
0.000	0.000	0.005	0.000	-0.005	-0.010	0.029	1.787	1.108	1.108	1.113	1.133	1.128	1.128
-0.005	-0.015	0.000	0.000	-0.005	-0.020	0.034	1.797	1.108	1.104	1.108	1.133	1.128	1.128
-0.005	-0.015	0.000	0.000	-0.005	0.005	0.029	1.787	1.113	1.108	1.108	1.133	1.128	1.133
-0.005	-0.010	-0.010	0.005	0.000	-0.005	0.029	1.733	1.113	1.108	1.104	1.128	1.128	1.128
0.000	-0.005	-0.005	0.005	0.000	0.000	0.029	1.777	1.113	1.108	1.108	1.128	1.128	1.128
-0.005	0.000	-0.005	0.005	-0.005	0.005	0.034	1.748	1.108	1.113	1.108	1.128	1.123	1.128
0.005	-0.005	-0.005	0.000	0.000	0.000	0.034	1.763	1.108	1.113	1.108	1.128	1.123	1.128
0.000	0.005	-0.005	0.000	0.000	-0.005	0.029	1.797	1.113	1.113	1.108	1.128	1.123	1.123
0.010	-0.010	-0.005	-0.005	0.005	0.000	0.034	1.748	1.108	1.108	1.108	1.123	1.123	1.123
-0.005	-0.005	0.000	-0.005	-0.005	-0.010	0.034	1.768	1.104	1.104	1.108	1.123	1.123	1.123
0.000	-0.005	-0.005	-0.005	0.005	0.000	0.029	1.797	1.113	1.108	1.108	1.128	1.123	1.123
-0.010	0.005	0.000	0.000	0.000	0.000	0.029	1.807	1.113	1.108	1.108	1.128	1.123	1.123
-0.005	-0.010	-0.005	0.000	-0.005	0.000	0.029	1.748	1.108	1.108	1.108	1.128	1.123	1.123
0.005	0.010	-0.005	0.000	0.000	-0.024	0.034	1.787	1.108	1.108	1.108	1.123	1.118	1.113
-0.010	0.015	0.000	-0.005	-0.005	0.005	0.034	1.787	1.113	1.113	1.108	1.123	1.123	1.123
0.000	0.010	-0.005	0.000	-0.005	0.000	0.029	1.777	1.113	1.108	1.108	1.123	1.118	1.118
-0.005	0.005	0.000	0.000	-0.005	-0.010	0.029	1.792	1.108	1.108	1.108	1.128	1.123	1.123
-0.005	0.005	-0.005	0.005	0.000	0.000	0.029	1.729	1.104	1.108	1.108	1.128	1.123	1.123
0.000	0.024	0.000	0.005	0.000	0.000	0.034	1.724	1.099	1.108	1.108	1.128	1.123	1.123
-0.010	0.010	0.000	0.000	-0.005	0.000	0.029	1.777	1.108	1.104	1.108	1.128	1.123	1.123
-0.010	0.005	0.000	-0.005	0.000	-0.010	0.029	1.777	1.104	1.104	1.104	1.123	1.123	1.123
0.000	-0.010	-0.005	-0.010	-0.005	0.005	0.029	1.782	1.108	1.099	1.104	1.118	1.123	1.123
-0.005	-0.005	0.000	-0.010	-0.005	-0.005	0.034	1.787	1.108	1.099	1.104	1.123	1.118	1.118
-0.010	-0.005	-0.005	-0.010	-0.005	0.000	0.029	1.738	1.108	1.104	1.104	1.118	1.118	1.118
0.000	0.005	-0.005	-0.010	0.000	0.005	0.029	1.792	1.108	1.104	1.104	1.118	1.118	1.118
-0.005	-0.005	-0.005	-0.010	0.000	0.005	0.034	1.733	1.108	1.104	1.104	1.123	1.118	1.118
0.000	0.000	0.000	-0.005	-0.005	0.005	0.029	1.782	1.108	1.104	1.104	1.123	1.113	1.113
-0.010	-0.010	0.000	-0.005	-0.005	0.000	0.029	1.772	1.104	1.104	1.104	1.123	1.118	1.118
0.000	-0.010	0.000	0.000	-0.005	-0.005	0.029	1.792	1.108	1.104	1.104	1.123	1.113	1.108
0.000	0.000	0.000	0.005	-0.005	0.010	0.034	1.748	1.104	1.108	1.104	1.123	1.118	1.118
0.000	0.000	0.000	0.005	-0.005	-0.024	0.029	1.816	1.108	1.104	1.104	1.123	1.118	1.108
-0.005	0.000	-0.005	0.000	0.000	0.010	0.034	1.777	1.108	1.108	1.104	1.118	1.118	1.118
-0.005	0.000	0.000	0.000	-0.005	-0.005	0.034	1.797	1.104	1.108	1.108	1.123	1.118	1.113
0.005	0.000	0.000	0.000	-0.005	0.000	0.034	1.787	1.108	1.108	1.108	1.123	1.118	1.118
0.000	0.005	-0.005	0.005	0.005	-0.005	0.029	1.787	1.113	1.108	1.108	1.123	1.123	1.118
0.005	0.000	0.000	0.005	0.005	0.010	0.034	1.768	1.108	1.108	1.108	1.128	1.123	1.123
-0.010	0.000	0.005	0.005	0.000	-0.005	0.029	1.768	1.108	1.108	1.108	1.128	1.118	1.113
0.000	-0.010	-0.005	0.010	-0.005	-0.010	0.029	1.792	1.113	1.104	1.104	1.128	1.118	1.118
-0.005	-0.005	-0.005	0.005	0.000	0.000	0.029	1.777	1.108	1.104	1.104	1.123	1.123	1.118
0.000	-0.010	0.000	0.000	0.000	-0.005	0.029	1.787	1.108	1.104	1.108	1.123	1.123	1.118
0.000	-0.010	0.000	-0.010	0.005	-0.020	0.029	1.763	1.108	1.104	1.104	1.123	1.118	1.108
-0.010	-0.005	-0.005	-0.015	0.000	0.000	0.029	1.797	1.108	1.104	1.099	1.118	1.118	1.118
-0.010	-0.010	-0.010	-0.010	-0.005	-0.024	0.034	1.763	1.104	1.104	1.104	1.118	1.113	1.108
0.005	-0.005	0.000	-0.015	0.000	0.015	0.034	1.748	1.099	1.104	1.104	1.118	1.118	1.123
0.000	0.000	-0.005	-0.005	-0.005	-0.015	0.034	1.748	1.094	1.104	1.104	1.123	1.113	1.108
-0.005	0.005	-0.005	-0.005	0.000	0.010	0.029	1.768	1.094	1.099	1.104	1.123	1.118	1.123
-0.005	0.000	0.000	0.000	-0.005	-0.010	0.034	1.807	1.104	1.099	1.104	1.123	1.118	1.113
-0.005	0.010	0.000	0.005	0.000	-0.005	0.029	1.782	1.108	1.108	1.104	1.123	1.118	1.113
0.000	0.000	0.000	0.005	0.000	0.010	0.029	1.777	1.108	1.104	1.104	1.123	1.118	1.123
0.005	0.000	0.000	0.000	0.000	0.000	0.029	1.782	1.108	1.104	1.099	1.123	1.118	1.118
0.000	0.010	0.000	-0.005	0.000	0.010	0.034	1.792	1.113	1.108	1.104	1.118	1.118	1.118
0.010	0.000	0.000	-0.005	0.000	0.000	0.034	1.743	1.108	1.108	1.104	1.118	1.118	1.113
0.005	0.000	0.005	-0.005	0.000	-0.005	0.034	1.738	1.104	1.104	1.104	1.118	1.118	1.113
0.010	-0.005	0.000	0.000	0.005	0.000	0.034	1.792	1.104	1.104	1.104	1.123	1.118	1.118
-0.005	0.000	-0.005	0.005	-0.005	0.000	0.034	1.777	1.108	1.104	1.104	1.128	1.118	1.113
0.000	-0.005	0.000	0.010	0.000	-0.015	0.034	1.797	1.104	1.104	1.104	1.123	1.118	1.113
0.000	-0.005	0.000	0.015	0.000	-0.005	0.034	1.768	1.104	1.104	1.104	1.123	1.118	1.118
0.005	-0.005	0.000	0.005	-0.010	0.005	0.034	1.802	1.108	1.099	1.099	1.123	1.118	1.118
0.000	-0.010	0.000	0.005	-0.010	0.005	0.029	1.802	1.104	1.099	1.099	1.118	1.118	1.118
-0.005	0.000	-0.005	0.000	0.000	0.000	0.029	1.797	1.108	1.108	1.099	1.118	1.118	1.118
0.000	0.000	-0.005	-0.005	-0.005	0.000	0.034	1.733	1.104	1.104	1.099	1.113	1.113	1.113
0.005	-0.005	-0.005	-0.010	-0.005	-0.010	0.029	1.821	1.108	1.099	1.099	1.113	1.108	1.108
0.000	0.005	0.000	-0.010	-0.005	-0.015	0.029	1.777	1.108	1.104	1.099	1.118	1.113	1.108
-0.015	0.005	-0.010	-0.005	0.000	0.000	0.029	1.807	1.104	1.104	1.099	1.118	1.113	1.118
-0.005	0.000	0.000	-0.005	0.000	0.010	0.029	1.768	1.104	1.104	1.104	1.118	1.113	1.118
-0.005	-0.005	-0.005	0.000	0.005	0.000	0.029	1.782	1.104	1.104	1.099	1.118	1.118	1.113
-0.005	0.000	0.000	0.010	0.000	0.005	0.029	1.777	1.104	1.104	1.104	1.123	1.118	1.118
-0.010	0.005	-0.005	0.005	0.010	0.010	0.034	1.816	1.113	1.108	1.104	1.123	1.118	1.118
-0.005	0.000	-0.005	0.005	0.015	-0.005	0.034	1.792	1.113	1.104	1.104	1.123	1.118	1.113
0.000	0.005	0.000	-0.005	0.005	0.005	0.029	1.772	1.108	1.108	1.104	1.118	1.118	1.118
-0.010	0.005	0.000	-0.005	0.000	0.000	0.034	1.792	1.108	1.104	1.104	1.123	1.113	1.113
-0.015	-0.010	0.000	0.000	-0.005	0.000	0.034	1.753	1.104	1.099	1.104	1.118	1.113	1.113
0.000	-0.020	0.000	-0.010	0.000	-0.005	0.029	1.743	1.104	1.099	1.104	1.118	1.113	1.108
0.005	-0.015	-0.005	-0.005	0.000	0.010	0.034	1.758	1.099	1.099	1.099	1.118	1.113	1.118
-0.005	-0.010	-0.005	-0.005	-0.005	0.005	0.034	1.729	1.099	1.099	1.099	1.123	1.118	1.113
-0.005	-0.010	-0.005	0.005	0.000	0.005	0.029	1.768	1.099	1.099	1.099	1.123	1.118	1.113
-0.010	0.005	-0.005	0.010	0.010	-0.005	0.029	1.743	1.089	1.099	1.099	1.118	1.118	1.113
-0.005	0.005	-0.005	0.000	0.000	-0.020	0.029	1.792	1.099	1.094	1.099	1.118	1.113	1.108
0.000	-0.010	-0.010	0.005	0.000	-0.005	0.029	1.748	1.094	1.094	1.094	1.118	1.113	1.113
-0.005	0.000	-0.005	-0.005	-0.010	-0.015	0.029	1.797	1.104	1.099	1.094	1.113	1.108	1.108
0.000	0.010	0.000	0.000	0.000	-0.024	0.034	1.768	1.099	1.104	1.099	1.113	1.113	1.108
-0.005	0.000	0.000	0.000	0.005	0.000	0.034	1.777	1.099	1.099	1.099	1.118	1.113	1.118
0.000	0.005	0.000	0.000	0.005	-0.015	0.029	1.787	1.108	1.099	1.099	1.118	1.113	1.108
0.005	0.000	0.005	0.005	0.005	-0.015	0.029	1.787	1.108	1.104	1.104	1.118	1.113	1.108
0.005	0.000	0.000	0.000	0.000	-0.015	0.029	1.797	1.108	1.104	1.099	1.118	1.108	1.108
0.000	0.010	0.000	0.005	-0.010	0.005	0.034	1.743	1.108	1.104	1.104	1.123	1.113	1.118
0.000	0.000	0.000	-0.005	-0.005	0.010	0.029	1.787	1.108	1.104	1.099	1.118	1.113	1.113
0.000	-0.005	-0.005	0.005	-0.005	0.005	0.034	1.743	1.104	1.104	1.099	1.118	1.113	1.113
0.000	-0.005	0.000	0.005	0.000	-0.005	0.029	1.797	1.104	1.104	1.104	1.118	1.113	1.113
0.005	-0.005	0.000	0.000	0.000	-0.005	0.029	1.772	1.104	1.099	1.104	1.118	1.113	1.113
0.005	-0.010	0.000	0.000	-0.005	0.000	0.029	1.763	1.104	1.099	1.099	1.118	1.113	1.108
0.000	-0.010	0.000	0.000	-0.010	0.010	0.029	1.763	1.099	1.104	1.099	1.118	1.113	1.113
-0.005	-0.010	-0.005	0.000	0.000	-0.005	0.029	1.787	1.094	1.099	1.099	1.118	1.113	1.113
0.005	0.010	0.000	-0.005	0.000	-0.010	0.034	1.816	1.104	1.099	1.099	1.118	1.113	1.108
-0.005	0.024	0.000	-0.005	0.000	0.005	0.029	1.777	1.104	1.108	1.104	1.113	1.113	1.113
0.000	0.015	-0.005	0.000	-0.005	0.010	0.034	1.772	1.104	1.104	1.099	1.118	1.113	1.113
0.010	0.020	-0.005	-0.005	0.000	0.000	0.034	1.772	1.104	1.104	1.099	1.113	1.113	1.113
0.005	0.005	0.000	0.000	0.000	-0.010	0.034	1.738	1.099	1.099	1.104	1.118	1.113	1.108
0.005	0.000	0.005	0.000	0.000	0.000	0.029	1.753	1.099	1.099	1.099	1.118	1.113	1.113
-0.005	-0.005	0.000	-0.005	0.000	0.005	0.029	1.743	1.094	1.094	1.099	1.118	1.113	1.113
0.000	0.000	0.000	0.000	-0.005	-0.010	0.029	1.724	1.094	1.094	1.099	1.118	1.113	1.108
0.000	0.000	0.010	-0.005	-0.005	0.005	0.029	1.768	1.094	1.094	1.099	1.118	1.113	1.113
0.000	-0.010	0.005	-0.005	0.000	-0.010	0.034	1.802	1.099	1.094	1.099	1.118	1.113	1.108
-0.015	-0.010	0.005	-0.005	0.000	-0.015	0.029	1.792	1.104	1.094	1.094	1.113	1.113	1.108
0.000	-0.015	0.000	0.000	0.000	-0.024	0.029	1.704	1.099	1.094	1.094	1.113	1.113	1.108
-0.005	-0.015	-0.005	0.000	-0.015	0.000	0.034	1.738	1.089	1.094	1.094	1.113	1.108	1.113
-0.015	-0.024	-0.010	0.000	-0.010	-0.005	0.034	1.758	1.089	1.089	1.089	1.113	1.108	1.113
-0.005	-0.024	-0.005	0.000	-0.005	-0.010	0.029	1.792	1.099	1.089	1.089	1.108	1.108	1.108
-0.005	-0.020	-0.005	0.005	-0.005	0.005	0.029	1.792	1.099	1.094	1.094	1.113	1.108	1.113
-0.005	-0.020	-0.005	0.005	0.005	0.010	0.034	1.782	1.099	1.094	1.089	1.108	1.113	1.113
0.000	0.000	-0.005	0.000	-0.005	-0.005	0.029	1.792	1.104	1.104	1.094	1.108	1.104	1.104
-0.005	0.010	-0.005	0.005	-0.015	0.015	0.029	1.782	1.104	1.104	1.094	1.108	1.104	1.113
0.005	0.005	-0.010	0.000	0.005	0.010	0.029	1.768	1.104	1.104	1.094	1.108	1.108	1.108
0.000	0.010	-0.005	0.005	0.020	-0.010	0.029	1.724	1.094	1.099	1.099	1.113	1.113	1.104
0.005	0.010	0.000	-0.005	0.024	0.015	0.029	1.782	1.099	1.104	1.099	1.113	1.113	1.113
-0.005	0.010	-0.005	-0.010	0.015	0.005	0.029	1.821	1.099	1.099	1.099	1.113	1.108	1.108
-0.005	0.010	-0.005	-0.010	-0.010	0.010	0.034	1.802	1.099	1.099	1.099	1.113	1.099	1.104
0.005	0.020	0.000	-0.015	-0.015	0.010	0.034	1.797	1.108	1.099	1.099	1.113	1.104	1.108
-0.005	0.000	-0.005	-0.010	-0.010	0.000	0.034	1.792	1.108	1.099	1.099	1.118	1.108	1.104
-0.010	-0.010	-0.005	-0.005	0.000	-0.034	0.029	1.768	1.099	1.094	1.099	1.118	1.108	1.099
-0.005	-0.010	-0.010	0.000	-0.005	-0.020	0.034	1.787	1.104	1.099	1.099	1.118	1.108	1.104
-0.005	-0.010	-0.010	0.005	-0.020	-0.034	0.034	1.743	1.099	1.099	1.094	1.118	1.108	1.099
-0.005	-0.005	-0.010	0.000	-0.015	-0.015	0.034	1.758	1.099	1.099	1.094	1.113	1.113	1.104
0.010	-0.010	-0.010	0.000	-0.010	-0.005	0.029	1.758	1.099	1.099	1.094	1.113	1.113	1.108
-0.010	-0.015	-0.005	-0.005	0.005	0.000	0.029	1.792	1.094	1.094	1.099	1.113	1.118	1.113
0.000	0.005	-0.010	-0.005	-0.010	0.005	0.029	1.787	1.104	1.099	1.099	1.113	1.108	1.113
-0.005	0.020	-0.010	0.000	-0.020	0.005	0.029	1.797	1.104	1.104	1.099	1.118	1.108	1.113
-0.015	0.010	-0.005	0.000	-0.020	0.010	0.029	1.777	1.099	1.099	1.099	1.118	1.108	1.108
0.005	-0.005	-0.005	0.005	-0.010	-0.029	0.029	1.777	1.099	1.094	1.099	1.118	1.113	1.104
0.005	0.000	-0.005	0.005	0.005	0.010	0.034	1.792	1.099	1.094	1.099	1.118	1.118	1.113
0.000	0.010	-0.005	0.005	0.015	-0.010	0.034	1.777	1.099	1.104	1.099	1.118	1.118	1.108
-0.010	0.010	0.000	0.005	0.020	0.010	0.034	1.807	1.099	1.099	1.099	1.118	1.118	1.118
-0.005	0.010	0.000	-0.005	0.020	0.005	0.029	1.797	1.108	1.099	1.099	1.118	1.118	1.113
0.005	-0.005	0.005	0.005	0.010	0.000	0.029	1.748	1.104	1.099	1.099	1.118	1.113	1.108
0.005	-0.005	0.000	0.005	-0.005	0.000	0.029	1.714	1.104	1.099	1.099	1.118	1.108	1.108
0.010	-0.020	0.005	0.005	0.005	-0.005	0.029	1.738	1.099	1.099	1.099	1.118	1.113	1.108
0.010	0.010	0.000	0.005	0.010	-0.010	0.029	1.758	1.094	1.104	1.099	1.118	1.113	1.108
0.000	0.000	0.000	0.000	0.010	0.005	0.029	1.812	1.094	1.094	1.099	1.118	1.113	1.113
0.005	-0.020	0.000	0.000	0.005	-0.010	0.029	1.826	1.104	1.094	1.094	1.113	1.108	1.113
-0.005	-0.015	-0.005	-0.010	0.010	0.010	0.034	1.763	1.099	1.094	1.094	1.113	1.108	1.113
-0.010	-0.005	-0.005	-0.005	0.005	-0.005	0.034	1.758	1.094	1.094	1.094	1.108	1.108	1.113
-0.010	0.000	0.000	-0.005	0.015	0.010	0.034	1.782	1.099	1.099	1.094	1.113	1.113	1.113
-0.010	0.000	-0.005	0.000	0.020	-0.005	0.034	1.768	1.099	1.094	1.094	1.113	1.113	1.108
0.000	0.005	-0.005	-0.005	-0.010	0.000	0.034	1.758	1.099	1.099	1.094	1.113	1.104	1.108
-0.010	0.005	-0.005	-0.005	-0.029	-0.020	0.029	1.782	1.094	1.094	1.094	1.113	1.099	1.099
-0.005	-0.005	0.005	0.000	-0.024	0.000	0.029	1.758	1.099	1.094	1.099	1.113	1.104	1.104
0.000	0.010	0.005	0.000	-0.020	-0.005	0.029	1.826	1.108	1.099	1.099	1.113	1.104	1.104
0.000	0.010	0.005	0.000	-0.015	0.015	0.029	1.802	1.108	1.104	1.099	1.118	1.108	1.108
0.000	0.010	0.015	0.000	0.010	0.015	0.029	1.807	1.113	1.108	1.099	1.118	1.118	1.108
0.000	0.005	0.015	0.000	-0.015	0.010	0.029	1.753	1.108	1.104	1.104	1.118	1.108	1.108
0.010	0.010	0.010	0.000	-0.054	-0.005	0.034	1.787	1.108	1.108	1.104	1.118	1.099	1.099
-0.010	0.010	0.010	-0.005	-0.029	0.005	0.034	1.792	1.104	1.104	1.104	1.118	1.113	1.108
0.000	0.005	0.010	-0.005	-0.005	0.015	0.034	1.768	1.099	1.104	1.104	1.118	1.118	1.113
-0.005	0.020	0.010	-0.005	0.015	-0.005	0.029	1.797	1.104	1.104	1.104	1.123	1.123	1.113
-0.005	0.010	0.005	-0.005	0.015	-0.005	0.034	1.743	1.099	1.104	1.099	1.123	1.123	1.113
0.005	-0.005	0.000	-0.005	0.000	-0.020	0.034	1.748	1.099	1.094	1.099	1.118	1.113	1.108
-0.005	-0.029	0.005	0.000	-0.015	-0.005	0.029	1.816	1.099	1.089	1.094	1.118	1.108	1.113
0.000	-0.020	0.000	0.000	-0.005	0.010	0.034	1.802	1.099	1.094	1.094	1.113	1.113	1.113
0.010	-0.034	-0.005	0.000	-0.005	0.005	0.029	1.748	1.099	1.089	1.094	1.113	1.108	1.113
0.000	-0.039	-0.005	-0.005	-0.005	0.010	0.034	1.753	1.094	1.089	1.094	1.108	1.113	1.113
0.000	-0.020	-0.005	0.000	-0.005	0.005	0.034	1.772	1.118	1.099	1.094	1.113	1.108	1.108
0.000	-0.005	0.000	0.005	-0.010	0.000	0.029	1.797	1.113	1.104	1.099	1.113	1.108	1.108
-0.005	0.005	-0.005	0.005	-0.005	-0.020	0.034	1.704	1.104	1.108	1.099	1.113	1.108	1.104
-0.015	0.015	0.000	0.005	-0.010	-0.010	0.029	1.782	1.108	1.108	1.099	1.118	1.108	1.108
-0.005	0.010	0.000	0.000	-0.010	0.005	0.029	1.812	1.108	1.104	1.104	1.118	1.108	1.113
-0.010	0.010	-0.010	0.005	0.000	0.020	0.029	1.787	1.099	1.104	1.104	1.118	1.113	1.113
-0.005	0.010	-0.015	0.000	-0.005	0.005	0.029	1.787	1.104	1.108	1.104	1.118	1.113	1.113
-0.010	0.020	-0.015	0.000	0.000	0.010	0.029	1.777	1.099	1.104	1.104	1.118	1.113	1.113
0.000	-0.005	-0.010	0.000	0.020	0.005	0.034	1.738	1.099	1.099	1.104	1.118	1.123	1.113
0.000	0.010	-0.005	0.000	0.024	0.005	0.034	1.807	1.104	1.099	1.104	1.123	1.118	1.113
-0.005	0.005	-0.005	0.000	0.005	-0.015	0.029	1.733	1.099	1.099	1.104	1.118	1.113	1.108
0.000	0.000	-0.005	0.005	-0.005	-0.010	0.034	1.729	1.094	1.099	1.099	1.118	1.113	1.108
-0.005	0.005	-0.005	0.000	-0.015	-0.015	0.034	1.782	1.094	1.094	1.099	1.118	1.108	1.108
-0.005	-0.005	-0.005	0.000	-0.020	-0.029	0.034	1.821	1.099	1.094	1.094	1.118	1.108	1.104
0.010	-0.005	-0.005	0.000	-0.005	-0.034	0.034	1.763	1.113	1.099	1.094	1.113	1.113	1.108
0.000	-0.005	-0.010	0.000	-0.015	-0.005	0.034	1.772	1.104	1.099	1.094	1.113	1.108	1.113
0.000	-0.015	-0.005	0.000	-0.039	-0.024	0.029	1.777	1.099	1.094	1.094	1.113	1.099	1.104
0.000	-0.010	-0.005	0.000	-0.049	0.015	0.034	1.709	1.089	1.099	1.094	1.113	1.104	1.113
0.005	-0.010	-0.005	-0.005	-0.015	0.015	0.034	1.777	1.099	1.094	1.094	1.113	1.113	1.113
0.000	-0.020	-0.005	-0.005	-0.005	0.010	0.029	1.802	1.104	1.094	1.094	1.113	1.113	1.108
0.000	-0.015	-0.005	0.000	-0.020	0.015	0.029	1.763	1.099	1.094	1.094	1.113	1.108	1.108
0.005	0.024	-0.005	0.000	0.010	0.010	0.029	1.738	1.094	1.104	1.099	1.113	1.118	1.113
-0.005	0.024	-0.005	0.000	0.034	-0.010	0.034	1.782	1.099	1.104	1.099	1.118	1.123	1.108
-0.005	0.024	-0.005	-0.005	0.059	0.005	0.034	1.758	1.099	1.104	1.099	1.118	1.128	1.118
-0.010	0.005	0.000	0.000	0.059	0.005	0.029	1.758	1.094	1.094	1.099	1.118	1.123	1.118
-0.005	-0.005	0.000	0.000	0.054	-0.005	0.034	1.797	1.099	1.094	1.094	1.118	1.118	1.118
-0.005	0.000	-0.005	-0.005	0.063	-0.005	0.029	1.768	1.104	1.094	1.094	1.113	1.118	1.118
0.000	0.005	-0.005	0.000	0.054	-0.020	0.034	1.797	1.108	1.099	1.094	1.118	1.113	1.113
0.005	0.010	-0.005	0.000	0.029	-0.015	0.029	1.797	1.108	1.104	1.099	1.118	1.108	1.108
0.000	-0.015	-0.005	0.000	0.020	0.005	0.034	1.826	1.104	1.094	1.094	1.113	1.104	1.113
0.010	-0.020	-0.005	0.005	0.010	-0.010	0.029	1.758	1.104	1.094	1.094	1.113	1.104	1.104
-0.005	-0.005	0.000	-0.005	0.005	-0.005	0.029	1.787	1.113	1.104	1.099	1.113	1.104	1.108
-0.010	-0.010	0.000	-0.010	0.015	-0.015	0.029	1.777	1.108	1.104	1.099	1.113	1.104	1.104
0.000	-0.010	-0.005	-0.010	0.015	-0.005	0.029	1.748	1.084	1.099	1.099	1.113	1.108	1.108
-0.005	-0.010	0.010	-0.005	0.005	-0.005	0.029	1.743	1.089	1.094	1.099	1.113	1.104	1.104
-0.010	-0.005	0.005	-0.005	0.005	-0.015	0.029	1.797	1.094	1.089	1.099	1.113	1.108	1.104
-0.010	0.000	0.000	0.000	0.000	0.000	0.034	1.748	1.089	1.094	1.094	1.113	1.108	1.108
0.000	-0.005	0.005	0.000	-0.005	-0.015	0.029	1.772	1.094	1.094	1.094	1.113	1.108	1.099
0.005	0.000	0.000	0.000	-0.010	-0.054	0.034	1.797	1.099	1.094	1.094	1.113	1.104	1.094
0.000	-0.005	0.000	-0.005	-0.010	-0.029	0.034	1.797	1.099	1.094	1.094	1.108	1.104	1.104
-0.005	0.005	0.000	0.000	-0.020	-0.005	0.029	1.719	1.094	1.099	1.094	1.113	1.104	1.108
-0.005	0.000	0.000	0.005	-0.020	0.005	0.029	1.797	1.099	1.094	1.094	1.113	1.108	1.113
-0.005	0.010	-0.005	0.005	-0.020	-0.005	0.034	1.753	1.099	1.099	1.094	1.113	1.108	1.108
0.000	0.005	-0.005	0.010	-0.024	0.005	0.034	1.748	1.099	1.094	1.094	1.113	1.108	1.108
0.005	-0.005	-0.005	0.000	-0.044	0.015	0.029	1.724	1.094	1.094	1.094	1.113	1.104	1.113
0.005	-0.010	-0.005	-0.005	-0.024	0.015	0.029	1.758	1.094	1.089	1.094	1.108	1.108	1.108
0.000	-0.005	0.000	-0.005	0.000	0.015	0.034	1.733	1.094	1.094	1.094	1.113	1.118	1.108
-0.015	-0.005	0.000	-0.005	0.029	-0.005	0.034	1.768	1.094	1.089	1.094	1.108	1.118	1.108
0.005	-0.005	-0.005	-0.005	0.005	0.000	0.034	1.782	1.099	1.094	1.089	1.108	1.108	1.108
0.005	-0.005	0.000	-0.005	-0.029	0.005	0.034	1.802	1.104	1.094	1.094	1.108	1.099	1.108
0.005	-0.015	0.000	0.000	-0.034	0.015	0.034	1.748	1.099	1.094	1.089	1.108	1.099	1.104
0.005	-0.020	-0.010	0.000	-0.034	0.005	0.034	1.787	1.099	1.089	1.089	1.108	1.099	1.104
0.005	0.005	0.000	-0.005	-0.005	0.015	0.029	1.802	1.099	1.099	1.094	1.108	1.108	1.104
0.000	0.000	0.005	-0.005	0.020	0.015	0.029	1.772	1.094	1.099	1.094	1.108	1.118	1.108
0.005	0.005	0.000	0.000	0.015	0.010	0.034	1.758	1.094	1.099	1.094	1.108	1.108	1.108
0.000	0.010	-0.005	-0.005	-0.005	0.005	0.029	1.782	1.099	1.099	1.094	1.108	1.104	1.108
-0.005	0.010	0.010	-0.005	-0.020	-0.005	0.034	1.768	1.099	1.099	1.099	1.113	1.099	1.099
0.010	0.005	0.005	0.000	-0.005	0.010	0.034	1.777	1.104	1.099	1.094	1.113	1.108	1.108
0.005	0.005	0.000	0.000	0.015	0.010	0.034	1.772	1.104	1.099	1.099	1.113	1.113	1.108
0.000	0.000	0.005	-0.005	0.005	-0.005	0.034	1.777	1.099	1.099	1.099	1.113	1.108	1.108
0.005	0.000	0.005	-0.005	0.000	-0.020	0.029	1.797	1.104	1.099	1.099	1.113	1.108	1.104
0.000	-0.015	0.005	0.000	-0.020	0.005	0.029	1.768	1.099	1.094	1.094	1.113	1.104	1.108
0.005	-0.010	0.000	0.000	-0.034	0.000	0.029	1.787	1.099	1.094	1.094	1.113	1.104	1.104
0.005	-0.005	0.000	0.000	-0.029	0.005	0.029	1.787	1.099	1.099	1.094	1.113	1.104	1.104
-0.005	-0.005	0.000	0.005	-0.029	0.005	0.029	1.782	1.099	1.094	1.094	1.113	1.108	1.104
-0.005	-0.015	0.005	0.005	-0.049	0.000	0.029	1.777	1.099	1.094	1.094	1.113	1.104	1.099
-0.010	-0.005	0.000	0.000	-0.059	0.015	0.029	1.777	1.094	1.094	1.094	1.108	1.099	1.108
-0.010	-0.010	-0.005	0.000	-0.044	0.024	0.029	1.772	1.094	1.089	1.094	1.113	1.108	1.108
0.000	-0.010	0.000	0.000	0.015	0.010	0.034	1.753	1.094	1.094	1.094	1.113	1.123	1.108
0.005	-0.005	0.000	0.000	0.024	0.005	0.029	1.768	1.094	1.094	1.094	1.113	1.118	1.113
0.005	0.005	-0.005	0.000	0.005	-0.015	0.029	1.772	1.094	1.099	1.094	1.113	1.108	1.104
-0.005	0.005	-0.005	0.000	-0.015	-0.044	0.034	1.797	1.094	1.094	1.094	1.108	1.099	1.094
-0.010	0.005	-0.005	-0.005	-0.005	-0.054	0.029	1.777	1.094	1.094	1.094	1.108	1.108	1.099
-0.005	-0.005	-0.005	0.000	0.034	-0.029	0.034	1.763	1.094	1.094	1.094	1.113	1.118	1.108
-0.005	0.015	0.000	0.000	0.054	-0.015	0.034	1.782	1.094	1.094	1.099	1.113	1.123	1.118
-0.010	0.010	-0.005	0.000	0.098	0.000	0.029	1.797	1.104	1.094	1.099	1.113	1.133	1.128
0.000	0.010	0.000	0.005	0.107	0.024	0.029	1.768	1.104	1.099	1.099	1.118	1.133	1.133
0.005	0.000	0.000	0.005	0.078	0.010	0.034	1.797	1.108	1.099	1.099	1.118	1.118	1.123
0.010	0.000	-0.005	0.000	0.059	0.024	0.029	1.777	1.108	1.104	1.094	1.113	1.108	1.123
0.000	0.000	0.000	0.000	0.054	0.015	0.034	1.753	1.108	1.104	1.099	1.113	1.108	1.118
0.005	-0.005	0.000	0.005	0.010	0.015	0.029	1.714	1.104	1.104	1.099	1.113	1.094	1.108
-0.005	-0.015	-0.005	0.000	-0.039	0.005	0.029	1.797	1.099	1.094	1.094	1.108	1.084	1.094
0.000	-0.024	0.000	0.000	-0.063	0.010	0.029	1.758	1.099	1.094	1.094	1.113	1.089	1.094
0.005	-0.024	0.000	0.000	-0.049	0.010	0.034	1.724	1.094	1.099	1.094	1.108	1.099	1.094
0.005	-0.005	-0.005	0.000	-0.034	-0.005	0.034	1.782	1.094	1.094	1.094	1.113	1.104	1.094
0.010	0.000	-0.005	-0.005	-0.015	0.005	0.029	1.802	1.099	1.099	1.094	1.113	1.108	1.099
0.005	-0.010	0.005	0.000	-0.029	-0.005	0.034	1.768	1.094	1.099	1.099	1.113	1.108	1.099
0.005	0.000	0.000	-0.005	-0.024	-0.024	0.029	1.802	1.094	1.094	1.099	1.113	1.104	1.094
0.000	0.000	-0.005	-0.005	-0.034	-0.005	0.034	1.768	1.094	1.099	1.094	1.108	1.104	1.099
0.000	0.005	-0.005	0.000	-0.029	-0.015	0.029	1.748	1.089	1.094	1.094	1.113	1.104	1.099
0.000	0.005	0.000	-0.005	-0.024	-0.029	0.029	1.797	1.094	1.094	1.094	1.113	1.108	1.099
-0.005	0.010	-0.005	0.000	-0.005	0.010	0.029	1.758	1.094	1.094	1.094	1.113	1.113	1.113
0.000	0.010	0.000	0.005	-0.005	0.005	0.029	1.763	1.099	1.094	1.094	1.113	1.113	1.113
0.005	0.010	-0.005	0.005	0.000	0.000	0.029	1.777	1.099	1.099	1.094	1.118	1.113	1.108
-0.005	0.000	0.000	0.005	-0.005	-0.005	0.034	1.743	1.099	1.094	1.094	1.113	1.113	1.113
-0.005	0.005	0.000	0.000	-0.005	-0.015	0.029	1.772	1.099	1.094	1.094	1.113	1.108	1.108
-0.005	0.005	0.000	0.000	-0.015	0.010	0.034	1.787	1.104	1.099	1.094	1.113	1.108	1.113
-0.010	0.000	0.000	-0.005	-0.020	0.005	0.029	1.753	1.094	1.094	1.094	1.108	1.104	1.108
-0.005	-0.005	-0.005	-0.015	-0.005	0.010	0.029	1.797	1.104	1.094	1.089	1.108	1.108	1.108
-0.010	-0.024	0.000	-0.015	0.000	0.005	0.034	1.743	1.094	1.089	1.094	1.104	1.108	1.108
-0.005	0.015	-0.010	-0.015	-0.020	0.010	0.034	1.797	1.099	1.099	1.094	1.108	1.099	1.108
0.000	0.010	-0.005	-0.015	0.000	0.010	0.034	1.812	1.104	1.099	1.094	1.108	1.108	1.108
0.005	0.015	-0.005	-0.005	0.020	-0.015	0.029	1.797	1.104	1.099	1.094	1.113	1.113	1.099
0.000	0.000	-0.005	0.005	0.029	-0.005	0.029	1.812	1.104	1.094	1.094	1.118	1.118	1.108
0.000	0.000	0.000	0.015	0.029	0.000	0.034	1.758	1.099	1.099	1.099	1.118	1.113	1.108
0.000	0.034	0.000	0.010	-0.005	0.000	0.034	1.797	1.099	1.108	1.104	1.118	1.104	1.108
-0.005	0.020	0.000	0.005	-0.029	-0.005	0.029	1.758	1.099	1.099	1.099	1.113	1.099	1.104
-0.010	0.010	0.000	0.000	-0.059	-0.020	0.029	1.787	1.099	1.094	1.099	1.113	1.094	1.094
0.000	0.005	0.000	-0.005	-0.059	-0.029	0.034	1.782	1.099	1.094	1.094	1.113	1.099	1.094
0.000	0.010	0.005	-0.010	-0.044	-0.010	0.029	1.792	1.099	1.099	1.099	1.113	1.104	1.104
-0.005	-0.005	-0.005	0.000	-0.063	0.005	0.034	1.753	1.094	1.094	1.094	1.113	1.099	1.104
-0.005	-0.015	0.005	0.000	-0.088	-0.024	0.034	1.802	1.099	1.094	1.094	1.113	1.099	1.094
-0.005	-0.015	0.005	-0.005	-0.063	-0.015	0.034	1.772	1.099	1.094	1.094	1.113	1.108	1.104
0.000	-0.015	0.005	0.005	0.029	-0.015	0.029	1.797	1.099	1.094	1.094	1.118	1.133	1.108
-0.010	-0.020	0.010	0.000	0.161	-0.005	0.034	1.777	1.094	1.094	1.094	1.118	1.167	1.133
-0.010	-0.005	0.000	-0.005	0.239	0.000	0.029	1.787	1.099	1.099	1.094	1.118	1.172	1.143
0.000	0.000	0.005	-0.005	0.181	0.000	0.029	1.782	1.108	1.099	1.094	1.113	1.133	1.138
0.005	0.000	0.005	0.000	0.093	0.020	0.034	1.797	1.108	1.099	1.099	1.113	1.108	1.133
0.000	0.005	0.000	0.000	0.024	0.005	0.034	1.768	1.089	1.099	1.094	1.108	1.089	1.118
-0.005	0.010	0.005	-0.005	0.010	-0.005	0.034	1.772	1.094	1.094	1.099	1.108	1.089	1.104
0.000	0.010	-0.005	-0.005	-0.015	0.020	0.034	1.797	1.099	1.094	1.094	1.113	1.084	1.104
0.010	0.005	0.005	-0.005	-0.044	0.005	0.029	1.782	1.104	1.094	1.094	1.113	1.084	1.094
0.000	0.005	0.005	-0.005	-0.054	-0.010	0.034	1.792	1.104	1.094	1.094	1.113	1.089	1.089
-0.010	-0.005	0.005	-0.005	-0.044	0.000	0.029	1.812	1.104	1.094	1.094	1.113	1.099	1.094
0.005	0.000	0.010	0.000	-0.039	-0.015	0.029	1.772	1.104	1.099	1.099	1.113	1.104	1.094
0.005	0.010	0.000	0.000	-0.015	-0.015	0.029	1.792	1.104	1.099	1.094	1.113	1.108	1.094
-0.005	-0.005	0.000	0.000	-0.024	0.005	0.029	1.738	1.099	1.099	1.099	1.113	1.108	1.104
0.000	-0.015	0.000	0.000	-0.015	0.010	0.029	1.787	1.099	1.094	1.094	1.113	1.113	1.108
-0.005	0.000	0.000	0.000	-0.015	0.015	0.029	1.782	1.094	1.099	1.094	1.113	1.108	1.108
0.000	-0.015	-0.005	0.000	-0.015	-0.005	0.034	1.797	1.099	1.094	1.094	1.113	1.108	1.099
0.000	-0.029	-0.005	0.005	-0.020	-0.010	0.029	1.802	1.104	1.094	1.094	1.113	1.108	1.104
-0.005	-0.024	-0.005	0.000	-0.015	-0.005	0.034	1.797	1.099	1.094	1.094	1.113	1.108	1.108
0.005	-0.015	0.000	0.005	-0.015	0.000	0.034	1.738	1.094	1.094	1.094	1.113	1.108	1.108
0.010	0.005	0.005	0.010	-0.010	-0.010	0.034	1.753	1.094	1.104	1.094	1.113	1.108	1.104
0.000	0.010	0.005	0.000	-0.005	0.000	0.034	1.763	1.089	1.099	1.099	1.113	1.108	1.108
0.000	0.005	0.005	0.000	-0.005	-0.010	0.034	1.763	1.094	1.099	1.094	1.113	1.108	1.104
0.000	0.005	0.000	0.000	0.000	0.005	0.029	1.787	1.094	1.094	1.094	1.108	1.108	1.113
-0.010	0.010	0.005	-0.005	0.010	0.005	0.029	1.797	1.094	1.094	1.094	1.113	1.113	1.113
0.000	0.005	0.000	-0.005	0.005	-0.020	0.034	1.782	1.099	1.094	1.094	1.108	1.108	1.104
-0.005	0.005	0.000	-0.005	0.000	-0.005	0.029	1.812	1.104	1.099	1.094	1.113	1.108	1.108
0.000	-0.005	-0.005	0.000	0.000	-0.005	0.034	1.777	1.099	1.094	1.094	1.113	1.108	1.108
-0.005	-0.010	-0.005	0.000	-0.005	-0.020	0.029	1.772	1.104	1.094	1.094	1.113	1.108	1.104
0.005	0.005	0.000	0.000	-0.010	0.005	0.034	1.753	1.099	1.099	1.099	1.113	1.104	1.113
0.000	0.005	0.000	0.005	-0.005	0.005	0.029	1.772	1.099	1.099	1.094	1.118	1.108	1.108
-0.005	0.000	-0.005	0.005	-0.010	0.005	0.034	1.743	1.099	1.099	1.094	1.113	1.108	1.108
0.005	0.005	-0.005	0.005	-0.020	0.005	0.034	1.763	1.094	1.099	1.099	1.113	1.104	1.108
0.005	0.000	-0.005	0.000	-0.024	0.010	0.029	1.772	1.099	1.094	1.094	1.113	1.104	1.108
0.000	-0.015	0.000	0.000	0.005	-0.005	0.034	1.758	1.099	1.094	1.094	1.113	1.108	1.104
-0.010	-0.010	-0.005	-0.005	0.010	0.000	0.029	1.743	1.094	1.094	1.094	1.108	1.113	1.108
0.005	-0.010	0.000	-0.005	0.000	0.000	0.029	1.768	1.099	1.094	1.094	1.108	1.108	1.108
0.000	-0.010	-0.005	0.000	-0.015	-0.010	0.034	1.802	1.099	1.094	1.094	1.113	1.104	1.104
-0.005	-0.015	0.000	0.000	-0.015	-0.005	0.029	1.797	1.099	1.094	1.094	1.108	1.104	1.104
-0.005	-0.010	0.000	-0.005	-0.029	0.000	0.029	1.807	1.104	1.094	1.094	1.108	1.099	1.099
0.000	-0.015	-0.005	-0.005	-0.020	0.000	0.034	1.733	1.099	1.099	1.094	1.108	1.104	1.104
0.000	-0.010	0.000	0.000	-0.029	0.000	0.029	1.782	1.094	1.094	1.094	1.113	1.104	1.099
0.000	0.000	0.000	0.000	-0.039	-0.015	0.034	1.768	1.099	1.099	1.094	1.113	1.104	1.094
-0.005	0.020	-0.005	0.005	-0.049	0.015	0.034	1.738	1.089	1.104	1.094	1.113	1.104	1.108
-0.005	0.015	0.000	0.005	-0.015	0.020	0.029	1.797	1.094	1.099	1.099	1.118	1.113	1.108
0.000	0.005	0.000	0.000	0.020	0.020	0.034	1.772	1.099	1.094	1.094	1.118	1.123	1.113
0.000	0.010	0.000	0.000	0.059	0.024	0.029	1.758	1.094	1.094	1.099	1.118	1.128	1.118
0.000	-0.005	0.000	0.005	0.063	0.015	0.029	1.787	1.099	1.094	1.094	1.118	1.128	1.118
-0.005	0.005	0.000	0.000	0.117	-0.010	0.034	1.812	1.099	1.094	1.094	1.118	1.138	1.118
-0.005	-0.015	-0.005	0.000	0.122	-0.029	0.029	1.797	1.104	1.094	1.094	1.113	1.128	1.113
-0.010	-0.010	-0.005	0.005	0.093	-0.029	0.029	1.758	1.104	1.094	1.094	1.113	1.113	1.113
-0.005	-0.005	0.000	-0.005	0.049	-0.024	0.029	1.797	1.104	1.099	1.094	1.108	1.099	1.113
-0.015	-0.005	0.000	-0.010	0.000	-0.029	0.029	1.763	1.099	1.094	1.094	1.108	1.089	1.104
0.000	0.000	0.000	-0.010	-0.015	-0.005	0.034	1.782	1.104	1.099	1.094	1.108	1.094	1.104
-0.015	-0.005	0.000	-0.020	0.000	0.000	0.029	1.768	1.094	1.099	1.094	1.108	1.099	1.104
-0.010	0.005	0.005	-0.015	0.000	-0.005	0.029	1.763	1.094	1.099	1.099	1.108	1.099	1.099
-0.005	-0.005	-0.005	-0.005	-0.010	-0.015	0.034	1.792	1.099	1.094	1.094	1.113	1.099	1.099
0.000	0.015	0.000	-0.005	-0.005	0.010	0.034	1.797	1.104	1.099	1.099	1.113	1.108	1.104
0.000	0.005	0.000	-0.005	0.005	0.005	0.029	1.797	1.104	1.094	1.099	1.113	1.108	1.104
0.010	0.005	0.000	0.005	0.005	-0.020	0.029	1.748	1.099	1.099	1.099	1.118	1.108	1.099
-0.005	0.024	0.000	0.000	-0.005	0.000	0.034	1.802	1.099	1.099	1.099	1.118	1.108	1.108
0.000	0.024	0.000	0.000	-0.020	0.005	0.029	1.782	1.099	1.104	1.099	1.118	1.104	1.104
0.005	-0.005	0.000	0.005	-0.049	-0.005	0.034	1.787	1.099	1.094	1.099	1.113	1.099	1.104
-0.005	0.010	0.000	0.000	-0.083	0.010	0.029	1.768	1.094	1.094	1.094	1.113	1.094	1.099
0.000	-0.005	0.000	0.000	-0.063	0.015	0.029	1.753	1.094	1.094	1.099	1.113	1.104	1.104
-0.005	-0.010	0.000	0.000	0.005	0.005	0.029	1.782	1.094	1.089	1.094	1.118	1.123	1.108
-0.005	-0.015	-0.005	-0.005	0.015	0.010	0.029	1.797	1.104	1.094	1.094	1.113	1.123	1.113
0.000	-0.015	0.000	0.000	0.010	-0.015	0.034	1.753	1.094	1.094	1.094	1.113	1.113	1.108
0.005	-0.010	-0.005	0.000	-0.020	0.005	0.029	1.787	1.094	1.094	1.094	1.113	1.104	1.108
0.000	-0.015	0.000	0.000	-0.024	0.000	0.034	1.777	1.094	1.094	1.094	1.108	1.104	1.108
-0.005	-0.010	0.000	0.005	-0.015	-0.020	0.034	1.777	1.094	1.094	1.094	1.113	1.104	1.099
-0.010	-0.015	-0.005	0.010	-0.020	0.005	0.034	1.782	1.094	1.094	1.089	1.108	1.108	1.108
0.000	-0.005	0.000	0.000	-0.015	0.024	0.034	1.792	1.099	1.094	1.089	1.108	1.108	1.113
0.015	-0.020	-0.005	0.005	-0.029	0.015	0.034	1.743	1.099	1.094	1.094	1.108	1.104	1.108
0.005	0.000	0.000	-0.005	-0.010	-0.015	0.029	1.787	1.099	1.099	1.094	1.108	1.108	1.099
0.005	0.020	-0.010	0.000	0.015	-0.010	0.029	1.748	1.099	1.104	1.094	1.108	1.113	1.104
-0.005	0.005	0.000	-0.005	0.010	-0.010	0.029	1.782	1.099	1.094	1.094	1.108	1.108	1.104
-0.005	0.000	-0.005	0.000	0.015	-0.020	0.029	1.758	1.094	1.099	1.094	1.113	1.108	1.104
-0.005	0.020	-0.005	0.000	0.024	-0.029	0.029	1.772	1.099	1.099	1.099	1.113	1.113	1.104
0.005	0.005	0.000	0.000	0.010	-0.010	0.029	1.797	1.099	1.099	1.099	1.113	1.104	1.108
0.000	-0.005	-0.005	0.000	-0.020	-0.020	0.034	1.724	1.094	1.094	1.099	1.113	1.099	1.104
0.005	-0.005	0.000	0.005	-0.039	-0.015	0.034	1.772	1.099	1.094	1.094	1.113	1.099	1.104
0.005	-0.010	0.005	0.000	-0.024	0.020	0.034	1.748	1.099	1.094	1.094	1.113	1.108	1.113
-0.005	-0.010	0.000	0.000	0.000	0.015	0.034	1.758	1.094	1.094	1.094	1.113	1.113	1.113
-0.005	0.000	-0.005	0.005	0.020	0.000	0.034	1.763	1.094	1.094	1.094	1.113	1.113	1.108
-0.005	-0.010	-0.005	0.000	0.020	-0.005	0.034	1.758	1.094	1.089	1.094	1.113	1.113	1.108
-0.010	-0.005	-0.005	0.000	0.029	-0.034	0.034	1.807	1.094	1.089	1.094	1.113	1.113	1.099
-0.005	-0.015	-0.005	0.000	0.020	0.010	0.029	1.792	1.099	1.089	1.089	1.108	1.108	1.113
0.000	-0.015	-0.005	-0.005	0.005	0.005	0.034	1.787	1.104	1.089	1.094	1.108	1.104	1.113
-0.015	-0.005	0.000	0.000	0.000	-0.005	0.034	1.797	1.099	1.094	1.094	1.108	1.099	1.104
-0.010	-0.005	0.005	-0.005	0.005	-0.010	0.029	1.802	1.104	1.094	1.094	1.108	1.104	1.104
0.000	-0.015	0.005	0.000	-0.015	0.005	0.029	1.777	1.104	1.094	1.094	1.108	1.099	1.104
-0.005	0.000	0.005	0.000	-0.020	0.010	0.029	1.777	1.099	1.099	1.094	1.113	1.104	1.104
-0.005	0.000	0.005	-0.005	0.010	-0.005	0.034	1.758	1.094	1.099	1.094	1.113	1.113	1.104
-0.005	0.010	0.000	0.000	0.029	0.010	0.034	1.768	1.099	1.099	1.099	1.113	1.118	1.113
-0.005	0.000	0.005	0.005	0.024	-0.005	0.029	1.792	1.094	1.099	1.099	1.113	1.113	1.108
0.000	0.010	0.000	0.000	0.010	0.005	0.029	1.777	1.099	1.099	1.094	1.113	1.108	1.108
-0.005	0.015	0.000	0.000	0.000	0.005	0.034	1.792	1.104	1.104	1.094	1.113	1.108	1.104
0.000	0.000	0.000	0.000	0.010	-0.005	0.034	1.753	1.099	1.099	1.094	1.113	1.108	1.104
-0.005	0.005	-0.005	0.000	0.010	-0.005	0.034	1.772	1.094	1.094	1.094	1.113	1.108	1.108
-0.005	-0.010	-0.005	0.000	-0.005	0.000	0.029	1.797	1.099	1.089	1.094	1.113	1.104	1.104
-0.005	-0.005	0.000	0.000	-0.020	-0.015	0.029	1.787	1.104	1.099	1.094	1.113	1.104	1.099
-0.005	-0.015	0.000	0.005	-0.020	0.005	0.029	1.753	1.099	1.094	1.094	1.113	1.104	1.108
0.000	-0.010	-0.005	-0.005	0.005	-0.010	0.034	1.782	1.104	1.099	1.094	1.108	1.113	1.104
0.005	-0.005	-0.005	0.000	0.005	-0.005	0.034	1.797	1.104	1.094	1.094	1.113	1.113	1.108
0.000	0.000	-0.005	0.000	-0.005	0.005	0.029	1.782	1.099	1.099	1.094	1.113	1.108	1.108
-0.005	-0.005	-0.005	0.000	-0.005	0.000	0.029	1.772	1.099	1.094	1.094	1.113	1.108	1.104
0.000	-0.010	-0.005	0.000	-0.020	-0.005	0.034	1.777	1.099	1.094	1.094	1.108	1.104	1.104
0.010	0.000	0.000	-0.005	-0.020	0.010	0.029	1.777	1.104	1.099	1.099	1.113	1.104	1.104
0.005	0.005	0.000	0.005	-0.015	-0.015	0.034	1.797	1.104	1.104	1.099	1.118	1.108	1.104
-0.015	0.015	-0.005	0.010	-0.020	0.000	0.029	1.763	1.099	1.104	1.099	1.118	1.108	1.104
-0.005	0.015	0.000	0.000	-0.020	0.005	0.034	1.753	1.094	1.099	1.099	1.113	1.108	1.108
0.000	0.015	0.000	-0.005	0.010	0.005	0.029	1.797	1.104	1.099	1.099	1.113	1.118	1.108
-0.005	0.024	0.000	-0.005	0.000	-0.005	0.034	1.787	1.104	1.108	1.099	1.118	1.113	1.104
-0.010	0.015	0.000	-0.005	0.010	-0.020	0.034	1.763	1.099	1.099	1.099	1.118	1.113	1.104
-0.010	-0.005	0.000	-0.005	0.005	0.015	0.029	1.768	1.099	1.094	1.094	1.118	1.118	1.118
-0.005	-0.005	-0.005	-0.005	0.010	0.029	0.034	1.763	1.099	1.089	1.094	1.118	1.113	1.118
0.005	-0.024	-0.005	0.000	0.024	0.010	0.029	1.768	1.094	1.094	1.094	1.113	1.118	1.118
0.005	-0.020	0.000	0.000	0.015	0.024	0.034	1.792	1.104	1.094	1.094	1.113	1.113	1.113
0.000	-0.005	-0.005	0.000	0.015	0.015	0.029	1.768	1.099	1.099	1.094	1.113	1.108	1.113
0.000	-0.005	0.000	0.005	-0.010	0.000	0.029	1.753	1.094	1.094	1.094	1.113	1.104	1.104
0.000	-0.020	0.005	0.000	-0.059	-0.024	0.029	1.797	1.099	1.094	1.094	1.113	1.089	1.094
-0.005	-0.024	-0.005	0.000	-0.088	-0.039	0.029	1.812	1.099	1.094	1.094	1.108	1.084	1.089
0.000	-0.005	0.010	0.000	-0.093	-0.039	0.029	1.792	1.099	1.099	1.094	1.108	1.094	1.089
0.005	0.000	-0.005	0.000	-0.034	-0.029	0.029	1.792	1.099	1.099	1.094	1.108	1.108	1.094
0.000	0.000	0.000	-0.005	0.015	-0.015	0.029	1.782	1.099	1.099	1.099	1.113	1.128	1.108
0.000	0.000	0.000	0.000	0.034	0.010	0.034	1.729	1.099	1.099	1.099	1.118	1.128	1.123
-0.005	0.005	0.000	0.000	0.024	0.000	0.034	1.738	1.094	1.104	1.099	1.118	1.118	1.118
-0.010	0.010	0.000	0.000	0.034	0.005	0.034	1.797	1.094	1.099	1.099	1.118	1.118	1.118
-0.010	0.010	0.000	0.005	0.029	0.000	0.029	1.772	1.099	1.099	1.099	1.118	1.118	1.113
-0.010	0.015	0.005	0.010	0.015	0.010	0.034	1.768	1.104	1.104	1.099	1.118	1.113	1.118
0.000	0.024	0.000	0.005	0.020	0.005	0.029	1.777	1.108	1.104	1.099	1.118	1.113	1.118
0.000	0.015	0.000	0.005	0.015	0.000	0.029	1.787	1.104	1.099	1.099	1.118	1.108	1.113
-0.005	0.000	0.000	0.000	0.000	0.000	0.029	1.782	1.104	1.099	1.094	1.113	1.108	1.108
-0.010	-0.005	0.000	-0.005	-0.005	0.005	0.029	1.753	1.099	1.099	1.094	1.108	1.108	1.108
0.000	-0.005	0.000	-0.010	0.005	0.005	0.029	1.792	1.104	1.094	1.094	1.113	1.108	1.113
0.000	-0.005	-0.005	-0.015	0.005	0.000	0.029	1.816	1.108	1.094	1.094	1.113	1.108	1.108
0.000	-0.010	0.000	-0.010	-0.020	0.010	0.029	1.807	1.108	1.099	1.094	1.108	1.099	1.104
0.000	-0.005	-0.010	-0.010	-0.078	0.010	0.029	1.753	1.099	1.104	1.094	1.108	1.084	1.099
-0.005	-0.005	-0.005	-0.005	-0.103	-0.005	0.029	1.802	1.104	1.099	1.099	1.113	1.089	1.094
-0.010	-0.005	-0.005	-0.005	-0.063	0.005	0.034	1.772	1.099	1.099	1.094	1.113	1.104	1.099
0.000	-0.024	-0.010	0.005	-0.010	-0.005	0.034	1.738	1.094	1.094	1.094	1.118	1.123	1.099
-0.005	0.000	0.000	0.000	0.093	-0.010	0.029	1.792	1.094	1.099	1.104	1.118	1.147	1.118
-0.005	0.005	0.000	0.000	0.146	-0.010	0.034	1.748	1.094	1.099	1.099	1.123	1.152	1.123
-0.005	0.015	0.000	0.000	0.112	-0.034	0.034	1.763	1.094	1.104	1.099	1.118	1.133	1.123
0.000	0.005	-0.010	0.000	0.068	-0.015	0.029	1.797	1.104	1.094	1.099	1.118	1.118	1.123
0.000	-0.005	0.000	0.000	0.068	-0.005	0.029	1.807	1.108	1.094	1.099	1.118	1.113	1.123
0.005	-0.015	0.000	0.000	0.049	-0.005	0.029	1.763	1.104	1.099	1.099	1.118	1.108	1.118
0.015	-0.005	0.005	0.000	0.034	0.010	0.034	1.758	1.099	1.099	1.099	1.118	1.108	1.118
0.000	-0.015	0.000	0.000	0.083	0.005	0.029	1.782	1.099	1.094	1.099	1.118	1.123	1.118
0.000	-0.010	-0.005	0.000	0.073	0.015	0.029	1.753	1.104	1.099	1.094	1.118	1.113	1.118
0.000	-0.005	-0.005	0.000	0.000	0.015	0.029	1.753	1.094	1.099	1.094	1.113	1.094	1.108
-0.005	0.010	-0.005	0.000	-0.063	0.015	0.034	1.763	1.094	1.099	1.094	1.108	1.079	1.099
0.000	0.005	0.000	-0.005	-0.073	0.000	0.034	1.782	1.104	1.099	1.094	1.113	1.089	1.094
-0.010	0.005	0.000	-0.005	-0.068	0.015	0.034	1.733	1.094	1.099	1.094	1.108	1.094	1.094
-0.005	0.010	0.000	0.000	-0.049	0.010	0.034	1.753	1.094	1.099	1.099	1.113	1.104	1.094
0.000	0.015	0.000	0.000	-0.039	0.000	0.034	1.763	1.094	1.099	1.099	1.113	1.108	1.094
-0.005	0.020	0.000	-0.005	-0.029	0.010	0.034	1.753	1.094	1.099	1.099	1.113	1.108	1.104
-0.010	0.010	0.000	0.000	-0.015	-0.015	0.029	1.777	1.094	1.094	1.099	1.113	1.113	1.099
-0.005	0.015	0.000	0.000	-0.049	0.005	0.029	1.782	1.099	1.094	1.094	1.113	1.104	1.099
0.000	0.005	0.000	0.005	-0.039	-0.015	0.029	1.772	1.094	1.094	1.094	1.113	1.108	1.099
0.000	-0.005	0.000	0.000	-0.029	-0.005	0.029	1.782	1.099	1.089	1.094	1.113	1.113	1.104
-0.005	0.005	0.000	0.000	0.000	-0.024	0.029	1.753	1.094	1.094	1.094	1.113	1.118	1.104
0.000	0.005	0.000	0.000	-0.005	-0.010	0.029	1.768	1.099	1.094	1.094	1.113	1.113	1.113
-0.005	0.000	-0.005	-0.005	0.000	0.005	0.029	1.748	1.094	1.094	1.089	1.113	1.113	1.113
0.000	-0.010	0.000	0.000	0.000	0.005	0.029	1.709	1.094	1.094	1.094	1.108	1.113	1.113
-0.005	-0.005	0.000	0.000	0.010	0.005	0.034	1.797	1.099	1.094	1.089	1.113	1.108	1.113
0.000	-0.010	0.000	0.000	0.005	0.000	0.034	1.782	1.099	1.099	1.094	1.108	1.108	1.108
0.000	0.005	0.000	0.000	-0.005	-0.005	0.029	1.787	1.099	1.094	1.094	1.108	1.104	1.104
-0.005	-0.005	-0.005	0.005	-0.015	0.000	0.029	1.768	1.108	1.094	1.094	1.108	1.104	1.104
-0.005	-0.005	-0.005	0.000	-0.015	-0.005	0.034	1.748	1.108	1.099	1.094	1.108	1.104	1.104
-0.005	0.015	-0.005	-0.005	-0.024	0.005	0.029	1.777	1.108	1.104	1.094	1.108	1.099	1.108
-0.010	0.005	-0.005	-0.005	-0.020	0.005	0.034	1.772	1.108	1.099	1.094	1.108	1.104	1.104
-0.010	0.000	0.000	-0.005	-0.005	0.020	0.029	1.807	1.108	1.099	1.099	1.113	1.108	1.108
-0.005	-0.005	-0.005	-0.005	0.005	0.005	0.034	1.763	1.099	1.099	1.099	1.113	1.113	1.108
-0.010	-0.029	-0.005	-0.005	0.005	0.000	0.029	1.802	1.099	1.094	1.094	1.113	1.108	1.104
-0.005	-0.029	0.005	-0.005	0.005	-0.015	0.029	1.758	1.099	1.094	1.094	1.113	1.113	1.099
0.000	-0.020	-0.005	0.000	0.015	0.000	0.029	1.787	1.099	1.099	1.099	1.113	1.113	1.108
0.000	-0.010	-0.005	0.000	-0.005	-0.005	0.029	1.758	1.104	1.104	1.094	1.118	1.108	1.104
0.010	0.015	0.000	0.000	-0.015	-0.005	0.029	1.787	1.108	1.108	1.104	1.113	1.104	1.108
0.000	0.010	-0.005	0.000	-0.024	0.000	0.029	1.787	1.104	1.108	1.099	1.118	1.104	1.108
0.000	0.054	-0.005	0.000	-0.024	-0.005	0.029	1.758	1.094	1.113	1.104	1.118	1.108	1.104
0.000	0.005	0.000	0.005	-0.015	-0.039	0.029	1.792	1.099	1.094	1.104	1.118	1.108	1.094
0.000	-0.029	-0.005	0.000	0.010	-0.015	0.029	1.787	1.094	1.089	1.094	1.118	1.118	1.108
-0.005	-0.020	0.000	-0.005	0.034	-0.029	0.029	1.797	1.099	1.089	1.094	1.118	1.123	1.108
-0.005	-0.024	0.000	0.000	0.020	0.010	0.029	1.763	1.099	1.089	1.094	1.113	1.118	1.118
0.000	-0.010	0.000	-0.005	0.005	0.020	0.029	1.797	1.104	1.094	1.094	1.113	1.108	1.118
0.000	0.000	-0.005	-0.005	-0.005	0.015	0.029	1.787	1.104	1.099	1.094	1.113	1.108	1.113
0.000	-0.005	0.000	0.000	0.015	0.020	0.029	1.807	1.104	1.099	1.099	1.113	1.108	1.113
0.000	0.010	0.000	0.000	-0.020	0.015	0.029	1.748	1.099	1.104	1.099	1.113	1.104	1.108
-0.005	0.010	0.000	0.005	-0.049	0.015	0.034	1.753	1.099	1.104	1.099	1.113	1.099	1.104
-0.010	0.020	0.000	-0.005	-0.010	-0.010	0.034	1.787	1.094	1.104	1.099	1.113	1.113	1.104
-0.005	-0.005	0.000	0.000	0.034	-0.020	0.029	1.738	1.094	1.094	1.099	1.118	1.123	1.104
0.005	-0.005	-0.005	0.000	0.039	-0.024	0.034	1.782	1.099	1.094	1.094	1.113	1.118	1.108
-0.005	0.010	0.000	-0.005	0.005	-0.015	0.029	1.787	1.099	1.099	1.099	1.118	1.108	1.113
-0.005	0.029	0.005	0.000	0.005	0.005	0.034	1.787	1.104	1.104	1.099	1.118	1.113	1.113
0.000	0.005	0.005	0.000	0.010	0.010	0.029	1.787	1.099	1.099	1.099	1.118	1.113	1.113
0.000	-0.005	0.000	-0.005	-0.010	0.005	0.029	1.797	1.104	1.099	1.094	1.113	1.108	1.113
0.000	-0.015	-0.005	0.000	-0.005	0.015	0.029	1.792	1.108	1.094	1.094	1.113	1.113	1.113
-0.005	-0.020	-0.005	-0.005	0.000	0.015	0.029	1.797	1.108	1.099	1.094	1.113	1.113	1.108
-0.005	-0.015	0.000	0.000	0.000	0.005	0.034	1.738	1.099	1.099	1.099	1.118	1.113	1.108
-0.005	-0.034	0.000	0.000	0.015	0.015	0.034	1.763	1.099	1.094	1.094	1.113	1.113	1.113
0.000	-0.039	-0.005	-0.005	0.005	0.005	0.034	1.802	1.104	1.089	1.094	1.113	1.108	1.108
0.005	-0.029	-0.005	0.005	-0.020	-0.010	0.029	1.768	1.104	1.099	1.094	1.113	1.104	1.099
0.005	0.000	-0.005	0.000	-0.029	-0.044	0.034	1.748	1.099	1.108	1.099	1.108	1.104	1.089
0.000	-0.010	-0.005	0.000	-0.034	-0.049	0.034	1.758	1.094	1.099	1.099	1.113	1.104	1.094
0.000	-0.005	-0.005	0.000	-0.010	-0.039	0.034	1.777	1.094	1.099	1.094	1.113	1.108	1.099
0.005	0.000	-0.005	-0.005	0.015	-0.044	0.029	1.748	1.094	1.099	1.099	1.113	1.118	1.104
-0.005	0.029	-0.005	0.000	0.015	-0.005	0.034	1.777	1.094	1.104	1.104	1.113	1.118	1.118
0.000	0.039	0.000	-0.005	0.029	0.000	0.029	1.802	1.104	1.108	1.104	1.118	1.118	1.118
0.000	0.010	0.005	0.000	0.015	0.005	0.029	1.748	1.099	1.094	1.104	1.118	1.113	1.118
0.000	0.005	0.000	0.000	0.005	0.000	0.029	1.787	1.104	1.094	1.099	1.118	1.113	1.113
0.000	0.005	0.000	0.000	0.000	0.020	0.034	1.753	1.099	1.099	1.099	1.118	1.113	1.113
0.000	-0.005	-0.010	0.000	-0.005	0.024	0.029	1.797	1.099	1.094	1.094	1.113	1.108	1.118
-0.005	-0.015	-0.005	0.000	-0.044	0.010	0.034	1.768	1.099	1.094	1.094	1.113	1.099	1.108
-0.010	-0.034	-0.005	0.000	-0.039	0.005	0.034	1.772	1.099	1.089	1.094	1.113	1.104	1.104
0.005	-0.029	-0.005	0.000	-0.020	0.005	0.034	1.797	1.108	1.094	1.089	1.113	1.113	1.104
0.005	-0.005	0.000	0.000	-0.015	0.000	0.029	1.792	1.108	1.104	1.099	1.113	1.108	1.108
0.000	0.010	0.000	0.005	-0.029	0.010	0.029	1.777	1.104	1.104	1.099	1.113	1.108	1.108
0.005	0.010	0.005	0.005	-0.020	0.020	0.029	1.787	1.104	1.108	1.099	1.118	1.113	1.113
0.005	0.005	0.000	0.000	0.024	0.020	0.029	1.802	1.104	1.104	1.104	1.118	1.123	1.113
-0.005	0.010	-0.005	0.000	0.039	0.020	0.029	1.729	1.104	1.104	1.099	1.118	1.123	1.118
-0.010	0.010	-0.005	0.000	0.034	0.015	0.034	1.758	1.099	1.104	1.099	1.118	1.118	1.113
0.000	0.000	0.000	0.000	0.039	0.015	0.034	1.777	1.099	1.099	1.104	1.118	1.118	1.118
0.010	0.000	0.000	0.000	0.029	0.020	0.029	1.797	1.104	1.099	1.099	1.118	1.113	1.113
0.000	-0.010	0.000	0.000	0.029	0.010	0.034	1.797	1.104	1.099	1.099	1.118	1.113	1.113
0.000	-0.005	0.005	0.005	0.010	0.005	0.034	1.719	1.099	1.099	1.099	1.118	1.108	1.108
0.005	0.000	-0.005	0.000	0.000	-0.024	0.029	1.797	1.104	1.099	1.099	1.118	1.104	1.104
0.010	-0.005	0.005	0.000	-0.015	0.000	0.034	1.748	1.099	1.104	1.099	1.113	1.104	1.104
-0.005	-0.005	0.000	-0.005	-0.010	-0.020	0.029	1.792	1.094	1.094	1.099	1.118	1.104	1.104
0.000	-0.005	0.000	0.005	-0.005	-0.020	0.034	1.787	1.099	1.099	1.099	1.118	1.113	1.104
0.005	0.000	0.000	0.000	0.005	0.005	0.029	1.753	1.094	1.099	1.099	1.113	1.113	1.113
0.000	0.000	0.000	-0.005	0.020	0.015	0.029	1.782	1.099	1.099	1.094	1.113	1.118	1.113
0.000	0.000	-0.005	-0.005	0.020	-0.015	0.029	1.704	1.089	1.099	1.094	1.113	1.113	1.104
-0.005	0.010	-0.005	-0.005	0.015	-0.020	0.029	1.709	1.084	1.094	1.094	1.113	1.108	1.108
-0.015	0.005	0.000	-0.005	-0.005	-0.015	0.034	1.772	1.089	1.094	1.094	1.113	1.104	1.108
0.000	0.005	-0.005	-0.005	-0.005	-0.020	0.029	1.743	1.084	1.089	1.089	1.113	1.104	1.104
-0.005	0.005	0.000	0.000	-0.010	-0.029	0.029	1.787	1.089	1.089	1.089	1.113	1.104	1.104
-0.010	-0.010	0.000	0.000	0.005	-0.010	0.029	1.797	1.094	1.084	1.089	1.113	1.108	1.108
-0.010	-0.010	0.000	0.000	-0.020	-0.010	0.034	1.812	1.108	1.089	1.089	1.108	1.104	1.104
0.000	-0.005	0.000	0.005	-0.010	0.000	0.029	1.792	1.104	1.094	1.089	1.108	1.108	1.108
-0.005	0.005	-0.005	0.000	-0.010	-0.020	0.034	1.797	1.104	1.099	1.094	1.108	1.104	1.104
0.005	0.000	0.005	0.005	-0.005	0.020	0.034	1.782	1.108	1.099	1.094	1.113	1.108	1.113
0.000	0.000	0.000	0.005	0.005	0.015	0.034	1.753	1.104	1.099	1.094	1.113	1.108	1.113
0.005	0.000	-0.005	0.005	-0.005	0.015	0.034	1.802	1.108	1.099	1.094	1.113	1.108	1.113
0.010	0.005	-0.005	0.000	-0.005	0.000	0.034	1.763	1.104	1.104	1.099	1.113	1.108	1.104
0.000	-0.005	0.000	0.000	-0.020	-0.020	0.029	1.729	1.094	1.099	1.099	1.113	1.104	1.099
-0.010	-0.005	0.005	0.000	-0.034	0.010	0.029	1.733	1.089	1.094	1.099	1.113	1.104	1.104
-0.005	0.000	0.005	-0.005	-0.024	0.005	0.029	1.777	1.094	1.094	1.094	1.113	1.104	1.104
-0.010	-0.005	0.005	0.000	-0.020	0.005	0.034	1.797	1.099	1.094	1.094	1.113	1.108	1.108
-0.005	0.000	0.000	0.000	-0.015	0.010	0.029	1.772	1.104	1.099	1.094	1.113	1.113	1.104
-0.010	-0.010	-0.005	0.005	-0.005	0.010	0.029	1.782	1.099	1.094	1.094	1.113	1.113	1.108
0.015	-0.010	0.000	0.005	0.000	0.005	0.029	1.743	1.104	1.094	1.094	1.113	1.113	1.108
0.005	-0.010	-0.005	0.000	0.010	0.000	0.034	1.777	1.099	1.094	1.094	1.108	1.113	1.108
0.000	-0.010	0.000	0.000	0.010	-0.020	0.034	1.812	1.104	1.094	1.094	1.113	1.108	1.104
0.000	0.000	-0.005	-0.005	0.010	0.000	0.034	1.748	1.099	1.099	1.094	1.108	1.108	1.108
0.000	0.000	-0.020	-0.010	0.005	-0.005	0.029	1.782	1.099	1.099	1.094	1.108	1.108	1.108
0.000	0.010	-0.024	-0.005	0.005	0.000	0.034	1.729	1.094	1.099	1.094	1.108	1.108	1.104
0.000	0.010	-0.024	-0.005	0.015	0.000	0.034	1.777	1.094	1.099	1.094	1.108	1.108	1.108
-0.020	0.010	-0.010	-0.010	0.010	-0.005	0.034	1.797	1.094	1.094	1.099	1.113	1.104	1.104
-0.005	0.005	0.010	0.000	-0.005	-0.015	0.034	1.763	1.099	1.094	1.104	1.113	1.104	1.104
0.005	0.000	0.015	0.000	-0.005	-0.020	0.029	1.777	1.099	1.094	1.104	1.118	1.104	1.104
0.005	0.000	0.024	-0.005	-0.005	0.000	0.034	1.753	1.099	1.094	1.099	1.118	1.108	1.108
-0.005	-0.005	0.024	-0.010	0.000	-0.010	0.029	1.738	1.094	1.094	1.099	1.118	1.113	1.108
-0.005	-0.010	0.024	0.000	-0.005	0.015	0.034	1.782	1.094	1.089	1.094	1.118	1.113	1.113
0.000	0.000	0.015	0.000	0.015	0.015	0.029	1.792	1.099	1.094	1.094	1.118	1.118	1.113
0.000	-0.010	0.015	0.005	0.015	0.000	0.029	1.797	1.108	1.094	1.094	1.118	1.113	1.108
-0.010	-0.005	0.005	0.005	0.005	0.015	0.029	1.758	1.099	1.094	1.094	1.113	1.113	1.113
-0.010	-0.010	-0.005	0.005	0.015	0.000	0.029	1.812	1.099	1.094	1.089	1.113	1.113	1.108
-0.005	-0.005	0.000	0.005	0.015	-0.010	0.034	1.748	1.094	1.094	1.089	1.108	1.108	1.108
-0.010	-0.015	-0.010	0.000	0.010	0.000	0.034	1.802	1.099	1.089	1.089	1.108	1.104	1.108
0.000	-0.010	-0.005	0.005	0.000	-0.020	0.034	1.738	1.094	1.094	1.089	1.108	1.104	1.104
0.000	-0.010	-0.005	0.000	-0.005	-0.015	0.029	1.777	1.094	1.094	1.089	1.108	1.099	1.104
0.005	-0.020	-0.010	0.000	-0.015	0.010	0.034	1.753	1.094	1.089	1.089	1.104	1.099	1.108
0.005	0.000	-0.005	-0.010	-0.010	0.015	0.034	1.782	1.099	1.094	1.094	1.108	1.104	1.108
0.000	-0.005	-0.005	-0.005	-0.015	0.005	0.029	1.753	1.094	1.094	1.094	1.108	1.099	1.104
0.010	-0.005	-0.010	-0.005	-0.020	0.005	0.034	1.753	1.089	1.094	1.089	1.108	1.099	1.099
0.005	0.010	-0.015	-0.005	-0.024	0.000	0.029	1.797	1.099	1.099	1.094	1.108	1.099	1.104
0.005	0.034	-0.010	0.000	-0.020	-0.005	0.029	1.768	1.099	1.104	1.099	1.113	1.104	1.099
0.000	0.020	-0.005	-0.005	-0.010	-0.015	0.029	1.792	1.104	1.099	1.099	1.113	1.108	1.099
0.015	0.000	-0.005	-0.005	-0.005	0.005	0.029	1.753	1.104	1.094	1.099	1.113	1.113	1.104
0.024	-0.015	-0.005	0.000	0.005	0.015	0.034	1.772	1.123	1.099	1.099	1.118	1.113	1.108
0.010	-0.005	-0.020	-0.005	0.015	0.000	0.029	1.772	1.113	1.104	1.094	1.118	1.118	1.108
0.005	-0.005	-0.039	0.000	0.015	0.005	0.034	1.729	1.104	1.104	1.089	1.113	1.118	1.108
-0.015	-0.005	-0.034	-0.005	0.020	0.010	0.034	1.777	1.094	1.099	1.094	1.113	1.113	1.113
-0.020	-0.010	-0.005	0.000	0.015	0.020	0.029	1.777	1.094	1.094	1.104	1.113	1.113	1.113
-0.020	-0.005	0.020	0.005	0.010	0.005	0.034	1.792	1.094	1.099	1.108	1.123	1.108	1.108
-0.024	0.015	0.044	0.015	-0.005	0.005	0.029	1.729	1.089	1.099	1.108	1.123	1.108	1.108
-0.015	0.005	0.049	0.010	-0.015	-0.020	0.029	1.792	1.099	1.099	1.108	1.123	1.108	1.099
-0.005	0.005	0.039	0.010	-0.044	-0.005	0.029	1.802	1.104	1.099	1.099	1.123	1.104	1.104
-0.010	0.000	0.020	-0.005	-0.029	-0.015	0.034	1.782	1.099	1.094	1.094	1.118	1.108	1.104
-0.010	0.000	0.005	-0.010	-0.020	-0.010	0.029	1.758	1.099	1.094	1.089	1.108	1.113	1.108
0.000	0.005	-0.020	-0.020	-0.039	-0.005	0.029	1.792	1.099	1.099	1.084	1.104	1.104	1.104
0.005	0.005	-0.015	-0.024	-0.044	-0.005	0.029	1.782	1.104	1.099	1.089	1.108	1.104	1.104
0.000	0.000	-0.020	-0.015	-0.039	-0.024	0.034	1.748	1.099	1.099	1.094	1.108	1.104	1.099
0.015	0.000	-0.015	-0.005	-0.010	-0.024	0.034	1.782	1.108	1.099	1.099	1.108	1.113	1.104
0.010	-0.010	-0.015	-0.005	0.024	-0.015	0.029	1.772	1.104	1.094	1.094	1.118	1.118	1.108
0.010	-0.005	-0.010	0.010	0.020	-0.029	0.034	1.753	1.099	1.099	1.099	1.118	1.118	1.108
0.005	-0.015	-0.005	0.015	0.034	0.000	0.034	1.772	1.099	1.099	1.099	1.118	1.123	1.123
-0.039	-0.005	0.000	0.005	0.049	-0.010	0.029	1.787	1.089	1.094	1.099	1.118	1.123	1.118
-0.044	-0.010	0.000	0.005	0.063	-0.005	0.029	1.777	1.094	1.089	1.094	1.118	1.128	1.123
-0.020	-0.020	0.005	0.010	0.049	0.024	0.029	1.748	1.099	1.094	1.094	1.113	1.118	1.128
0.000	-0.024	0.015	0.005	0.024	0.039	0.034	1.797	1.108	1.094	1.099	1.113	1.108	1.128
0.015	-0.020	0.005	0.000	-0.010	0.034	0.034	1.777	1.118	1.099	1.094	1.113	1.099	1.113
0.034	-0.005	0.000	0.010	-0.015	0.024	0.034	1.758	1.113	1.108	1.094	1.113	1.099	1.108
0.024	0.005	0.000	0.010	0.000	0.005	0.029	1.724	1.099	1.108	1.099	1.113	1.108	1.104
0.020	0.029	0.000	0.015	0.034	-0.015	0.034	1.763	1.099	1.113	1.104	1.118	1.118	1.104
0.005	0.044	-0.010	-0.005	0.054	-0.005	0.029	1.807	1.099	1.108	1.104	1.118	1.123	1.108
0.005	0.010	-0.010	-0.010	0.054	-0.024	0.034	1.782	1.094	1.094	1.099	1.113	1.118	1.108
-0.005	-0.005	-0.010	-0.024	0.063	-0.020	0.029	1.768	1.089	1.089	1.099	1.108	1.118	1.113
-0.010	-0.010	-0.010	-0.039	0.034	-0.020	0.029	1.812	1.099	1.089	1.094	1.108	1.104	1.108
-0.010	-0.024	-0.005	-0.034	0.044	-0.015	0.034	1.748	1.094	1.089	1.094	1.108	1.108	1.108
0.000	-0.024	-0.005	-0.024	0.059	-0.015	0.034	1.802	1.104	1.094	1.094	1.113	1.113	1.108
0.010	-0.005	-0.005	-0.005	-0.020	0.000	0.029	1.743	1.099	1.099	1.094	1.118	1.094	1.108
0.010	0.024	-0.005	0.015	-0.020	0.015	0.029	1.807	1.108	1.108	1.099	1.123	1.099	1.108
0.000	0.020	-0.005	0.020	-0.034	0.015	0.029	1.797	1.104	1.104	1.099	1.123	1.099	1.108
-0.015	0.020	0.005	0.020	-0.054	0.024	0.029	1.748	1.094	1.104	1.099	1.123	1.104	1.108
-0.005	-0.020	0.010	0.015	-0.063	0.020	0.034	1.763	1.099	1.089	1.094	1.118	1.104	1.104
-0.005	-0.063	0.010	0.010	-0.054	0.015	0.034	1.729	1.099	1.079	1.089	1.118	1.104	1.099
0.005	-0.063	0.000	0.005	-0.078	0.005	0.029	1.782	1.104	1.089	1.084	1.108	1.099	1.099
0.010	-0.039	0.005	-0.005	-0.117	0.024	0.034	1.797	1.108	1.099	1.089	1.108	1.089	1.099
0.010	-0.005	0.000	-0.005	-0.063	0.015	0.034	1.772	1.099	1.104	1.094	1.108	1.108	1.104
0.015	0.000	-0.005	-0.005	-0.015	0.005	0.034	1.787	1.104	1.108	1.094	1.113	1.118	1.104
-0.005	0.015	-0.005	0.000	0.000	0.010	0.029	1.802	1.099	1.108	1.099	1.118	1.118	1.113
0.000	0.034	-0.010	0.005	-0.015	0.020	0.034	1.733	1.094	1.108	1.104	1.113	1.113	1.113
-0.005	0.029	-0.010	0.000	-0.029	0.010	0.029	1.777	1.094	1.099	1.104	1.118	1.108	1.108
-0.005	0.034	-0.005	0.010	-0.020	0.000	0.034	1.763	1.094	1.099	1.104	1.118	1.113	1.108
-0.015	-0.005	-0.005	0.010	-0.005	-0.015	0.034	1.772	1.094	1.084	1.094	1.123	1.118	1.104
-0.010	-0.020	0.005	0.005	0.005	-0.054	0.029	1.772	1.089	1.089	1.094	1.118	1.118	1.099
-0.010	0.020	0.005	0.000	0.020	-0.024	0.029	1.802	1.094	1.094	1.094	1.113	1.118	1.113
-0.010	0.005	0.005	0.000	0.024	-0.034	0.029	1.782	1.099	1.094	1.094	1.118	1.118	1.108
-0.010	-0.005	0.010	0.000	0.010	-0.073	0.034	1.772	1.099	1.094	1.094	1.113	1.108	1.099
-0.005	0.000	0.010	-0.005	-0.010	-0.063	0.029	1.797	1.099	1.094	1.094	1.113	1.104	1.104
-0.005	0.000	0.005	-0.005	0.005	-0.029	0.034	1.797	1.104	1.094	1.094	1.113	1.113	1.118
0.005	0.010	0.005	0.000	0.024	-0.020	0.029	1.748	1.099	1.104	1.094	1.113	1.118	1.118
0.005	0.029	-0.005	-0.005	0.029	-0.005	0.029	1.787	1.104	1.104	1.099	1.113	1.113	1.123
0.000	0.024	0.000	-0.005	0.044	0.020	0.034	1.807	1.104	1.099	1.099	1.113	1.118	1.123
0.000	0.005	-0.005	0.000	0.049	0.020	0.034	1.748	1.099	1.094	1.094	1.113	1.118	1.128
0.000	-0.020	0.000	0.000	0.049	0.000	0.034	1.768	1.099	1.089	1.094	1.113	1.113	1.113
0.010	-0.005	-0.005	-0.005	0.034	0.010	0.034	1.797	1.108	1.099	1.094	1.113	1.108	1.113
0.010	0.005	0.000	0.000	0.015	0.015	0.034	1.772	1.108	1.099	1.094	1.113	1.104	1.108
0.005	-0.010	-0.005	-0.005	0.024	0.005	0.029	1.733	1.094	1.094	1.094	1.108	1.108	1.108
0.000	-0.015	-0.005	-0.005	0.020	0.005	0.029	1.763	1.094	1.094	1.094	1.108	1.104	1.108
-0.005	-0.020	0.005	0.000	0.010	0.015	0.034	1.772	1.099	1.094	1.094	1.113	1.104	1.108
-0.005	-0.024	0.000	0.000	-0.005	0.010	0.034	1.763	1.099	1.094	1.094	1.108	1.099	1.104
0.000	-0.010	-0.005	0.000	-0.020	-0.010	0.029	1.758	1.094	1.099	1.094	1.108	1.099	1.099
-0.005	0.020	-0.005	-0.005	-0.020	0.015	0.034	1.802	1.104	1.108	1.094	1.113	1.104	1.104
-0.015	0.044	-0.005	-0.005	-0.015	0.005	0.034	1.797	1.108	1.113	1.099	1.113	1.104	1.099
-0.005	0.054	-0.005	0.000	-0.024	0.015	0.029	1.768	1.099	1.113	1.104	1.118	1.104	1.104
-0.005	0.063	0.000	-0.005	-0.020	0.010	0.029	1.787	1.099	1.108	1.108	1.118	1.108	1.104
-0.010	0.010	0.000	0.000	-0.010	0.010	0.034	1.807	1.099	1.089	1.099	1.123	1.113	1.104
-0.010	-0.024	0.000	0.000	-0.010	-0.010	0.034	1.802	1.104	1.084	1.094	1.118	1.113	1.099
0.000	-0.024	-0.005	0.005	-0.010	0.010	0.029	1.763	1.104	1.084	1.094	1.113	1.113	1.108
0.010	-0.020	-0.005	0.000	-0.010	-0.005	0.029	1.772	1.104	1.094	1.089	1.113	1.108	1.108
0.010	0.063	-0.005	0.000	-0.010	-0.010	0.034	1.758	1.104	1.118	1.099	1.113	1.108	1.104
0.010	-0.010	0.000	0.005	0.000	-0.029	0.029	1.729	1.099	1.094	1.094	1.113	1.113	1.104
0.010	-0.063	-0.005	0.005	0.000	-0.005	0.034	1.792	1.094	1.074	1.094	1.113	1.113	1.113
-0.005	-0.039	0.000	0.000	-0.005	-0.020	0.034	1.709	1.089	1.084	1.089	1.113	1.108	1.104
0.005	-0.020	0.000	0.000	0.000	0.000	0.034	1.763	1.094	1.094	1.094	1.108	1.108	1.108
-0.005	-0.010	0.000	0.000	0.000	0.010	0.029	1.787	1.094	1.094	1.094	1.113	1.108	1.113
-0.005	0.005	-0.005	-0.005	-0.005	0.010	0.029	1.768	1.094	1.099	1.094	1.108	1.108	1.108
0.010	-0.024	-0.010	0.005	-0.005	-0.020	0.029	1.714	1.089	1.089	1.089	1.113	1.108	1.104
0.010	-0.024	-0.005	-0.005	0.000	0.000	0.034	1.802	1.099	1.094	1.094	1.108	1.108	1.108
0.000	-0.010	0.000	-0.005	-0.005	0.000	0.034	1.772	1.094	1.094	1.094	1.108	1.104	1.108
-0.005	-0.010	0.000	0.000	-0.005	-0.005	0.029	1.733	1.094	1.094	1.094	1.113	1.108	1.108
-0.015	0.039	0.000	0.000	-0.005	-0.005	0.034	1.792	1.094	1.104	1.094	1.113	1.108	1.104
-0.010	0.020	0.005	0.000	0.000	-0.005	0.034	1.772	1.094	1.099	1.094	1.113	1.108	1.108
-0.020	0.010	0.000	0.000	-0.010	-0.020	0.034	1.797	1.079	1.089	1.094	1.113	1.108	1.104
-0.010	-0.005	0.000	0.000	-0.005	0.000	0.034	1.782	1.084	1.079	1.089	1.108	1.108	1.108
-0.005	0.000	-0.005	-0.005	-0.010	-0.005	0.034	1.797	1.094	1.089	1.089	1.108	1.104	1.104
-0.005	-0.005	0.000	0.000	0.005	0.010	0.034	1.777	1.094	1.089	1.089	1.108	1.108	1.113
0.000	-0.010	0.005	0.000	0.005	0.005	0.034	1.787	1.099	1.089	1.089	1.108	1.108	1.108
0.005	-0.010	-0.005	0.000	0.000	-0.005	0.029	1.758	1.099	1.089	1.084	1.108	1.104	1.104
0.010	-0.029	-0.005	0.000	0.005	0.005	0.029	1.787	1.099	1.089	1.084	1.104	1.104	1.108
0.000	-0.020	-0.005	-0.005	0.000	-0.010	0.029	1.768	1.099	1.094	1.089	1.104	1.099	1.099
0.000	-0.010	-0.005	0.000	-0.005	0.005	0.034	1.724	1.094	1.099	1.089	1.104	1.099	1.104
0.000	0.005	-0.005	-0.005	0.000	0.000	0.034	1.797	1.094	1.099	1.094	1.108	1.104	1.104
-0.005	0.029	0.005	0.000	0.000	0.000	0.029	1.797	1.099	1.108	1.099	1.108	1.104	1.099
-0.010	0.054	0.005	0.000	0.010	-0.005	0.029	1.787	1.104	1.108	1.104	1.113	1.104	1.099
-0.010	0.010	0.005	0.000	0.005	0.000	0.034	1.777	1.104	1.094	1.099	1.113	1.108	1.104
-0.010	-0.034	-0.005	0.000	0.000	0.005	0.029	1.782	1.099	1.084	1.094	1.113	1.108	1.108
0.000	-0.029	-0.005	0.000	0.005	-0.005	0.034	1.777	1.104	1.089	1.089	1.113	1.104	1.104
-0.005	-0.005	-0.005	0.000	0.000	0.010	0.034	1.729	1.099	1.099	1.094	1.108	1.108	1.108
-0.015	0.005	-0.005	0.000	0.000	-0.015	0.029	1.763	1.094	1.094	1.094	1.113	1.104	1.099
0.000	0.015	0.000	0.000	-0.015	-0.015	0.034	1.758	1.099	1.099	1.094	1.113	1.104	1.099
0.005	-0.015	-0.005	-0.005	-0.010	-0.005	0.034	1.787	1.099	1.089	1.094	1.113	1.104	1.104
-0.005	-0.015	0.000	0.000	0.005	0.000	0.034	1.812	1.099	1.094	1.094	1.108	1.108	1.104
0.000	-0.010	-0.005	-0.005	0.000	-0.010	0.029	1.787	1.099	1.094	1.094	1.108	1.108	1.104
0.000	-0.005	-0.005	0.000	0.000	-0.010	0.029	1.802	1.104	1.099	1.094	1.113	1.104	1.104
0.010	-0.005	-0.005	0.000	-0.010	-0.010	0.029	1.787	1.099	1.099	1.099	1.108	1.104	1.104
0.005	0.015	-0.005	-0.005	-0.020	-0.024	0.029	1.772	1.099	1.099	1.099	1.113	1.104	1.094
-0.005	0.010	0.000	-0.005	-0.010	0.000	0.034	1.787	1.099	1.104	1.099	1.113	1.108	1.108
0.005	0.020	-0.005	-0.005	0.000	0.005	0.029	1.768	1.099	1.099	1.099	1.113	1.113	1.108
0.005	0.015	-0.005	0.000	0.010	0.010	0.029	1.763	1.094	1.094	1.099	1.118	1.113	1.113
0.010	0.000	0.000	0.000	0.005	0.010	0.029	1.743	1.094	1.094	1.099	1.118	1.113	1.113
-0.005	0.005	0.000	-0.005	0.010	0.010	0.029	1.816	1.094	1.094	1.094	1.118	1.113	1.113
-0.005	-0.010	0.000	0.000	0.020	0.000	0.029	1.782	1.099	1.089	1.094	1.118	1.113	1.113
-0.005	0.000	0.000	-0.005	0.015	0.015	0.029	1.758	1.094	1.094	1.094	1.113	1.113	1.113
0.000	0.000	0.000	0.000	0.005	0.015	0.029	1.802	1.104	1.094	1.094	1.113	1.108	1.113
-0.010	-0.010	0.005	-0.005	-0.010	0.000	0.029	1.802	1.104	1.094	1.094	1.113	1.104	1.104
0.000	-0.015	-0.005	-0.005	-0.005	0.000	0.029	1.729	1.099	1.094	1.094	1.108	1.108	1.104
0.005	-0.010	0.005	0.000	-0.005	0.005	0.029	1.797	1.128	1.099	1.094	1.113	1.108	1.104
0.000	0.000	0.005	0.000	-0.020	0.000	0.034	1.792	1.123	1.108	1.099	1.113	1.104	1.108
-0.010	0.024	0.005	0.000	-0.029	0.000	0.029	1.782	1.108	1.118	1.104	1.113	1.099	1.104
-0.010	0.005	0.005	0.000	-0.059	-0.010	0.029	1.733	1.099	1.104	1.104	1.113	1.099	1.099
0.000	-0.044	0.005	0.000	-0.059	0.010	0.029	1.777	1.099	1.089	1.094	1.113	1.104	1.104
0.000	-0.034	0.000	0.005	-0.049	0.010	0.034	1.729	1.094	1.094	1.099	1.118	1.108	1.108
-0.005	-0.005	0.000	0.000	-0.054	0.005	0.034	1.782	1.099	1.104	1.099	1.118	1.104	1.104
-0.005	0.005	0.000	0.005	-0.034	-0.010	0.029	1.772	1.094	1.104	1.099	1.118	1.113	1.099
0.005	0.000	0.000	0.000	-0.039	-0.020	0.034	1.748	1.084	1.094	1.099	1.113	1.108	1.104
0.015	0.029	-0.015	-0.005	-0.015	-0.015	0.034	1.772	1.099	1.108	1.099	1.118	1.118	1.104
0.000	0.024	-0.005	-0.005	0.010	-0.020	0.034	1.782	1.094	1.099	1.099	1.118	1.123	1.113
0.000	0.059	-0.005	0.005	0.015	-0.029	0.034	1.758	1.094	1.113	1.104	1.123	1.123	1.108
0.000	0.039	-0.005	0.005	0.020	-0.020	0.034	1.782	1.094	1.094	1.099	1.118	1.123	1.118
-0.010	-0.029	-0.005	-0.005	0.020	-0.024	0.034	1.797	1.094	1.079	1.094	1.118	1.118	1.113
0.000	-0.029	0.005	0.000	0.015	-0.010	0.034	1.714	1.099	1.084	1.094	1.113	1.118	1.123
0.005	-0.010	-0.005	0.000	0.107	0.015	0.034	1.792	1.099	1.094	1.094	1.118	1.143	1.133
-0.005	0.000	-0.005	0.000	0.112	0.020	0.029	1.738	1.099	1.099	1.089	1.113	1.133	1.133
0.000	-0.005	-0.005	0.000	0.103	0.005	0.029	1.787	1.104	1.094	1.094	1.113	1.123	1.128
0.000	-0.010	0.000	-0.005	0.137	0.010	0.034	1.743	1.099	1.099	1.094	1.113	1.133	1.128
0.000	0.000	0.005	-0.005	0.181	0.005	0.034	1.792	1.104	1.099	1.099	1.113	1.133	1.133
0.000	-0.015	0.005	-0.005	0.068	0.024	0.034	1.777	1.104	1.094	1.094	1.108	1.099	1.123
0.000	-0.010	0.000	0.000	0.024	0.015	0.034	1.802	1.104	1.099	1.094	1.108	1.084	1.108
0.000	0.010	0.000	0.000	-0.044	0.024	0.029	1.797	1.108	1.108	1.099	1.108	1.074	1.099
0.000	0.010	0.000	0.010	-0.063	0.024	0.029	1.772	1.104	1.108	1.099	1.113	1.079	1.094
-0.010	0.005	0.000	0.005	-0.073	0.015	0.029	1.758	1.094	1.099	1.099	1.113	1.084	1.089
-0.015	0.020	-0.005	0.000	-0.088	0.010	0.029	1.787	1.089	1.099	1.099	1.113	1.089	1.084
-0.015	0.020	0.005	0.000	-0.073	0.000	0.034	1.763	1.094	1.099	1.099	1.113	1.099	1.084
-0.020	0.024	0.000	0.000	-0.073	0.010	0.029	1.797	1.094	1.094	1.099	1.118	1.104	1.094
-0.005	0.020	0.000	-0.005	-0.073	-0.010	0.034	1.758	1.094	1.094	1.099	1.113	1.104	1.094
-0.005	0.024	-0.010	-0.005	-0.068	-0.010	0.029	1.777	1.099	1.094	1.094	1.113	1.104	1.094
0.005	-0.005	-0.005	0.000	-0.039	-0.020	0.034	1.738	1.089	1.089	1.094	1.113	1.118	1.099
-0.005	-0.034	0.000	0.000	-0.024	-0.034	0.034	1.802	1.094	1.074	1.094	1.113	1.118	1.099
0.015	-0.039	0.005	0.000	-0.034	-0.049	0.034	1.689	1.089	1.079	1.089	1.108	1.113	1.099
0.005	-0.044	-0.005	0.000	-0.020	-0.024	0.034	1.738	1.084	1.079	1.079	1.108	1.113	1.108
0.000	-0.039	0.000	-0.005	-0.015	-0.029	0.029	1.797	1.089	1.084	1.084	1.104	1.108	1.108
0.010	0.024	0.000	-0.005	-0.015	-0.005	0.034	1.802	1.099	1.104	1.089	1.104	1.108	1.118
0.005	-0.020	0.000	-0.005	0.000	0.005	0.034	1.753	1.094	1.089	1.089	1.104	1.108	1.118
0.005	-0.024	0.010	0.000	-0.005	-0.005	0.034	1.807	1.099	1.089	1.089	1.104	1.104	1.108
0.005	0.005	0.000	0.000	-0.015	0.020	0.029	1.738	1.099	1.099	1.089	1.104	1.104	1.113
0.005	0.044	-0.005	-0.005	-0.020	-0.010	0.034	1.768	1.099	1.108	1.094	1.108	1.099	1.104
0.000	0.039	0.000	0.005	-0.005	0.010	0.034	1.782	1.104	1.104	1.094	1.113	1.108	1.108
-0.005	0.005	0.005	0.005	0.005	0.000	0.034	1.743	1.094	1.094	1.099	1.113	1.108	1.108
0.000	0.000	0.000	-0.005	0.005	0.010	0.034	1.772	1.099	1.094	1.094	1.113	1.108	1.108
0.000	0.005	0.005	0.000	0.010	0.015	0.034	1.772	1.104	1.099	1.099	1.113	1.108	1.108
-0.005	-0.010	0.000	0.000	0.000	0.000	0.034	1.777	1.099	1.094	1.094	1.113	1.104	1.104
0.000	-0.029	0.000	-0.005	-0.015	0.020	0.029	1.787	1.099	1.089	1.089	1.113	1.104	1.108
0.000	-0.039	-0.005	-0.005	-0.029	0.024	0.029	1.743	1.094	1.089	1.094	1.108	1.104	1.108
0.005	-0.029	0.005	0.000	-0.015	0.015	0.034	1.772	1.094	1.089	1.094	1.108	1.108	1.108
0.005	-0.015	0.000	-0.005	0.010	0.005	0.029	1.738	1.089	1.094	1.089	1.108	1.113	1.104
0.010	-0.015	0.000	0.000	0.029	0.010	0.034	1.729	1.089	1.099	1.094	1.113	1.118	1.113
0.005	0.010	-0.005	0.000	0.024	-0.005	0.029	1.787	1.094	1.099	1.094	1.108	1.108	1.104
-0.005	0.029	0.000	0.005	0.024	-0.010	0.034	1.797	1.094	1.104	1.099	1.113	1.108	1.104
-0.015	0.010	-0.005	0.000	0.029	-0.005	0.029	1.797	1.094	1.094	1.094	1.113	1.108	1.108
0.000	0.000	0.005	0.000	0.034	-0.034	0.034	1.772	1.099	1.094	1.094	1.113	1.108	1.099
0.000	-0.010	-0.005	-0.005	0.044	-0.015	0.034	1.777	1.104	1.094	1.089	1.108	1.113	1.108
-0.015	-0.005	-0.005	-0.005	0.044	-0.020	0.034	1.802	1.104	1.094	1.089	1.108	1.108	1.104
-0.005	-0.010	0.000	0.000	0.029	-0.015	0.034	1.772	1.104	1.094	1.094	1.108	1.108	1.108
0.005	0.010	-0.005	-0.005	0.010	-0.010	0.034	1.797	1.113	1.108	1.094	1.113	1.099	1.108
0.000	0.020	0.000	0.005	-0.010	0.000	0.029	1.758	1.108	1.108	1.099	1.113	1.099	1.104
-0.005	0.024	-0.010	0.000	-0.010	0.005	0.034	1.792	1.104	1.104	1.099	1.118	1.099	1.108
0.000	0.020	-0.010	0.000	-0.020	0.015	0.034	1.753	1.104	1.104	1.099	1.113	1.104	1.104
-0.005	0.020	-0.005	0.005	-0.024	0.015	0.029	1.753	1.099	1.099	1.104	1.118	1.104	1.104
-0.010	0.015	0.010	0.000	-0.010	-0.005	0.034	1.787	1.099	1.099	1.104	1.123	1.108	1.104
-0.005	-0.005	0.005	0.005	0.005	0.015	0.034	1.748	1.094	1.094	1.099	1.118	1.118	1.113
0.005	-0.020	0.005	0.000	0.010	0.000	0.034	1.797	1.099	1.089	1.094	1.118	1.113	1.104
0.005	-0.029	-0.005	-0.005	0.020	0.015	0.029	1.787	1.094	1.089	1.094	1.113	1.113	1.113
-0.010	-0.029	-0.005	0.000	0.020	0.029	0.034	1.768	1.094	1.089	1.089	1.113	1.118	1.118
0.000	-0.029	-0.005	-0.005	0.044	0.029	0.029	1.772	1.099	1.089	1.089	1.108	1.118	1.113
0.010	-0.015	-0.015	-0.005	0.024	0.024	0.029	1.777	1.104	1.094	1.089	1.108	1.108	1.113
0.000	0.015	-0.020	0.000	0.010	0.015	0.034	1.758	1.094	1.108	1.094	1.108	1.104	1.108
-0.005	0.088	-0.024	0.005	-0.015	0.000	0.029	1.772	1.094	1.118	1.099	1.113	1.099	1.099
-0.005	0.044	-0.010	0.000	-0.039	-0.020	0.034	1.719	1.089	1.104	1.099	1.113	1.094	1.094
0.010	0.010	0.010	0.005	-0.034	-0.034	0.029	1.777	1.089	1.089	1.104	1.118	1.099	1.089
0.005	-0.024	0.005	0.000	-0.034	-0.049	0.029	1.787	1.089	1.079	1.094	1.113	1.099	1.089
0.015	-0.049	0.005	-0.005	-0.054	-0.078	0.029	1.743	1.094	1.079	1.089	1.108	1.094	1.084
0.005	-0.049	0.010	-0.005	-0.029	-0.054	0.034	1.782	1.089	1.074	1.089	1.108	1.104	1.094
0.005	-0.049	0.000	-0.005	-0.020	-0.049	0.034	1.792	1.089	1.079	1.084	1.108	1.108	1.104
0.005	-0.010	0.005	-0.005	-0.005	0.000	0.029	1.797	1.099	1.094	1.089	1.108	1.108	1.118
0.000	0.020	0.010	0.000	0.020	0.020	0.029	1.768	1.099	1.104	1.094	1.113	1.118	1.123
-0.005	0.010	0.000	0.005	0.054	0.010	0.029	1.802	1.104	1.099	1.094	1.113	1.128	1.123
0.005	-0.005	0.005	0.010	0.059	0.010	0.029	1.733	1.104	1.099	1.094	1.113	1.118	1.118
-0.005	-0.010	-0.005	0.005	0.020	0.005	0.029	1.797	1.104	1.099	1.094	1.113	1.104	1.113
-0.020	0.020	-0.020	0.000	0.029	0.005	0.034	1.812	1.099	1.108	1.094	1.108	1.108	1.108
-0.015	0.015	-0.015	0.000	0.000	0.015	0.034	1.787	1.104	1.104	1.094	1.108	1.099	1.113
0.000	0.015	-0.005	-0.005	-0.015	0.010	0.029	1.807	1.108	1.108	1.099	1.108	1.099	1.104
0.005	0.005	0.000	0.000	-0.024	0.015	0.029	1.768	1.099	1.099	1.099	1.113	1.099	1.104
0.000	-0.010	0.005	-0.005	-0.029	0.005	0.034	1.816	1.104	1.099	1.099	1.113	1.099	1.099
-0.010	0.000	0.010	-0.005	-0.054	0.024	0.029	1.807	1.099	1.099	1.099	1.113	1.094	1.104
0.000	-0.005	0.010	-0.005	-0.054	0.049	0.029	1.807	1.104	1.099	1.099	1.113	1.104	1.108
-0.010	-0.005	0.005	0.000	-0.073	0.049	0.034	1.802	1.104	1.099	1.099	1.113	1.099	1.104
0.000	0.000	0.005	-0.005	-0.034	0.034	0.029	1.753	1.099	1.099	1.099	1.113	1.113	1.104
0.000	-0.010	0.000	-0.005	0.044	0.000	0.034	1.768	1.094	1.099	1.099	1.118	1.133	1.104
0.000	0.010	0.000	0.000	0.063	-0.034	0.029	1.797	1.099	1.099	1.099	1.118	1.133	1.099
0.000	0.005	0.000	-0.005	0.078	-0.029	0.034	1.777	1.099	1.099	1.099	1.118	1.128	1.108
0.000	0.024	-0.005	0.000	0.078	-0.049	0.029	1.758	1.099	1.104	1.104	1.118	1.128	1.108
-0.005	0.015	-0.005	-0.005	0.054	-0.054	0.029	1.787	1.104	1.099	1.099	1.118	1.113	1.108
-0.010	0.010	0.000	-0.005	0.024	-0.020	0.034	1.753	1.094	1.099	1.099	1.118	1.108	1.118
0.005	0.005	-0.005	0.000	0.000	-0.005	0.034	1.763	1.099	1.094	1.099	1.113	1.104	1.118
0.000	-0.020	0.000	0.000	0.020	0.015	0.034	1.782	1.104	1.089	1.094	1.118	1.113	1.123
0.000	-0.010	0.005	0.000	0.029	0.015	0.034	1.753	1.104	1.099	1.094	1.118	1.113	1.118
0.000	-0.029	0.000	0.000	0.015	0.054	0.034	1.753	1.094	1.089	1.094	1.113	1.108	1.128
-0.010	-0.039	-0.005	0.000	0.010	0.024	0.029	1.777	1.099	1.084	1.089	1.113	1.108	1.113
-0.005	-0.039	0.000	0.000	0.020	0.039	0.034	1.812	1.108	1.094	1.089	1.113	1.108	1.113
0.000	-0.015	0.000	0.000	0.000	0.034	0.034	1.772	1.099	1.099	1.094	1.108	1.104	1.108
0.010	0.029	-0.005	0.005	-0.020	0.020	0.029	1.758	1.099	1.113	1.099	1.108	1.099	1.104
0.010	0.010	0.005	0.000	-0.034	0.005	0.029	1.729	1.094	1.099	1.099	1.113	1.099	1.094
0.015	-0.015	0.005	-0.005	-0.029	0.015	0.034	1.748	1.089	1.089	1.094	1.113	1.104	1.099
0.005	0.005	0.000	-0.005	-0.034	0.020	0.029	1.787	1.089	1.094	1.094	1.113	1.104	1.099
0.010	0.000	0.000	-0.005	-0.068	0.000	0.029	1.797	1.099	1.094	1.094	1.108	1.094	1.094
-0.010	0.005	-0.010	-0.005	-0.098	-0.034	0.034	1.758	1.089	1.094	1.089	1.108	1.089	1.079
-0.005	0.034	-0.010	-0.005	-0.103	-0.054	0.034	1.714	1.084	1.099	1.094	1.108	1.094	1.079
-0.005	0.000	-0.005	0.000	-0.083	-0.063	0.029	1.792	1.089	1.084	1.094	1.113	1.099	1.084
-0.005	-0.015	0.005	0.005	-0.063	-0.068	0.034	1.821	1.094	1.084	1.089	1.113	1.108	1.089
-0.005	-0.034	0.000	0.000	-0.039	-0.059	0.034	1.772	1.094	1.084	1.089	1.113	1.113	1.099
-0.005	-0.010	0.005	0.005	-0.005	-0.083	0.034	1.748	1.094	1.089	1.089	1.108	1.123	1.099
-0.015	0.039	0.005	0.000	0.044	-0.063	0.034	1.777	1.094	1.099	1.094	1.113	1.133	1.118
0.010	-0.010	0.005	0.000	0.059	-0.039	0.034	1.792	1.104	1.084	1.089	1.113	1.128	1.123
0.010	-0.029	0.000	0.000	0.063	-0.020	0.034	1.816	1.099	1.089	1.089	1.108	1.123	1.128
-0.005	0.034	0.000	0.000	0.054	-0.005	0.034	1.738	1.099	1.108	1.094	1.108	1.118	1.128
-0.005	0.088	-0.005	0.000	0.039	0.020	0.029	1.772	1.108	1.118	1.099	1.108	1.113	1.128
-0.015	0.024	-0.010	-0.005	0.063	0.034	0.029	1.758	1.094	1.094	1.094	1.108	1.113	1.133
-0.020	-0.015	0.000	-0.005	0.112	0.044	0.034	1.743	1.099	1.084	1.094	1.113	1.128	1.128
-0.024	-0.005	-0.005	0.000	0.151	0.049	0.029	1.733	1.089	1.089	1.094	1.113	1.133	1.133
-0.005	-0.005	-0.005	0.000	0.117	0.054	0.034	1.787	1.099	1.094	1.094	1.113	1.113	1.128
-0.010	-0.010	-0.005	0.000	0.078	0.049	0.029	1.753	1.094	1.089	1.089	1.108	1.104	1.118
-0.005	-0.005	0.010	-0.005	0.068	0.044	0.034	1.782	1.104	1.094	1.094	1.113	1.104	1.113
-0.005	0.020	0.005	-0.005	0.015	-0.005	0.029	1.807	1.104	1.104	1.094	1.108	1.089	1.094
-0.005	0.010	0.010	-0.005	-0.044	0.020	0.029	1.797	1.104	1.099	1.099	1.113	1.079	1.094
0.005	-0.010	0.010	0.000	-0.059	0.010	0.029	1.792	1.108	1.094	1.094	1.113	1.084	1.089
0.010	-0.005	0.005	0.000	-0.059	0.015	0.029	1.802	1.108	1.099	1.099	1.113	1.089	1.089
0.005	-0.005	0.005	0.000	-0.049	0.000	0.029	1.802	1.108	1.099	1.094	1.113	1.094	1.089
0.000	0.005	-0.005	0.000	-0.039	0.005	0.029	1.748	1.099	1.104	1.094	1.118	1.104	1.094
-0.005	0.000	-0.015	0.005	-0.034	0.000	0.029	1.782	1.089	1.094	1.094	1.113	1.104	1.094
-0.005	-0.015	-0.010	0.000	-0.034	0.000	0.029	1.797	1.094	1.094	1.094	1.113	1.104	1.099
0.000	0.010	-0.010	0.005	-0.029	0.000	0.034	1.802	1.099	1.099	1.094	1.113	1.108	1.099
-0.005	0.010	-0.010	0.000	-0.029	-0.010	0.034	1.768	1.094	1.099	1.094	1.113	1.108	1.099
0.000	0.005	-0.005	-0.005	-0.024	-0.015	0.029	1.787	1.094	1.094	1.099	1.113	1.108	1.104
-0.005	0.005	0.000	-0.010	-0.020	-0.015	0.029	1.787	1.099	1.094	1.094	1.113	1.108	1.099
0.005	-0.015	-0.005	-0.005	-0.020	0.005	0.034	1.816	1.104	1.094	1.094	1.108	1.108	1.108
0.005	-0.015	-0.010	-0.005	-0.020	0.000	0.029	1.748	1.099	1.089	1.094	1.108	1.108	1.108
0.005	-0.039	-0.010	0.000	-0.015	0.005	0.034	1.758	1.094	1.084	1.089	1.113	1.108	1.108
0.005	-0.054	0.005	0.000	-0.010	-0.010	0.034	1.733	1.094	1.089	1.089	1.108	1.108	1.104
0.005	-0.020	0.005	0.000	-0.010	0.000	0.034	1.753	1.094	1.099	1.094	1.108	1.108	1.108
0.000	0.000	0.005	0.000	-0.005	-0.005	0.034	1.792	1.099	1.099	1.094	1.113	1.108	1.104
0.005	-0.010	0.015	0.000	-0.010	-0.015	0.029	1.807	1.099	1.094	1.099	1.113	1.108	1.104
0.000	-0.015	0.010	0.005	-0.015	-0.015	0.034	1.802	1.099	1.094	1.094	1.113	1.108	1.104
0.005	-0.024	0.005	0.005	-0.015	-0.005	0.029	1.748	1.099	1.094	1.094	1.113	1.108	1.113
0.005	0.015	-0.005	0.000	-0.015	-0.015	0.029	1.807	1.104	1.104	1.094	1.113	1.108	1.104
0.005	0.005	-0.005	0.005	-0.015	0.010	0.029	1.753	1.094	1.099	1.094	1.113	1.108	1.113
-0.005	-0.015	-0.005	0.000	-0.010	-0.005	0.029	1.709	1.089	1.089	1.094	1.108	1.108	1.108
0.005	-0.039	-0.015	-0.005	-0.010	0.015	0.029	1.787	1.094	1.084	1.089	1.108	1.108	1.113
0.000	-0.029	-0.010	-0.020	-0.010	0.015	0.029	1.802	1.094	1.089	1.089	1.104	1.104	1.108
-0.005	0.034	-0.005	-0.020	-0.010	0.010	0.029	1.768	1.094	1.108	1.094	1.104	1.104	1.108
-0.005	0.039	-0.010	-0.015	-0.010	-0.005	0.029	1.787	1.099	1.108	1.094	1.108	1.099	1.099
-0.020	0.000	-0.005	-0.015	-0.005	0.005	0.029	1.797	1.094	1.089	1.094	1.113	1.104	1.104
-0.005	-0.020	0.005	0.010	-0.015	0.020	0.029	1.792	1.099	1.084	1.094	1.118	1.104	1.108
-0.005	-0.039	-0.005	0.015	-0.010	0.010	0.034	1.748	1.094	1.084	1.089	1.113	1.108	1.104
0.005	-0.010	0.000	0.015	-0.005	0.020	0.029	1.758	1.099	1.094	1.089	1.113	1.108	1.108
-0.005	-0.020	-0.005	0.015	-0.005	0.020	0.029	1.738	1.094	1.094	1.089	1.113	1.113	1.108
-0.005	-0.015	0.000	0.020	0.000	0.010	0.034	1.753	1.094	1.094	1.094	1.113	1.113	1.108
0.010	-0.039	0.015	0.015	0.000	-0.005	0.029	1.792	1.099	1.089	1.094	1.113	1.113	1.104
0.010	0.034	0.005	0.005	-0.005	0.010	0.029	1.733	1.094	1.118	1.099	1.113	1.108	1.108
0.000	0.137	0.000	0.000	-0.005	-0.005	0.029	1.797	1.104	1.133	1.108	1.113	1.108	1.099
0.000	0.151	0.005	0.000	0.000	-0.005	0.034	1.758	1.104	1.128	1.113	1.118	1.113	1.108
0.010	0.010	0.005	0.000	0.010	0.005	0.034	1.797	1.099	1.079	1.099	1.118	1.113	1.108
0.005	0.000	0.005	-0.005	-0.020	-0.024	0.029	1.792	1.099	1.084	1.094	1.118	1.104	1.094
0.010	0.000	0.000	-0.005	-0.034	-0.034	0.034	1.772	1.089	1.084	1.089	1.113	1.104	1.099
-0.005	-0.063	-0.005	-0.005	-0.034	-0.029	0.029	1.763	1.084	1.064	1.079	1.108	1.104	1.099
-0.020	-0.059	0.005	-0.005	-0.034	-0.034	0.034	1.787	1.084	1.074	1.079	1.108	1.104	1.099
-0.010	-0.029	-0.005	-0.005	-0.020	-0.024	0.034	1.743	1.089	1.084	1.079	1.104	1.108	1.104
-0.015	-0.020	0.000	0.000	-0.020	-0.029	0.034	1.797	1.094	1.084	1.084	1.104	1.104	1.104
-0.010	0.005	0.000	0.000	-0.024	-0.020	0.029	1.772	1.099	1.099	1.089	1.104	1.104	1.104
-0.005	0.015	0.000	0.000	-0.024	-0.010	0.029	1.772	1.094	1.094	1.089	1.104	1.099	1.104
-0.005	-0.024	0.000	-0.005	-0.015	0.020	0.029	1.802	1.099	1.084	1.089	1.104	1.104	1.113
0.000	-0.020	0.000	0.005	-0.010	0.020	0.034	1.777	1.099	1.094	1.089	1.108	1.104	1.108
0.000	-0.049	-0.005	-0.005	0.015	0.024	0.029	1.792	1.104	1.084	1.084	1.104	1.108	1.113
0.005	0.000	-0.010	-0.015	0.029	0.034	0.034	1.777	1.104	1.104	1.094	1.099	1.113	1.113
0.020	0.024	0.000	-0.034	0.059	0.034	0.029	1.816	1.113	1.113	1.099	1.099	1.113	1.113
0.015	0.020	0.000	-0.029	0.054	0.020	0.029	1.782	1.108	1.113	1.104	1.104	1.108	1.108
0.005	0.059	-0.005	-0.020	0.059	0.020	0.029	1.772	1.108	1.118	1.104	1.118	1.113	1.104
0.010	0.015	-0.005	-0.010	0.068	0.034	0.029	1.787	1.104	1.104	1.108	1.118	1.113	1.118
-0.005	0.005	0.000	0.000	0.068	0.044	0.029	1.792	1.099	1.099	1.104	1.128	1.118	1.113
-0.005	-0.005	0.000	0.029	0.073	0.054	0.034	1.782	1.099	1.094	1.104	1.133	1.123	1.123
-0.020	-0.015	0.000	0.024	0.039	0.049	0.034	1.807	1.099	1.094	1.094	1.123	1.113	1.113
-0.020	-0.044	0.000	0.029	0.020	0.029	0.034	1.792	1.099	1.084	1.094	1.118	1.108	1.104
-0.024	-0.044	0.005	0.010	0.005	0.000	0.029	1.802	1.094	1.084	1.089	1.113	1.104	1.094
-0.015	-0.039	0.005	-0.010	0.010	-0.049	0.034	1.733	1.094	1.094	1.089	1.104	1.104	1.084
-0.005	-0.024	-0.005	-0.029	0.005	-0.083	0.029	1.758	1.099	1.099	1.089	1.099	1.099	1.079
0.010	-0.005	-0.010	-0.029	0.010	-0.103	0.034	1.763	1.099	1.104	1.094	1.104	1.099	1.079
-0.005	0.098	-0.005	-0.010	0.010	-0.098	0.034	1.753	1.094	1.128	1.104	1.113	1.104	1.089
-0.020	0.078	0.000	0.000	0.005	-0.078	0.034	1.797	1.089	1.108	1.108	1.118	1.104	1.094
-0.039	0.020	0.000	0.005	-0.020	-0.078	0.034	1.733	1.084	1.084	1.099	1.118	1.099	1.094
-0.039	0.024	-0.005	0.015	-0.029	-0.059	0.034	1.753	1.089	1.089	1.094	1.118	1.104	1.104
-0.029	0.029	0.000	0.020	-0.039	-0.034	0.034	1.743	1.089	1.084	1.094	1.118	1.104	1.108
0.000	0.000	-0.005	0.020	-0.059	-0.005	0.034	1.777	1.099	1.084	1.089	1.118	1.104	1.113
0.000	-0.024	-0.005	0.010	-0.054	0.020	0.034	1.787	1.118	1.084	1.089	1.108	1.104	1.123
0.015	-0.020	0.000	0.010	-0.054	0.044	0.034	1.787	1.118	1.094	1.089	1.108	1.104	1.118
0.000	-0.020	0.000	0.000	-0.063	0.039	0.034	1.733	1.108	1.094	1.094	1.108	1.104	1.113
0.015	-0.029	0.000	0.000	-0.044	0.034	0.034	1.748	1.108	1.099	1.094	1.108	1.108	1.113
0.020	-0.034	-0.005	0.000	-0.020	0.049	0.034	1.782	1.108	1.099	1.094	1.108	1.113	1.118
0.015	-0.010	-0.005	-0.005	0.015	0.034	0.034	1.787	1.104	1.104	1.094	1.108	1.123	1.113
0.005	-0.024	0.005	-0.010	0.044	0.049	0.034	1.792	1.104	1.099	1.094	1.108	1.123	1.118
0.015	0.000	0.000	-0.015	0.088	0.039	0.034	1.782	1.104	1.104	1.099	1.113	1.128	1.118
-0.005	0.005	-0.005	-0.005	0.073	0.020	0.034	1.787	1.099	1.104	1.099	1.118	1.118	1.113
0.000	0.010	-0.010	-0.005	0.068	-0.015	0.034	1.787	1.099	1.104	1.094	1.113	1.118	1.104
0.000	0.005	-0.005	0.000	0.054	0.000	0.034	1.748	1.094	1.104	1.099	1.118	1.108	1.108
0.005	0.000	-0.005	0.005	0.059	-0.015	0.034	1.782	1.084	1.099	1.099	1.118	1.113	1.108
0.000	-0.005	0.000	0.005	0.063	-0.015	0.034	1.797	1.094	1.094	1.099	1.118	1.113	1.108
0.005	0.000	0.000	0.005	0.015	0.005	0.034	1.787	1.089	1.094	1.094	1.113	1.104	1.108
0.010	-0.005	0.000	0.000	-0.039	0.034	0.034	1.768	1.094	1.094	1.094	1.108	1.089	1.108
0.005	-0.010	0.005	-0.005	-0.073	0.049	0.034	1.812	1.094	1.094	1.094	1.113	1.089	1.108
0.005	-0.015	0.005	0.000	-0.098	0.044	0.034	1.753	1.094	1.094	1.094	1.113	1.089	1.099
-0.005	0.000	0.000	0.000	-0.078	0.059	0.034	1.807	1.099	1.094	1.094	1.113	1.099	1.104
0.000	0.000	0.000	0.000	-0.063	0.020	0.034	1.807	1.104	1.094	1.094	1.113	1.104	1.089
-0.010	0.005	-0.005	0.000	-0.059	0.000	0.034	1.772	1.094	1.099	1.094	1.108	1.104	1.094
-0.005	0.015	0.000	-0.010	-0.034	-0.024	0.034	1.792	1.099	1.099	1.094	1.108	1.108	1.094
-0.010	0.020	-0.005	-0.010	-0.005	-0.029	0.034	1.758	1.094	1.094	1.094	1.113	1.113	1.094
-0.015	0.000	-0.005	-0.005	0.020	-0.068	0.034	1.802	1.094	1.089	1.094	1.113	1.123	1.094
0.000	-0.010	0.000	-0.005	0.024	-0.068	0.034	1.797	1.099	1.089	1.094	1.113	1.113	1.099
-0.005	0.000	0.005	-0.005	0.034	-0.049	0.034	1.821	1.099	1.094	1.094	1.113	1.118	1.108
0.015	-0.015	0.005	0.005	0.054	-0.029	0.034	1.733	1.099	1.094	1.094	1.113	1.123	1.118
0.020	0.000	0.010	0.010	0.054	-0.024	0.034	1.797	1.104	1.099	1.094	1.113	1.118	1.123
-0.005	-0.005	0.000	0.010	0.020	0.010	0.034	1.777	1.094	1.094	1.089	1.113	1.108	1.123
-0.024	-0.005	0.000	0.010	0.015	0.024	0.034	1.743	1.094	1.094	1.089	1.113	1.108	1.123
-0.015	0.010	-0.005	0.005	0.000	0.049	0.034	1.792	1.099	1.104	1.094	1.108	1.104	1.123
-0.024	0.029	-0.005	-0.010	0.015	0.063	0.034	1.802	1.104	1.104	1.094	1.108	1.108	1.123
-0.015	0.029	-0.005	-0.020	0.005	0.034	0.034	1.787	1.104	1.108	1.099	1.104	1.099	1.108
-0.010	0.010	-0.005	-0.020	-0.010	0.020	0.034	1.792	1.113	1.099	1.094	1.108	1.099	1.099
0.015	0.000	-0.010	-0.010	-0.010	-0.005	0.034	1.753	1.108	1.104	1.099	1.113	1.099	1.094
0.039	0.000	-0.005	0.000	-0.029	-0.010	0.034	1.802	1.113	1.104	1.104	1.118	1.099	1.094
0.034	0.010	0.000	-0.005	-0.020	-0.024	0.034	1.812	1.108	1.108	1.104	1.118	1.104	1.094
0.024	-0.005	0.000	0.005	-0.015	-0.029	0.034	1.777	1.104	1.099	1.099	1.123	1.108	1.094
0.015	-0.020	0.000	0.015	-0.015	-0.034	0.034	1.797	1.094	1.094	1.099	1.123	1.113	1.099
0.010	-0.015	-0.005	0.024	0.005	-0.020	0.034	1.787	1.094	1.094	1.099	1.123	1.118	1.104
-0.034	-0.020	0.000	0.015	0.005	-0.015	0.034	1.816	1.084	1.089	1.094	1.118	1.118	1.108
-0.049	-0.020	-0.005	0.010	0.000	-0.024	0.034	1.704	1.079	1.084	1.089	1.113	1.118	1.108
-0.078	-0.015	0.000	0.000	0.015	-0.010	0.034	1.768	1.069	1.079	1.089	1.108	1.113	1.118
-0.146	-0.015	0.000	-0.005	0.015	0.015	0.034	1.777	1.060	1.074	1.084	1.104	1.113	1.123
-0.117	-0.010	0.005	-0.005	0.005	0.015	0.034	1.772	1.084	1.079	1.084	1.104	1.104	1.113
-0.044	-0.005	0.000	-0.005	-0.005	0.015	0.034	1.777	1.108	1.089	1.084	1.104	1.104	1.108
0.020	0.005	-0.005	0.000	0.000	-0.005	0.034	1.772	1.128	1.104	1.089	1.104	1.104	1.104
0.088	0.000	0.010	0.000	-0.005	-0.010	0.034	1.787	1.143	1.113	1.094	1.108	1.104	1.104
0.132	0.005	0.000	0.005	-0.010	-0.029	0.034	1.777	1.143	1.123	1.104	1.113	1.099	1.099
0.151	0.010	-0.010	0.000	-0.029	-0.029	0.034	1.777	1.138	1.128	1.108	1.113	1.099	1.099
0.146	-0.015	-0.010	-0.015	-0.049	0.000	0.034	1.802	1.123	1.118	1.108	1.113	1.094	1.104
0.117	-0.005	-0.010	-0.015	-0.073	0.029	0.034	1.763	1.104	1.113	1.108	1.118	1.094	1.108
0.073	-0.015	0.005	-0.005	-0.068	0.054	0.034	1.719	1.089	1.108	1.108	1.123	1.104	1.113
0.015	-0.024	0.005	-0.005	-0.044	0.068	0.034	1.768	1.079	1.094	1.108	1.128	1.113	1.118
-0.015	-0.010	0.005	0.005	-0.005	0.073	0.034	1.777	1.074	1.094	1.104	1.123	1.128	1.123
-0.044	0.010	0.005	0.015	0.029	0.083	0.034	1.777	1.074	1.094	1.104	1.128	1.138	1.128
-0.063	0.034	0.010	0.020	0.059	0.054	0.034	1.807	1.084	1.094	1.099	1.128	1.138	1.128
-0.083	0.034	0.010	0.029	0.088	0.049	0.034	1.772	1.084	1.094	1.099	1.128	1.143	1.128
-0.073	0.034	-0.005	0.015	0.103	0.000	0.034	1.797	1.089	1.089	1.094	1.118	1.133	1.118
-0.059	0.010	-0.005	0.005	0.073	-0.054	0.034	1.797	1.099	1.084	1.089	1.108	1.118	1.104
-0.049	-0.005	-0.005	-0.005	0.024	-0.063	0.034	1.753	1.099	1.084	1.084	1.104	1.099	1.099
-0.034	0.005	-0.005	0.000	-0.010	-0.068	0.034	1.782	1.104	1.089	1.089	1.104	1.089	1.094
-0.024	0.005	-0.005	0.000	-0.010	-0.088	0.034	1.758	1.104	1.094	1.089	1.104	1.094	1.089
-0.020	0.015	-0.005	-0.005	-0.010	-0.073	0.034	1.782	1.108	1.099	1.089	1.104	1.094	1.094
-0.020	0.020	-0.005	-0.010	-0.005	-0.059	0.034	1.763	1.099	1.099	1.094	1.108	1.099	1.099
-0.020	0.010	-0.005	-0.005	-0.005	-0.039	0.034	1.782	1.104	1.099	1.094	1.108	1.099	1.104
0.000	-0.005	0.010	-0.005	-0.005	-0.020	0.034	1.743	1.104	1.099	1.099	1.113	1.104	1.108
0.010	0.005	0.015	0.000	0.000	-0.020	0.034	1.787	1.104	1.099	1.104	1.113	1.108	1.108
0.010	-0.010	0.010	-0.005	0.010	0.005	0.034	1.802	1.108	1.104	1.099	1.113	1.113	1.118
0.005	-0.039	0.015	-0.005	0.000	0.034	0.034	1.763	1.104	1.089	1.099	1.113	1.108	1.123
0.000	-0.034	0.000	-0.005	0.005	0.024	0.034	1.768	1.104	1.094	1.094	1.113	1.108	1.113
0.010	0.034	0.000	0.000	-0.010	0.029	0.034	1.807	1.108	1.113	1.099	1.113	1.104	1.113
0.010	-0.020	-0.010	-0.005	-0.034	0.015	0.034	1.802	1.108	1.094	1.094	1.113	1.099	1.104
0.010	-0.049	-0.005	0.000	-0.044	0.024	0.034	1.709	1.094	1.089	1.094	1.113	1.099	1.104
0.000	-0.029	0.000	-0.015	-0.039	0.034	0.034	1.792	1.094	1.094	1.094	1.108	1.099	1.104
0.005	-0.005	0.000	0.000	-0.039	0.005	0.034	1.768	1.094	1.099	1.099	1.113	1.104	1.099
0.010	-0.015	0.000	-0.005	-0.044	0.015	0.034	1.797	1.099	1.094	1.094	1.113	1.104	1.104
0.005	0.000	-0.005	-0.010	-0.044	0.020	0.034	1.807	1.099	1.104	1.099	1.113	1.104	1.104
0.005	0.000	-0.005	0.000	-0.049	0.010	0.034	1.787	1.099	1.099	1.099	1.113	1.104	1.099
0.000	0.005	0.000	0.000	-0.024	-0.024	0.034	1.792	1.099	1.099	1.099	1.113	1.113	1.094
0.005	0.005	-0.005	0.000	-0.010	0.000	0.034	1.758	1.099	1.099	1.099	1.118	1.118	1.108
0.005	0.005	-0.005	0.015	0.000	0.015	0.034	1.748	1.094	1.099	1.099	1.118	1.123	1.113
0.005	0.005	-0.005	0.000	0.010	0.024	0.034	1.743	1.094	1.099	1.094	1.118	1.118	1.118
0.005	0.000	0.000	0.000	0.010	-0.010	0.034	1.772	1.099	1.099	1.094	1.118	1.118	1.108
-0.010	0.010	0.005	0.010	0.024	-0.010	0.034	1.802	1.104	1.099	1.099	1.123	1.123	1.113
-0.005	0.005	-0.005	0.015	0.024	-0.029	0.034	1.802	1.108	1.104	1.099	1.123	1.118	1.104
0.000	0.010	0.000	0.015	0.010	-0.010	0.034	1.777	1.104	1.099	1.099	1.118	1.118	1.113
-0.010	0.029	-0.005	0.000	0.000	-0.010	0.034	1.792	1.104	1.108	1.099	1.113	1.108	1.113
-0.020	0.024	0.000	0.005	-0.005	-0.024	0.034	1.782	1.099	1.104	1.099	1.113	1.108	1.108
-0.029	0.000	0.000	-0.005	-0.024	-0.005	0.034	1.777	1.099	1.094	1.094	1.113	1.108	1.108
-0.020	-0.029	-0.005	-0.010	-0.029	0.005	0.034	1.724	1.084	1.084	1.089	1.108	1.104	1.108
-0.005	-0.029	-0.005	-0.010	-0.015	-0.005	0.034	1.772	1.089	1.084	1.089	1.108	1.108	1.108
0.024	-0.010	0.000	0.000	-0.010	-0.005	0.034	1.797	1.123	1.099	1.094	1.113	1.108	1.108
0.005	0.024	0.000	0.000	0.000	0.000	0.034	1.792	1.118	1.108	1.099	1.113	1.113	1.108
0.015	-0.039	0.000	-0.005	0.000	0.010	0.034	1.758	1.104	1.089	1.094	1.113	1.113	1.113
-0.005	-0.005	0.005	-0.015	0.015	-0.010	0.034	1.807	1.104	1.104	1.099	1.108	1.108	1.104
0.010	0.005	0.000	-0.010	0.024	0.010	0.034	1.777	1.104	1.108	1.099	1.113	1.113	1.118
0.000	0.039	-0.005	-0.005	0.015	0.010	0.034	1.763	1.099	1.113	1.104	1.118	1.108	1.108
0.000	0.000	-0.005	-0.010	-0.005	0.010	0.034	1.772	1.099	1.099	1.099	1.118	1.104	1.108
0.015	-0.020	0.000	0.000	-0.005	0.005	0.034	1.748	1.099	1.094	1.099	1.118	1.108	1.108
0.029	-0.010	-0.005	0.010	0.010	0.000	0.034	1.738	1.104	1.099	1.099	1.123	1.113	1.108
0.000	0.005	-0.005	0.010	0.015	-0.029	0.034	1.792	1.099	1.099	1.099	1.118	1.113	1.104
-0.005	0.029	0.000	0.010	0.015	0.000	0.034	1.797	1.099	1.104	1.104	1.123	1.118	1.113
0.000	0.024	-0.005	0.005	0.010	0.005	0.034	1.768	1.099	1.104	1.099	1.118	1.118	1.113
0.005	0.039	0.000	0.005	0.015	0.010	0.034	1.753	1.099	1.108	1.104	1.123	1.118	1.118
-0.010	0.020	0.000	0.005	0.029	0.000	0.034	1.787	1.099	1.094	1.099	1.118	1.118	1.113
-0.010	0.000	0.005	0.000	0.024	0.010	0.034	1.787	1.099	1.089	1.099	1.118	1.118	1.113
0.000	-0.005	0.010	0.000	0.015	0.000	0.034	1.782	1.099	1.094	1.094	1.118	1.113	1.113
0.000	-0.010	0.000	-0.005	0.010	0.000	0.034	1.777	1.099	1.089	1.094	1.113	1.108	1.113
-0.010	-0.020	0.000	0.000	0.000	-0.034	0.034	1.787	1.099	1.089	1.089	1.113	1.104	1.099
-0.005	-0.020	0.000	0.000	0.015	-0.015	0.034	1.738	1.094	1.094	1.089	1.108	1.113	1.108
-0.005	-0.010	-0.005	0.005	0.015	-0.024	0.034	1.753	1.094	1.094	1.089	1.108	1.108	1.104
-0.005	-0.005	0.000	0.010	0.015	-0.029	0.034	1.777	1.099	1.099	1.094	1.113	1.108	1.108
-0.010	-0.010	0.000	0.000	-0.005	-0.015	0.034	1.797	1.104	1.094	1.094	1.108	1.099	1.104
-0.005	0.005	0.000	0.000	0.005	-0.015	0.034	1.797	1.104	1.104	1.094	1.113	1.108	1.104
-0.010	-0.005	-0.005	0.000	0.010	-0.005	0.034	1.758	1.104	1.099	1.094	1.113	1.108	1.108
0.000	-0.010	-0.005	-0.005	0.000	0.015	0.034	1.787	1.108	1.099	1.099	1.108	1.104	1.113
0.000	-0.015	-0.010	-0.005	0.000	0.020	0.034	1.782	1.108	1.099	1.094	1.113	1.104	1.113
0.000	-0.010	-0.005	0.000	-0.005	0.020	0.034	1.792	1.108	1.104	1.099	1.113	1.108	1.108
-0.005	-0.024	-0.005	-0.005	0.000	-0.015	0.034	1.792	1.099	1.099	1.099	1.113	1.108	1.099
0.005	-0.024	0.000	-0.005	-0.005	0.010	0.034	1.753	1.104	1.099	1.099	1.113	1.108	1.108
0.005	0.000	0.000	-0.005	0.005	0.005	0.034	1.787	1.104	1.108	1.099	1.118	1.113	1.108
0.000	0.020	0.000	0.000	-0.005	0.005	0.034	1.733	1.094	1.108	1.104	1.118	1.108	1.108
0.005	0.005	0.000	0.000	-0.010	0.015	0.034	1.797	1.099	1.099	1.104	1.118	1.108	1.113
-0.005	-0.005	0.000	0.000	0.000	0.024	0.034	1.782	1.099	1.099	1.099	1.118	1.113	1.113
-0.005	0.005	0.000	-0.005	0.000	0.010	0.034	1.753	1.099	1.099	1.099	1.118	1.113	1.108
-0.005	-0.005	-0.005	-0.005	-0.015	0.005	0.034	1.768	1.099	1.094	1.094	1.118	1.108	1.104
0.000	0.005	-0.005	-0.005	-0.020	0.000	0.034	1.748	1.094	1.099	1.094	1.113	1.108	1.104
0.010	0.000	-0.005	-0.005	-0.015	0.005	0.034	1.768	1.099	1.094	1.094	1.118	1.108	1.108
0.015	0.000	-0.005	0.000	-0.020	0.005	0.034	1.797	1.104	1.094	1.094	1.118	1.113	1.108
0.020	0.000	-0.010	0.010	-0.015	0.000	0.034	1.797	1.108	1.099	1.099	1.118	1.113	1.108
0.015	-0.005	-0.010	0.005	-0.010	0.000	0.034	1.768	1.099	1.099	1.099	1.113	1.113	1.108
0.000	-0.010	-0.015	0.000	-0.005	-0.020	0.034	1.772	1.099	1.099	1.094	1.113	1.113	1.104
-0.015	0.000	-0.015	0.000	0.010	-0.029	0.034	1.763	1.089	1.099	1.094	1.113	1.118	1.104
-0.024	0.034	0.005	0.000	0.010	-0.005	0.034	1.763	1.094	1.104	1.104	1.118	1.118	1.113
-0.024	0.034	0.005	0.000	0.005	-0.015	0.034	1.792	1.099	1.099	1.104	1.118	1.113	1.113
-0.005	0.015	0.005	0.000	0.010	-0.020	0.034	1.797	1.108	1.094	1.099	1.123	1.113	1.113
-0.015	0.000	0.000	-0.005	0.015	-0.020	0.034	1.797	1.108	1.099	1.094	1.118	1.118	1.113
-0.010	-0.010	0.005	-0.005	0.020	-0.024	0.034	1.748	1.099	1.094	1.099	1.113	1.113	1.113
-0.010	-0.005	0.015	-0.005	0.039	0.000	0.034	1.812	1.108	1.099	1.099	1.118	1.118	1.118
-0.005	-0.005	0.049	0.005	0.054	0.015	0.034	1.763	1.108	1.104	1.108	1.123	1.123	1.128
-0.005	-0.010	0.063	0.000	0.054	0.015	0.034	1.763	1.104	1.104	1.113	1.123	1.123	1.123
0.010	-0.005	0.020	-0.005	0.049	0.039	0.034	1.772	1.108	1.099	1.094	1.118	1.123	1.128
0.000	-0.010	-0.015	0.000	0.024	0.024	0.034	1.753	1.099	1.099	1.089	1.113	1.108	1.118
-0.010	0.005	-0.020	0.005	0.010	0.015	0.034	1.758	1.094	1.099	1.089	1.113	1.104	1.113
0.000	0.015	-0.015	0.005	0.000	0.005	0.034	1.787	1.099	1.104	1.094	1.113	1.104	1.104
0.000	-0.005	-0.010	0.000	-0.024	-0.010	0.034	1.797	1.104	1.094	1.094	1.113	1.099	1.099
0.000	-0.015	-0.005	-0.005	-0.044	-0.024	0.039	1.758	1.099	1.094	1.094	1.113	1.094	1.094
0.005	-0.010	0.000	-0.005	-0.063	-0.044	0.034	1.719	1.094	1.094	1.094	1.108	1.094	1.089
0.005	-0.005	0.000	0.000	-0.083	-0.068	0.034	1.777	1.094	1.094	1.099	1.113	1.089	1.079
0.005	-0.015	0.000	0.000	-0.093	-0.039	0.034	1.787	1.094	1.094	1.094	1.113	1.094	1.094
0.005	-0.020	-0.005	0.000	-0.098	-0.020	0.034	1.763	1.089	1.094	1.094	1.113	1.099	1.099
0.005	0.005	-0.010	-0.005	-0.088	-0.015	0.034	1.787	1.094	1.094	1.094	1.108	1.104	1.099
0.010	0.000	-0.015	-0.005	-0.039	0.020	0.034	1.787	1.099	1.094	1.094	1.113	1.118	1.118
0.005	-0.005	-0.015	0.000	0.005	0.029	0.034	1.753	1.099	1.094	1.094	1.113	1.128	1.123
0.005	-0.010	-0.010	-0.010	0.049	0.010	0.034	1.777	1.099	1.094	1.094	1.108	1.133	1.123
0.000	-0.034	-0.010	-0.010	0.093	-0.005	0.034	1.782	1.099	1.089	1.094	1.113	1.138	1.123
-0.005	-0.010	-0.005	0.000	0.132	0.020	0.034	1.792	1.104	1.099	1.094	1.118	1.138	1.133
-0.005	-0.015	0.005	-0.005	0.132	0.034	0.034	1.792	1.104	1.099	1.099	1.113	1.133	1.138
0.000	0.000	0.010	0.000	0.103	0.024	0.034	1.797	1.113	1.108	1.099	1.118	1.123	1.123
0.000	0.010	0.005	0.005	0.088	0.015	0.034	1.787	1.108	1.113	1.099	1.118	1.113	1.123
-0.010	0.015	0.010	0.000	0.039	0.015	0.034	1.758	1.123	1.113	1.104	1.118	1.099	1.108
-0.005	0.024	0.000	0.000	0.005	0.005	0.034	1.777	1.118	1.113	1.104	1.118	1.094	1.104
-0.005	0.020	-0.005	0.005	-0.029	0.000	0.034	1.777	1.113	1.113	1.104	1.123	1.089	1.099
0.000	0.005	-0.005	0.005	-0.044	-0.020	0.034	1.758	1.108	1.108	1.104	1.118	1.094	1.094
-0.005	0.024	-0.010	0.005	-0.054	-0.044	0.034	1.763	1.104	1.113	1.108	1.123	1.094	1.089
-0.005	-0.034	-0.020	0.005	-0.059	-0.039	0.034	1.787	1.099	1.089	1.099	1.123	1.104	1.094
0.015	-0.059	-0.005	0.000	-0.039	0.005	0.034	1.807	1.104	1.089	1.104	1.123	1.113	1.108
0.024	-0.005	-0.005	0.000	-0.029	-0.010	0.034	1.802	1.108	1.108	1.104	1.123	1.113	1.104
0.010	0.010	0.000	-0.005	-0.029	0.000	0.034	1.797	1.108	1.108	1.104	1.123	1.118	1.108
0.005	-0.005	0.005	-0.010	-0.024	0.005	0.034	1.792	1.104	1.099	1.104	1.118	1.118	1.108
0.010	0.000	0.005	-0.010	-0.034	-0.005	0.034	1.782	1.104	1.104	1.104	1.123	1.113	1.108
0.000	0.010	0.005	-0.005	-0.039	0.010	0.034	1.748	1.104	1.104	1.104	1.123	1.113	1.118
-0.015	0.020	0.005	-0.005	-0.020	0.015	0.034	1.768	1.099	1.104	1.104	1.123	1.118	1.118
-0.024	0.034	0.005	0.005	-0.020	0.015	0.034	1.777	1.094	1.104	1.104	1.123	1.118	1.113
0.000	0.000	-0.005	0.005	-0.010	0.005	0.034	1.753	1.104	1.094	1.099	1.123	1.123	1.118
-0.005	0.000	-0.005	0.005	-0.010	-0.024	0.034	1.782	1.099	1.094	1.094	1.123	1.118	1.108
-0.020	-0.024	-0.005	0.005	-0.005	-0.020	0.034	1.782	1.099	1.089	1.094	1.118	1.118	1.113
0.005	-0.020	-0.005	0.005	-0.010	-0.049	0.034	1.748	1.104	1.094	1.089	1.113	1.113	1.108
-0.005	0.005	-0.005	-0.005	-0.005	-0.010	0.034	1.797	1.104	1.104	1.094	1.113	1.113	1.118
-0.010	0.010	0.000	-0.005	-0.005	0.015	0.034	1.768	1.104	1.104	1.099	1.113	1.113	1.128
-0.010	0.000	0.000	-0.010	-0.020	0.010	0.034	1.797	1.108	1.099	1.099	1.113	1.108	1.118
-0.010	-0.010	0.000	-0.010	-0.015	-0.005	0.034	1.777	1.104	1.099	1.099	1.113	1.113	1.108
-0.005	-0.015	0.000	0.000	0.000	0.015	0.034	1.802	1.108	1.099	1.099	1.118	1.118	1.118
0.000	-0.010	0.000	0.015	0.015	0.015	0.034	1.758	1.108	1.104	1.099	1.123	1.123	1.118
-0.005	-0.010	0.000	0.005	0.029	0.005	0.034	1.777	1.108	1.104	1.099	1.118	1.123	1.118
0.005	-0.020	-0.005	0.000	0.034	-0.005	0.034	1.772	1.108	1.104	1.099	1.118	1.123	1.118
0.000	-0.005	0.000	-0.010	0.020	-0.010	0.034	1.797	1.108	1.108	1.099	1.113	1.113	1.108
-0.010	-0.020	-0.010	-0.015	0.029	0.005	0.034	1.797	1.108	1.099	1.099	1.113	1.113	1.118
0.000	-0.024	0.000	-0.005	0.024	-0.010	0.034	1.719	1.104	1.104	1.099	1.118	1.113	1.113
0.000	0.024	0.005	-0.005	-0.020	0.000	0.034	1.787	1.104	1.118	1.104	1.118	1.099	1.113
0.010	0.015	0.000	0.010	-0.049	0.005	0.034	1.743	1.099	1.108	1.104	1.123	1.099	1.108
0.010	0.015	0.000	-0.005	-0.029	0.010	0.034	1.792	1.099	1.104	1.104	1.118	1.108	1.113
-0.015	0.073	0.000	-0.005	0.029	0.015	0.034	1.792	1.108	1.118	1.108	1.123	1.128	1.118
-0.010	0.020	-0.005	0.000	0.000	0.015	0.034	1.792	1.104	1.099	1.104	1.123	1.113	1.118
0.000	-0.015	0.000	-0.005	0.000	0.000	0.034	1.802	1.108	1.094	1.099	1.123	1.118	1.113
0.010	-0.029	0.000	0.005	0.039	0.000	0.034	1.753	1.104	1.094	1.099	1.123	1.128	1.113
0.015	-0.015	0.005	0.005	0.054	-0.010	0.034	1.797	1.108	1.099	1.099	1.123	1.128	1.113
0.010	-0.005	0.000	0.015	0.049	-0.005	0.034	1.797	1.113	1.104	1.099	1.123	1.123	1.118
0.010	-0.005	-0.005	0.015	0.024	0.015	0.034	1.802	1.113	1.104	1.104	1.123	1.113	1.123
-0.010	0.015	0.000	0.005	0.015	0.000	0.034	1.802	1.108	1.108	1.104	1.118	1.113	1.118
-0.020	0.015	-0.005	-0.005	0.015	0.029	0.034	1.772	1.104	1.108	1.104	1.118	1.113	1.123
-0.010	0.010	-0.010	-0.005	0.010	-0.005	0.034	1.802	1.104	1.104	1.099	1.118	1.108	1.108
-0.010	0.010	0.000	0.000	0.000	-0.010	0.034	1.768	1.104	1.104	1.099	1.118	1.108	1.108
-0.010	0.000	0.000	-0.005	-0.034	-0.015	0.034	1.714	1.099	1.104	1.099	1.118	1.104	1.104
-0.015	0.000	0.000	-0.005	-0.034	-0.015	0.034	1.738	1.099	1.099	1.104	1.118	1.104	1.104
-0.010	0.005	0.000	-0.005	-0.020	-0.015	0.034	1.714	1.094	1.099	1.104	1.118	1.113	1.108
-0.010	0.000	0.000	0.000	-0.005	-0.015	0.034	1.772	1.094	1.099	1.099	1.118	1.113	1.108
0.000	-0.005	0.000	-0.005	-0.024	-0.029	0.034	1.782	1.099	1.094	1.099	1.118	1.108	1.104
-0.005	-0.015	-0.005	-0.005	-0.029	-0.020	0.034	1.797	1.099	1.089	1.094	1.113	1.108	1.104
0.010	-0.015	-0.005	-0.005	-0.049	-0.034	0.034	1.753	1.064	1.084	1.094	1.113	1.099	1.104
0.000	-0.029	0.005	-0.005	-0.054	-0.063	0.034	1.772	1.074	1.074	1.089	1.113	1.099	1.094
0.000	-0.024	0.000	-0.005	-0.054	-0.029	0.034	1.738	1.094	1.079	1.084	1.108	1.104	1.104
0.015	0.005	-0.005	-0.005	-0.039	0.029	0.034	1.768	1.099	1.094	1.084	1.108	1.108	1.128
0.010	-0.010	-0.005	0.000	-0.039	0.039	0.034	1.763	1.099	1.089	1.084	1.108	1.108	1.118
-0.005	-0.010	-0.005	0.000	-0.015	0.049	0.034	1.733	1.094	1.089	1.089	1.108	1.118	1.118
-0.005	-0.010	-0.005	-0.005	0.039	0.034	0.034	1.787	1.099	1.089	1.089	1.108	1.123	1.118
-0.005	0.005	-0.005	-0.005	-0.005	0.024	0.034	1.763	1.104	1.099	1.094	1.108	1.108	1.113
-0.005	0.015	-0.005	-0.005	0.000	0.015	0.034	1.797	1.104	1.099	1.094	1.108	1.108	1.108
-0.015	0.015	0.000	-0.005	0.010	0.005	0.034	1.777	1.104	1.099	1.094	1.113	1.113	1.104
-0.005	0.029	0.000	0.005	0.024	0.005	0.034	1.792	1.104	1.104	1.099	1.113	1.108	1.108
-0.010	0.005	0.000	0.000	0.015	-0.005	0.034	1.763	1.104	1.099	1.099	1.113	1.113	1.108
0.000	-0.010	-0.005	0.005	0.020	-0.005	0.039	1.772	1.104	1.099	1.094	1.113	1.108	1.104
0.000	-0.005	-0.010	0.005	0.024	-0.005	0.034	1.787	1.108	1.099	1.094	1.113	1.108	1.108
0.005	-0.005	-0.005	0.005	0.024	-0.005	0.034	1.733	1.099	1.099	1.094	1.113	1.108	1.108
0.020	0.005	0.000	0.000	0.015	-0.005	0.034	1.787	1.104	1.099	1.099	1.113	1.108	1.108
0.000	-0.005	0.005	-0.005	0.000	0.000	0.034	1.743	1.094	1.099	1.099	1.113	1.104	1.108
-0.005	-0.010	-0.005	0.000	0.005	0.000	0.034	1.777	1.094	1.094	1.094	1.113	1.108	1.108
0.005	-0.005	0.010	-0.005	0.005	0.005	0.034	1.797	1.104	1.094	1.099	1.113	1.108	1.108
0.000	-0.010	0.015	-0.005	0.000	0.005	0.034	1.777	1.099	1.099	1.094	1.113	1.108	1.108
-0.005	-0.005	0.010	-0.005	-0.005	-0.020	0.034	1.787	1.099	1.099	1.099	1.113	1.104	1.099
0.000	0.005	0.000	0.000	-0.005	-0.010	0.034	1.768	1.094	1.104	1.094	1.113	1.108	1.108
0.000	0.015	-0.005	0.000	-0.010	-0.005	0.034	1.787	1.099	1.104	1.094	1.113	1.104	1.104
-0.015	0.005	-0.010	0.000	-0.010	-0.005	0.034	1.758	1.094	1.099	1.094	1.113	1.108	1.104
-0.005	0.005	-0.020	0.005	-0.010	0.000	0.034	1.802	1.104	1.099	1.094	1.113	1.108	1.108
0.010	0.000	-0.020	0.005	-0.005	0.000	0.034	1.802	1.104	1.094	1.094	1.113	1.108	1.108
0.005	0.005	-0.024	0.000	0.000	-0.020	0.034	1.753	1.099	1.099	1.094	1.113	1.113	1.104
-0.010	-0.005	0.000	-0.005	0.005	-0.005	0.034	1.802	1.099	1.094	1.104	1.113	1.113	1.108
0.000	-0.005	0.015	-0.005	0.005	-0.015	0.034	1.704	1.094	1.094	1.099	1.113	1.108	1.104
0.010	0.000	0.015	-0.015	0.010	-0.029	0.034	1.768	1.089	1.094	1.099	1.113	1.113	1.104
0.005	0.005	-0.005	-0.010	0.005	0.005	0.034	1.743	1.094	1.094	1.094	1.113	1.108	1.113
0.000	0.005	0.020	0.005	0.010	0.005	0.034	1.758	1.118	1.099	1.104	1.123	1.113	1.113
0.015	0.005	0.024	0.005	0.005	-0.010	0.034	1.758	1.113	1.104	1.099	1.118	1.113	1.108
0.005	-0.005	0.000	-0.005	0.005	-0.005	0.034	1.768	1.099	1.099	1.094	1.113	1.108	1.113
0.000	0.000	-0.005	-0.005	0.005	0.024	0.034	1.758	1.099	1.099	1.094	1.113	1.113	1.118
-0.020	0.024	-0.015	0.010	0.005	-0.005	0.034	1.719	1.089	1.104	1.094	1.113	1.113	1.108
-0.020	0.015	0.000	-0.005	-0.005	-0.010	0.034	1.724	1.089	1.099	1.094	1.113	1.108	1.104
-0.010	0.005	0.000	-0.010	-0.010	0.005	0.034	1.753	1.094	1.094	1.094	1.108	1.104	1.108
-0.010	-0.005	0.005	-0.005	-0.010	0.005	0.034	1.772	1.099	1.089	1.094	1.113	1.104	1.108
-0.005	-0.010	0.005	0.000	-0.010	-0.005	0.034	1.758	1.099	1.094	1.094	1.113	1.108	1.108
0.000	0.010	0.005	0.010	-0.015	0.020	0.034	1.792	1.099	1.104	1.094	1.118	1.108	1.108
0.000	0.000	0.005	0.010	-0.020	0.010	0.034	1.782	1.104	1.094	1.094	1.118	1.108	1.108
0.010	-0.005	0.005	0.015	-0.010	0.000	0.034	1.763	1.094	1.099	1.094	1.118	1.113	1.104
0.010	-0.010	0.005	0.010	0.000	-0.005	0.034	1.748	1.094	1.094	1.094	1.113	1.113	1.108
0.000	-0.005	0.010	0.005	0.000	-0.010	0.034	1.763	1.094	1.094	1.094	1.113	1.113	1.108
0.010	-0.005	0.005	0.010	0.000	-0.024	0.034	1.782	1.094	1.094	1.094	1.113	1.108	1.104
-0.005	-0.010	-0.005	0.000	0.000	-0.024	0.034	1.787	1.094	1.089	1.089	1.113	1.108	1.104
-0.010	0.000	0.000	0.005	0.005	-0.020	0.034	1.782	1.094	1.094	1.094	1.108	1.113	1.108
-0.005	0.000	-0.005	-0.005	0.029	-0.010	0.034	1.797	1.099	1.094	1.094	1.108	1.113	1.113
-0.010	0.000	-0.005	-0.005	0.015	-0.015	0.034	1.792	1.099	1.089	1.089	1.108	1.108	1.108
-0.010	0.010	-0.005	-0.005	0.010	0.005	0.034	1.753	1.099	1.099	1.089	1.108	1.108	1.113
-0.005	-0.005	-0.010	-0.020	0.020	0.020	0.034	1.792	1.104	1.094	1.089	1.104	1.104	1.113
0.000	-0.015	-0.005	-0.020	0.000	0.015	0.039	1.772	1.099	1.094	1.089	1.104	1.099	1.108
0.010	-0.010	-0.005	-0.020	0.000	0.015	0.034	1.792	1.104	1.094	1.089	1.108	1.099	1.104
0.005	-0.049	-0.005	-0.005	-0.005	0.010	0.034	1.714	1.094	1.084	1.089	1.108	1.104	1.104
0.005	-0.054	-0.010	0.005	0.000	0.000	0.034	1.797	1.099	1.089	1.089	1.113	1.099	1.099
0.020	-0.039	0.000	0.005	-0.010	0.005	0.034	1.787	1.108	1.094	1.094	1.113	1.104	1.104
0.015	0.015	-0.005	0.010	-0.005	0.005	0.034	1.738	1.104	1.113	1.099	1.113	1.104	1.099
0.010	0.010	-0.005	0.005	-0.024	0.000	0.029	1.782	1.104	1.104	1.099	1.113	1.099	1.099
-0.010	0.024	0.005	0.000	-0.024	0.010	0.029	1.782	1.099	1.108	1.104	1.113	1.104	1.104
-0.020	0.068	-0.005	0.000	-0.020	-0.005	0.029	1.782	1.094	1.113	1.104	1.118	1.104	1.099
-0.010	0.015	-0.005	-0.005	-0.020	-0.005	0.029	1.748	1.094	1.099	1.099	1.118	1.108	1.099
-0.005	0.005	-0.005	-0.005	-0.005	-0.005	0.029	1.777	1.094	1.094	1.099	1.113	1.113	1.108
-0.010	-0.005	-0.005	-0.010	0.005	0.005	0.029	1.797	1.099	1.089	1.094	1.113	1.113	1.108
-0.015	-0.020	-0.005	-0.005	0.005	0.005	0.029	1.763	1.094	1.084	1.094	1.113	1.113	1.108
-0.024	0.020	0.000	0.000	0.020	0.000	0.029	1.787	1.089	1.099	1.094	1.118	1.113	1.113
-0.015	0.005	0.005	-0.005	0.020	0.010	0.029	1.787	1.099	1.089	1.094	1.113	1.113	1.113
0.015	-0.029	0.005	-0.010	0.020	-0.010	0.029	1.733	1.099	1.089	1.089	1.108	1.108	1.108
0.015	-0.029	-0.005	-0.010	0.015	0.000	0.029	1.777	1.099	1.089	1.089	1.108	1.108	1.108
0.005	0.010	-0.005	-0.015	0.010	0.005	0.029	1.772	1.099	1.108	1.094	1.108	1.108	1.108
0.015	0.034	-0.010	0.000	0.010	-0.020	0.029	1.729	1.099	1.108	1.094	1.113	1.108	1.099
0.010	0.015	-0.005	0.000	0.000	0.000	0.029	1.797	1.099	1.099	1.099	1.113	1.108	1.108
0.010	-0.005	-0.005	0.015	0.000	0.010	0.029	1.792	1.099	1.094	1.099	1.118	1.108	1.108
-0.010	0.020	-0.005	0.010	-0.005	0.005	0.029	1.777	1.094	1.099	1.099	1.113	1.108	1.108
-0.015	0.024	-0.005	0.010	-0.005	-0.015	0.029	1.797	1.094	1.099	1.099	1.118	1.108	1.104
-0.020	0.029	-0.005	0.010	0.000	-0.010	0.029	1.787	1.094	1.099	1.099	1.118	1.108	1.104
-0.005	0.005	-0.005	0.000	0.000	0.005	0.029	1.797	1.104	1.094	1.099	1.113	1.108	1.108
-0.015	-0.010	0.010	-0.005	0.000	-0.010	0.029	1.807	1.099	1.089	1.099	1.113	1.113	1.108
-0.005	-0.010	0.000	0.000	-0.005	0.005	0.029	1.777	1.099	1.094	1.094	1.113	1.108	1.113
0.000	-0.015	0.000	0.000	-0.005	0.005	0.029	1.763	1.104	1.094	1.094	1.113	1.108	1.113
0.005	-0.015	-0.005	-0.005	-0.005	0.015	0.029	1.758	1.099	1.094	1.094	1.108	1.108	1.113
0.005	-0.010	-0.005	-0.005	0.000	0.000	0.029	1.777	1.099	1.099	1.089	1.108	1.108	1.108
0.000	-0.015	-0.005	-0.005	0.000	0.010	0.029	1.772	1.094	1.099	1.094	1.108	1.104	1.108
0.000	-0.029	-0.005	-0.005	-0.005	0.010	0.029	1.758	1.094	1.089	1.094	1.108	1.104	1.108
0.000	-0.015	0.000	-0.005	-0.010	-0.020	0.029	1.812	1.094	1.094	1.094	1.108	1.104	1.099
-0.005	-0.015	0.010	-0.005	-0.010	-0.020	0.029	1.763	1.094	1.094	1.094	1.108	1.104	1.094
-0.015	-0.005	0.000	-0.005	-0.015	-0.039	0.029	1.768	1.094	1.094	1.094	1.108	1.104	1.094
-0.005	0.015	0.005	-0.005	-0.010	-0.034	0.029	1.763	1.099	1.104	1.094	1.113	1.108	1.099
-0.005	-0.005	0.005	0.005	-0.005	-0.029	0.029	1.748	1.094	1.094	1.094	1.113	1.108	1.104
0.000	-0.010	-0.010	0.000	0.000	-0.010	0.029	1.807	1.099	1.094	1.089	1.113	1.108	1.108
0.005	-0.020	0.000	-0.005	-0.010	0.015	0.029	1.782	1.099	1.094	1.094	1.108	1.108	1.113
0.005	-0.024	-0.005	0.010	-0.010	0.015	0.029	1.763	1.094	1.094	1.094	1.113	1.108	1.113
0.005	-0.024	-0.005	0.005	-0.005	0.024	0.029	1.802	1.099	1.089	1.094	1.113	1.113	1.118
0.000	0.010	-0.005	0.000	-0.005	0.000	0.029	1.768	1.104	1.104	1.094	1.113	1.108	1.104
0.000	0.020	-0.010	0.005	-0.005	0.015	0.029	1.738	1.099	1.104	1.099	1.113	1.108	1.108
-0.005	0.029	-0.005	0.000	-0.005	-0.010	0.029	1.782	1.094	1.104	1.099	1.113	1.108	1.099
-0.005	0.020	0.000	-0.005	0.000	-0.034	0.029	1.807	1.099	1.099	1.099	1.113	1.108	1.099
-0.015	0.000	-0.005	-0.005	0.000	-0.005	0.029	1.758	1.089	1.094	1.094	1.113	1.108	1.108
-0.010	0.010	-0.005	-0.005	-0.015	0.000	0.029	1.777	1.094	1.094	1.094	1.113	1.104	1.108
-0.015	-0.020	0.005	-0.005	-0.015	-0.005	0.029	1.792	1.099	1.084	1.094	1.113	1.104	1.104
-0.005	-0.039	0.005	-0.005	-0.015	0.015	0.029	1.753	1.094	1.079	1.089	1.113	1.104	1.108
0.005	-0.034	0.000	0.000	-0.005	0.005	0.029	1.743	1.094	1.089	1.089	1.108	1.108	1.108
0.010	-0.039	-0.005	0.000	0.000	0.020	0.029	1.777	1.099	1.089	1.089	1.108	1.104	1.108
0.000	-0.020	0.005	-0.005	0.000	0.015	0.029	1.763	1.099	1.094	1.089	1.108	1.104	1.108
0.015	-0.029	0.005	0.005	-0.010	0.005	0.029	1.748	1.099	1.099	1.094	1.108	1.104	1.104
0.010	0.161	0.000	0.000	0.024	0.020	0.029	1.797	1.108	1.152	1.108	1.113	1.113	1.113
0.000	0.156	0.005	0.000	0.049	0.015	0.029	1.812	1.108	1.133	1.118	1.123	1.123	1.113
0.010	0.039	0.000	-0.005	0.044	0.005	0.029	1.758	1.108	1.094	1.108	1.123	1.118	1.108
0.005	-0.034	-0.005	0.005	0.034	-0.010	0.029	1.782	1.094	1.074	1.094	1.123	1.113	1.108
-0.010	-0.044	-0.005	0.005	0.024	0.000	0.029	1.792	1.094	1.074	1.089	1.118	1.113	1.108
-0.015	-0.034	-0.010	-0.005	0.034	-0.005	0.024	1.763	1.094	1.084	1.084	1.113	1.118	1.108
-0.010	-0.029	0.000	0.000	0.059	-0.015	0.029	1.748	1.094	1.089	1.089	1.113	1.118	1.113
-0.005	-0.024	0.010	0.000	0.049	0.024	0.029	1.782	1.099	1.094	1.089	1.113	1.113	1.123
0.005	-0.005	0.005	0.000	0.029	-0.015	0.029	1.812	1.104	1.099	1.089	1.108	1.108	1.104
0.000	0.049	-0.005	-0.005	0.020	0.000	0.029	1.802	1.108	1.113	1.094	1.108	1.104	1.108
-0.005	0.015	-0.015	-0.005	0.005	0.000	0.029	1.802	1.104	1.099	1.094	1.108	1.099	1.104
0.000	-0.044	-0.010	-0.010	0.015	0.005	0.029	1.748	1.099	1.084	1.089	1.108	1.104	1.104
0.000	-0.054	-0.010	-0.010	0.005	-0.005	0.029	1.807	1.104	1.089	1.089	1.108	1.099	1.099
-0.005	-0.029	-0.015	0.000	-0.015	-0.005	0.029	1.772	1.099	1.099	1.094	1.108	1.094	1.099
-0.010	0.015	-0.020	0.005	-0.039	-0.010	0.029	1.782	1.099	1.108	1.094	1.108	1.089	1.094
