0.005	-0.020	-0.005	0.000	0.024	-0.010	0.034	2.671	3.086	2.378	2.217	2.070	2.104	2.061
0.010	-0.005	-0.005	0.000	0.005	0.000	0.034	2.681	2.803	2.505	2.295	2.134	2.104	2.075
0.005	-0.005	-0.005	0.005	0.005	-0.010	0.034	2.671	2.593	2.539	2.363	2.197	2.129	2.085
0.005	0.000	-0.005	0.000	-0.005	0.000	0.034	2.651	2.437	2.515	2.407	2.261	2.158	2.104
0.005	0.005	0.000	0.000	-0.010	0.010	0.029	2.690	2.334	2.471	2.427	2.310	2.192	2.129
-0.005	0.010	0.000	0.005	0.010	-0.020	0.029	2.681	2.256	2.412	2.427	2.349	2.241	2.153
0.000	0.010	0.005	0.000	0.010	0.005	0.034	2.690	2.202	2.358	2.412	2.373	2.275	2.192
0.000	0.015	0.005	0.000	0.020	0.005	0.034	2.666	2.168	2.314	2.383	2.378	2.305	2.222
-0.005	0.000	0.005	0.000	0.005	0.000	0.029	2.690	2.148	2.261	2.354	2.378	2.319	2.246
-0.005	-0.005	0.005	0.005	0.005	-0.010	0.034	2.681	2.134	2.227	2.319	2.368	2.334	2.271
-0.010	0.005	0.010	0.000	0.015	0.005	0.034	2.681	2.124	2.202	2.290	2.354	2.344	2.295
-0.015	0.020	0.005	0.000	0.015	-0.005	0.034	2.656	2.124	2.183	2.261	2.334	2.339	2.305
-0.015	0.005	0.000	0.005	-0.015	0.000	0.034	2.671	2.114	2.163	2.231	2.310	2.324	2.310
0.000	0.010	0.000	0.005	-0.024	0.000	0.034	2.690	2.124	2.153	2.207	2.290	2.310	2.310
-0.005	-0.005	0.000	0.000	-0.020	0.010	0.034	2.676	2.119	2.144	2.187	2.266	2.300	2.310
-0.005	-0.010	0.000	0.000	-0.005	0.029	0.034	2.681	2.124	2.134	2.173	2.246	2.290	2.310
0.005	-0.005	-0.005	0.000	-0.005	0.015	0.029	2.681	2.124	2.134	2.163	2.227	2.271	2.295
0.010	-0.005	-0.005	0.000	0.000	0.005	0.034	2.676	2.124	2.129	2.153	2.212	2.256	2.275
0.010	-0.010	-0.005	0.000	0.015	-0.005	0.034	2.656	2.119	2.129	2.144	2.197	2.241	2.271
0.005	-0.005	-0.005	0.000	0.005	-0.020	0.034	2.651	2.114	2.129	2.139	2.183	2.222	2.256
0.010	-0.010	0.000	0.005	0.005	0.005	0.029	2.661	2.114	2.124	2.134	2.183	2.207	2.246
0.005	-0.015	0.000	0.005	0.029	-0.010	0.029	2.681	2.109	2.119	2.129	2.173	2.202	2.231
0.005	0.000	0.005	0.000	0.020	0.010	0.034	2.671	2.109	2.119	2.129	2.163	2.187	2.222
-0.005	0.005	0.000	0.000	-0.020	0.010	0.034	2.686	2.109	2.119	2.124	2.158	2.168	2.207
-0.010	0.010	0.000	0.000	-0.020	0.010	0.029	2.686	2.104	2.114	2.124	2.153	2.163	2.192
-0.005	0.005	0.010	0.000	0.005	0.005	0.034	2.681	2.104	2.114	2.119	2.148	2.168	2.187
-0.010	0.010	0.000	0.000	0.020	0.000	0.034	2.671	2.100	2.109	2.119	2.148	2.163	2.183
-0.005	0.005	0.005	0.000	0.010	0.000	0.034	2.651	2.100	2.109	2.114	2.144	2.153	2.173
0.005	0.010	0.000	0.000	0.010	0.000	0.034	2.690	2.100	2.104	2.109	2.139	2.148	2.168
-0.005	0.000	-0.005	0.000	0.015	0.010	0.034	2.676	2.095	2.100	2.104	2.139	2.148	2.163
0.000	-0.005	-0.005	0.005	0.010	0.000	0.034	2.671	2.095	2.095	2.104	2.134	2.139	2.153
0.005	-0.020	0.000	0.000	0.015	-0.020	0.034	2.666	2.085	2.090	2.100	2.129	2.134	2.148
0.015	-0.015	-0.010	0.000	-0.005	0.005	0.034	2.676	2.085	2.085	2.095	2.119	2.124	2.144
0.005	-0.010	0.000	0.005	-0.005	-0.010	0.034	2.671	2.080	2.090	2.095	2.119	2.119	2.134
0.010	-0.005	0.000	0.000	-0.010	-0.015	0.034	2.690	2.080	2.085	2.095	2.114	2.119	2.129
0.005	-0.005	0.000	0.000	-0.015	-0.015	0.034	2.651	2.070	2.080	2.090	2.114	2.114	2.124
0.000	0.010	-0.005	0.005	-0.024	0.010	0.034	2.661	2.065	2.080	2.085	2.109	2.109	2.129
0.005	0.005	-0.005	0.000	-0.010	0.015	0.034	2.671	2.065	2.075	2.080	2.104	2.114	2.124
0.005	0.000	0.000	0.005	0.029	0.015	0.034	2.671	2.065	2.075	2.080	2.104	2.119	2.124
0.005	0.015	0.000	0.000	-0.005	-0.015	0.034	2.681	2.061	2.075	2.080	2.100	2.100	2.109
-0.005	0.015	0.005	0.000	-0.034	-0.005	0.034	2.686	2.061	2.070	2.075	2.100	2.095	2.104
-0.005	0.010	0.010	0.005	-0.020	0.005	0.029	2.681	2.056	2.065	2.070	2.100	2.100	2.109
-0.005	0.010	0.005	0.000	0.010	0.000	0.034	2.681	2.056	2.061	2.070	2.100	2.104	2.104
-0.005	0.005	0.005	0.005	0.024	-0.005	0.034	2.632	2.046	2.061	2.065	2.095	2.104	2.104
-0.005	0.015	0.000	0.000	0.024	-0.005	0.034	2.666	2.046	2.056	2.061	2.090	2.100	2.104
0.000	0.005	0.005	0.000	0.010	-0.020	0.034	2.690	2.046	2.051	2.061	2.085	2.090	2.100
-0.005	-0.005	0.000	0.005	-0.010	-0.010	0.034	2.666	2.046	2.046	2.056	2.085	2.085	2.095
0.005	0.000	0.000	0.000	0.000	-0.020	0.034	2.671	2.046	2.046	2.051	2.080	2.085	2.085
0.005	-0.005	-0.005	0.000	0.024	-0.010	0.034	2.686	2.041	2.041	2.051	2.075	2.085	2.090
0.010	-0.005	0.000	-0.005	0.015	0.015	0.034	2.676	2.041	2.041	2.046	2.070	2.080	2.095
0.005	0.005	-0.005	0.005	-0.020	0.005	0.034	2.681	2.036	2.041	2.041	2.070	2.065	2.080
0.005	0.000	-0.005	0.000	-0.020	-0.010	0.029	2.651	2.031	2.036	2.041	2.065	2.061	2.070
0.010	-0.005	0.000	0.000	-0.015	-0.010	0.034	2.681	2.026	2.036	2.041	2.061	2.065	2.070
0.010	-0.005	-0.005	0.005	-0.005	0.010	0.034	2.671	2.026	2.031	2.036	2.061	2.065	2.075
0.000	0.000	0.000	-0.005	0.020	0.015	0.029	2.686	2.026	2.031	2.036	2.061	2.070	2.070
-0.005	0.005	0.005	0.000	0.024	0.029	0.034	2.690	2.026	2.026	2.036	2.061	2.065	2.075
0.010	0.010	0.005	0.000	-0.010	0.039	0.029	2.681	2.026	2.031	2.031	2.056	2.056	2.070
0.000	0.005	0.005	0.005	-0.005	0.005	0.034	2.676	2.021	2.026	2.031	2.056	2.056	2.061
-0.010	0.024	0.005	0.000	0.034	0.020	0.034	2.681	2.017	2.026	2.031	2.051	2.061	2.065
-0.010	0.024	0.005	0.000	0.020	0.000	0.034	2.651	2.017	2.026	2.026	2.051	2.056	2.056
0.000	0.010	0.010	0.005	0.039	-0.015	0.034	2.676	2.017	2.017	2.026	2.051	2.061	2.051
0.000	0.005	0.000	0.000	0.024	-0.024	0.034	2.676	2.012	2.017	2.021	2.046	2.046	2.051
0.000	0.000	0.005	-0.005	-0.010	-0.015	0.034	2.686	2.012	2.012	2.017	2.041	2.036	2.046
-0.005	-0.005	0.000	0.005	-0.034	-0.024	0.034	2.681	2.007	2.012	2.017	2.041	2.031	2.036
0.005	-0.005	0.000	0.005	-0.049	-0.010	0.034	2.686	2.012	2.012	2.012	2.036	2.026	2.041
0.000	-0.010	0.000	0.005	-0.049	0.000	0.034	2.681	2.002	2.007	2.012	2.036	2.031	2.041
0.005	-0.005	0.000	0.000	-0.010	0.015	0.034	2.671	2.002	2.007	2.007	2.031	2.041	2.046
0.000	-0.010	-0.005	0.000	0.029	0.005	0.034	2.637	1.997	2.002	2.002	2.031	2.046	2.041
0.010	-0.015	0.000	0.005	0.054	-0.005	0.034	2.666	1.997	1.997	2.002	2.026	2.046	2.041
0.005	-0.005	-0.005	0.000	0.034	-0.005	0.034	2.676	1.992	2.002	2.002	2.026	2.031	2.036
0.010	0.000	-0.005	0.000	0.024	0.005	0.034	2.671	1.992	1.997	2.002	2.021	2.026	2.036
0.000	0.000	0.000	0.005	0.020	0.005	0.034	2.690	1.997	1.997	1.997	2.021	2.021	2.031
0.000	-0.005	0.000	0.000	0.005	0.000	0.029	2.690	1.992	1.997	1.997	2.021	2.017	2.026
-0.005	0.000	0.005	0.005	-0.005	0.010	0.034	2.695	1.992	1.997	1.997	2.017	2.017	2.026
-0.010	0.000	0.005	0.005	-0.020	0.010	0.034	2.676	1.987	1.992	1.997	2.017	2.012	2.021
0.005	0.005	0.005	0.000	-0.034	0.000	0.034	2.646	1.987	1.992	1.992	2.012	2.007	2.012
0.000	0.010	0.005	0.005	-0.034	0.015	0.034	2.690	1.982	1.987	1.992	2.017	2.007	2.017
0.000	0.005	0.005	0.000	-0.020	0.015	0.034	2.686	1.978	1.987	1.992	2.017	2.012	2.017
-0.010	0.000	0.005	0.000	-0.015	0.010	0.029	2.681	1.978	1.982	1.987	2.012	2.012	2.012
-0.005	0.000	0.000	0.000	-0.010	0.010	0.034	2.681	1.978	1.982	1.987	2.007	2.012	2.012
0.000	-0.015	0.000	0.005	0.015	0.000	0.029	2.686	1.982	1.978	1.982	2.007	2.017	2.007
0.015	-0.010	-0.005	0.005	0.029	-0.005	0.034	2.681	1.982	1.978	1.978	2.007	2.017	2.012
0.010	-0.015	-0.005	0.000	0.034	0.005	0.034	2.671	1.973	1.978	1.978	2.002	2.012	2.012
0.010	0.000	-0.005	0.000	0.044	0.005	0.034	2.646	1.973	1.978	1.982	2.002	2.007	2.012
0.010	-0.005	-0.005	0.000	0.005	0.005	0.034	2.676	1.973	1.978	1.978	1.997	1.997	2.007
0.010	0.000	-0.005	0.000	0.010	0.010	0.034	2.671	1.968	1.973	1.978	1.997	2.002	2.007
0.010	0.000	0.000	0.000	0.059	-0.005	0.034	2.681	1.968	1.973	1.973	1.997	2.012	2.002
0.005	0.005	0.000	0.000	0.000	-0.010	0.034	2.676	1.968	1.973	1.973	1.992	1.987	1.997
0.005	0.015	0.005	0.000	-0.015	-0.005	0.034	2.671	1.963	1.973	1.978	1.992	1.982	1.992
-0.005	0.015	0.010	0.000	0.005	-0.024	0.034	2.681	1.958	1.968	1.973	1.992	1.987	1.987
0.000	0.005	0.010	0.005	0.024	0.005	0.034	2.681	1.963	1.963	1.973	1.992	1.997	1.997
-0.005	0.005	0.000	0.000	0.015	0.005	0.034	2.651	1.958	1.963	1.968	1.992	1.987	1.997
-0.005	0.015	0.005	0.005	-0.020	0.000	0.029	2.666	1.958	1.963	1.968	1.987	1.982	1.992
-0.005	0.010	0.005	0.005	-0.024	-0.010	0.034	2.676	1.963	1.958	1.963	1.987	1.978	1.982
-0.005	0.005	0.005	0.005	-0.029	-0.005	0.034	2.686	1.958	1.958	1.963	1.982	1.978	1.982
0.000	0.005	0.005	0.000	-0.024	0.000	0.034	2.651	1.958	1.963	1.963	1.982	1.982	1.987
-0.005	0.010	0.000	0.005	-0.024	0.010	0.034	2.676	1.958	1.958	1.958	1.982	1.982	1.982
0.000	0.005	0.000	0.000	-0.010	0.000	0.034	2.676	1.958	1.958	1.958	1.978	1.982	1.982
0.010	-0.005	0.000	0.000	-0.015	0.015	0.034	2.676	1.958	1.953	1.953	1.978	1.982	1.987
0.005	-0.015	-0.010	0.005	-0.005	0.000	0.034	2.651	1.953	1.948	1.953	1.978	1.978	1.978
0.000	-0.005	-0.005	0.000	-0.010	0.015	0.034	2.671	1.948	1.953	1.953	1.973	1.973	1.982
0.010	-0.010	-0.005	0.000	-0.005	0.000	0.029	2.686	1.948	1.948	1.953	1.973	1.973	1.973
0.010	-0.005	-0.005	0.000	0.000	-0.020	0.029	2.676	1.948	1.948	1.948	1.973	1.973	1.968
0.005	-0.020	0.000	0.000	0.000	-0.024	0.034	2.671	1.948	1.943	1.948	1.968	1.973	1.968
0.000	-0.005	0.000	0.000	-0.005	-0.005	0.034	2.690	1.948	1.948	1.948	1.968	1.968	1.973
-0.005	0.005	0.000	0.000	0.000	0.010	0.034	2.681	1.948	1.948	1.948	1.968	1.973	1.973
0.000	0.015	0.000	0.000	0.005	0.015	0.034	2.686	1.948	1.953	1.948	1.968	1.973	1.978
0.000	0.010	0.000	0.005	-0.005	0.005	0.034	2.676	1.948	1.948	1.948	1.968	1.968	1.973
0.000	0.005	0.005	0.010	0.000	0.005	0.034	2.681	1.948	1.948	1.953	1.968	1.968	1.973
-0.005	0.010	0.000	0.000	-0.010	-0.005	0.034	2.681	1.943	1.948	1.948	1.968	1.963	1.963
-0.010	0.015	0.010	0.000	-0.015	-0.005	0.034	2.681	1.943	1.948	1.948	1.968	1.963	1.963
0.000	0.005	0.005	0.000	0.005	-0.020	0.034	2.681	1.948	1.943	1.948	1.968	1.968	1.963
-0.005	0.000	0.005	0.000	0.010	-0.015	0.034	2.681	1.943	1.943	1.943	1.963	1.968	1.963
0.005	0.000	0.000	0.005	0.000	-0.024	0.034	2.686	1.948	1.943	1.943	1.963	1.963	1.958
0.005	-0.005	-0.010	0.005	0.010	-0.020	0.034	2.666	1.938	1.943	1.938	1.963	1.963	1.963
0.010	-0.005	-0.005	0.000	0.005	0.000	0.034	2.681	1.943	1.938	1.938	1.958	1.963	1.968
0.000	0.000	-0.005	0.000	0.024	0.020	0.034	2.686	1.938	1.938	1.938	1.958	1.968	1.973
0.005	-0.020	-0.005	0.000	0.010	0.010	0.034	2.666	1.934	1.934	1.938	1.953	1.958	1.968
0.005	-0.010	-0.005	-0.005	0.000	0.005	0.034	2.661	1.934	1.934	1.934	1.958	1.953	1.958
0.000	0.000	0.000	0.000	0.005	0.015	0.034	2.686	1.934	1.938	1.938	1.958	1.953	1.963
0.005	0.005	0.000	0.000	0.010	0.005	0.029	2.686	1.938	1.938	1.938	1.958	1.953	1.953
0.010	0.010	0.005	0.000	0.005	0.015	0.034	2.671	1.934	1.938	1.938	1.953	1.948	1.958
0.000	0.005	0.005	0.000	-0.005	0.015	0.029	2.681	1.929	1.934	1.938	1.953	1.948	1.953
0.000	0.000	0.005	0.000	0.000	0.015	0.034	2.666	1.929	1.934	1.934	1.953	1.953	1.953
-0.010	-0.005	0.005	0.005	0.000	0.005	0.034	2.671	1.929	1.929	1.934	1.953	1.948	1.948
-0.005	0.015	0.005	0.000	0.010	0.005	0.034	2.676	1.929	1.934	1.934	1.953	1.953	1.953
0.005	0.010	0.015	0.000	0.010	-0.015	0.034	2.666	1.929	1.934	1.934	1.953	1.953	1.948
0.005	0.000	0.010	0.010	0.005	0.000	0.034	2.671	1.929	1.929	1.929	1.953	1.948	1.948
-0.005	0.010	0.010	0.000	0.000	0.010	0.034	2.671	1.929	1.929	1.929	1.948	1.948	1.953
-0.005	0.005	0.000	0.000	0.000	0.000	0.034	2.671	1.924	1.929	1.929	1.948	1.943	1.948
0.000	0.000	0.005	0.000	-0.005	0.005	0.034	2.690	1.929	1.924	1.924	1.948	1.943	1.948
0.000	-0.005	0.000	0.005	0.005	-0.015	0.034	2.676	1.924	1.924	1.924	1.948	1.943	1.943
0.005	-0.010	0.000	0.000	0.000	0.005	0.034	2.676	1.924	1.924	1.919	1.943	1.943	1.948
0.000	-0.005	-0.010	0.000	0.000	-0.010	0.034	2.671	1.924	1.924	1.919	1.943	1.938	1.938
0.010	0.000	-0.005	0.005	-0.005	0.005	0.034	2.671	1.919	1.924	1.924	1.943	1.938	1.943
0.005	0.000	-0.010	0.000	-0.010	0.010	0.034	2.681	1.924	1.919	1.919	1.938	1.938	1.943
0.000	-0.005	0.000	0.000	-0.005	-0.010	0.034	2.686	1.924	1.919	1.919	1.938	1.938	1.934
0.000	-0.005	-0.005	0.000	0.005	-0.005	0.034	2.676	1.919	1.919	1.919	1.938	1.938	1.938
0.005	0.024	-0.005	-0.005	0.000	0.015	0.029	2.686	1.924	1.924	1.919	1.938	1.938	1.943
-0.005	0.010	0.000	0.000	0.015	0.024	0.029	2.651	1.914	1.919	1.919	1.938	1.943	1.943
-0.005	0.005	0.005	0.000	0.015	0.020	0.034	2.676	1.919	1.919	1.919	1.943	1.938	1.943
-0.005	0.000	0.005	0.000	0.010	-0.005	0.034	2.690	1.919	1.919	1.919	1.938	1.934	1.934
0.005	0.020	0.000	0.005	0.010	-0.010	0.034	2.681	1.919	1.919	1.919	1.938	1.934	1.934
-0.005	0.020	0.005	0.005	0.005	-0.039	0.034	2.671	1.919	1.924	1.919	1.938	1.934	1.929
-0.010	0.020	0.005	0.005	0.000	-0.054	0.034	2.690	1.919	1.919	1.919	1.938	1.934	1.929
-0.005	0.010	0.005	-0.005	-0.005	-0.020	0.029	2.695	1.919	1.914	1.919	1.938	1.929	1.934
-0.005	0.000	0.000	0.000	-0.010	0.024	0.034	2.695	1.919	1.914	1.914	1.934	1.934	1.943
0.010	-0.005	0.005	0.000	-0.005	0.029	0.034	2.671	1.919	1.919	1.914	1.934	1.934	1.943
-0.005	-0.005	0.005	0.000	0.015	0.005	0.034	2.686	1.919	1.914	1.914	1.934	1.938	1.934
0.000	-0.015	0.000	0.005	-0.005	-0.034	0.034	2.656	1.919	1.914	1.909	1.934	1.929	1.919
0.015	-0.020	-0.005	0.000	-0.005	-0.005	0.034	2.676	1.914	1.909	1.909	1.934	1.929	1.929
0.005	-0.010	0.000	0.000	0.005	-0.010	0.034	2.671	1.914	1.914	1.909	1.929	1.929	1.929
-0.005	-0.010	0.000	0.000	0.010	0.005	0.034	2.681	1.909	1.909	1.909	1.934	1.929	1.934
0.010	-0.005	0.000	0.000	-0.010	0.010	0.034	2.690	1.914	1.914	1.909	1.929	1.924	1.934
-0.005	0.000	0.000	0.000	-0.034	-0.020	0.034	2.681	1.914	1.914	1.909	1.929	1.914	1.919
0.000	0.000	0.000	0.000	-0.034	0.005	0.034	2.695	1.914	1.914	1.909	1.929	1.919	1.924
0.000	0.005	0.005	0.000	-0.005	0.000	0.034	2.690	1.914	1.909	1.914	1.929	1.929	1.924
-0.020	0.005	0.005	0.000	0.015	0.010	0.034	2.681	1.909	1.914	1.914	1.929	1.934	1.929
0.000	0.015	0.010	0.000	0.029	0.015	0.034	2.686	1.909	1.909	1.914	1.934	1.934	1.934
-0.005	0.000	0.005	0.000	0.034	0.020	0.034	2.676	1.909	1.909	1.909	1.929	1.934	1.934
-0.005	0.005	0.005	0.005	0.024	0.010	0.029	2.681	1.914	1.914	1.909	1.929	1.929	1.929
0.000	0.010	0.000	0.000	0.020	-0.010	0.034	2.671	1.914	1.914	1.909	1.929	1.929	1.924
-0.005	0.000	0.005	0.000	0.024	-0.024	0.029	2.686	1.909	1.909	1.909	1.929	1.929	1.919
0.005	-0.005	0.000	0.000	0.010	0.000	0.029	2.690	1.909	1.909	1.909	1.929	1.924	1.924
0.000	0.000	0.000	0.000	0.005	-0.005	0.034	2.686	1.909	1.909	1.904	1.924	1.919	1.924
0.000	0.000	-0.005	0.000	-0.005	-0.005	0.034	2.681	1.909	1.909	1.904	1.924	1.914	1.919
0.005	0.000	0.000	0.000	-0.010	-0.005	0.034	2.686	1.909	1.909	1.904	1.924	1.919	1.919
0.005	-0.005	-0.005	0.000	-0.010	0.020	0.029	2.671	1.909	1.904	1.904	1.924	1.919	1.924
0.005	-0.010	-0.005	0.005	0.005	0.000	0.034	2.686	1.909	1.904	1.904	1.924	1.924	1.919
0.005	0.000	-0.005	0.000	-0.005	0.000	0.034	2.690	1.909	1.904	1.904	1.924	1.919	1.919
-0.005	-0.005	-0.005	0.005	-0.034	0.010	0.034	2.690	1.904	1.904	1.904	1.924	1.909	1.919
0.010	-0.005	0.005	0.000	-0.054	-0.005	0.034	2.676	1.904	1.904	1.904	1.924	1.909	1.914
-0.005	0.015	0.005	0.005	-0.039	0.010	0.034	2.681	1.904	1.909	1.904	1.924	1.914	1.919
-0.005	0.015	0.010	0.000	-0.020	0.005	0.034	2.686	1.904	1.909	1.909	1.924	1.924	1.919
-0.005	0.010	0.005	0.000	0.010	-0.015	0.034	2.681	1.904	1.904	1.904	1.924	1.929	1.914
-0.005	0.010	0.000	0.000	0.024	-0.010	0.034	2.681	1.904	1.904	1.904	1.924	1.929	1.919
-0.010	0.005	0.005	0.000	0.024	-0.010	0.029	2.676	1.904	1.904	1.904	1.924	1.929	1.924
-0.010	0.000	0.005	0.000	-0.024	0.000	0.034	2.686	1.904	1.899	1.899	1.924	1.909	1.919
0.000	0.005	0.005	0.000	-0.083	-0.005	0.034	2.686	1.909	1.904	1.899	1.919	1.895	1.909
0.010	0.000	0.005	0.005	-0.093	-0.005	0.034	2.676	1.904	1.904	1.899	1.924	1.899	1.909
-0.005	0.000	0.000	0.000	-0.063	0.010	0.034	2.671	1.899	1.904	1.899	1.919	1.914	1.914
0.000	-0.010	0.005	-0.005	0.000	0.005	0.034	2.686	1.904	1.899	1.899	1.919	1.934	1.914
0.005	-0.005	-0.005	0.000	0.073	0.010	0.034	2.666	1.899	1.904	1.899	1.919	1.948	1.929
0.010	-0.020	-0.005	0.000	0.098	0.005	0.029	2.666	1.899	1.899	1.899	1.919	1.943	1.934
0.010	-0.010	-0.010	0.000	0.083	0.000	0.034	2.681	1.899	1.899	1.895	1.919	1.934	1.934
0.005	-0.010	-0.005	-0.005	0.127	0.015	0.034	2.681	1.904	1.899	1.895	1.919	1.938	1.938
0.005	0.005	0.000	0.000	0.171	0.015	0.029	2.690	1.909	1.904	1.899	1.919	1.943	1.938
0.010	0.000	0.000	0.005	0.093	0.015	0.029	2.686	1.909	1.904	1.899	1.919	1.909	1.929
0.005	0.005	0.000	0.005	0.020	-0.005	0.034	2.686	1.904	1.909	1.899	1.914	1.895	1.909
0.000	0.015	0.000	0.000	0.010	-0.024	0.034	2.671	1.904	1.909	1.904	1.914	1.899	1.899
-0.005	0.020	0.005	0.000	0.020	-0.039	0.034	2.666	1.899	1.904	1.904	1.919	1.904	1.899
-0.010	0.010	0.005	0.000	0.005	0.000	0.034	2.686	1.899	1.899	1.904	1.919	1.904	1.909
-0.010	0.010	0.005	0.000	-0.029	-0.005	0.034	2.690	1.899	1.899	1.899	1.919	1.895	1.904
-0.010	-0.010	0.005	0.000	-0.034	0.024	0.034	2.676	1.895	1.895	1.899	1.919	1.899	1.909
-0.005	-0.005	0.000	0.005	-0.034	0.034	0.034	2.681	1.899	1.895	1.899	1.919	1.904	1.914
-0.005	0.010	0.005	0.000	-0.024	0.024	0.034	2.686	1.899	1.899	1.899	1.919	1.909	1.909
0.005	-0.010	0.005	0.005	-0.029	-0.005	0.034	2.686	1.899	1.895	1.895	1.919	1.909	1.899
-0.005	-0.005	0.005	0.000	-0.049	-0.020	0.034	2.676	1.904	1.899	1.895	1.919	1.899	1.895
0.005	0.000	0.000	0.005	-0.107	-0.024	0.029	2.676	1.899	1.899	1.895	1.914	1.890	1.890
0.005	0.000	-0.005	0.000	-0.103	-0.024	0.029	2.681	1.895	1.895	1.895	1.914	1.899	1.895
0.005	-0.010	-0.005	0.000	-0.005	-0.034	0.029	2.671	1.895	1.895	1.895	1.914	1.929	1.899
-0.005	-0.005	-0.005	-0.005	0.020	-0.005	0.034	2.681	1.895	1.895	1.890	1.914	1.924	1.914
0.015	0.005	0.005	0.000	-0.024	0.000	0.029	2.681	1.895	1.895	1.895	1.914	1.909	1.914
0.010	0.000	0.000	0.000	-0.039	0.024	0.029	2.686	1.895	1.895	1.895	1.914	1.909	1.919
0.005	0.005	0.005	0.005	0.010	0.020	0.029	2.671	1.895	1.895	1.895	1.914	1.924	1.919
0.005	0.005	0.000	0.005	-0.010	0.000	0.034	2.676	1.895	1.895	1.895	1.909	1.909	1.909
0.000	0.015	0.005	0.000	-0.024	0.005	0.034	2.671	1.895	1.899	1.895	1.909	1.909	1.909
0.000	0.020	0.000	0.005	0.029	0.015	0.034	2.686	1.895	1.895	1.895	1.914	1.924	1.919
-0.010	0.015	0.005	0.005	0.054	0.020	0.034	2.690	1.895	1.895	1.895	1.914	1.924	1.924
-0.010	0.015	0.010	0.005	0.039	0.020	0.034	2.676	1.899	1.895	1.895	1.914	1.919	1.924
-0.005	0.000	0.005	0.005	0.034	0.010	0.034	2.656	1.895	1.895	1.895	1.914	1.914	1.914
-0.005	0.005	0.005	0.000	0.024	-0.010	0.034	2.686	1.895	1.890	1.895	1.909	1.909	1.909
0.000	0.005	0.005	0.000	0.049	0.010	0.034	2.661	1.895	1.890	1.890	1.909	1.919	1.914
0.000	0.005	0.000	0.000	0.034	0.010	0.034	2.686	1.899	1.895	1.890	1.914	1.909	1.914
0.000	0.010	0.000	0.005	-0.010	0.000	0.034	2.690	1.899	1.895	1.890	1.909	1.895	1.899
0.000	-0.010	-0.005	0.000	0.005	-0.005	0.034	2.676	1.895	1.890	1.890	1.909	1.904	1.904
0.000	-0.005	-0.005	-0.005	0.000	-0.005	0.029	2.690	1.895	1.895	1.890	1.909	1.899	1.899
0.010	-0.005	-0.005	0.000	-0.020	-0.024	0.034	2.671	1.895	1.890	1.890	1.904	1.895	1.895
0.000	-0.010	-0.005	0.000	-0.020	-0.015	0.034	2.690	1.890	1.890	1.885	1.909	1.899	1.895
0.010	-0.005	-0.005	0.000	0.005	-0.010	0.034	2.671	1.890	1.890	1.890	1.909	1.904	1.899
0.015	0.015	-0.005	0.005	0.024	0.015	0.029	2.842	1.909	1.904	1.895	1.909	1.909	1.914
-0.005	0.015	0.000	0.000	0.020	0.005	0.034	2.686	1.904	1.899	1.895	1.914	1.904	1.904
-0.005	0.005	0.005	0.000	0.000	0.029	0.029	2.666	1.899	1.899	1.895	1.909	1.904	1.914
0.005	0.015	0.005	0.000	0.005	0.005	0.034	2.661	1.909	1.904	1.895	1.909	1.904	1.904
-0.005	0.005	0.005	0.005	-0.034	0.010	0.034	2.676	1.899	1.899	1.895	1.914	1.895	1.899
0.000	0.010	0.005	0.000	-0.039	-0.015	0.034	2.651	1.899	1.899	1.895	1.914	1.895	1.895
-0.010	0.010	0.010	-0.005	-0.034	-0.044	0.034	2.642	1.890	1.895	1.895	1.914	1.899	1.890
0.000	0.000	0.005	0.000	-0.034	-0.015	0.034	2.837	1.909	1.895	1.895	1.914	1.904	1.899
0.000	0.005	0.005	0.000	-0.044	0.024	0.034	2.690	1.904	1.899	1.895	1.914	1.904	1.909
0.000	-0.005	0.000	0.000	-0.020	0.034	0.029	2.686	1.899	1.895	1.895	1.914	1.909	1.914
0.005	-0.015	0.005	0.005	0.000	0.015	0.034	2.671	1.899	1.895	1.895	1.914	1.919	1.909
0.005	-0.005	-0.005	0.000	0.010	-0.010	0.034	2.671	1.895	1.895	1.890	1.914	1.914	1.904
0.010	-0.010	-0.005	0.000	0.015	0.010	0.034	2.671	1.895	1.895	1.895	1.914	1.914	1.914
0.005	-0.010	-0.005	0.000	0.020	0.000	0.034	2.666	1.895	1.890	1.895	1.909	1.914	1.909
0.010	-0.010	-0.005	0.000	0.034	0.000	0.034	2.661	1.890	1.890	1.895	1.909	1.914	1.914
-0.005	-0.010	-0.005	0.005	0.005	0.000	0.034	2.646	1.885	1.885	1.890	1.909	1.904	1.909
0.005	-0.005	0.000	0.005	-0.015	-0.010	0.034	2.637	1.880	1.890	1.890	1.909	1.899	1.904
0.010	-0.010	0.000	0.000	-0.010	-0.005	0.034	2.646	1.885	1.885	1.890	1.909	1.899	1.899
0.000	-0.005	0.000	0.005	-0.024	0.015	0.034	2.671	1.885	1.885	1.885	1.904	1.899	1.904
0.005	0.005	0.005	0.000	-0.015	0.015	0.029	2.817	1.904	1.890	1.890	1.909	1.904	1.904
-0.005	0.000	0.000	0.005	0.015	0.005	0.034	2.632	1.890	1.890	1.890	1.909	1.909	1.904
-0.005	0.000	0.005	-0.005	0.044	-0.015	0.034	2.827	1.899	1.890	1.890	1.909	1.919	1.904
-0.010	0.000	0.010	0.005	0.049	0.010	0.034	2.671	1.895	1.895	1.890	1.909	1.914	1.914
0.000	0.010	0.005	0.000	0.010	-0.024	0.034	2.671	1.895	1.895	1.890	1.904	1.899	1.904
-0.005	0.005	0.005	0.000	0.010	0.005	0.034	2.686	1.895	1.895	1.890	1.909	1.899	1.909
-0.005	0.005	0.005	0.000	-0.005	-0.005	0.034	2.686	1.899	1.895	1.890	1.909	1.895	1.904
0.000	-0.005	0.000	0.000	-0.015	-0.005	0.034	2.671	1.899	1.895	1.890	1.909	1.895	1.904
0.005	-0.005	0.000	0.005	0.015	0.010	0.034	2.661	1.890	1.890	1.890	1.909	1.909	1.904
0.000	-0.005	-0.005	0.000	0.044	0.010	0.034	2.666	1.885	1.885	1.890	1.909	1.914	1.909
0.000	-0.010	0.000	0.000	0.005	0.020	0.034	2.656	1.885	1.885	1.890	1.904	1.899	1.909
0.005	-0.005	-0.005	0.000	-0.020	0.015	0.034	2.651	1.885	1.885	1.885	1.904	1.895	1.904
0.010	0.000	-0.005	0.010	-0.020	0.005	0.034	2.622	1.880	1.890	1.885	1.904	1.895	1.895
-0.005	0.000	-0.005	0.000	-0.015	-0.020	0.034	2.661	1.875	1.880	1.880	1.904	1.895	1.890
0.005	-0.005	-0.005	0.005	-0.010	-0.005	0.034	2.642	1.880	1.880	1.885	1.904	1.899	1.895
-0.005	0.000	0.000	0.000	-0.020	-0.010	0.034	2.651	1.880	1.880	1.885	1.904	1.899	1.895
0.000	0.010	0.005	0.005	0.000	-0.005	0.034	2.651	1.880	1.880	1.885	1.904	1.899	1.899
0.000	0.005	0.000	0.000	0.029	0.005	0.034	2.681	1.885	1.880	1.880	1.904	1.909	1.899
-0.005	0.010	0.005	0.000	0.029	0.005	0.034	2.666	1.885	1.880	1.880	1.904	1.904	1.904
-0.010	0.005	0.005	0.000	0.015	-0.005	0.029	2.681	1.885	1.880	1.880	1.899	1.899	1.899
-0.010	0.010	0.000	0.000	0.010	-0.005	0.034	2.666	1.885	1.880	1.880	1.899	1.899	1.899
-0.005	0.015	0.000	0.010	0.000	0.005	0.029	2.676	1.885	1.885	1.880	1.899	1.895	1.899
-0.015	0.010	0.005	-0.005	-0.020	-0.005	0.034	2.671	1.885	1.885	1.880	1.899	1.885	1.895
0.005	0.010	0.000	0.000	0.000	0.005	0.034	2.666	1.890	1.885	1.880	1.899	1.899	1.899
0.005	0.015	0.000	-0.005	0.024	-0.005	0.034	2.666	1.890	1.885	1.880	1.899	1.904	1.895
0.005	0.005	0.000	0.005	-0.039	0.000	0.034	2.651	1.885	1.880	1.880	1.899	1.880	1.890
0.000	0.005	-0.005	0.000	-0.088	0.000	0.034	2.646	1.880	1.880	1.880	1.899	1.875	1.885
0.005	0.000	-0.005	-0.005	-0.054	0.000	0.034	2.651	1.880	1.880	1.880	1.895	1.890	1.890
0.005	-0.005	-0.010	0.000	0.024	0.020	0.034	2.734	1.875	1.875	1.875	1.899	1.909	1.899
0.010	-0.005	0.000	0.005	0.083	0.010	0.034	2.671	1.875	1.875	1.880	1.899	1.919	1.899
0.010	-0.005	0.000	0.005	0.049	-0.005	0.034	2.798	1.899	1.880	1.875	1.899	1.899	1.899
-0.005	0.000	0.000	0.000	0.015	-0.005	0.034	2.681	1.890	1.885	1.875	1.895	1.890	1.895
0.000	0.000	0.005	0.000	0.000	0.010	0.029	2.676	1.890	1.885	1.880	1.895	1.885	1.895
0.000	-0.005	0.000	0.000	0.000	-0.015	0.034	2.681	1.890	1.885	1.880	1.899	1.885	1.885
-0.005	-0.005	0.005	0.010	-0.015	0.005	0.034	2.681	1.885	1.880	1.880	1.899	1.885	1.895
-0.005	-0.010	0.010	0.000	-0.010	0.010	0.034	2.686	1.885	1.885	1.880	1.899	1.890	1.890
-0.005	0.005	0.005	0.000	-0.005	-0.005	0.029	2.671	1.880	1.885	1.885	1.899	1.895	1.890
0.000	0.005	0.005	0.005	0.015	-0.020	0.034	2.666	1.880	1.885	1.885	1.899	1.899	1.890
-0.005	-0.005	0.005	0.000	0.005	-0.010	0.029	2.661	1.880	1.880	1.880	1.899	1.895	1.890
-0.010	0.010	0.000	0.000	-0.024	-0.020	0.029	2.651	1.880	1.885	1.880	1.899	1.885	1.890
0.000	0.005	0.005	0.000	-0.020	-0.005	0.034	2.646	1.880	1.880	1.880	1.899	1.895	1.890
0.000	0.000	0.000	0.000	-0.015	-0.020	0.034	2.656	1.880	1.875	1.880	1.899	1.890	1.885
0.010	0.000	0.000	0.005	-0.015	-0.015	0.034	2.808	1.895	1.880	1.880	1.899	1.895	1.890
0.005	-0.005	-0.005	-0.005	0.024	-0.005	0.034	2.642	1.885	1.880	1.880	1.899	1.904	1.895
0.000	-0.015	-0.005	0.000	0.005	-0.005	0.034	2.822	1.899	1.880	1.880	1.895	1.895	1.895
0.010	-0.005	-0.005	0.000	-0.024	-0.005	0.029	2.676	1.899	1.890	1.880	1.899	1.890	1.895
0.010	0.000	-0.005	0.005	0.015	0.000	0.034	2.671	1.895	1.890	1.880	1.899	1.904	1.899
0.010	0.010	0.000	0.000	0.078	0.015	0.034	2.681	1.895	1.895	1.885	1.904	1.919	1.909
0.005	-0.005	-0.005	0.005	0.132	0.010	0.034	2.661	1.890	1.885	1.885	1.904	1.924	1.914
0.000	-0.010	0.000	0.000	0.117	0.010	0.034	2.681	1.890	1.885	1.885	1.904	1.914	1.914
-0.005	-0.005	0.000	0.000	0.054	0.015	0.034	2.676	1.885	1.885	1.885	1.899	1.890	1.904
-0.005	0.005	0.005	0.005	-0.010	0.020	0.034	2.666	1.885	1.890	1.885	1.899	1.875	1.899
-0.005	0.029	0.000	0.000	-0.034	0.020	0.034	2.656	1.885	1.890	1.885	1.904	1.875	1.890
0.000	0.029	0.005	0.000	-0.010	0.005	0.034	2.646	1.880	1.890	1.890	1.904	1.890	1.890
-0.005	0.020	0.000	0.000	-0.020	-0.020	0.034	2.637	1.875	1.880	1.885	1.904	1.890	1.880
0.000	0.005	0.010	0.000	-0.039	-0.015	0.034	2.661	1.875	1.875	1.880	1.904	1.885	1.885
-0.005	0.000	0.005	0.000	-0.034	0.000	0.034	2.793	1.890	1.875	1.880	1.899	1.890	1.885
0.000	-0.005	0.000	0.005	-0.034	0.000	0.029	2.642	1.880	1.875	1.880	1.899	1.895	1.890
0.005	-0.010	0.000	0.005	-0.020	0.005	0.034	2.642	1.875	1.875	1.875	1.899	1.899	1.895
0.000	-0.015	0.000	0.000	-0.015	0.005	0.034	2.847	1.899	1.880	1.875	1.895	1.895	1.890
0.000	-0.005	0.000	-0.005	0.005	-0.005	0.034	2.686	1.895	1.885	1.875	1.895	1.899	1.895
0.005	-0.005	-0.005	0.000	0.000	-0.015	0.029	2.676	1.890	1.885	1.880	1.895	1.895	1.890
0.000	-0.015	-0.005	0.005	-0.005	0.005	0.034	2.656	1.890	1.885	1.880	1.899	1.895	1.895
0.005	0.000	-0.010	0.000	-0.005	-0.020	0.034	2.671	1.890	1.885	1.880	1.895	1.895	1.890
0.005	0.000	0.000	0.000	-0.005	0.005	0.034	2.666	1.885	1.885	1.885	1.899	1.895	1.895
0.000	-0.005	0.000	0.000	0.000	0.000	0.034	2.666	1.880	1.880	1.880	1.899	1.895	1.895
-0.005	0.010	0.000	0.000	0.000	0.005	0.034	2.651	1.880	1.885	1.880	1.899	1.895	1.895
0.000	0.010	0.000	-0.005	0.000	0.000	0.034	2.661	1.880	1.880	1.885	1.899	1.895	1.895
-0.005	0.010	0.010	-0.005	-0.005	0.010	0.034	2.656	1.875	1.880	1.885	1.899	1.890	1.895
0.000	0.010	0.010	0.000	0.000	0.010	0.029	2.651	1.875	1.880	1.885	1.899	1.899	1.895
0.005	0.015	0.005	0.005	-0.005	0.010	0.034	2.783	1.890	1.880	1.880	1.904	1.895	1.895
-0.005	0.005	0.005	0.000	-0.005	0.010	0.034	2.646	1.880	1.880	1.880	1.899	1.895	1.899
-0.005	0.010	0.005	0.000	0.000	0.010	0.029	2.695	1.899	1.885	1.880	1.899	1.895	1.895
0.000	-0.005	0.000	0.000	0.005	0.000	0.034	2.681	1.899	1.885	1.880	1.899	1.895	1.895
0.005	-0.005	0.005	0.000	0.000	0.010	0.034	2.661	1.890	1.890	1.880	1.899	1.899	1.895
-0.005	-0.005	0.000	0.000	0.000	0.005	0.034	2.686	1.885	1.885	1.880	1.899	1.895	1.890
0.005	-0.034	0.000	0.000	0.000	0.000	0.034	2.676	1.890	1.875	1.880	1.899	1.895	1.890
0.000	-0.015	-0.005	0.000	0.005	0.000	0.034	2.681	1.885	1.885	1.880	1.899	1.895	1.895
0.005	-0.015	0.000	0.000	0.010	0.010	0.029	2.666	1.880	1.880	1.880	1.899	1.895	1.895
0.010	-0.020	0.000	0.005	0.000	0.015	0.029	2.656	1.880	1.880	1.880	1.895	1.895	1.895
0.005	0.005	0.000	-0.005	-0.010	0.015	0.034	2.642	1.880	1.885	1.880	1.895	1.885	1.895
0.015	0.005	0.000	0.005	-0.020	0.020	0.034	2.690	1.880	1.885	1.880	1.899	1.890	1.890
0.000	0.010	-0.005	0.000	-0.020	0.015	0.034	2.681	1.875	1.880	1.880	1.899	1.890	1.895
-0.005	0.005	0.005	0.000	-0.015	0.010	0.034	2.681	1.880	1.880	1.880	1.899	1.890	1.890
0.000	0.005	0.000	0.005	-0.005	0.000	0.034	2.676	1.880	1.880	1.880	1.899	1.895	1.890
-0.005	0.020	0.005	0.000	-0.010	0.000	0.034	2.676	1.880	1.880	1.880	1.899	1.895	1.890
0.000	0.029	0.005	0.000	-0.015	-0.015	0.034	2.646	1.875	1.885	1.880	1.899	1.895	1.885
-0.010	0.029	0.005	0.000	0.015	-0.024	0.034	2.817	1.895	1.885	1.880	1.899	1.904	1.890
-0.010	0.015	0.005	0.005	0.039	-0.010	0.034	2.822	1.909	1.885	1.880	1.899	1.909	1.895
0.000	0.010	0.005	0.000	0.044	-0.005	0.034	2.671	1.899	1.890	1.885	1.899	1.904	1.904
0.000	0.005	0.000	0.005	0.049	0.005	0.034	2.661	1.895	1.890	1.885	1.899	1.904	1.909
0.000	0.005	-0.005	0.000	0.034	-0.005	0.034	2.671	1.890	1.890	1.885	1.899	1.895	1.904
0.005	-0.010	0.000	0.005	0.029	0.005	0.034	2.661	1.885	1.880	1.885	1.899	1.895	1.899
0.005	-0.010	0.000	0.000	0.015	0.005	0.034	2.671	1.885	1.880	1.880	1.899	1.890	1.895
-0.005	-0.005	-0.005	0.000	-0.015	0.010	0.034	2.642	1.880	1.880	1.880	1.899	1.885	1.895
0.005	0.000	-0.005	0.005	-0.020	0.000	0.034	2.808	1.899	1.885	1.880	1.899	1.885	1.890
0.010	-0.015	-0.005	0.000	-0.015	-0.005	0.034	2.671	1.895	1.885	1.880	1.899	1.890	1.890
0.015	0.000	-0.005	0.005	-0.010	0.000	0.034	2.681	1.890	1.890	1.880	1.899	1.890	1.890
0.015	0.005	0.000	0.005	-0.029	0.005	0.034	2.676	1.885	1.890	1.885	1.899	1.885	1.885
0.005	0.000	0.000	0.000	-0.039	0.010	0.034	2.676	1.880	1.885	1.885	1.899	1.885	1.890
0.000	0.000	0.000	0.005	-0.044	0.000	0.029	2.681	1.880	1.885	1.885	1.899	1.885	1.885
-0.010	0.005	0.005	0.000	-0.049	0.020	0.029	2.676	1.880	1.880	1.885	1.899	1.890	1.890
-0.010	0.005	0.005	-0.005	-0.015	0.000	0.034	2.676	1.880	1.880	1.885	1.899	1.899	1.890
-0.015	0.010	0.015	0.000	0.039	0.000	0.034	2.661	1.875	1.880	1.885	1.904	1.914	1.895
0.000	0.010	0.010	0.005	0.054	-0.015	0.029	2.661	1.885	1.880	1.885	1.904	1.914	1.899
-0.005	0.010	0.005	0.000	0.044	0.020	0.034	2.646	1.875	1.880	1.880	1.904	1.904	1.909
0.000	0.010	0.005	0.000	0.034	0.020	0.034	2.651	1.880	1.880	1.880	1.899	1.899	1.904
0.010	-0.020	0.000	0.000	0.015	-0.034	0.034	2.676	1.885	1.875	1.875	1.895	1.895	1.885
0.000	-0.015	-0.005	0.000	0.000	-0.049	0.034	2.676	1.885	1.875	1.875	1.895	1.890	1.885
0.000	-0.005	-0.005	0.005	-0.005	-0.029	0.034	2.651	1.880	1.880	1.875	1.895	1.890	1.890
0.005	-0.005	0.000	0.000	0.015	0.010	0.034	2.646	1.875	1.875	1.875	1.895	1.895	1.904
0.010	-0.010	-0.010	0.000	-0.015	0.010	0.034	2.681	1.880	1.875	1.875	1.895	1.885	1.899
0.020	-0.010	-0.005	0.005	-0.020	0.015	0.034	2.676	1.885	1.880	1.875	1.895	1.890	1.890
0.020	-0.005	0.000	0.005	0.059	0.015	0.034	2.681	1.885	1.880	1.875	1.895	1.909	1.895
0.020	0.000	0.000	0.005	0.054	0.005	0.034	2.666	1.880	1.880	1.880	1.895	1.899	1.899
0.010	0.010	-0.005	0.005	0.000	0.005	0.034	2.686	1.880	1.880	1.880	1.895	1.880	1.895
0.015	0.010	0.000	0.005	-0.024	0.024	0.034	2.676	1.880	1.880	1.880	1.895	1.880	1.895
-0.005	0.010	0.000	0.005	-0.015	0.010	0.034	2.661	1.875	1.880	1.880	1.895	1.885	1.890
-0.005	0.015	0.010	0.005	-0.005	0.010	0.034	2.656	1.870	1.875	1.880	1.895	1.890	1.890
-0.005	0.024	0.005	0.000	0.005	0.010	0.034	2.651	1.870	1.875	1.880	1.895	1.890	1.890
-0.010	0.010	0.010	0.000	-0.005	0.015	0.034	2.646	1.870	1.870	1.880	1.895	1.890	1.890
-0.020	0.005	0.005	0.005	-0.005	0.010	0.034	2.681	1.875	1.870	1.875	1.895	1.890	1.890
-0.024	-0.005	0.015	0.000	-0.015	0.005	0.034	2.681	1.875	1.870	1.875	1.895	1.890	1.885
-0.015	0.010	0.005	0.000	-0.005	0.000	0.034	2.646	1.875	1.875	1.875	1.895	1.890	1.885
-0.010	0.010	0.000	0.000	-0.005	0.000	0.034	2.617	1.870	1.875	1.875	1.890	1.890	1.885
-0.010	-0.005	0.000	0.000	-0.005	0.000	0.034	2.769	1.870	1.870	1.870	1.890	1.890	1.885
-0.005	-0.010	-0.005	0.000	0.000	0.010	0.034	2.646	1.870	1.865	1.870	1.890	1.890	1.890
0.000	-0.015	-0.005	0.000	0.000	0.000	0.029	2.690	1.875	1.865	1.870	1.885	1.885	1.885
-0.005	-0.010	-0.005	0.000	-0.005	-0.005	0.034	2.651	1.875	1.870	1.870	1.885	1.885	1.885
0.005	-0.010	-0.005	0.010	0.000	0.005	0.034	2.656	1.875	1.870	1.870	1.885	1.885	1.885
0.010	-0.015	-0.005	0.005	0.000	-0.005	0.034	2.666	1.875	1.875	1.870	1.885	1.885	1.885
0.005	0.010	0.000	0.000	0.000	0.000	0.034	2.676	1.875	1.880	1.875	1.885	1.885	1.885
0.024	0.000	0.000	0.000	0.005	0.000	0.034	2.681	1.885	1.875	1.870	1.885	1.885	1.885
0.010	0.010	0.005	-0.005	0.005	0.005	0.034	2.681	1.880	1.880	1.875	1.885	1.885	1.885
0.020	0.005	0.005	0.000	0.005	-0.010	0.034	2.686	1.880	1.880	1.875	1.890	1.885	1.885
0.010	0.015	0.005	0.005	0.010	0.000	0.029	2.686	1.880	1.880	1.875	1.895	1.885	1.885
0.000	0.010	0.000	0.005	0.005	0.000	0.029	2.686	1.880	1.880	1.875	1.895	1.885	1.885
-0.010	0.005	0.000	0.010	0.000	0.000	0.034	2.671	1.875	1.875	1.875	1.895	1.885	1.885
-0.015	0.024	0.010	0.005	-0.005	-0.015	0.029	2.646	1.875	1.880	1.880	1.895	1.885	1.880
-0.005	0.015	0.005	0.010	0.005	0.005	0.034	2.681	1.875	1.875	1.875	1.895	1.890	1.890
-0.010	0.005	0.000	0.005	0.005	-0.005	0.034	2.690	1.880	1.870	1.875	1.895	1.890	1.885
-0.005	-0.005	-0.005	0.015	0.005	0.000	0.034	2.661	1.875	1.875	1.870	1.895	1.890	1.890
0.005	-0.010	0.000	0.010	0.005	0.005	0.034	2.681	1.880	1.870	1.870	1.890	1.890	1.890
0.000	-0.015	-0.005	0.000	0.000	0.015	0.034	2.676	1.880	1.870	1.870	1.890	1.885	1.890
0.005	-0.015	-0.005	-0.010	0.010	0.000	0.034	2.681	1.880	1.875	1.870	1.885	1.885	1.885
-0.010	-0.020	-0.005	-0.015	0.010	0.000	0.034	2.686	1.880	1.870	1.870	1.885	1.885	1.885
-0.005	-0.005	0.000	-0.020	-0.005	0.010	0.034	2.676	1.875	1.875	1.870	1.885	1.875	1.885
-0.005	-0.015	-0.005	-0.015	0.000	0.000	0.034	2.671	1.880	1.875	1.870	1.885	1.880	1.880
-0.005	-0.010	0.000	-0.010	0.005	0.000	0.034	2.681	1.875	1.875	1.870	1.890	1.880	1.880
-0.010	0.000	0.000	-0.010	0.005	0.000	0.034	2.681	1.880	1.875	1.875	1.890	1.885	1.880
-0.005	0.015	0.005	-0.005	0.010	0.000	0.034	2.686	1.880	1.880	1.880	1.895	1.885	1.885
0.000	0.005	0.010	0.005	-0.005	-0.005	0.034	2.666	1.880	1.880	1.875	1.895	1.885	1.880
-0.005	0.005	0.005	0.005	-0.005	-0.010	0.034	2.690	1.880	1.875	1.875	1.895	1.885	1.880
0.000	0.000	0.005	0.010	-0.010	-0.015	0.034	2.695	1.885	1.875	1.875	1.895	1.890	1.880
-0.005	0.010	0.005	0.000	-0.005	0.005	0.034	2.656	1.880	1.880	1.880	1.895	1.890	1.890
0.000	0.010	0.010	0.000	-0.005	0.005	0.029	2.681	1.875	1.875	1.880	1.895	1.890	1.890
0.005	0.005	0.005	0.000	-0.005	0.005	0.034	2.676	1.880	1.875	1.875	1.895	1.890	1.885
0.015	0.010	0.000	0.000	0.000	0.005	0.034	2.681	1.885	1.875	1.875	1.895	1.890	1.890
0.020	0.000	0.000	0.000	0.005	-0.005	0.029	2.690	1.885	1.875	1.875	1.895	1.890	1.885
0.024	-0.010	0.000	0.005	0.000	0.000	0.034	2.681	1.880	1.875	1.875	1.895	1.890	1.890
0.020	-0.010	-0.005	0.005	-0.005	0.000	0.034	2.695	1.885	1.875	1.875	1.895	1.885	1.890
0.020	-0.015	-0.005	0.005	0.000	-0.005	0.034	2.686	1.880	1.875	1.875	1.890	1.890	1.890
0.024	-0.005	-0.005	0.005	0.000	0.005	0.034	2.681	1.885	1.880	1.875	1.895	1.890	1.890
0.015	0.000	0.000	0.005	0.000	0.000	0.034	2.690	1.880	1.875	1.875	1.895	1.890	1.890
0.005	-0.005	0.000	0.010	-0.005	0.015	0.034	2.666	1.875	1.875	1.875	1.895	1.890	1.890
-0.005	-0.005	0.000	0.010	0.000	0.010	0.034	2.686	1.875	1.875	1.875	1.895	1.890	1.890
0.000	0.020	0.000	0.015	0.020	0.005	0.034	2.666	1.880	1.880	1.875	1.895	1.895	1.890
0.005	0.015	0.000	0.010	0.015	-0.005	0.034	2.637	1.875	1.875	1.880	1.895	1.895	1.890
-0.005	0.010	0.005	0.005	0.015	0.005	0.034	2.690	1.875	1.875	1.875	1.895	1.890	1.890
-0.010	0.010	0.005	0.010	0.010	0.000	0.029	2.666	1.875	1.875	1.875	1.895	1.890	1.890
-0.015	0.015	0.005	0.005	-0.005	-0.005	0.034	2.632	1.870	1.875	1.875	1.890	1.885	1.885
-0.010	0.005	0.000	0.000	0.000	0.005	0.034	2.676	1.870	1.870	1.875	1.890	1.885	1.890
-0.010	0.010	0.005	0.005	-0.015	0.000	0.029	2.676	1.875	1.875	1.875	1.890	1.885	1.885
-0.005	0.005	0.005	0.005	-0.015	-0.010	0.034	2.686	1.880	1.870	1.870	1.890	1.885	1.880
0.000	-0.005	0.000	0.000	-0.010	0.000	0.029	2.681	1.880	1.870	1.870	1.890	1.885	1.885
0.005	-0.005	0.000	0.005	-0.010	0.000	0.034	2.686	1.885	1.870	1.870	1.890	1.885	1.885
0.005	0.000	-0.005	0.000	0.005	-0.005	0.034	2.676	1.880	1.875	1.870	1.890	1.890	1.885
0.015	-0.015	-0.005	0.005	-0.015	-0.005	0.034	2.671	1.885	1.875	1.870	1.890	1.880	1.880
0.015	-0.005	0.000	0.000	-0.015	0.010	0.034	2.632	1.875	1.880	1.875	1.890	1.885	1.885
0.020	-0.020	0.000	0.005	0.015	0.010	0.034	2.666	1.875	1.875	1.875	1.890	1.890	1.890
0.015	-0.010	-0.005	0.005	0.005	0.010	0.034	2.681	1.875	1.875	1.870	1.890	1.885	1.885
0.015	0.000	-0.010	0.000	-0.005	-0.005	0.034	2.681	1.880	1.875	1.870	1.890	1.880	1.880
0.000	0.005	0.000	0.000	-0.005	0.005	0.034	2.681	1.875	1.875	1.875	1.890	1.885	1.885
0.000	0.005	0.000	-0.005	-0.005	0.015	0.029	2.686	1.875	1.875	1.875	1.890	1.885	1.890
-0.015	0.020	0.005	0.000	-0.010	0.010	0.034	2.686	1.875	1.880	1.875	1.895	1.885	1.885
-0.010	0.010	0.005	-0.005	0.029	-0.010	0.034	2.686	1.875	1.875	1.875	1.890	1.895	1.880
-0.020	0.010	0.005	0.000	0.054	0.015	0.034	2.676	1.875	1.875	1.875	1.895	1.899	1.895
-0.015	0.005	0.005	0.000	0.063	0.005	0.034	2.681	1.875	1.875	1.875	1.895	1.899	1.895
-0.020	0.000	0.000	0.005	0.063	-0.005	0.034	2.676	1.875	1.875	1.875	1.895	1.895	1.890
-0.010	0.015	0.005	0.000	0.024	0.010	0.034	2.681	1.885	1.880	1.875	1.890	1.885	1.890
0.000	0.000	0.005	0.000	0.000	-0.005	0.034	2.690	1.885	1.875	1.875	1.890	1.880	1.885
0.000	0.005	0.000	0.000	-0.010	-0.020	0.034	2.671	1.880	1.880	1.875	1.890	1.880	1.875
-0.005	-0.010	0.000	0.000	-0.010	-0.005	0.034	2.690	1.880	1.875	1.875	1.890	1.880	1.880
0.005	-0.020	0.000	0.005	-0.010	-0.005	0.034	2.681	1.880	1.875	1.875	1.890	1.880	1.880
0.005	-0.005	0.000	0.000	-0.010	0.010	0.034	2.651	1.880	1.875	1.870	1.890	1.885	1.880
0.020	-0.005	0.000	-0.005	-0.010	0.000	0.034	2.661	1.880	1.880	1.870	1.890	1.885	1.880
0.015	0.000	0.000	-0.005	0.000	-0.020	0.034	2.686	1.875	1.880	1.875	1.890	1.885	1.880
0.029	0.005	0.000	0.005	-0.010	-0.005	0.034	2.681	1.880	1.880	1.875	1.895	1.885	1.885
0.029	0.005	0.000	0.010	-0.015	0.000	0.034	2.671	1.880	1.880	1.875	1.895	1.885	1.880
0.010	0.010	0.000	0.010	-0.005	0.010	0.034	2.676	1.875	1.875	1.875	1.895	1.890	1.885
0.005	0.005	0.005	0.010	-0.005	0.000	0.034	2.666	1.875	1.875	1.875	1.895	1.890	1.885
-0.020	0.005	0.005	0.000	-0.005	0.000	0.034	2.686	1.870	1.875	1.875	1.890	1.890	1.885
-0.034	0.005	0.005	0.000	-0.010	0.010	0.034	2.676	1.870	1.870	1.875	1.890	1.890	1.890
-0.024	0.000	0.005	0.005	-0.010	-0.005	0.034	2.676	1.875	1.870	1.870	1.890	1.885	1.885
-0.024	0.000	0.005	0.000	-0.005	0.010	0.034	2.690	1.875	1.870	1.870	1.890	1.890	1.890
-0.034	0.005	0.005	-0.005	0.000	-0.010	0.034	2.681	1.880	1.875	1.870	1.890	1.885	1.885
-0.029	0.015	0.000	-0.005	0.005	0.020	0.029	2.671	1.875	1.875	1.875	1.890	1.890	1.895
-0.015	0.005	0.000	-0.005	0.005	0.005	0.034	2.676	1.880	1.875	1.875	1.890	1.885	1.885
-0.010	0.000	0.000	-0.010	-0.005	0.015	0.029	2.686	1.880	1.875	1.875	1.885	1.885	1.890
-0.010	0.000	0.000	-0.010	-0.005	0.010	0.034	2.676	1.880	1.875	1.870	1.885	1.885	1.885
-0.015	-0.020	0.000	-0.010	-0.010	-0.005	0.034	2.651	1.875	1.870	1.870	1.890	1.880	1.875
0.000	0.000	0.000	-0.005	0.000	-0.015	0.034	2.666	1.875	1.875	1.870	1.890	1.885	1.875
0.010	-0.005	0.000	-0.005	0.005	-0.015	0.034	2.671	1.880	1.875	1.875	1.890	1.885	1.880
0.015	0.000	0.000	0.000	0.000	0.015	0.034	2.686	1.885	1.875	1.875	1.890	1.885	1.890
0.010	-0.005	-0.005	0.015	0.000	0.010	0.034	2.686	1.880	1.875	1.870	1.895	1.890	1.885
0.015	-0.010	0.000	0.015	0.000	0.000	0.034	2.676	1.880	1.875	1.875	1.895	1.890	1.885
0.020	0.000	-0.005	0.010	0.005	-0.015	0.034	2.676	1.875	1.875	1.875	1.890	1.890	1.885
0.015	-0.005	0.005	0.005	0.005	0.000	0.034	2.681	1.880	1.875	1.875	1.895	1.890	1.890
0.010	0.010	0.005	0.005	0.010	0.005	0.034	2.690	1.885	1.880	1.880	1.895	1.890	1.890
0.010	0.024	0.005	0.000	0.010	0.010	0.034	2.651	1.875	1.885	1.880	1.890	1.890	1.890
0.000	0.015	0.005	0.000	0.005	0.000	0.034	2.681	1.875	1.880	1.875	1.890	1.890	1.885
0.005	0.000	0.005	0.000	-0.005	-0.005	0.034	2.686	1.880	1.875	1.875	1.895	1.885	1.880
0.005	0.000	0.005	0.005	0.000	0.010	0.029	2.681	1.880	1.875	1.875	1.899	1.890	1.890
0.010	0.000	0.005	0.015	0.005	0.010	0.034	2.686	1.880	1.875	1.875	1.895	1.890	1.890
0.015	0.010	0.005	0.005	0.010	-0.024	0.034	2.681	1.880	1.880	1.880	1.895	1.890	1.885
0.010	0.000	0.000	-0.005	0.005	0.000	0.034	2.666	1.880	1.875	1.875	1.890	1.890	1.890
0.010	0.010	-0.005	-0.005	0.000	0.010	0.034	2.676	1.885	1.880	1.875	1.890	1.890	1.890
0.015	0.015	-0.005	-0.010	-0.005	-0.005	0.034	2.671	1.880	1.880	1.875	1.890	1.885	1.880
0.010	-0.005	-0.005	-0.010	0.000	0.000	0.034	2.681	1.875	1.870	1.870	1.890	1.885	1.885
0.005	-0.015	-0.005	-0.010	0.005	-0.015	0.034	2.676	1.875	1.870	1.870	1.890	1.885	1.885
0.005	0.000	-0.010	-0.005	0.005	0.000	0.034	2.681	1.875	1.875	1.870	1.890	1.885	1.885
0.015	0.000	-0.010	-0.005	0.000	0.005	0.034	2.666	1.875	1.875	1.870	1.890	1.885	1.890
0.010	0.005	0.005	0.000	0.000	0.005	0.034	2.681	1.875	1.875	1.875	1.890	1.885	1.885
0.005	-0.005	0.005	0.000	-0.005	0.000	0.034	2.666	1.875	1.870	1.875	1.895	1.885	1.885
0.005	0.010	0.000	0.000	0.010	-0.005	0.034	2.671	1.875	1.875	1.875	1.890	1.890	1.885
-0.005	0.010	0.005	0.005	0.000	0.000	0.034	2.676	1.875	1.875	1.875	1.895	1.890	1.885
-0.005	0.005	0.005	0.005	-0.005	-0.005	0.034	2.686	1.875	1.875	1.875	1.895	1.890	1.885
0.000	0.010	0.005	0.005	0.005	0.000	0.034	2.686	1.880	1.875	1.875	1.895	1.890	1.890
-0.010	0.020	0.000	0.005	0.010	0.000	0.034	2.686	1.880	1.875	1.875	1.895	1.890	1.890
0.000	0.010	0.000	0.005	0.000	-0.010	0.034	2.671	1.880	1.875	1.875	1.890	1.890	1.890
0.000	0.010	0.000	0.010	0.000	0.000	0.034	2.681	1.880	1.875	1.875	1.890	1.885	1.885
-0.005	-0.010	-0.005	0.005	-0.015	-0.010	0.034	2.686	1.880	1.875	1.870	1.890	1.885	1.885
0.000	-0.005	0.000	0.000	-0.010	-0.010	0.034	2.681	1.880	1.875	1.875	1.885	1.885	1.885
0.005	-0.020	0.000	-0.005	0.000	-0.020	0.034	2.690	1.880	1.870	1.870	1.890	1.885	1.880
0.005	-0.005	-0.005	-0.005	0.015	0.010	0.034	2.671	1.880	1.875	1.870	1.890	1.890	1.890
-0.005	-0.005	-0.005	-0.005	0.020	0.010	0.034	2.666	1.875	1.875	1.870	1.885	1.890	1.890
-0.005	0.005	0.000	-0.005	0.005	0.005	0.029	2.651	1.875	1.875	1.875	1.890	1.885	1.890
-0.005	0.000	-0.005	0.000	0.000	-0.005	0.034	2.681	1.875	1.875	1.870	1.890	1.885	1.885
0.000	0.005	0.000	0.000	0.000	0.005	0.034	2.681	1.880	1.875	1.875	1.890	1.885	1.880
-0.010	0.005	0.000	0.000	-0.005	0.005	0.029	2.651	1.875	1.870	1.875	1.895	1.885	1.885
0.000	0.005	0.005	0.005	-0.005	0.005	0.034	2.686	1.880	1.875	1.875	1.895	1.885	1.885
-0.010	0.005	0.005	0.005	0.005	0.010	0.034	2.676	1.875	1.875	1.875	1.895	1.890	1.885
-0.005	0.015	0.005	0.010	0.010	-0.005	0.034	2.676	1.880	1.880	1.875	1.895	1.890	1.880
-0.024	0.010	0.010	0.010	-0.005	0.005	0.034	2.690	1.875	1.875	1.875	1.895	1.885	1.890
-0.010	0.010	0.010	0.005	-0.005	0.000	0.034	2.681	1.880	1.875	1.875	1.895	1.885	1.885
0.000	0.005	0.005	0.005	0.000	0.005	0.034	2.681	1.880	1.875	1.875	1.895	1.890	1.890
-0.005	0.000	0.000	0.005	0.015	0.010	0.034	2.681	1.880	1.875	1.875	1.895	1.895	1.890
0.005	0.000	0.000	0.000	0.015	-0.005	0.034	2.642	1.880	1.875	1.875	1.890	1.890	1.885
0.005	-0.005	0.000	0.000	0.000	0.005	0.034	2.676	1.880	1.875	1.875	1.890	1.885	1.890
0.010	-0.005	-0.005	0.005	-0.010	0.005	0.034	2.681	1.880	1.875	1.875	1.890	1.885	1.885
0.005	-0.010	-0.005	0.000	-0.044	0.005	0.034	2.681	1.880	1.875	1.875	1.890	1.875	1.880
0.010	-0.005	0.000	0.000	-0.039	-0.005	0.034	2.690	1.880	1.875	1.875	1.890	1.875	1.880
0.005	0.000	0.000	0.000	0.000	-0.034	0.034	2.681	1.875	1.875	1.875	1.890	1.890	1.875
0.000	-0.005	-0.005	-0.005	0.015	0.010	0.034	2.681	1.880	1.875	1.875	1.890	1.895	1.890
0.000	0.000	-0.005	-0.005	0.010	-0.015	0.034	2.681	1.875	1.875	1.875	1.890	1.890	1.885
0.000	0.020	0.005	-0.005	0.015	0.005	0.034	2.686	1.875	1.880	1.880	1.890	1.890	1.890
0.000	0.005	0.000	0.000	0.015	0.015	0.029	2.686	1.880	1.875	1.875	1.895	1.890	1.895
0.000	0.010	0.000	0.000	0.029	0.010	0.034	2.695	1.885	1.880	1.875	1.895	1.895	1.890
-0.005	0.020	0.000	0.000	0.010	0.005	0.034	2.686	1.880	1.880	1.875	1.895	1.885	1.890
-0.005	0.015	0.005	0.005	-0.005	0.010	0.034	2.686	1.880	1.880	1.880	1.895	1.885	1.890
-0.005	0.005	0.005	0.005	0.005	0.000	0.034	2.656	1.875	1.875	1.880	1.895	1.890	1.885
-0.005	0.005	0.000	0.000	-0.005	0.010	0.029	2.671	1.880	1.875	1.875	1.895	1.890	1.885
-0.005	-0.010	0.005	0.010	0.000	0.005	0.034	2.661	1.875	1.870	1.875	1.895	1.890	1.885
0.000	-0.005	0.000	0.005	0.000	0.005	0.034	2.661	1.875	1.875	1.875	1.895	1.890	1.890
0.000	-0.015	0.005	0.005	0.000	-0.010	0.034	2.681	1.875	1.870	1.875	1.895	1.890	1.885
-0.010	-0.010	-0.005	0.000	-0.005	0.010	0.034	2.671	1.875	1.870	1.870	1.890	1.890	1.890
0.015	-0.024	-0.005	-0.005	0.000	0.005	0.029	2.681	1.880	1.870	1.870	1.890	1.890	1.885
0.005	-0.034	-0.005	-0.005	-0.005	0.005	0.034	2.671	1.880	1.870	1.870	1.885	1.885	1.885
0.010	-0.020	0.000	-0.010	-0.005	0.000	0.034	2.686	1.880	1.875	1.870	1.885	1.885	1.885
-0.005	-0.005	-0.005	-0.010	0.000	0.005	0.029	2.676	1.875	1.880	1.875	1.885	1.885	1.885
0.005	-0.010	0.000	-0.005	0.000	0.000	0.034	2.671	1.880	1.875	1.875	1.890	1.885	1.885
0.005	0.000	0.000	-0.005	0.000	0.000	0.034	2.681	1.880	1.880	1.875	1.890	1.885	1.880
0.010	0.005	0.000	0.000	0.005	0.005	0.034	2.676	1.880	1.880	1.875	1.895	1.885	1.885
-0.005	0.010	0.000	0.005	0.005	-0.005	0.034	2.681	1.875	1.880	1.875	1.895	1.885	1.885
-0.010	0.010	0.010	0.010	0.000	0.010	0.034	2.686	1.875	1.875	1.880	1.899	1.885	1.885
-0.005	0.000	0.000	0.010	0.000	-0.020	0.034	2.676	1.875	1.875	1.875	1.895	1.890	1.880
0.000	0.015	0.005	0.005	0.000	0.000	0.034	2.661	1.880	1.880	1.875	1.895	1.890	1.890
-0.015	0.005	0.000	0.005	0.005	0.015	0.034	2.671	1.875	1.875	1.875	1.895	1.895	1.895
-0.010	0.010	0.000	0.005	0.010	0.000	0.034	2.686	1.875	1.875	1.875	1.895	1.890	1.890
0.000	0.010	0.000	0.005	0.005	0.010	0.034	2.656	1.880	1.880	1.875	1.895	1.890	1.890
-0.005	-0.005	0.005	0.000	0.000	-0.015	0.034	2.676	1.880	1.875	1.875	1.890	1.885	1.880
0.005	-0.005	0.005	0.005	-0.005	-0.010	0.034	2.681	1.880	1.875	1.870	1.895	1.885	1.885
0.010	0.000	-0.005	0.000	-0.010	-0.005	0.034	2.681	1.880	1.875	1.875	1.890	1.885	1.890
0.010	-0.005	-0.005	-0.005	-0.005	-0.005	0.034	2.686	1.880	1.875	1.870	1.890	1.885	1.885
0.010	0.005	0.005	0.000	-0.005	0.010	0.029	2.686	1.880	1.880	1.875	1.890	1.890	1.890
0.005	0.015	0.005	-0.005	0.000	-0.005	0.034	2.681	1.880	1.880	1.875	1.890	1.890	1.885
0.005	-0.005	-0.005	-0.005	0.000	0.015	0.034	2.671	1.875	1.875	1.875	1.890	1.885	1.890
0.010	0.000	0.000	0.000	-0.020	-0.010	0.034	2.695	1.880	1.875	1.875	1.890	1.880	1.880
0.005	-0.024	-0.005	-0.005	0.005	-0.005	0.034	2.681	1.875	1.870	1.870	1.890	1.890	1.890
0.005	0.000	-0.005	0.000	0.010	0.015	0.034	2.681	1.880	1.875	1.875	1.890	1.890	1.890
0.000	0.005	0.000	0.005	0.010	0.015	0.029	2.690	1.880	1.880	1.875	1.895	1.890	1.890
-0.015	-0.005	0.005	0.000	0.000	0.005	0.034	2.690	1.880	1.875	1.875	1.890	1.890	1.885
-0.005	0.010	0.005	0.005	0.010	0.000	0.034	2.681	1.880	1.880	1.875	1.890	1.890	1.885
-0.015	0.010	0.010	0.000	0.015	-0.020	0.034	2.690	1.880	1.880	1.875	1.895	1.890	1.880
-0.005	0.010	0.005	0.000	0.000	-0.005	0.029	2.686	1.880	1.880	1.875	1.890	1.885	1.890
-0.010	0.005	0.000	0.010	-0.005	0.000	0.034	2.676	1.880	1.880	1.875	1.895	1.885	1.890
0.000	0.010	0.005	0.010	-0.005	0.000	0.034	2.681	1.885	1.880	1.875	1.895	1.890	1.890
0.010	0.000	0.005	0.010	0.000	0.000	0.034	2.681	1.885	1.880	1.875	1.895	1.890	1.885
0.005	-0.010	0.005	0.000	0.005	0.000	0.034	2.666	1.880	1.875	1.875	1.895	1.890	1.890
0.000	-0.005	0.000	0.000	-0.010	0.015	0.034	2.681	1.875	1.875	1.875	1.890	1.885	1.890
0.015	-0.005	0.000	-0.005	-0.005	0.015	0.034	2.666	1.880	1.880	1.875	1.890	1.890	1.885
0.005	0.015	-0.005	0.000	0.005	0.005	0.034	2.676	1.875	1.880	1.875	1.895	1.890	1.885
0.005	0.005	0.000	0.000	0.005	0.015	0.034	2.681	1.875	1.875	1.875	1.895	1.890	1.890
0.000	-0.005	0.000	0.005	0.000	0.010	0.034	2.690	1.880	1.875	1.875	1.895	1.885	1.890
0.000	0.005	0.000	0.005	-0.005	-0.005	0.034	2.671	1.875	1.875	1.875	1.890	1.885	1.880
0.000	0.000	0.005	0.005	-0.005	-0.010	0.034	2.686	1.880	1.875	1.875	1.895	1.885	1.880
0.000	0.000	0.005	0.000	-0.005	0.005	0.029	2.666	1.875	1.875	1.875	1.895	1.890	1.890
-0.005	0.005	0.010	0.005	-0.005	0.010	0.034	2.686	1.870	1.875	1.875	1.895	1.890	1.890
0.000	0.015	0.010	0.010	-0.005	0.010	0.034	2.666	1.875	1.880	1.875	1.895	1.890	1.890
-0.005	0.010	0.010	0.005	-0.005	0.005	0.034	2.686	1.880	1.875	1.875	1.890	1.885	1.885
0.000	0.015	0.005	0.005	-0.005	0.000	0.034	2.681	1.880	1.880	1.875	1.895	1.885	1.885
0.000	0.010	0.005	0.000	-0.005	0.015	0.029	2.666	1.880	1.875	1.875	1.890	1.890	1.890
0.005	0.000	0.005	0.000	0.005	0.015	0.034	2.690	1.880	1.875	1.875	1.895	1.890	1.890
0.000	0.000	-0.005	0.000	0.005	0.000	0.034	2.676	1.880	1.875	1.870	1.890	1.890	1.890
-0.005	0.000	0.000	0.000	0.015	0.000	0.029	2.676	1.875	1.875	1.875	1.890	1.895	1.890
0.005	-0.005	-0.005	0.000	0.020	0.005	0.034	2.676	1.875	1.875	1.875	1.890	1.895	1.890
0.000	0.000	0.000	0.000	0.024	0.005	0.034	2.686	1.880	1.875	1.870	1.890	1.890	1.890
0.005	-0.015	0.000	0.000	0.015	0.000	0.034	2.676	1.880	1.875	1.875	1.890	1.885	1.890
0.005	-0.020	-0.005	0.000	0.000	0.005	0.034	2.686	1.880	1.875	1.870	1.890	1.880	1.890
0.015	-0.015	-0.005	-0.005	-0.005	0.000	0.034	2.646	1.880	1.875	1.870	1.890	1.880	1.885
0.034	-0.010	-0.005	0.000	0.000	-0.010	0.034	2.671	1.880	1.875	1.875	1.890	1.885	1.880
0.039	0.000	-0.005	0.000	0.005	0.020	0.034	2.686	1.880	1.880	1.875	1.890	1.890	1.890
0.029	0.005	0.000	0.000	0.020	0.015	0.034	2.681	1.880	1.880	1.875	1.890	1.890	1.890
0.015	0.005	0.005	0.000	0.020	0.015	0.034	2.690	1.875	1.880	1.875	1.890	1.890	1.890
0.000	0.015	0.010	0.000	0.039	0.000	0.034	2.681	1.875	1.880	1.880	1.895	1.895	1.885
-0.010	0.010	0.010	0.000	0.024	-0.005	0.034	2.681	1.875	1.875	1.875	1.895	1.890	1.885
-0.024	0.010	0.010	0.000	0.024	-0.015	0.034	2.686	1.875	1.875	1.875	1.895	1.890	1.880
-0.024	0.000	0.015	0.000	0.024	-0.024	0.029	2.661	1.870	1.870	1.875	1.895	1.890	1.885
-0.024	0.000	0.005	0.000	0.000	-0.044	0.034	2.681	1.870	1.870	1.870	1.890	1.880	1.875
-0.024	0.000	0.005	0.000	-0.015	-0.054	0.034	2.686	1.875	1.875	1.870	1.890	1.880	1.875
-0.024	-0.005	0.005	0.000	0.010	-0.034	0.029	2.676	1.875	1.870	1.870	1.890	1.895	1.885
-0.015	-0.010	0.000	0.000	0.029	-0.015	0.034	2.671	1.875	1.870	1.870	1.890	1.895	1.895
-0.020	-0.015	0.000	0.005	0.034	0.005	0.034	2.671	1.875	1.870	1.870	1.890	1.895	1.899
-0.010	-0.005	-0.005	0.005	0.020	-0.015	0.034	2.686	1.880	1.875	1.870	1.890	1.885	1.890
-0.005	-0.020	-0.005	0.000	0.005	0.010	0.034	2.686	1.880	1.875	1.870	1.885	1.880	1.890
0.005	-0.020	-0.005	0.005	0.010	0.010	0.034	2.676	1.885	1.875	1.870	1.885	1.885	1.890
0.005	-0.005	-0.005	0.005	0.020	0.005	0.034	2.681	1.880	1.880	1.870	1.885	1.885	1.885
0.005	-0.005	-0.005	0.005	0.024	0.005	0.034	2.681	1.880	1.880	1.875	1.890	1.885	1.885
0.000	0.000	0.000	0.005	0.020	0.000	0.034	2.671	1.875	1.880	1.875	1.890	1.885	1.885
0.010	0.005	0.000	0.005	0.015	-0.015	0.034	2.681	1.880	1.880	1.875	1.890	1.885	1.880
0.020	0.000	0.000	0.005	0.010	0.005	0.029	2.651	1.880	1.880	1.875	1.895	1.885	1.885
0.005	0.020	-0.005	0.005	0.000	0.005	0.034	2.671	1.875	1.880	1.880	1.895	1.885	1.885
0.000	0.010	0.000	0.000	-0.010	0.000	0.029	2.681	1.875	1.875	1.875	1.895	1.880	1.880
0.015	0.000	0.005	0.000	-0.015	0.000	0.034	2.656	1.880	1.875	1.875	1.895	1.885	1.885
0.005	0.005	0.005	0.005	-0.015	0.020	0.034	2.676	1.875	1.875	1.875	1.895	1.885	1.890
0.005	0.024	0.005	0.005	-0.020	0.010	0.029	2.671	1.875	1.880	1.875	1.895	1.885	1.885
0.015	0.020	-0.005	0.000	-0.020	0.010	0.034	2.671	1.880	1.880	1.875	1.895	1.885	1.885
0.024	0.010	0.005	-0.005	-0.020	0.000	0.029	2.666	1.880	1.875	1.875	1.890	1.890	1.885
0.010	0.005	0.000	-0.015	-0.024	0.005	0.029	2.681	1.875	1.870	1.875	1.890	1.885	1.885
0.005	-0.005	0.005	-0.010	-0.029	0.015	0.034	2.671	1.875	1.870	1.870	1.890	1.885	1.885
0.005	-0.005	-0.005	-0.010	-0.020	0.020	0.034	2.686	1.880	1.870	1.870	1.890	1.890	1.885
0.000	-0.020	-0.005	-0.005	-0.010	0.010	0.029	2.681	1.875	1.870	1.870	1.890	1.885	1.880
-0.005	-0.010	-0.005	0.000	0.000	0.005	0.034	2.686	1.875	1.870	1.870	1.890	1.890	1.885
0.015	-0.010	-0.005	0.000	-0.005	0.000	0.034	2.676	1.880	1.875	1.870	1.890	1.885	1.885
0.010	0.000	-0.005	0.005	-0.005	0.010	0.034	2.676	1.880	1.880	1.870	1.890	1.885	1.885
0.000	0.000	0.000	0.000	-0.015	-0.010	0.034	2.686	1.875	1.875	1.870	1.890	1.885	1.880
0.005	-0.005	0.000	0.005	-0.024	-0.024	0.034	2.681	1.875	1.875	1.875	1.890	1.880	1.880
0.000	0.005	0.000	0.010	-0.044	0.010	0.034	2.686	1.875	1.875	1.875	1.890	1.880	1.885
-0.010	0.024	0.005	0.005	-0.034	0.015	0.034	2.686	1.875	1.880	1.875	1.895	1.885	1.890
-0.005	0.015	0.005	0.005	-0.034	0.029	0.034	2.661	1.875	1.875	1.875	1.895	1.885	1.890
-0.024	0.015	0.005	0.000	-0.034	0.015	0.029	2.671	1.870	1.870	1.875	1.890	1.885	1.885
-0.015	0.020	0.005	0.000	-0.015	0.020	0.034	2.690	1.880	1.875	1.875	1.895	1.895	1.890
-0.010	0.010	0.005	0.005	-0.005	0.005	0.034	2.681	1.880	1.875	1.875	1.890	1.895	1.885
0.010	-0.005	0.000	0.000	-0.005	-0.015	0.034	2.671	1.885	1.875	1.870	1.890	1.890	1.880
0.010	-0.010	0.010	-0.005	-0.005	-0.010	0.034	2.671	1.880	1.870	1.875	1.890	1.890	1.885
0.015	-0.010	0.005	0.000	0.015	0.005	0.034	2.671	1.880	1.875	1.870	1.890	1.895	1.890
0.015	-0.005	-0.005	0.000	0.020	0.000	0.029	2.666	1.880	1.875	1.870	1.890	1.895	1.890
0.010	-0.010	0.000	0.000	0.029	-0.005	0.029	2.651	1.875	1.875	1.870	1.890	1.890	1.890
0.010	-0.005	0.000	0.000	0.024	0.010	0.029	2.681	1.880	1.875	1.875	1.890	1.890	1.895
0.005	0.000	0.000	0.000	0.024	-0.005	0.034	2.681	1.875	1.875	1.875	1.890	1.890	1.885
0.015	-0.015	-0.005	0.005	0.024	0.005	0.034	2.661	1.875	1.870	1.870	1.890	1.890	1.890
0.010	-0.010	-0.005	0.005	0.015	0.005	0.034	2.681	1.880	1.875	1.870	1.890	1.885	1.885
0.005	0.000	-0.005	0.005	0.005	0.005	0.029	2.681	1.875	1.875	1.870	1.890	1.880	1.885
0.005	0.010	0.000	0.000	0.005	0.005	0.034	2.676	1.875	1.880	1.875	1.890	1.885	1.885
0.000	0.000	0.005	0.005	0.005	0.005	0.034	2.686	1.875	1.875	1.875	1.890	1.885	1.885
0.000	0.015	0.005	0.000	-0.005	0.000	0.034	2.686	1.880	1.880	1.875	1.890	1.885	1.880
0.000	0.015	0.005	0.005	-0.005	0.000	0.034	2.686	1.875	1.880	1.875	1.895	1.885	1.880
0.005	0.005	0.005	0.010	-0.005	-0.010	0.034	2.676	1.875	1.875	1.875	1.895	1.885	1.880
0.000	0.015	0.005	0.005	-0.005	0.010	0.034	2.681	1.880	1.880	1.875	1.895	1.890	1.890
-0.005	0.024	0.005	0.000	0.005	0.005	0.034	2.681	1.880	1.880	1.875	1.895	1.890	1.890
0.005	0.010	0.005	0.000	0.005	0.015	0.034	2.686	1.880	1.875	1.875	1.895	1.890	1.890
0.000	0.005	0.000	0.005	0.010	0.015	0.034	2.681	1.880	1.875	1.875	1.895	1.890	1.890
0.000	-0.005	0.000	0.000	-0.005	0.015	0.034	2.651	1.880	1.875	1.875	1.890	1.885	1.890
0.000	-0.010	0.000	-0.005	-0.010	-0.015	0.034	2.671	1.880	1.870	1.870	1.890	1.885	1.880
0.000	-0.010	0.000	-0.005	-0.010	-0.010	0.034	2.681	1.875	1.870	1.870	1.890	1.885	1.880
0.010	-0.005	-0.005	-0.005	-0.010	-0.024	0.034	2.686	1.875	1.870	1.870	1.890	1.885	1.875
0.010	-0.015	0.000	0.000	-0.010	-0.015	0.034	2.666	1.875	1.875	1.870	1.890	1.885	1.880
-0.005	-0.010	-0.005	-0.005	0.005	-0.005	0.034	2.686	1.875	1.870	1.870	1.885	1.890	1.890
0.010	-0.005	0.000	-0.005	0.024	-0.005	0.034	2.690	1.880	1.875	1.875	1.890	1.890	1.890
0.005	0.000	-0.005	-0.005	0.020	-0.005	0.034	2.666	1.875	1.875	1.875	1.890	1.890	1.890
0.005	0.005	-0.005	0.005	0.000	-0.005	0.034	2.686	1.880	1.875	1.875	1.890	1.885	1.885
-0.005	0.005	0.010	0.005	0.015	0.005	0.034	2.686	1.875	1.875	1.880	1.890	1.890	1.890
-0.005	0.005	0.005	0.010	0.010	-0.015	0.034	2.686	1.875	1.875	1.875	1.895	1.890	1.880
-0.005	0.020	0.005	0.005	0.015	0.015	0.034	2.676	1.875	1.880	1.875	1.895	1.890	1.890
-0.005	0.010	0.005	0.000	-0.005	-0.005	0.029	2.686	1.880	1.875	1.875	1.895	1.885	1.885
-0.010	0.005	0.005	0.005	-0.005	-0.005	0.034	2.686	1.880	1.875	1.875	1.895	1.885	1.880
0.000	0.000	0.000	0.005	0.015	-0.010	0.034	2.681	1.875	1.875	1.875	1.890	1.890	1.890
0.010	0.005	0.000	0.005	0.000	0.000	0.034	2.695	1.880	1.875	1.875	1.895	1.885	1.890
0.010	-0.005	0.000	0.000	0.005	0.015	0.029	2.651	1.880	1.875	1.875	1.890	1.890	1.895
0.010	-0.010	-0.005	0.010	-0.010	0.015	0.034	2.676	1.875	1.875	1.870	1.890	1.885	1.885
0.005	-0.015	-0.005	-0.005	-0.015	0.015	0.034	2.676	1.875	1.875	1.870	1.885	1.885	1.885
0.005	-0.020	-0.005	0.000	-0.029	0.005	0.034	2.681	1.875	1.870	1.870	1.890	1.880	1.880
0.010	-0.029	0.000	0.005	-0.034	0.000	0.034	2.671	1.875	1.870	1.870	1.890	1.880	1.880
-0.010	-0.010	0.000	0.000	-0.015	0.010	0.034	2.666	1.870	1.870	1.870	1.885	1.885	1.885
-0.005	0.000	0.000	-0.005	-0.010	0.005	0.034	2.681	1.875	1.875	1.870	1.885	1.885	1.880
-0.015	0.020	-0.005	0.000	-0.010	-0.005	0.034	2.686	1.870	1.880	1.875	1.890	1.885	1.880
-0.010	0.020	0.000	-0.005	0.005	0.015	0.034	2.642	1.870	1.875	1.875	1.890	1.890	1.890
-0.020	0.010	0.000	0.000	0.020	0.015	0.034	2.661	1.870	1.870	1.870	1.890	1.895	1.890
-0.005	0.000	0.005	0.000	0.024	0.005	0.034	2.676	1.875	1.870	1.870	1.890	1.890	1.890
-0.010	0.005	0.010	0.000	0.020	-0.010	0.029	2.646	1.870	1.870	1.870	1.890	1.890	1.885
-0.010	0.005	0.005	0.000	0.015	0.005	0.034	2.661	1.875	1.870	1.870	1.890	1.885	1.885
-0.015	0.015	0.005	0.000	0.000	0.000	0.034	2.690	1.875	1.875	1.870	1.890	1.880	1.885
-0.005	0.005	0.005	0.000	0.005	0.005	0.034	2.729	1.880	1.875	1.870	1.890	1.885	1.885
-0.005	0.000	0.005	0.000	0.005	0.010	0.034	2.651	1.880	1.870	1.870	1.890	1.885	1.885
0.005	-0.005	0.005	0.000	0.015	0.005	0.034	2.690	1.885	1.875	1.870	1.890	1.890	1.885
0.010	-0.005	0.005	-0.005	0.020	0.005	0.034	2.725	1.890	1.875	1.870	1.890	1.885	1.890
0.010	-0.005	0.000	0.000	0.020	0.020	0.034	2.637	1.880	1.875	1.875	1.890	1.890	1.890
0.010	-0.005	-0.005	0.000	0.015	0.005	0.034	2.676	1.880	1.875	1.870	1.890	1.885	1.885
0.015	-0.005	-0.005	0.000	0.015	0.000	0.034	2.729	1.885	1.875	1.870	1.890	1.885	1.880
0.005	-0.010	-0.005	0.000	0.005	-0.005	0.034	2.734	1.890	1.875	1.875	1.890	1.880	1.880
0.015	0.010	-0.005	0.005	-0.005	-0.029	0.034	2.651	1.885	1.885	1.875	1.890	1.880	1.875
0.010	0.010	0.000	0.005	-0.020	-0.015	0.034	2.627	1.870	1.880	1.880	1.895	1.875	1.875
0.005	0.015	0.005	0.010	-0.059	-0.024	0.034	2.627	1.870	1.875	1.875	1.895	1.870	1.870
0.005	0.015	0.000	0.000	-0.068	-0.039	0.029	2.676	1.870	1.875	1.875	1.890	1.870	1.870
-0.005	0.010	0.005	0.005	-0.063	-0.024	0.034	2.646	1.865	1.870	1.875	1.890	1.880	1.875
-0.010	0.010	0.005	0.000	-0.063	-0.010	0.034	2.661	1.865	1.870	1.870	1.890	1.880	1.880
0.000	0.010	0.005	-0.005	-0.078	-0.005	0.029	2.686	1.865	1.870	1.870	1.890	1.880	1.885
-0.015	0.000	0.005	-0.005	-0.024	0.020	0.034	2.637	1.865	1.865	1.870	1.890	1.895	1.890
-0.010	-0.005	0.000	0.000	0.059	0.000	0.029	2.744	1.875	1.865	1.870	1.890	1.914	1.895
-0.010	0.005	0.005	0.000	0.127	0.015	0.034	2.637	1.870	1.870	1.870	1.890	1.929	1.909
-0.010	0.000	0.000	-0.005	0.137	0.010	0.034	2.764	1.885	1.870	1.865	1.890	1.914	1.909
-0.005	-0.010	-0.005	0.000	0.117	0.015	0.029	2.646	1.885	1.870	1.865	1.885	1.899	1.904
0.005	-0.005	0.000	0.000	0.068	0.005	0.034	2.705	1.890	1.875	1.870	1.885	1.880	1.895
0.005	-0.005	-0.005	0.005	0.024	0.010	0.034	2.661	1.885	1.880	1.870	1.885	1.870	1.890
0.005	-0.005	-0.010	0.000	0.010	0.005	0.034	2.627	1.875	1.880	1.870	1.885	1.870	1.880
0.010	0.000	0.000	0.005	-0.020	-0.015	0.034	2.666	1.880	1.875	1.875	1.885	1.865	1.870
0.010	-0.005	-0.005	0.010	-0.010	0.000	0.034	2.729	1.885	1.875	1.875	1.885	1.875	1.875
0.020	-0.005	-0.005	0.010	-0.010	0.010	0.034	2.773	1.895	1.880	1.875	1.890	1.875	1.875
0.010	-0.005	0.000	0.000	0.024	0.005	0.034	2.671	1.890	1.885	1.875	1.890	1.890	1.880
0.010	-0.005	0.005	0.000	0.015	0.010	0.034	2.720	1.890	1.885	1.880	1.890	1.885	1.880
0.010	-0.020	0.005	-0.005	0.015	0.000	0.034	2.695	1.890	1.880	1.880	1.890	1.885	1.880
0.005	-0.015	0.005	0.000	0.000	0.005	0.034	2.705	1.890	1.885	1.880	1.895	1.880	1.885
0.005	0.000	0.005	-0.005	-0.005	-0.005	0.034	2.700	1.885	1.885	1.880	1.895	1.885	1.875
-0.005	0.005	0.005	-0.005	-0.020	0.000	0.034	2.710	1.885	1.890	1.885	1.899	1.880	1.880
-0.010	0.015	0.005	-0.010	-0.034	0.005	0.029	2.681	1.880	1.890	1.885	1.899	1.880	1.880
-0.010	0.005	0.010	0.000	-0.049	0.000	0.034	2.681	1.875	1.880	1.885	1.899	1.880	1.880
-0.015	0.010	0.000	0.015	-0.049	0.015	0.034	2.671	1.875	1.880	1.880	1.904	1.890	1.890
-0.005	0.015	-0.005	0.010	-0.044	0.000	0.034	2.695	1.880	1.880	1.880	1.899	1.890	1.885
-0.005	0.010	-0.005	0.005	-0.020	0.005	0.029	2.676	1.875	1.875	1.880	1.899	1.899	1.890
0.000	0.000	0.005	0.005	0.000	0.005	0.029	2.666	1.875	1.875	1.880	1.895	1.904	1.895
0.015	-0.010	0.000	0.000	-0.010	-0.005	0.034	2.710	1.880	1.875	1.875	1.895	1.895	1.890
0.005	-0.005	0.000	0.000	-0.039	-0.015	0.034	2.700	1.880	1.875	1.875	1.895	1.885	1.880
0.000	-0.010	-0.005	0.000	-0.059	-0.044	0.034	2.705	1.880	1.870	1.870	1.890	1.875	1.875
0.010	-0.005	0.000	0.005	-0.078	-0.020	0.034	2.676	1.880	1.880	1.875	1.895	1.875	1.880
0.000	0.005	0.000	0.015	-0.049	-0.034	0.034	2.700	1.880	1.880	1.875	1.895	1.890	1.880
0.005	0.010	0.000	0.015	-0.010	-0.010	0.034	2.676	1.880	1.880	1.875	1.895	1.899	1.895
0.000	0.000	0.005	0.015	0.015	0.005	0.034	2.705	1.880	1.875	1.875	1.895	1.904	1.899
-0.005	-0.005	0.000	0.000	0.044	-0.020	0.034	2.681	1.880	1.875	1.875	1.890	1.904	1.895
0.010	0.020	0.000	-0.010	0.054	0.010	0.034	2.686	1.880	1.880	1.875	1.890	1.904	1.904
-0.005	0.010	0.005	-0.010	0.044	0.010	0.034	2.676	1.880	1.880	1.880	1.890	1.895	1.904
-0.010	0.024	0.000	-0.015	0.117	0.010	0.034	2.671	1.880	1.885	1.880	1.895	1.919	1.909
-0.005	0.020	0.000	-0.010	0.186	0.034	0.034	2.676	1.885	1.885	1.880	1.899	1.929	1.919
0.005	0.015	0.005	-0.005	0.176	0.029	0.034	2.661	1.880	1.880	1.880	1.899	1.914	1.919
0.000	0.010	0.000	0.005	0.117	0.024	0.034	2.666	1.885	1.880	1.880	1.899	1.895	1.909
-0.005	-0.005	0.005	0.005	0.049	0.020	0.034	2.646	1.880	1.880	1.875	1.895	1.875	1.895
0.010	0.000	0.000	0.005	-0.005	0.005	0.034	2.661	1.880	1.875	1.875	1.895	1.870	1.885
0.005	-0.010	0.000	0.010	-0.044	0.015	0.034	2.686	1.880	1.875	1.875	1.895	1.865	1.875
0.005	-0.015	-0.005	0.005	-0.073	0.000	0.034	2.642	1.875	1.875	1.870	1.890	1.860	1.870
0.010	-0.015	0.000	0.000	-0.073	0.020	0.029	2.666	1.875	1.875	1.875	1.890	1.870	1.870
0.000	-0.005	0.000	-0.005	-0.049	0.015	0.034	2.622	1.870	1.870	1.875	1.890	1.880	1.875
0.010	0.000	0.000	-0.005	-0.044	-0.010	0.034	2.642	1.870	1.875	1.870	1.890	1.880	1.870
0.000	0.005	0.000	-0.010	-0.034	0.000	0.034	2.656	1.865	1.870	1.870	1.890	1.880	1.875
0.000	-0.005	0.000	-0.005	-0.029	0.005	0.034	2.744	1.875	1.870	1.870	1.890	1.885	1.875
-0.005	0.005	0.000	-0.005	-0.029	-0.005	0.034	2.671	1.870	1.875	1.875	1.890	1.885	1.880
-0.005	0.010	0.005	-0.005	-0.034	0.000	0.034	2.642	1.870	1.870	1.870	1.890	1.885	1.880
-0.005	0.010	0.005	0.005	-0.020	-0.005	0.034	2.666	1.870	1.875	1.875	1.895	1.890	1.880
-0.010	0.000	0.005	0.010	-0.010	0.010	0.034	2.656	1.870	1.870	1.870	1.895	1.895	1.890
-0.005	0.005	0.005	0.015	-0.010	0.015	0.034	2.646	1.890	1.875	1.875	1.895	1.890	1.890
0.000	0.000	0.005	0.020	0.000	0.015	0.034	2.656	1.885	1.875	1.870	1.895	1.895	1.890
0.015	-0.005	0.005	0.015	-0.010	0.000	0.034	2.666	1.885	1.875	1.875	1.890	1.890	1.885
0.010	0.000	0.000	0.005	-0.029	0.000	0.034	2.700	1.885	1.880	1.875	1.890	1.880	1.885
0.010	0.000	0.000	0.000	-0.044	-0.020	0.034	2.710	1.885	1.880	1.875	1.890	1.880	1.875
0.010	0.000	0.000	0.000	-0.029	-0.010	0.029	2.651	1.875	1.880	1.875	1.885	1.885	1.885
0.010	-0.010	-0.005	-0.005	-0.015	0.005	0.029	2.700	1.875	1.875	1.875	1.890	1.890	1.885
0.010	-0.015	0.000	0.000	-0.005	0.010	0.029	2.681	1.880	1.875	1.875	1.890	1.890	1.885
0.010	-0.005	-0.005	-0.005	-0.005	0.005	0.034	2.700	1.880	1.875	1.870	1.890	1.890	1.885
0.005	-0.005	-0.005	-0.005	-0.015	-0.015	0.029	2.671	1.875	1.875	1.870	1.885	1.885	1.885
0.005	-0.005	-0.005	0.000	0.000	-0.010	0.029	2.676	1.875	1.875	1.875	1.890	1.890	1.885
-0.005	0.000	0.000	-0.005	0.044	-0.005	0.034	2.700	1.880	1.875	1.875	1.895	1.899	1.890
-0.015	-0.005	0.005	-0.005	0.078	-0.005	0.034	2.671	1.870	1.875	1.875	1.895	1.909	1.895
-0.015	0.015	0.005	0.000	0.073	-0.010	0.034	2.705	1.880	1.880	1.875	1.895	1.899	1.895
-0.005	0.020	0.005	0.000	0.029	0.015	0.034	2.705	1.890	1.880	1.875	1.895	1.885	1.899
0.000	0.010	0.005	0.005	0.000	0.005	0.034	2.676	1.885	1.885	1.875	1.895	1.880	1.890
0.005	0.005	0.005	0.000	-0.005	0.024	0.034	2.666	1.880	1.880	1.880	1.895	1.885	1.895
-0.005	0.005	0.005	0.005	-0.005	0.020	0.034	2.705	1.880	1.875	1.880	1.895	1.885	1.885
-0.005	0.000	0.000	0.000	-0.015	0.015	0.034	2.671	1.880	1.875	1.875	1.895	1.885	1.885
-0.010	-0.005	0.005	-0.005	-0.015	-0.005	0.034	2.695	1.880	1.880	1.875	1.890	1.885	1.880
-0.005	-0.005	0.000	0.000	-0.010	-0.010	0.034	2.695	1.885	1.875	1.875	1.895	1.885	1.880
-0.010	-0.010	0.000	0.000	-0.005	-0.005	0.034	2.671	1.880	1.875	1.875	1.895	1.890	1.885
0.005	-0.010	-0.005	0.005	0.000	0.005	0.034	2.681	1.880	1.875	1.875	1.895	1.890	1.890
0.000	-0.005	0.000	0.005	0.005	0.005	0.034	2.661	1.880	1.875	1.875	1.895	1.895	1.890
0.020	-0.010	0.000	0.005	-0.005	-0.015	0.034	2.681	1.880	1.875	1.875	1.890	1.885	1.885
0.034	-0.005	-0.005	0.005	-0.005	0.005	0.034	2.661	1.885	1.880	1.875	1.890	1.890	1.890
0.020	-0.010	0.000	0.000	-0.005	0.000	0.034	2.686	1.880	1.880	1.875	1.890	1.885	1.885
0.015	0.000	-0.005	0.000	0.010	-0.005	0.029	2.783	1.885	1.885	1.875	1.895	1.890	1.885
0.005	0.010	-0.005	0.000	0.015	0.000	0.034	2.651	1.880	1.885	1.880	1.895	1.890	1.890
0.000	0.010	-0.005	0.000	0.010	-0.005	0.034	2.690	1.880	1.880	1.880	1.895	1.890	1.890
-0.005	0.020	0.000	0.005	0.000	-0.005	0.034	2.725	1.880	1.885	1.880	1.899	1.885	1.885
-0.005	0.015	0.010	0.005	0.000	-0.020	0.034	2.627	1.875	1.880	1.880	1.899	1.890	1.885
-0.010	0.005	0.010	0.005	0.005	-0.010	0.034	2.729	1.880	1.875	1.875	1.899	1.895	1.890
-0.010	0.020	0.005	-0.005	0.000	0.020	0.034	2.656	1.875	1.885	1.880	1.895	1.890	1.899
-0.010	0.000	0.000	-0.005	-0.015	0.020	0.034	2.661	1.875	1.875	1.875	1.895	1.885	1.890
-0.015	0.015	0.000	0.000	-0.024	0.024	0.034	2.642	1.875	1.875	1.875	1.895	1.885	1.895
-0.010	0.010	0.010	0.005	-0.039	-0.010	0.034	2.666	1.875	1.875	1.875	1.895	1.880	1.880
0.000	-0.005	0.010	0.000	-0.034	0.024	0.034	2.710	1.880	1.875	1.875	1.895	1.890	1.890
0.005	-0.015	0.005	-0.005	0.005	0.005	0.034	2.695	1.880	1.870	1.870	1.890	1.899	1.885
0.015	-0.015	0.000	-0.005	0.024	0.015	0.034	2.617	1.890	1.875	1.875	1.890	1.899	1.890
0.000	0.000	0.000	0.000	0.020	0.015	0.034	2.642	1.880	1.880	1.875	1.895	1.895	1.895
0.005	-0.010	0.000	0.005	-0.015	0.005	0.029	2.734	1.885	1.875	1.875	1.890	1.885	1.890
0.005	-0.010	0.005	0.000	-0.010	0.010	0.034	2.676	1.885	1.880	1.875	1.890	1.885	1.890
0.005	-0.005	0.005	0.005	0.010	0.010	0.034	2.681	1.885	1.880	1.875	1.890	1.890	1.890
0.005	-0.010	-0.005	-0.005	0.015	0.005	0.034	2.700	1.885	1.880	1.875	1.890	1.890	1.890
0.000	0.005	-0.005	-0.005	-0.015	-0.010	0.034	2.700	1.880	1.880	1.875	1.890	1.880	1.880
0.000	0.005	0.000	-0.005	-0.020	-0.005	0.034	2.705	1.880	1.885	1.880	1.890	1.880	1.880
0.020	0.015	0.005	0.000	0.010	0.000	0.034	2.671	1.885	1.885	1.880	1.895	1.895	1.890
0.005	0.010	0.000	0.005	0.024	-0.015	0.034	2.705	1.885	1.885	1.880	1.899	1.895	1.885
0.020	0.010	0.000	0.000	0.029	-0.015	0.034	2.671	1.885	1.885	1.880	1.899	1.899	1.895
0.010	0.010	0.005	0.000	0.034	-0.005	0.034	2.681	1.880	1.885	1.880	1.899	1.899	1.895
0.005	0.010	0.005	0.000	0.054	0.000	0.034	2.671	1.880	1.880	1.880	1.899	1.904	1.899
0.000	0.005	0.000	0.005	0.044	0.015	0.034	2.671	1.880	1.880	1.880	1.899	1.899	1.899
0.010	-0.005	0.000	0.010	0.024	-0.010	0.034	2.671	1.875	1.875	1.880	1.899	1.895	1.890
0.005	0.000	0.000	0.024	0.005	0.000	0.034	2.671	1.875	1.880	1.880	1.904	1.890	1.895
0.005	-0.015	0.000	0.015	0.000	0.005	0.034	2.671	1.880	1.875	1.875	1.899	1.890	1.890
0.005	-0.010	-0.005	0.015	0.000	-0.024	0.034	2.676	1.875	1.875	1.875	1.895	1.890	1.885
0.005	-0.005	-0.005	0.005	-0.005	0.005	0.034	2.705	1.880	1.875	1.875	1.890	1.885	1.890
0.000	0.005	0.005	-0.005	-0.005	-0.005	0.029	2.676	1.880	1.880	1.875	1.890	1.890	1.885
-0.005	-0.010	-0.005	-0.010	0.015	-0.015	0.029	2.686	1.875	1.875	1.870	1.885	1.890	1.885
0.000	-0.010	-0.005	-0.010	-0.010	-0.010	0.029	2.666	1.875	1.875	1.870	1.885	1.880	1.885
0.000	0.000	-0.005	-0.015	-0.024	0.005	0.029	2.681	1.875	1.875	1.875	1.890	1.875	1.885
0.000	0.000	0.000	-0.010	-0.029	0.005	0.034	2.676	1.875	1.875	1.875	1.890	1.880	1.885
0.010	-0.005	0.000	-0.005	-0.010	0.010	0.034	2.676	1.880	1.875	1.875	1.895	1.885	1.885
0.010	0.010	0.000	0.005	0.000	0.015	0.034	2.695	1.880	1.880	1.875	1.895	1.890	1.890
0.010	0.020	0.005	0.005	-0.005	0.005	0.034	2.661	1.880	1.880	1.880	1.895	1.890	1.885
0.000	0.020	0.000	0.010	-0.049	0.015	0.034	2.681	1.875	1.880	1.875	1.895	1.875	1.885
-0.010	0.015	0.005	0.005	-0.088	0.029	0.034	2.798	1.875	1.875	1.875	1.895	1.875	1.885
-0.005	0.020	0.005	0.000	-0.063	0.024	0.034	2.651	1.875	1.880	1.875	1.895	1.885	1.885
-0.024	0.024	0.010	0.005	0.005	0.015	0.034	2.695	1.870	1.875	1.880	1.895	1.909	1.890
-0.015	0.010	0.005	0.000	0.063	-0.005	0.034	2.725	1.880	1.870	1.875	1.895	1.914	1.895
-0.005	0.000	0.000	-0.005	0.083	0.024	0.034	2.632	1.875	1.870	1.875	1.895	1.914	1.899
-0.005	0.000	-0.005	0.000	0.039	0.010	0.034	2.734	1.885	1.870	1.870	1.895	1.895	1.895
-0.005	0.000	0.000	0.000	0.005	-0.005	0.034	2.734	1.890	1.875	1.870	1.890	1.880	1.890
0.000	-0.010	-0.005	0.000	-0.010	-0.015	0.034	2.661	1.885	1.875	1.870	1.890	1.880	1.880
0.000	-0.005	-0.005	0.005	0.020	-0.020	0.034	2.622	1.880	1.880	1.875	1.890	1.890	1.885
-0.005	0.000	-0.005	0.010	0.034	-0.049	0.034	2.656	1.880	1.880	1.875	1.890	1.890	1.875
-0.005	0.000	0.000	0.010	0.020	-0.024	0.034	2.715	1.880	1.880	1.875	1.895	1.890	1.885
-0.005	0.000	0.005	0.005	0.020	-0.010	0.034	2.676	1.880	1.875	1.875	1.890	1.885	1.890
-0.010	0.005	0.010	0.005	0.034	-0.005	0.034	2.720	1.885	1.880	1.875	1.895	1.895	1.890
0.000	0.000	0.010	0.005	0.029	0.000	0.034	2.627	1.880	1.880	1.875	1.895	1.890	1.895
-0.005	0.005	0.005	0.010	0.073	0.005	0.034	2.725	1.875	1.880	1.880	1.895	1.904	1.899
0.005	0.010	0.005	0.005	0.073	0.015	0.034	2.671	1.880	1.880	1.880	1.899	1.899	1.899
0.005	0.005	0.000	0.005	0.039	0.010	0.034	2.695	1.880	1.880	1.875	1.895	1.890	1.895
0.010	0.000	0.005	0.005	0.000	0.010	0.034	2.705	1.885	1.875	1.875	1.895	1.880	1.890
0.005	-0.005	0.000	0.000	-0.039	0.005	0.034	2.671	1.880	1.880	1.875	1.890	1.875	1.885
0.015	0.010	0.005	0.000	-0.049	0.020	0.034	2.695	1.885	1.880	1.875	1.895	1.875	1.885
0.015	-0.005	0.000	0.005	-0.044	0.015	0.034	2.676	1.880	1.875	1.875	1.895	1.880	1.880
0.015	-0.010	-0.005	0.005	-0.039	0.015	0.034	2.700	1.875	1.875	1.875	1.895	1.880	1.880
0.015	-0.005	-0.005	0.000	-0.034	0.020	0.034	2.676	1.880	1.875	1.875	1.895	1.885	1.880
0.010	-0.005	-0.005	0.000	-0.029	0.015	0.034	2.690	1.880	1.875	1.875	1.890	1.890	1.880
0.015	-0.029	0.000	0.000	-0.015	0.010	0.034	2.695	1.875	1.870	1.870	1.890	1.895	1.885
0.010	-0.010	-0.005	0.005	-0.005	0.015	0.034	2.695	1.880	1.875	1.870	1.895	1.890	1.890
0.005	-0.010	-0.005	0.005	-0.005	0.010	0.034	2.676	1.885	1.875	1.875	1.890	1.890	1.885
0.005	-0.005	0.005	0.005	-0.010	0.010	0.029	2.666	1.880	1.880	1.875	1.895	1.890	1.885
-0.005	0.000	0.010	0.005	-0.029	0.005	0.034	2.676	1.875	1.880	1.875	1.890	1.885	1.885
-0.005	0.010	0.000	0.005	-0.024	-0.024	0.034	2.671	1.875	1.880	1.875	1.890	1.885	1.880
0.000	0.015	0.005	0.000	-0.029	-0.015	0.029	2.710	1.885	1.885	1.875	1.895	1.885	1.880
-0.005	0.010	0.005	0.000	-0.054	-0.054	0.034	2.676	1.880	1.880	1.875	1.890	1.875	1.870
-0.005	0.010	0.005	0.000	-0.073	-0.024	0.029	2.690	1.875	1.880	1.880	1.895	1.875	1.880
-0.010	0.015	0.000	0.000	-0.068	-0.020	0.034	2.700	1.880	1.880	1.880	1.895	1.885	1.880
-0.005	0.015	0.005	0.000	-0.063	0.010	0.034	2.681	1.880	1.880	1.880	1.895	1.890	1.890
-0.005	0.015	0.005	0.000	-0.068	0.010	0.034	2.671	1.880	1.875	1.875	1.895	1.885	1.890
0.005	0.010	0.000	0.000	-0.054	-0.015	0.034	2.705	1.875	1.875	1.875	1.895	1.890	1.885
0.000	0.005	0.000	0.000	-0.020	-0.005	0.034	2.686	1.875	1.875	1.875	1.895	1.899	1.890
-0.010	0.005	0.000	0.000	0.063	-0.010	0.034	2.666	1.875	1.875	1.875	1.895	1.924	1.899
0.005	-0.005	0.000	0.000	0.146	0.015	0.034	2.676	1.880	1.875	1.875	1.895	1.934	1.919
0.005	0.000	-0.005	0.000	0.190	0.000	0.034	2.754	1.895	1.875	1.875	1.899	1.938	1.919
0.005	-0.005	0.000	0.000	0.215	0.000	0.034	2.651	1.890	1.880	1.875	1.895	1.934	1.924
0.010	-0.010	0.000	0.005	0.186	0.000	0.034	2.705	1.895	1.880	1.875	1.895	1.909	1.919
0.010	-0.015	-0.005	0.000	0.151	0.024	0.034	2.627	1.899	1.880	1.875	1.895	1.895	1.919
0.010	-0.010	-0.005	0.000	0.068	0.020	0.034	2.720	1.899	1.890	1.880	1.890	1.870	1.899
0.005	-0.005	-0.005	0.000	0.000	0.020	0.034	2.720	1.899	1.890	1.880	1.890	1.860	1.885
0.000	0.005	0.000	-0.005	-0.005	0.015	0.034	2.637	1.890	1.895	1.885	1.895	1.865	1.880
-0.005	0.010	0.000	0.000	-0.015	0.020	0.034	2.681	1.880	1.895	1.885	1.899	1.870	1.875
0.000	0.005	0.010	0.000	-0.049	0.015	0.034	2.637	1.875	1.890	1.890	1.899	1.870	1.875
0.000	0.015	0.010	0.010	-0.059	0.010	0.029	2.661	1.875	1.880	1.890	1.904	1.875	1.875
0.005	0.015	0.005	0.000	-0.054	0.005	0.029	2.749	1.885	1.885	1.885	1.904	1.880	1.875
0.015	0.005	0.010	0.005	-0.044	0.015	0.029	2.666	1.885	1.880	1.885	1.904	1.890	1.880
0.010	-0.005	0.005	0.015	-0.049	0.020	0.034	2.632	1.875	1.875	1.880	1.904	1.895	1.885
0.005	0.005	0.005	0.010	-0.039	-0.005	0.034	2.803	1.885	1.880	1.880	1.904	1.895	1.880
0.005	0.000	0.000	0.010	-0.024	0.020	0.034	2.632	1.875	1.875	1.880	1.899	1.899	1.890
0.010	-0.005	0.000	0.010	-0.020	0.010	0.034	2.671	1.875	1.875	1.875	1.899	1.899	1.890
0.005	-0.005	-0.005	0.020	-0.015	-0.010	0.034	2.661	1.875	1.875	1.875	1.899	1.899	1.885
0.000	-0.005	0.000	0.020	0.000	0.000	0.034	2.681	1.875	1.870	1.875	1.899	1.904	1.895
-0.005	-0.010	-0.005	0.010	-0.005	-0.005	0.034	2.666	1.875	1.870	1.870	1.895	1.895	1.890
-0.010	-0.015	0.000	-0.005	-0.010	-0.024	0.034	2.695	1.875	1.870	1.870	1.885	1.890	1.885
-0.020	-0.010	-0.005	-0.020	-0.005	-0.015	0.034	2.705	1.875	1.870	1.870	1.885	1.890	1.890
-0.010	0.000	-0.005	-0.010	0.010	-0.010	0.034	2.710	1.885	1.875	1.870	1.890	1.890	1.890
-0.015	0.005	0.005	-0.020	-0.005	-0.010	0.034	2.681	1.880	1.880	1.875	1.885	1.885	1.890
-0.020	0.020	0.000	-0.020	0.000	-0.020	0.034	2.695	1.880	1.880	1.875	1.890	1.885	1.885
-0.015	0.015	0.005	-0.005	-0.005	0.000	0.034	2.700	1.880	1.880	1.880	1.895	1.885	1.890
-0.010	0.015	0.005	0.005	-0.020	0.010	0.034	2.700	1.885	1.880	1.880	1.899	1.885	1.895
-0.005	0.015	0.010	0.010	-0.015	0.000	0.034	2.681	1.885	1.880	1.880	1.899	1.890	1.885
-0.005	0.010	0.000	0.015	-0.039	0.000	0.034	2.700	1.885	1.885	1.880	1.899	1.885	1.890
0.000	-0.020	0.000	0.005	-0.044	0.020	0.034	2.695	1.885	1.875	1.875	1.895	1.890	1.890
0.020	-0.015	0.000	0.005	-0.059	0.029	0.034	2.676	1.890	1.880	1.875	1.895	1.885	1.890
0.015	0.005	0.005	0.000	-0.063	0.039	0.034	2.700	1.890	1.890	1.880	1.895	1.885	1.895
0.024	0.000	0.005	0.000	-0.005	0.020	0.034	2.676	1.890	1.885	1.880	1.899	1.904	1.890
0.020	-0.015	-0.005	0.010	0.083	0.020	0.029	2.700	1.885	1.880	1.880	1.904	1.924	1.899
0.024	-0.005	-0.005	0.010	0.122	0.015	0.034	2.666	1.885	1.885	1.880	1.899	1.929	1.909
0.015	-0.005	-0.005	0.000	0.098	0.000	0.029	2.681	1.885	1.885	1.880	1.895	1.909	1.904
0.015	0.005	-0.005	-0.005	0.073	-0.020	0.034	2.671	1.885	1.885	1.880	1.895	1.895	1.895
0.020	0.005	0.000	-0.010	0.059	-0.010	0.034	2.700	1.885	1.885	1.880	1.895	1.890	1.895
0.005	-0.005	0.000	0.000	0.039	-0.005	0.034	2.690	1.880	1.880	1.880	1.899	1.885	1.895
0.005	0.005	0.000	0.000	0.010	-0.005	0.034	2.637	1.875	1.880	1.880	1.895	1.880	1.885
-0.005	0.015	0.010	-0.005	-0.039	-0.005	0.029	2.686	1.880	1.880	1.880	1.895	1.870	1.880
-0.020	0.015	0.005	-0.005	-0.049	-0.020	0.034	2.793	1.885	1.880	1.880	1.895	1.875	1.875
-0.010	0.024	0.005	0.000	-0.073	-0.015	0.034	2.656	1.880	1.885	1.880	1.895	1.875	1.875
-0.015	0.020	0.010	0.000	-0.073	0.000	0.034	2.700	1.880	1.880	1.880	1.899	1.880	1.885
-0.020	0.015	0.010	0.005	-0.024	-0.005	0.034	2.734	1.880	1.880	1.880	1.899	1.895	1.885
-0.005	0.020	0.000	0.005	-0.029	0.010	0.034	2.627	1.885	1.885	1.880	1.899	1.895	1.895
-0.005	0.005	0.000	0.010	-0.024	0.020	0.034	2.642	1.880	1.880	1.875	1.899	1.899	1.895
-0.015	0.005	0.000	0.005	0.005	0.020	0.034	2.754	1.875	1.880	1.875	1.899	1.909	1.899
-0.005	-0.005	0.000	0.000	0.034	0.005	0.034	2.651	1.875	1.875	1.880	1.899	1.909	1.899
0.010	0.005	0.000	0.000	0.039	0.005	0.029	2.749	1.885	1.875	1.875	1.895	1.904	1.899
0.005	-0.010	-0.005	0.000	0.010	-0.005	0.034	2.681	1.885	1.875	1.875	1.895	1.890	1.895
0.020	-0.010	-0.005	0.000	-0.024	-0.005	0.029	2.715	1.890	1.880	1.875	1.895	1.880	1.890
0.024	-0.010	-0.005	0.000	-0.010	0.000	0.034	2.671	1.890	1.880	1.875	1.895	1.890	1.890
0.010	-0.010	0.000	0.000	0.024	0.000	0.034	2.754	1.895	1.880	1.875	1.895	1.899	1.895
0.015	-0.005	0.005	-0.005	0.010	0.000	0.029	2.651	1.890	1.885	1.880	1.895	1.890	1.890
0.005	0.000	-0.005	0.000	-0.015	-0.005	0.034	2.715	1.885	1.880	1.880	1.895	1.885	1.890
0.000	0.000	0.005	0.010	-0.005	-0.010	0.034	2.681	1.885	1.880	1.885	1.899	1.890	1.885
0.000	0.000	0.005	0.015	-0.015	0.000	0.029	2.705	1.885	1.880	1.885	1.899	1.885	1.890
0.000	0.005	0.000	0.010	-0.029	0.010	0.029	2.705	1.885	1.885	1.880	1.899	1.885	1.890
-0.010	0.010	0.005	0.005	-0.054	0.005	0.034	2.681	1.880	1.880	1.880	1.899	1.880	1.885
-0.005	0.000	0.010	0.000	-0.029	-0.020	0.034	2.705	1.885	1.880	1.880	1.899	1.890	1.880
-0.005	0.000	0.010	0.000	-0.029	-0.010	0.034	2.690	1.885	1.880	1.885	1.899	1.895	1.890
0.000	-0.005	0.000	0.005	0.000	0.010	0.034	2.705	1.885	1.880	1.885	1.899	1.904	1.899
0.000	-0.005	0.005	0.000	0.024	0.020	0.034	2.661	1.885	1.880	1.880	1.899	1.904	1.899
0.000	0.000	0.000	0.005	-0.015	0.015	0.034	2.695	1.885	1.885	1.880	1.899	1.890	1.895
0.000	0.000	0.005	0.005	-0.054	0.000	0.034	2.700	1.885	1.880	1.880	1.899	1.880	1.890
0.000	-0.005	0.005	0.005	-0.054	0.000	0.034	2.695	1.895	1.885	1.880	1.899	1.885	1.885
0.005	0.000	0.000	0.000	-0.039	-0.005	0.034	2.666	1.890	1.885	1.880	1.899	1.890	1.885
-0.005	0.000	0.000	0.000	0.005	-0.020	0.034	2.676	1.880	1.880	1.880	1.899	1.904	1.885
0.015	-0.005	-0.010	0.000	0.151	-0.015	0.034	2.695	1.890	1.885	1.880	1.904	1.943	1.904
0.005	0.000	-0.010	0.000	0.195	-0.005	0.034	2.700	1.890	1.885	1.880	1.899	1.938	1.919
0.000	0.005	-0.005	-0.005	0.132	0.000	0.034	2.705	1.890	1.885	1.880	1.899	1.909	1.919
0.000	0.010	0.000	-0.005	0.063	0.034	0.034	2.671	1.890	1.885	1.885	1.899	1.890	1.914
0.005	0.010	-0.005	0.000	0.034	0.034	0.034	2.690	1.890	1.890	1.885	1.899	1.885	1.909
0.005	0.010	0.005	0.000	0.034	0.020	0.029	2.666	1.890	1.890	1.885	1.899	1.885	1.895
-0.005	0.010	0.005	0.000	0.005	0.000	0.034	2.671	1.885	1.890	1.885	1.899	1.880	1.885
-0.005	0.005	0.005	0.005	-0.039	-0.005	0.034	2.686	1.890	1.885	1.885	1.899	1.875	1.880
0.000	0.000	0.015	0.010	-0.039	-0.015	0.034	2.676	1.885	1.885	1.885	1.904	1.885	1.880
0.010	0.000	0.010	0.000	-0.034	0.020	0.029	2.681	1.885	1.880	1.885	1.899	1.890	1.890
0.000	0.005	0.005	0.005	-0.029	0.029	0.034	2.646	1.880	1.880	1.885	1.904	1.895	1.890
0.005	0.010	0.005	0.005	-0.034	0.024	0.034	2.686	1.880	1.880	1.880	1.904	1.895	1.890
0.000	-0.010	0.005	0.005	-0.034	-0.005	0.029	2.803	1.895	1.880	1.880	1.899	1.890	1.880
0.005	-0.005	0.000	0.000	-0.024	0.000	0.034	2.656	1.885	1.880	1.880	1.895	1.895	1.890
0.000	-0.005	0.000	0.000	-0.020	0.024	0.029	2.690	1.885	1.880	1.880	1.899	1.895	1.895
0.000	-0.005	0.000	0.010	-0.010	0.034	0.034	2.729	1.890	1.885	1.880	1.904	1.899	1.899
0.000	-0.010	-0.005	0.010	-0.024	0.024	0.034	2.651	1.885	1.880	1.875	1.899	1.895	1.895
0.015	0.000	-0.010	0.005	-0.024	0.039	0.029	2.676	1.890	1.890	1.880	1.895	1.895	1.895
0.005	0.005	0.000	0.000	-0.020	0.039	0.034	2.661	1.890	1.885	1.880	1.895	1.895	1.899
0.015	-0.005	0.000	0.000	-0.010	0.015	0.034	2.686	1.890	1.885	1.880	1.899	1.895	1.890
0.005	0.005	-0.005	-0.010	0.000	0.005	0.034	2.739	1.890	1.890	1.885	1.895	1.895	1.890
0.015	0.010	0.005	-0.015	-0.044	-0.010	0.034	2.651	1.885	1.890	1.885	1.895	1.880	1.880
-0.005	0.020	0.005	-0.010	-0.063	-0.039	0.034	2.744	1.890	1.890	1.885	1.899	1.880	1.875
-0.010	0.020	0.005	-0.005	-0.063	-0.088	0.034	2.681	1.880	1.885	1.890	1.899	1.880	1.860
-0.005	0.020	0.000	-0.005	-0.059	-0.103	0.034	2.725	1.865	1.880	1.885	1.904	1.890	1.865
-0.005	0.005	0.005	0.000	-0.005	-0.098	0.034	2.622	1.865	1.875	1.880	1.904	1.909	1.880
-0.005	0.005	0.005	0.000	0.020	-0.068	0.034	2.739	1.875	1.870	1.880	1.904	1.909	1.895
-0.010	0.000	0.005	0.005	0.054	-0.034	0.029	2.681	1.875	1.870	1.875	1.904	1.919	1.914
0.000	0.000	0.005	0.005	0.063	-0.024	0.034	2.705	1.890	1.875	1.875	1.899	1.914	1.914
0.010	-0.005	0.000	0.010	0.073	0.015	0.034	2.700	1.890	1.875	1.875	1.899	1.914	1.929
0.000	-0.005	-0.005	0.010	0.059	0.034	0.034	2.666	1.885	1.875	1.875	1.899	1.904	1.924
0.000	-0.005	0.005	0.015	0.083	0.039	0.029	2.700	1.895	1.880	1.875	1.899	1.909	1.924
0.000	-0.005	0.000	0.029	0.073	0.029	0.034	2.676	1.890	1.880	1.875	1.899	1.904	1.914
0.015	-0.015	0.000	0.015	0.059	0.044	0.034	2.705	1.895	1.885	1.875	1.895	1.895	1.909
0.010	-0.005	0.000	0.010	0.049	0.034	0.029	2.671	1.895	1.890	1.880	1.895	1.890	1.899
0.010	-0.005	-0.005	-0.005	0.039	-0.010	0.029	2.695	1.895	1.890	1.880	1.890	1.880	1.885
0.000	-0.005	0.000	-0.024	0.015	0.010	0.034	2.705	1.890	1.890	1.885	1.885	1.875	1.890
0.005	0.005	0.000	-0.015	-0.010	-0.010	0.034	2.695	1.890	1.890	1.880	1.890	1.875	1.880
0.005	0.010	0.000	-0.005	-0.024	-0.010	0.034	2.681	1.890	1.890	1.885	1.899	1.875	1.875
0.015	0.010	0.005	0.000	-0.029	0.000	0.034	2.705	1.890	1.890	1.890	1.899	1.885	1.880
0.010	0.015	0.005	-0.005	-0.024	0.005	0.034	2.695	1.890	1.890	1.890	1.904	1.885	1.880
0.000	0.005	0.010	-0.005	-0.039	0.020	0.034	2.700	1.885	1.885	1.890	1.904	1.890	1.890
0.000	0.005	0.010	0.005	-0.039	0.024	0.034	2.705	1.885	1.885	1.885	1.904	1.895	1.890
-0.010	0.010	0.005	0.010	-0.024	0.049	0.029	2.661	1.880	1.885	1.885	1.909	1.899	1.899
-0.015	0.010	0.005	0.005	-0.005	0.049	0.034	2.705	1.885	1.885	1.885	1.909	1.904	1.899
0.010	0.005	0.005	0.005	-0.005	0.059	0.034	2.690	1.895	1.885	1.885	1.904	1.904	1.909
0.020	-0.010	0.000	0.005	-0.034	0.054	0.034	2.666	1.890	1.885	1.880	1.904	1.895	1.895
0.020	-0.010	-0.005	0.000	-0.020	0.034	0.034	2.666	1.890	1.885	1.880	1.899	1.899	1.890
0.024	-0.010	0.000	-0.005	-0.020	0.010	0.029	2.705	1.890	1.880	1.880	1.899	1.895	1.885
0.005	0.000	0.000	-0.005	-0.020	-0.049	0.034	2.695	1.890	1.885	1.880	1.899	1.895	1.875
0.000	0.005	-0.005	-0.005	-0.020	-0.083	0.034	2.686	1.880	1.885	1.880	1.899	1.890	1.870
-0.020	-0.005	-0.005	-0.005	-0.039	-0.054	0.029	2.676	1.875	1.880	1.880	1.895	1.885	1.880
-0.024	0.000	-0.005	-0.005	-0.044	-0.039	0.034	2.778	1.870	1.875	1.875	1.895	1.890	1.890
-0.039	0.010	-0.005	-0.005	-0.010	0.005	0.034	2.656	1.865	1.875	1.875	1.899	1.904	1.899
-0.034	0.000	0.000	-0.005	0.020	0.000	0.034	2.700	1.875	1.870	1.875	1.899	1.904	1.899
-0.034	0.015	0.005	0.000	-0.015	0.010	0.034	2.739	1.885	1.880	1.875	1.895	1.895	1.899
-0.024	0.020	0.005	0.005	-0.020	0.010	0.034	2.729	1.895	1.885	1.880	1.895	1.890	1.899
-0.010	0.015	0.005	0.005	-0.049	0.005	0.034	2.646	1.899	1.885	1.880	1.895	1.885	1.890
0.000	0.015	0.005	0.005	-0.029	-0.010	0.034	2.666	1.890	1.890	1.880	1.899	1.895	1.890
-0.005	0.000	0.005	0.010	0.034	-0.034	0.034	2.681	1.890	1.885	1.885	1.904	1.914	1.890
-0.005	-0.010	0.005	0.005	0.088	-0.029	0.034	2.734	1.895	1.885	1.880	1.899	1.924	1.904
-0.005	0.000	0.000	0.010	0.083	-0.005	0.034	2.656	1.885	1.885	1.880	1.904	1.914	1.909
0.010	-0.005	0.000	0.010	0.078	-0.020	0.034	2.734	1.899	1.885	1.885	1.904	1.909	1.904
0.010	-0.010	-0.005	0.005	0.098	-0.010	0.029	2.671	1.895	1.885	1.885	1.899	1.914	1.909
0.005	-0.005	-0.005	0.005	0.146	-0.024	0.034	2.734	1.895	1.890	1.885	1.899	1.919	1.909
0.020	-0.010	0.000	0.000	0.151	0.005	0.034	2.646	1.895	1.890	1.885	1.899	1.914	1.919
0.015	-0.010	-0.005	0.000	0.107	0.015	0.034	2.739	1.899	1.890	1.885	1.899	1.899	1.909
0.015	-0.005	-0.005	0.000	0.020	0.015	0.034	2.671	1.895	1.895	1.885	1.895	1.875	1.899
0.010	-0.010	-0.005	0.000	-0.039	0.039	0.034	2.695	1.895	1.890	1.885	1.899	1.865	1.895
0.005	0.000	0.000	0.005	-0.059	0.059	0.034	2.710	1.895	1.895	1.885	1.899	1.870	1.890
0.015	-0.005	0.000	0.005	-0.054	0.059	0.034	2.661	1.885	1.890	1.890	1.904	1.880	1.890
0.010	-0.010	0.005	0.005	-0.044	0.034	0.029	2.700	1.890	1.885	1.890	1.904	1.885	1.880
0.000	0.000	0.005	0.000	-0.044	0.054	0.034	2.686	1.885	1.890	1.890	1.904	1.890	1.890
0.005	0.005	0.000	0.000	-0.049	0.024	0.034	2.710	1.890	1.890	1.885	1.904	1.895	1.880
0.005	0.010	0.000	0.005	-0.039	-0.010	0.034	2.681	1.885	1.890	1.890	1.909	1.895	1.875
0.000	0.010	0.005	0.005	-0.029	-0.020	0.034	2.686	1.885	1.885	1.890	1.909	1.899	1.880
0.000	0.005	0.005	0.000	-0.039	-0.044	0.029	2.686	1.885	1.885	1.885	1.904	1.895	1.880
0.000	0.000	0.005	-0.005	-0.039	-0.073	0.029	2.695	1.885	1.880	1.885	1.904	1.895	1.875
0.000	0.005	0.005	-0.005	-0.039	-0.088	0.029	2.700	1.885	1.885	1.885	1.899	1.899	1.875
0.005	0.000	0.005	-0.005	-0.029	-0.083	0.034	2.676	1.885	1.880	1.885	1.899	1.899	1.885
-0.005	-0.005	0.005	-0.005	-0.020	-0.049	0.029	2.676	1.880	1.880	1.880	1.904	1.899	1.895
0.010	-0.005	0.000	0.000	-0.039	-0.034	0.034	2.666	1.880	1.880	1.880	1.899	1.895	1.899
0.005	0.010	-0.005	0.000	-0.020	-0.015	0.034	2.700	1.885	1.880	1.880	1.899	1.899	1.909
0.015	0.005	-0.005	0.000	0.000	0.024	0.034	2.681	1.890	1.880	1.880	1.899	1.909	1.919
0.005	0.005	-0.005	0.005	0.005	0.010	0.034	2.676	1.885	1.885	1.880	1.899	1.904	1.909
0.015	-0.005	-0.010	0.005	0.020	0.034	0.034	2.695	1.890	1.880	1.880	1.899	1.904	1.914
0.015	0.000	0.000	0.000	0.049	0.015	0.034	2.676	1.890	1.880	1.880	1.899	1.909	1.909
0.000	-0.005	0.000	0.000	0.063	0.029	0.034	2.686	1.885	1.885	1.880	1.899	1.909	1.909
0.000	0.000	0.000	0.005	0.054	0.024	0.034	2.681	1.890	1.885	1.880	1.899	1.904	1.909
-0.005	-0.010	0.000	0.000	0.039	0.024	0.034	2.690	1.885	1.880	1.880	1.899	1.895	1.904
-0.005	0.005	0.000	0.000	0.020	0.015	0.034	2.651	1.885	1.885	1.880	1.899	1.890	1.899
0.000	0.020	0.000	0.000	0.005	0.010	0.034	2.671	1.885	1.890	1.885	1.899	1.890	1.895
0.000	0.024	0.005	-0.005	-0.010	0.024	0.034	2.793	1.899	1.895	1.885	1.899	1.890	1.890
0.000	0.020	0.010	0.000	-0.015	0.005	0.034	2.661	1.890	1.890	1.890	1.904	1.890	1.890
-0.005	0.010	0.005	0.015	-0.015	0.010	0.034	2.695	1.890	1.890	1.890	1.904	1.895	1.890
-0.015	0.015	0.000	0.010	-0.024	0.010	0.034	2.734	1.890	1.890	1.885	1.904	1.890	1.890
-0.020	-0.005	0.000	0.005	-0.020	0.020	0.034	2.632	1.885	1.885	1.880	1.904	1.895	1.890
-0.010	0.000	0.000	0.005	-0.005	0.005	0.029	2.715	1.885	1.880	1.880	1.899	1.899	1.890
0.000	-0.015	-0.005	-0.005	-0.015	0.015	0.034	2.651	1.895	1.880	1.880	1.899	1.895	1.895
0.010	-0.010	-0.005	-0.015	-0.020	-0.005	0.034	2.656	1.890	1.885	1.880	1.895	1.890	1.890
0.015	-0.005	-0.005	-0.015	-0.020	0.000	0.034	2.622	1.890	1.885	1.880	1.895	1.890	1.890
0.010	-0.010	0.000	-0.015	-0.010	0.000	0.034	2.656	1.875	1.885	1.880	1.899	1.895	1.895
0.005	-0.010	0.000	0.000	-0.005	0.005	0.034	2.710	1.880	1.880	1.885	1.904	1.895	1.895
0.005	-0.005	0.000	0.010	0.005	0.010	0.034	2.671	1.880	1.880	1.880	1.904	1.899	1.895
-0.005	-0.005	0.005	0.015	0.005	0.005	0.034	2.729	1.875	1.880	1.880	1.904	1.899	1.895
0.005	-0.005	0.005	0.010	0.015	0.000	0.034	2.642	1.880	1.880	1.880	1.899	1.904	1.895
-0.005	0.005	0.005	0.010	0.005	0.000	0.034	2.734	1.870	1.880	1.880	1.899	1.899	1.895
0.000	0.020	0.005	0.005	0.015	-0.010	0.034	2.676	1.875	1.885	1.885	1.899	1.899	1.895
-0.015	0.024	0.005	0.005	0.015	0.005	0.029	2.705	1.880	1.880	1.880	1.899	1.899	1.899
-0.005	0.034	0.005	0.005	0.010	0.000	0.034	2.700	1.890	1.885	1.880	1.899	1.895	1.895
-0.005	0.024	0.000	0.000	0.000	-0.005	0.034	2.666	1.885	1.880	1.880	1.899	1.895	1.895
0.010	-0.005	0.000	0.000	0.000	0.000	0.034	2.700	1.890	1.875	1.880	1.895	1.890	1.895
0.005	-0.005	0.005	0.000	-0.005	0.000	0.034	2.671	1.885	1.880	1.880	1.899	1.895	1.890
0.010	-0.010	0.000	0.005	0.005	0.005	0.034	2.690	1.890	1.880	1.880	1.895	1.895	1.895
0.010	-0.010	-0.005	0.005	-0.005	0.005	0.034	2.676	1.885	1.875	1.875	1.895	1.890	1.895
0.005	-0.015	-0.005	0.000	-0.010	0.000	0.034	2.666	1.880	1.875	1.875	1.895	1.890	1.885
0.015	-0.010	0.000	-0.005	-0.010	0.010	0.034	2.700	1.885	1.880	1.875	1.890	1.890	1.895
0.005	0.000	0.000	-0.005	-0.010	0.020	0.029	2.695	1.885	1.885	1.880	1.895	1.890	1.895
0.000	0.000	0.000	0.000	0.010	0.029	0.034	2.681	1.880	1.880	1.880	1.895	1.895	1.895
0.000	-0.005	0.000	0.000	-0.015	0.029	0.029	2.671	1.880	1.880	1.880	1.895	1.885	1.890
0.005	-0.015	0.010	0.005	-0.039	0.010	0.029	2.700	1.890	1.880	1.875	1.899	1.885	1.885
0.000	-0.005	0.005	0.000	-0.039	0.024	0.034	2.681	1.885	1.885	1.875	1.895	1.885	1.890
-0.005	0.000	0.005	-0.005	-0.010	-0.005	0.034	2.705	1.885	1.885	1.880	1.895	1.890	1.885
-0.005	0.000	0.005	-0.005	0.010	0.000	0.034	2.676	1.885	1.885	1.880	1.895	1.899	1.885
0.000	0.015	0.000	-0.005	0.034	-0.024	0.034	2.695	1.885	1.885	1.880	1.895	1.904	1.890
-0.005	0.000	0.005	-0.005	0.063	-0.010	0.034	2.705	1.885	1.880	1.880	1.899	1.909	1.895
-0.005	-0.020	0.005	0.005	0.054	-0.024	0.034	2.686	1.885	1.880	1.880	1.904	1.904	1.895
-0.005	-0.020	0.005	0.010	0.054	-0.034	0.034	2.676	1.885	1.880	1.880	1.899	1.899	1.895
0.005	0.000	0.000	0.005	0.015	-0.015	0.034	2.705	1.890	1.890	1.880	1.899	1.890	1.895
0.000	0.015	0.000	0.005	0.015	-0.015	0.034	2.676	1.885	1.890	1.885	1.899	1.890	1.895
0.005	0.049	-0.005	0.005	0.015	-0.029	0.034	2.656	1.885	1.899	1.885	1.899	1.895	1.890
0.015	0.029	-0.005	0.010	0.039	0.005	0.034	2.686	1.885	1.885	1.885	1.904	1.899	1.904
0.010	-0.015	-0.005	0.010	0.024	0.005	0.034	2.778	1.880	1.875	1.880	1.904	1.895	1.899
0.010	-0.024	-0.005	0.010	0.005	0.020	0.034	2.651	1.875	1.870	1.875	1.899	1.890	1.904
0.010	-0.024	-0.005	0.005	0.010	0.024	0.034	2.681	1.875	1.875	1.875	1.895	1.890	1.899
0.005	-0.010	-0.005	-0.005	0.005	0.005	0.029	2.734	1.885	1.875	1.875	1.890	1.890	1.895
-0.005	0.000	0.000	-0.010	-0.005	0.000	0.029	2.705	1.885	1.885	1.875	1.890	1.885	1.890
-0.015	0.000	0.000	-0.005	0.005	0.029	0.034	2.637	1.890	1.880	1.880	1.895	1.890	1.895
-0.005	0.005	0.000	0.015	-0.005	0.034	0.034	2.744	1.885	1.885	1.880	1.899	1.890	1.895
-0.005	0.005	0.005	0.020	-0.034	0.059	0.029	2.681	1.885	1.885	1.880	1.904	1.885	1.899
-0.005	0.005	0.010	0.005	-0.010	0.073	0.029	2.646	1.885	1.885	1.880	1.899	1.895	1.899
-0.005	0.010	0.005	0.015	0.005	0.049	0.034	2.690	1.890	1.890	1.885	1.899	1.899	1.895
0.005	0.010	0.010	0.005	0.029	0.015	0.034	2.715	1.895	1.885	1.885	1.899	1.904	1.890
0.005	0.010	0.005	0.005	0.029	-0.054	0.034	2.671	1.890	1.885	1.885	1.899	1.895	1.875
-0.005	0.005	0.005	0.005	-0.029	-0.073	0.034	2.744	1.890	1.885	1.880	1.899	1.880	1.870
0.000	0.000	0.000	0.000	-0.024	-0.093	0.034	2.637	1.880	1.885	1.880	1.899	1.890	1.870
0.005	-0.005	0.000	0.000	-0.039	-0.122	0.034	2.729	1.885	1.880	1.880	1.895	1.885	1.865
0.010	-0.034	-0.005	-0.005	-0.049	-0.088	0.034	2.676	1.880	1.870	1.875	1.895	1.880	1.875
-0.005	-0.015	0.000	-0.005	-0.054	-0.083	0.034	2.705	1.880	1.875	1.875	1.895	1.885	1.880
-0.005	-0.020	0.000	0.000	-0.010	-0.059	0.034	2.705	1.880	1.875	1.875	1.895	1.899	1.895
0.010	-0.020	0.000	0.000	-0.044	-0.029	0.034	2.700	1.890	1.880	1.875	1.895	1.890	1.895
0.010	-0.024	0.000	0.005	-0.054	0.000	0.034	2.705	1.885	1.875	1.875	1.895	1.885	1.904
0.005	-0.005	0.000	0.000	-0.039	0.024	0.034	2.705	1.890	1.885	1.880	1.895	1.890	1.909
0.020	0.020	0.005	-0.005	-0.063	0.073	0.034	2.705	1.895	1.895	1.885	1.895	1.885	1.909
0.015	0.044	0.000	-0.010	-0.093	0.078	0.034	2.686	1.895	1.899	1.890	1.895	1.880	1.904
0.020	0.049	0.010	-0.010	-0.054	0.063	0.029	2.666	1.890	1.899	1.890	1.899	1.899	1.899
0.005	0.034	0.010	-0.005	-0.015	0.044	0.034	2.695	1.885	1.890	1.890	1.904	1.909	1.899
-0.010	0.034	0.005	0.000	0.034	0.034	0.029	2.671	1.880	1.885	1.890	1.909	1.919	1.899
0.000	0.005	0.005	0.000	0.073	0.034	0.034	2.686	1.885	1.880	1.885	1.909	1.924	1.909
0.000	-0.015	0.005	0.000	0.083	0.024	0.034	2.676	1.885	1.875	1.885	1.904	1.924	1.904
-0.010	-0.020	0.000	0.000	0.088	0.034	0.029	2.695	1.885	1.875	1.880	1.904	1.919	1.914
0.000	-0.020	0.000	0.015	0.103	0.029	0.029	2.681	1.895	1.875	1.880	1.904	1.914	1.914
-0.010	-0.024	0.000	0.015	0.127	0.020	0.029	2.705	1.895	1.880	1.875	1.904	1.919	1.914
-0.005	-0.005	0.000	0.020	0.142	0.029	0.034	2.676	1.890	1.885	1.880	1.904	1.919	1.914
0.000	-0.024	0.000	0.020	0.112	0.000	0.034	2.666	1.885	1.880	1.880	1.899	1.899	1.904
-0.010	-0.024	-0.005	0.010	0.044	0.015	0.034	2.671	1.890	1.880	1.875	1.895	1.880	1.899
-0.010	-0.024	-0.005	-0.005	-0.010	0.010	0.034	2.681	1.885	1.880	1.875	1.890	1.870	1.885
0.000	-0.010	-0.005	-0.010	-0.029	0.010	0.034	2.686	1.885	1.885	1.880	1.890	1.870	1.880
0.000	0.020	0.000	-0.010	-0.034	-0.005	0.034	2.676	1.885	1.895	1.885	1.895	1.870	1.875
0.005	0.005	0.000	-0.005	-0.034	-0.005	0.034	2.690	1.885	1.885	1.885	1.899	1.875	1.875
0.015	0.000	0.000	-0.010	-0.029	-0.029	0.034	2.642	1.880	1.880	1.885	1.895	1.880	1.875
0.010	0.010	0.005	-0.005	-0.024	0.000	0.034	2.690	1.880	1.885	1.885	1.899	1.890	1.875
0.005	0.015	0.005	0.005	-0.034	0.005	0.034	2.642	1.875	1.880	1.885	1.904	1.890	1.885
-0.005	0.020	0.010	0.010	-0.024	-0.005	0.029	2.651	1.870	1.880	1.885	1.904	1.890	1.885
0.005	0.024	0.005	0.015	-0.107	0.000	0.034	2.710	1.875	1.880	1.880	1.904	1.870	1.880
-0.010	0.020	0.000	0.015	-0.142	-0.020	0.034	2.637	1.870	1.875	1.875	1.899	1.870	1.870
-0.010	0.020	0.005	0.005	-0.112	-0.015	0.034	2.646	1.870	1.875	1.875	1.895	1.885	1.880
-0.020	0.020	0.005	0.000	-0.083	-0.020	0.029	2.710	1.875	1.875	1.875	1.895	1.895	1.880
-0.020	0.020	0.000	-0.005	-0.059	-0.005	0.034	2.642	1.880	1.870	1.870	1.895	1.899	1.890
0.005	-0.015	0.000	0.000	-0.034	-0.020	0.034	2.690	1.885	1.865	1.870	1.895	1.899	1.885
0.015	-0.005	-0.005	0.000	-0.010	-0.015	0.034	2.739	1.895	1.875	1.870	1.895	1.904	1.895
0.005	0.000	-0.005	0.000	0.010	0.000	0.034	2.651	1.885	1.880	1.870	1.895	1.904	1.899
0.010	0.000	0.000	0.000	0.024	0.005	0.034	2.749	1.890	1.880	1.875	1.895	1.904	1.904
0.015	-0.005	-0.005	0.000	0.039	0.000	0.034	2.661	1.890	1.880	1.875	1.890	1.904	1.904
0.005	0.005	0.000	-0.005	0.044	0.000	0.029	2.729	1.890	1.885	1.875	1.895	1.899	1.904
0.000	0.000	-0.005	0.005	0.049	0.005	0.029	2.666	1.885	1.880	1.875	1.895	1.899	1.899
-0.005	-0.005	0.000	0.005	0.059	0.010	0.034	2.725	1.890	1.880	1.880	1.895	1.899	1.904
0.000	-0.005	0.000	0.005	0.068	-0.005	0.034	2.671	1.895	1.885	1.885	1.899	1.899	1.899
0.005	0.010	0.010	-0.005	0.059	0.000	0.034	2.676	1.890	1.890	1.885	1.895	1.895	1.899
0.005	-0.005	0.000	0.000	0.059	0.005	0.034	2.671	1.890	1.885	1.885	1.899	1.895	1.899
-0.010	0.000	0.005	0.000	0.039	0.005	0.034	2.695	1.885	1.885	1.885	1.899	1.890	1.895
0.000	-0.020	0.010	0.000	0.044	0.000	0.034	2.705	1.890	1.880	1.885	1.899	1.895	1.895
0.005	-0.020	0.005	0.005	0.034	-0.005	0.034	2.671	1.890	1.885	1.885	1.904	1.895	1.890
0.005	-0.029	0.005	0.010	0.024	-0.020	0.034	2.700	1.890	1.885	1.880	1.899	1.890	1.890
-0.005	0.020	0.000	0.005	0.015	-0.020	0.034	2.671	1.890	1.899	1.885	1.899	1.890	1.890
-0.005	0.054	0.005	0.000	0.000	0.000	0.034	2.700	1.890	1.904	1.890	1.904	1.890	1.890
0.005	0.034	0.000	0.000	-0.015	0.000	0.034	2.705	1.890	1.890	1.890	1.904	1.885	1.890
0.020	0.015	-0.005	0.000	-0.015	0.005	0.034	2.700	1.890	1.885	1.885	1.904	1.890	1.890
0.005	0.024	-0.005	0.000	-0.005	0.000	0.034	2.686	1.890	1.890	1.885	1.904	1.899	1.890
0.005	0.015	0.000	0.000	0.005	0.000	0.034	2.695	1.885	1.880	1.885	1.904	1.899	1.895
0.010	-0.005	0.000	-0.005	0.010	-0.015	0.034	2.681	1.885	1.875	1.880	1.899	1.899	1.890
0.000	-0.010	0.000	0.000	0.020	0.015	0.034	2.695	1.880	1.875	1.880	1.899	1.899	1.899
-0.015	-0.015	0.000	-0.005	0.010	0.015	0.029	2.695	1.880	1.875	1.875	1.899	1.899	1.899
-0.010	-0.024	0.005	-0.005	0.005	0.024	0.034	2.676	1.880	1.875	1.875	1.895	1.895	1.904
-0.005	0.000	0.000	-0.005	0.015	0.020	0.034	2.666	1.880	1.885	1.880	1.895	1.899	1.899
-0.010	-0.010	0.005	0.000	0.015	0.024	0.029	2.700	1.885	1.880	1.880	1.899	1.895	1.899
-0.005	-0.015	0.005	-0.005	0.015	0.020	0.034	2.676	1.885	1.880	1.880	1.895	1.895	1.895
0.005	0.000	0.010	0.000	0.029	0.005	0.034	2.676	1.890	1.890	1.880	1.899	1.899	1.895
0.000	0.015	0.010	0.000	0.010	-0.020	0.034	2.676	1.885	1.890	1.885	1.899	1.890	1.885
-0.005	0.059	0.000	0.005	-0.029	-0.005	0.029	2.686	1.890	1.899	1.885	1.899	1.880	1.890
0.000	-0.010	0.005	0.005	-0.049	-0.024	0.034	2.642	1.880	1.875	1.880	1.899	1.880	1.880
0.005	-0.024	0.005	0.005	-0.054	-0.039	0.034	2.686	1.880	1.870	1.880	1.899	1.880	1.875
0.000	-0.034	0.005	0.010	-0.049	-0.015	0.034	2.666	1.870	1.870	1.875	1.899	1.890	1.890
-0.005	-0.029	0.000	0.005	-0.059	-0.024	0.034	2.656	1.870	1.870	1.875	1.895	1.885	1.885
0.000	0.000	-0.005	0.000	-0.054	-0.029	0.034	2.681	1.875	1.880	1.875	1.895	1.885	1.885
0.005	0.005	-0.005	0.000	-0.063	-0.020	0.034	2.725	1.870	1.875	1.875	1.890	1.885	1.885
0.005	0.000	-0.005	-0.005	-0.059	-0.010	0.034	2.710	1.875	1.875	1.875	1.890	1.885	1.890
0.000	0.015	0.000	0.000	-0.029	-0.015	0.034	2.627	1.875	1.880	1.875	1.890	1.895	1.890
0.000	0.000	-0.005	-0.005	0.000	0.000	0.034	2.642	1.870	1.870	1.875	1.890	1.899	1.895
0.015	-0.005	-0.005	0.000	0.005	0.020	0.034	2.671	1.875	1.870	1.875	1.895	1.904	1.904
-0.005	0.005	-0.005	-0.005	0.103	0.039	0.029	2.729	1.880	1.875	1.875	1.895	1.924	1.914
-0.005	-0.005	0.005	-0.005	0.142	0.024	0.034	2.666	1.885	1.870	1.875	1.895	1.924	1.914
0.005	-0.015	0.005	0.000	0.127	0.029	0.029	2.734	1.895	1.875	1.875	1.895	1.909	1.914
0.005	-0.010	0.005	0.005	0.132	0.005	0.029	2.681	1.890	1.880	1.875	1.895	1.904	1.909
-0.005	0.044	0.010	0.010	0.107	0.034	0.029	2.710	1.899	1.899	1.880	1.895	1.895	1.909
-0.010	0.015	0.005	0.005	0.073	0.034	0.034	2.700	1.895	1.890	1.880	1.895	1.890	1.904
-0.020	0.005	0.015	0.005	0.054	0.034	0.034	2.700	1.895	1.890	1.885	1.899	1.885	1.899
-0.010	0.010	0.000	0.000	0.054	0.059	0.034	2.681	1.895	1.890	1.885	1.899	1.885	1.904
0.000	0.015	0.005	-0.020	0.024	0.049	0.029	2.671	1.895	1.895	1.885	1.895	1.880	1.890
0.015	-0.005	0.005	-0.005	-0.015	0.034	0.034	2.710	1.899	1.885	1.885	1.899	1.870	1.880
0.010	-0.005	0.000	0.000	-0.073	0.020	0.034	2.700	1.895	1.890	1.885	1.899	1.860	1.870
0.010	-0.005	0.005	0.005	-0.122	0.010	0.034	2.695	1.890	1.890	1.885	1.904	1.860	1.865
0.000	-0.010	0.005	0.015	-0.137	-0.010	0.034	2.695	1.880	1.885	1.885	1.899	1.870	1.860
0.005	0.000	0.005	0.005	-0.142	-0.010	0.034	2.695	1.880	1.885	1.885	1.899	1.870	1.860
-0.005	-0.010	0.005	-0.010	-0.166	-0.020	0.034	2.681	1.880	1.880	1.875	1.895	1.870	1.860
-0.005	0.000	-0.010	-0.015	-0.181	-0.059	0.034	2.671	1.875	1.875	1.875	1.895	1.870	1.851
0.010	0.000	-0.015	0.000	-0.137	-0.073	0.034	2.710	1.875	1.880	1.875	1.899	1.885	1.860
0.020	0.010	-0.020	0.020	-0.078	-0.063	0.029	2.700	1.880	1.880	1.875	1.904	1.909	1.875
0.005	0.020	-0.015	0.024	-0.083	-0.054	0.034	2.700	1.880	1.880	1.880	1.904	1.904	1.885
0.010	0.005	-0.005	0.015	-0.044	-0.059	0.034	2.705	1.880	1.880	1.880	1.899	1.914	1.890
0.005	0.005	0.005	0.015	0.010	-0.083	0.034	2.695	1.880	1.875	1.880	1.904	1.919	1.895
0.005	0.005	0.020	0.005	0.015	-0.083	0.029	2.710	1.885	1.880	1.885	1.899	1.919	1.904
-0.005	-0.010	0.010	0.015	0.063	-0.044	0.034	2.700	1.880	1.875	1.880	1.904	1.929	1.919
-0.005	0.010	0.010	0.005	0.132	-0.020	0.029	2.671	1.885	1.885	1.880	1.899	1.938	1.934
0.000	0.015	0.010	-0.015	0.234	-0.005	0.034	2.705	1.890	1.885	1.880	1.899	1.958	1.948
0.005	0.005	0.000	-0.020	0.337	0.059	0.034	2.686	1.895	1.885	1.880	1.899	1.968	1.968
0.010	0.005	0.000	-0.005	0.259	0.078	0.029	2.676	1.899	1.890	1.880	1.899	1.924	1.958
-0.005	0.005	-0.005	0.000	0.122	0.078	0.034	2.681	1.895	1.890	1.880	1.899	1.880	1.934
0.000	-0.005	-0.005	-0.010	0.093	0.073	0.034	2.671	1.895	1.890	1.880	1.895	1.875	1.919
0.000	-0.005	-0.005	0.005	0.015	0.054	0.034	2.676	1.890	1.890	1.885	1.895	1.860	1.895
-0.005	0.000	0.000	0.005	-0.039	0.054	0.034	2.666	1.885	1.890	1.885	1.895	1.855	1.880
-0.005	-0.005	0.005	0.000	-0.024	0.039	0.034	2.676	1.885	1.885	1.885	1.899	1.870	1.870
0.000	-0.005	0.000	0.020	-0.034	0.024	0.034	2.681	1.880	1.885	1.885	1.904	1.875	1.870
-0.005	-0.005	0.005	0.015	-0.044	-0.005	0.034	2.646	1.875	1.880	1.880	1.904	1.875	1.865
-0.005	0.015	0.005	0.005	-0.044	-0.010	0.034	2.690	1.880	1.885	1.885	1.899	1.885	1.870
0.000	0.034	0.000	0.005	-0.039	-0.039	0.034	2.739	1.885	1.890	1.880	1.899	1.885	1.870
0.000	0.005	0.000	0.005	-0.039	-0.015	0.034	2.627	1.875	1.880	1.880	1.899	1.890	1.880
-0.005	-0.005	-0.005	0.005	-0.039	0.010	0.034	2.651	1.875	1.875	1.875	1.899	1.890	1.890
-0.005	-0.005	0.005	0.000	-0.039	0.024	0.034	2.710	1.885	1.880	1.875	1.899	1.895	1.890
0.005	-0.005	0.010	0.005	-0.029	0.015	0.034	2.646	1.880	1.880	1.880	1.899	1.895	1.890
0.005	-0.010	0.010	0.000	-0.020	0.020	0.034	2.734	1.885	1.875	1.880	1.895	1.895	1.895
-0.005	0.010	0.010	-0.010	-0.024	0.005	0.034	2.671	1.885	1.880	1.880	1.895	1.890	1.885
0.000	-0.005	0.005	-0.015	-0.039	-0.015	0.034	2.661	1.885	1.880	1.875	1.895	1.890	1.885
-0.005	-0.010	0.005	-0.005	-0.049	-0.024	0.034	2.676	1.880	1.875	1.875	1.895	1.885	1.880
0.000	-0.005	0.005	-0.005	-0.044	-0.015	0.029	2.725	1.885	1.880	1.875	1.895	1.890	1.885
0.010	-0.010	0.000	-0.005	-0.024	-0.020	0.034	2.676	1.880	1.875	1.875	1.895	1.895	1.885
0.010	-0.010	-0.005	0.005	-0.029	-0.020	0.029	2.656	1.885	1.880	1.875	1.895	1.895	1.890
0.015	-0.015	0.005	0.010	-0.024	-0.005	0.029	2.671	1.890	1.880	1.880	1.895	1.890	1.890
0.015	-0.005	0.005	0.005	-0.024	-0.005	0.034	2.651	1.880	1.885	1.880	1.895	1.895	1.890
0.015	0.044	0.000	0.005	-0.020	0.000	0.029	2.700	1.880	1.899	1.885	1.895	1.895	1.895
0.005	0.024	0.000	0.005	-0.024	0.000	0.034	2.705	1.880	1.880	1.885	1.899	1.890	1.895
0.000	-0.034	0.010	0.010	-0.063	0.000	0.034	2.700	1.885	1.870	1.875	1.895	1.880	1.890
0.005	-0.044	0.005	0.005	-0.059	0.000	0.034	2.705	1.885	1.870	1.875	1.895	1.890	1.890
0.010	-0.015	0.000	0.010	-0.039	0.015	0.034	2.705	1.890	1.880	1.875	1.899	1.895	1.895
-0.010	0.010	0.005	0.005	-0.029	0.005	0.034	2.686	1.885	1.890	1.880	1.895	1.895	1.890
-0.015	0.024	0.005	-0.005	-0.010	-0.015	0.029	2.661	1.880	1.890	1.885	1.895	1.895	1.890
-0.010	0.029	0.005	-0.005	-0.024	0.015	0.034	2.681	1.880	1.890	1.880	1.895	1.895	1.899
-0.015	0.000	0.000	-0.010	-0.059	0.000	0.034	2.700	1.880	1.875	1.880	1.895	1.880	1.890
0.000	-0.029	0.000	-0.005	-0.054	0.005	0.034	2.700	1.885	1.875	1.875	1.895	1.890	1.890
0.000	-0.015	0.005	0.010	-0.034	0.010	0.034	2.676	1.890	1.880	1.875	1.899	1.895	1.890
0.010	-0.024	0.000	0.005	-0.015	0.010	0.034	2.695	1.890	1.875	1.875	1.899	1.899	1.895
0.015	0.000	-0.005	0.010	-0.015	0.000	0.034	2.700	1.890	1.890	1.880	1.899	1.899	1.895
0.010	0.005	-0.005	0.010	-0.010	0.000	0.034	2.700	1.890	1.890	1.880	1.899	1.899	1.895
-0.005	0.015	-0.010	0.010	-0.005	0.015	0.034	2.671	1.885	1.890	1.885	1.899	1.895	1.899
0.005	-0.005	0.000	0.005	0.005	0.015	0.034	2.705	1.885	1.880	1.880	1.899	1.899	1.899
0.010	0.005	-0.005	0.000	0.010	0.015	0.034	2.666	1.885	1.890	1.885	1.895	1.899	1.899
0.005	0.010	-0.005	-0.005	-0.010	0.015	0.034	2.671	1.880	1.885	1.885	1.895	1.890	1.895
0.000	0.024	0.005	0.000	-0.010	0.005	0.034	2.676	1.880	1.885	1.885	1.899	1.890	1.895
-0.005	0.015	0.010	0.000	0.005	0.000	0.029	2.681	1.880	1.880	1.885	1.904	1.899	1.890
-0.005	0.000	0.015	0.000	0.020	0.005	0.034	2.676	1.880	1.880	1.885	1.904	1.904	1.899
0.005	0.010	0.010	0.010	0.034	0.000	0.034	2.690	1.890	1.885	1.885	1.904	1.909	1.899
-0.005	0.010	0.010	0.005	0.054	-0.005	0.034	2.681	1.885	1.880	1.880	1.904	1.909	1.899
-0.010	0.015	0.015	0.005	-0.010	0.010	0.034	2.666	1.880	1.885	1.880	1.899	1.890	1.899
-0.010	0.015	0.000	0.000	-0.024	0.000	0.034	2.656	1.875	1.880	1.880	1.899	1.885	1.895
-0.015	0.020	0.005	0.000	-0.005	-0.005	0.029	2.695	1.880	1.880	1.880	1.899	1.895	1.890
-0.005	-0.010	-0.005	0.005	0.020	0.005	0.034	2.729	1.875	1.870	1.875	1.899	1.899	1.895
0.000	-0.020	-0.005	0.000	0.039	0.020	0.034	2.715	1.885	1.870	1.870	1.895	1.904	1.899
0.015	-0.005	-0.005	0.000	0.054	0.005	0.034	2.622	1.880	1.875	1.875	1.895	1.904	1.899
0.015	-0.020	0.000	0.000	0.068	0.005	0.034	2.734	1.890	1.875	1.875	1.895	1.904	1.899
0.010	-0.024	0.005	0.000	0.073	0.024	0.034	2.651	1.885	1.875	1.875	1.895	1.904	1.904
0.015	-0.015	-0.005	-0.005	0.078	0.034	0.034	2.744	1.880	1.880	1.875	1.890	1.899	1.904
0.005	-0.015	-0.005	0.005	0.024	0.024	0.034	2.661	1.885	1.885	1.875	1.895	1.880	1.895
0.000	0.010	0.000	0.000	0.005	0.000	0.034	2.622	1.875	1.885	1.875	1.895	1.880	1.885
0.000	-0.005	-0.005	0.000	0.020	-0.005	0.034	2.676	1.875	1.880	1.880	1.890	1.885	1.880
0.000	0.005	0.000	-0.010	0.010	-0.039	0.034	2.734	1.885	1.880	1.875	1.890	1.880	1.875
-0.005	0.034	0.000	-0.005	0.015	-0.054	0.034	2.695	1.885	1.885	1.880	1.895	1.885	1.870
-0.005	0.059	0.005	-0.005	0.024	-0.054	0.034	2.749	1.890	1.895	1.885	1.895	1.890	1.875
-0.015	0.039	0.005	-0.005	0.034	-0.039	0.034	2.661	1.880	1.885	1.885	1.899	1.895	1.885
-0.010	0.015	0.000	-0.005	0.054	-0.068	0.034	2.695	1.885	1.880	1.885	1.899	1.899	1.885
0.005	0.005	0.000	-0.005	0.059	-0.049	0.034	2.705	1.890	1.875	1.880	1.899	1.899	1.890
0.005	-0.015	0.010	0.000	0.024	-0.054	0.034	2.700	1.890	1.875	1.880	1.899	1.890	1.890
0.010	-0.059	0.005	-0.005	0.029	-0.020	0.034	2.700	1.890	1.870	1.875	1.899	1.890	1.899
0.000	-0.054	-0.005	0.000	0.034	0.020	0.034	2.681	1.880	1.870	1.870	1.895	1.895	1.909
0.000	-0.059	-0.005	0.000	0.049	0.020	0.034	2.710	1.885	1.875	1.870	1.895	1.899	1.909
-0.005	0.000	0.000	0.000	0.049	0.049	0.029	2.676	1.885	1.895	1.880	1.895	1.899	1.909
0.005	0.020	0.000	0.000	0.054	0.024	0.034	2.695	1.890	1.895	1.880	1.899	1.895	1.899
0.010	0.020	0.000	0.000	0.059	0.034	0.034	2.700	1.895	1.895	1.885	1.899	1.899	1.899
0.010	0.088	0.005	0.000	0.049	0.015	0.034	2.671	1.890	1.909	1.895	1.899	1.895	1.895
0.010	0.059	0.005	0.010	0.049	-0.005	0.034	2.700	1.885	1.895	1.895	1.904	1.895	1.890
0.015	0.015	0.000	0.010	0.029	-0.015	0.034	2.700	1.890	1.880	1.890	1.904	1.890	1.885
0.005	-0.010	0.005	0.010	0.015	-0.010	0.034	2.676	1.885	1.875	1.885	1.904	1.890	1.885
0.010	-0.020	0.000	0.010	0.024	-0.020	0.034	2.695	1.885	1.875	1.880	1.904	1.895	1.890
0.010	-0.078	0.000	0.010	0.024	-0.005	0.034	2.705	1.885	1.860	1.875	1.899	1.895	1.895
0.000	-0.034	0.005	0.010	0.024	0.015	0.034	2.676	1.885	1.880	1.875	1.899	1.895	1.899
-0.010	-0.029	0.015	0.015	0.010	0.020	0.034	2.700	1.885	1.880	1.875	1.899	1.890	1.899
-0.020	0.020	0.000	0.005	0.005	0.015	0.034	2.681	1.880	1.895	1.880	1.895	1.890	1.895
-0.005	0.034	0.005	-0.010	-0.005	0.029	0.034	2.681	1.885	1.895	1.885	1.890	1.885	1.895
-0.020	0.049	0.005	-0.010	-0.005	0.020	0.034	2.671	1.880	1.895	1.885	1.895	1.890	1.890
-0.010	0.044	0.000	-0.010	0.000	0.034	0.034	2.671	1.885	1.890	1.885	1.899	1.890	1.895
-0.010	0.024	0.005	-0.005	-0.044	0.015	0.034	2.690	1.885	1.880	1.885	1.904	1.880	1.885
-0.010	0.020	0.000	0.010	-0.039	0.015	0.034	2.661	1.880	1.880	1.880	1.904	1.885	1.885
0.000	-0.010	-0.005	0.005	-0.049	-0.005	0.034	2.686	1.885	1.875	1.875	1.899	1.890	1.880
-0.005	-0.044	-0.005	0.000	-0.044	0.000	0.034	2.788	1.890	1.865	1.870	1.895	1.890	1.885
0.010	-0.054	0.000	0.000	-0.029	0.020	0.034	2.656	1.885	1.870	1.870	1.895	1.890	1.890
0.005	-0.029	-0.005	0.015	-0.039	0.015	0.034	2.695	1.885	1.880	1.875	1.895	1.890	1.890
0.015	-0.010	0.005	0.005	-0.010	0.015	0.029	2.720	1.895	1.890	1.880	1.895	1.899	1.890
0.005	0.000	0.000	0.000	0.005	-0.010	0.034	2.651	1.885	1.890	1.880	1.895	1.899	1.885
0.005	0.039	0.000	0.000	0.000	-0.005	0.034	2.720	1.890	1.899	1.885	1.899	1.895	1.890
0.005	0.088	0.005	0.000	-0.005	-0.010	0.029	2.642	1.885	1.914	1.895	1.904	1.895	1.890
0.010	0.112	0.015	0.000	-0.015	-0.010	0.034	2.661	1.885	1.909	1.899	1.909	1.895	1.895
0.005	-0.039	0.015	0.000	-0.015	-0.010	0.029	2.720	1.880	1.855	1.885	1.904	1.895	1.895
0.005	-0.073	0.015	0.005	-0.015	0.020	0.034	2.666	1.875	1.855	1.875	1.904	1.899	1.904
-0.005	-0.039	0.010	0.010	-0.005	0.020	0.029	2.734	1.880	1.870	1.875	1.904	1.899	1.904
0.000	-0.005	0.005	0.010	-0.010	0.005	0.034	2.700	1.890	1.885	1.875	1.899	1.899	1.895
-0.005	0.005	-0.010	0.015	-0.005	-0.010	0.034	2.749	1.895	1.890	1.875	1.899	1.899	1.890
0.000	-0.005	-0.010	0.010	0.010	-0.010	0.034	2.700	1.890	1.885	1.880	1.895	1.899	1.895
0.005	0.015	-0.010	0.005	0.000	-0.005	0.034	2.622	1.885	1.890	1.880	1.899	1.895	1.895
0.015	0.034	-0.005	-0.005	-0.005	-0.005	0.034	2.666	1.885	1.895	1.885	1.895	1.890	1.895
0.015	-0.015	0.000	0.000	-0.020	-0.010	0.034	2.666	1.880	1.875	1.880	1.895	1.885	1.890
0.010	-0.020	0.000	-0.005	-0.044	-0.010	0.034	2.705	1.880	1.875	1.880	1.895	1.880	1.885
0.010	0.000	0.000	-0.015	-0.044	-0.015	0.034	2.695	1.880	1.880	1.880	1.895	1.885	1.885
0.005	-0.020	0.000	-0.005	0.005	-0.015	0.029	2.695	1.885	1.875	1.880	1.899	1.899	1.890
0.005	-0.005	0.000	0.000	0.024	-0.029	0.034	2.686	1.885	1.880	1.880	1.899	1.904	1.885
-0.010	0.010	-0.005	0.000	0.024	-0.010	0.034	2.705	1.880	1.885	1.880	1.899	1.899	1.899
-0.015	-0.005	-0.005	0.000	0.005	0.020	0.029	2.676	1.875	1.875	1.880	1.899	1.895	1.904
0.000	0.000	0.000	0.010	-0.005	0.005	0.029	2.690	1.890	1.880	1.880	1.899	1.890	1.899
0.010	0.000	0.005	0.024	0.005	0.020	0.034	2.700	1.890	1.885	1.885	1.904	1.899	1.904
0.015	0.010	0.005	0.039	0.020	0.015	0.034	2.676	1.890	1.890	1.885	1.909	1.909	1.899
0.020	-0.010	0.015	0.010	0.020	0.005	0.034	2.676	1.885	1.880	1.885	1.899	1.899	1.895
-0.005	-0.024	0.015	-0.010	0.024	0.020	0.034	2.671	1.880	1.875	1.880	1.890	1.899	1.904
-0.015	-0.034	0.010	-0.029	0.039	0.015	0.034	2.700	1.885	1.875	1.875	1.890	1.899	1.899
0.005	-0.059	0.005	-0.020	0.024	0.010	0.034	2.681	1.885	1.875	1.875	1.890	1.890	1.895
0.015	-0.024	0.000	-0.024	0.010	-0.005	0.034	2.700	1.890	1.885	1.875	1.890	1.885	1.885
0.005	0.005	0.010	-0.029	-0.005	0.020	0.034	2.676	1.885	1.895	1.880	1.895	1.880	1.895
0.000	0.029	0.000	-0.005	-0.005	0.015	0.034	2.690	1.890	1.895	1.885	1.899	1.885	1.890
0.010	0.039	0.000	0.010	0.015	0.005	0.034	2.681	1.890	1.895	1.885	1.904	1.895	1.890
0.015	0.039	-0.005	0.015	0.024	0.010	0.029	2.681	1.885	1.890	1.885	1.909	1.899	1.890
0.000	0.024	-0.010	0.020	0.020	-0.005	0.034	2.681	1.880	1.880	1.885	1.909	1.899	1.890
0.005	0.015	-0.005	0.020	0.015	0.010	0.034	2.705	1.885	1.880	1.885	1.904	1.895	1.899
-0.005	-0.005	0.000	0.024	0.010	0.010	0.034	2.686	1.880	1.875	1.880	1.904	1.899	1.895
-0.020	0.000	0.000	0.015	0.010	0.005	0.034	2.637	1.870	1.875	1.880	1.899	1.895	1.895
-0.024	0.024	0.000	0.015	0.010	0.020	0.034	2.686	1.875	1.885	1.880	1.899	1.895	1.899
-0.015	0.024	0.005	0.015	0.005	0.024	0.029	2.788	1.890	1.885	1.880	1.899	1.895	1.899
-0.005	0.054	0.010	0.010	-0.005	0.015	0.034	2.656	1.890	1.895	1.885	1.899	1.890	1.895
-0.005	0.063	0.005	0.000	-0.010	0.000	0.029	2.700	1.895	1.895	1.885	1.899	1.890	1.890
0.015	0.098	0.000	-0.015	-0.010	-0.005	0.034	2.720	1.899	1.909	1.890	1.895	1.890	1.885
0.015	-0.020	0.000	-0.020	-0.005	-0.010	0.034	2.744	1.899	1.870	1.880	1.895	1.895	1.885
0.029	-0.186	0.005	-0.005	-0.005	-0.015	0.034	2.710	1.895	1.831	1.865	1.895	1.890	1.885
0.034	-0.171	0.005	0.000	-0.005	-0.024	0.034	2.749	1.899	1.860	1.865	1.895	1.890	1.885
0.015	-0.054	0.000	-0.005	-0.010	-0.024	0.029	2.671	1.895	1.899	1.870	1.890	1.890	1.885
0.005	0.000	-0.005	-0.005	-0.010	-0.020	0.029	2.739	1.895	1.909	1.880	1.895	1.890	1.890
0.000	0.010	-0.005	0.000	-0.015	-0.015	0.034	2.695	1.890	1.904	1.890	1.899	1.890	1.890
0.005	0.005	-0.005	0.005	-0.010	-0.015	0.034	2.651	1.885	1.899	1.890	1.899	1.890	1.890
0.005	0.015	-0.005	0.015	-0.005	-0.005	0.029	2.690	1.885	1.895	1.895	1.909	1.899	1.895
-0.005	0.073	0.000	0.020	-0.005	0.015	0.034	2.744	1.895	1.909	1.899	1.909	1.899	1.899
-0.010	0.015	0.000	0.010	-0.010	-0.015	0.034	2.705	1.885	1.885	1.890	1.909	1.899	1.890
-0.010	-0.005	0.005	0.010	-0.010	0.010	0.034	2.646	1.875	1.875	1.890	1.909	1.899	1.899
-0.015	-0.005	0.005	0.020	-0.005	0.024	0.034	2.676	1.875	1.875	1.885	1.909	1.904	1.904
-0.015	0.020	0.010	0.010	-0.005	0.000	0.034	2.671	1.880	1.885	1.885	1.904	1.899	1.895
-0.015	0.029	0.005	0.000	-0.015	0.015	0.034	2.705	1.885	1.885	1.885	1.899	1.899	1.904
-0.010	-0.039	0.010	-0.005	-0.015	0.020	0.034	2.705	1.885	1.870	1.880	1.899	1.899	1.899
-0.020	-0.073	0.005	0.000	-0.020	0.000	0.034	2.686	1.880	1.865	1.875	1.895	1.895	1.895
-0.010	-0.049	0.010	-0.005	-0.010	0.020	0.034	2.686	1.885	1.875	1.875	1.895	1.895	1.899
-0.010	-0.010	0.005	0.000	-0.020	0.010	0.034	2.705	1.890	1.885	1.875	1.895	1.890	1.895
0.000	-0.044	0.000	0.005	-0.034	-0.005	0.034	2.666	1.890	1.875	1.875	1.895	1.890	1.890
0.015	-0.049	-0.005	0.000	-0.034	-0.010	0.034	2.661	1.890	1.880	1.875	1.895	1.890	1.885
0.015	-0.068	0.000	0.000	-0.029	-0.010	0.034	2.695	1.890	1.875	1.875	1.895	1.890	1.890
0.005	0.024	0.000	0.000	-0.024	0.005	0.034	2.671	1.885	1.904	1.885	1.895	1.890	1.895
0.005	-0.005	0.005	0.000	-0.024	-0.020	0.034	2.676	1.885	1.890	1.885	1.895	1.890	1.885
0.010	0.078	0.000	0.005	-0.034	0.005	0.034	2.671	1.885	1.914	1.895	1.899	1.890	1.890
0.020	0.215	0.000	0.005	-0.024	-0.010	0.034	2.671	1.895	1.948	1.909	1.909	1.899	1.890
0.010	0.303	-0.005	-0.005	-0.020	0.010	0.029	2.700	1.895	1.953	1.919	1.914	1.904	1.895
0.024	0.166	-0.015	-0.005	-0.020	0.005	0.034	2.705	1.890	1.895	1.904	1.914	1.904	1.895
0.020	-0.039	-0.020	0.005	-0.024	-0.005	0.034	2.676	1.875	1.831	1.880	1.914	1.904	1.895
0.029	-0.073	-0.020	0.005	-0.024	-0.020	0.034	2.681	1.880	1.841	1.870	1.909	1.904	1.895
0.024	-0.005	0.005	0.005	-0.029	-0.015	0.034	2.695	1.885	1.870	1.875	1.904	1.904	1.899
0.010	0.020	0.010	0.000	-0.020	-0.024	0.034	2.681	1.880	1.880	1.875	1.899	1.899	1.895
-0.010	0.029	0.005	0.000	-0.015	-0.005	0.029	2.676	1.875	1.880	1.880	1.899	1.904	1.904
-0.024	0.000	0.010	-0.010	-0.010	0.010	0.029	2.690	1.875	1.870	1.875	1.895	1.904	1.909
-0.024	-0.005	0.015	-0.005	-0.015	0.024	0.034	2.681	1.885	1.875	1.875	1.895	1.895	1.909
0.000	-0.010	0.010	0.000	-0.024	0.010	0.034	2.632	1.880	1.875	1.875	1.895	1.895	1.904
-0.010	-0.029	0.005	0.000	-0.010	0.029	0.034	2.686	1.880	1.870	1.870	1.895	1.899	1.904
-0.020	-0.034	0.010	0.010	-0.010	0.024	0.029	2.642	1.875	1.870	1.870	1.895	1.895	1.899
-0.010	-0.059	0.010	0.010	-0.024	0.010	0.034	2.651	1.880	1.870	1.870	1.895	1.890	1.890
0.000	-0.068	0.000	0.005	-0.010	-0.020	0.034	2.705	1.885	1.870	1.865	1.885	1.890	1.885
0.000	-0.059	0.000	0.005	0.010	-0.029	0.034	2.632	1.875	1.870	1.870	1.890	1.890	1.880
-0.005	-0.039	-0.005	0.005	0.020	-0.039	0.034	2.725	1.875	1.875	1.865	1.885	1.890	1.880
-0.015	-0.020	-0.005	0.000	0.000	-0.049	0.034	2.622	1.875	1.880	1.870	1.885	1.880	1.875
0.000	-0.024	-0.010	0.000	-0.010	-0.073	0.034	2.642	1.870	1.875	1.870	1.885	1.880	1.870
0.010	-0.010	0.000	0.000	-0.020	-0.073	0.034	2.676	1.875	1.880	1.875	1.885	1.880	1.875
0.015	0.039	0.005	0.000	-0.024	-0.059	0.034	2.749	1.890	1.899	1.880	1.890	1.880	1.875
0.010	0.000	0.000	-0.005	-0.034	-0.049	0.029	2.690	1.885	1.875	1.880	1.890	1.880	1.885
0.005	0.000	0.005	-0.005	-0.044	-0.005	0.034	2.656	1.880	1.880	1.875	1.890	1.880	1.890
0.010	-0.059	0.005	0.000	-0.005	0.024	0.029	2.686	1.880	1.865	1.875	1.895	1.895	1.899
0.015	-0.029	0.010	0.000	0.000	0.024	0.029	2.642	1.880	1.880	1.875	1.895	1.895	1.899
0.000	-0.039	0.005	0.005	0.029	0.049	0.034	2.715	1.885	1.875	1.875	1.899	1.904	1.909
0.010	-0.029	0.010	0.005	0.034	0.039	0.034	2.642	1.890	1.885	1.880	1.895	1.899	1.904
0.000	0.024	0.005	0.000	0.020	0.039	0.034	2.661	1.890	1.904	1.880	1.895	1.895	1.899
0.000	0.161	0.005	0.000	0.000	0.029	0.034	2.690	1.890	1.929	1.899	1.899	1.890	1.895
0.010	0.054	0.000	-0.005	-0.005	0.015	0.034	2.671	1.890	1.890	1.890	1.904	1.890	1.890
0.000	-0.020	0.000	0.000	-0.010	0.020	0.034	2.681	1.880	1.870	1.880	1.904	1.890	1.885
-0.010	-0.020	-0.005	0.010	0.015	0.005	0.034	2.690	1.875	1.870	1.880	1.904	1.899	1.890
-0.005	0.020	-0.005	0.010	0.000	0.010	0.034	2.671	1.880	1.880	1.880	1.904	1.895	1.895
0.000	0.020	-0.005	0.015	0.029	-0.005	0.034	2.715	1.890	1.885	1.880	1.904	1.904	1.890
0.000	-0.020	-0.005	0.020	0.049	0.024	0.034	2.661	1.880	1.870	1.875	1.899	1.904	1.904
-0.005	0.059	-0.005	0.020	0.039	0.039	0.034	2.700	1.885	1.895	1.880	1.899	1.904	1.909
0.005	-0.010	-0.005	0.015	0.020	0.044	0.034	2.676	1.890	1.870	1.875	1.899	1.895	1.904
0.005	-0.088	0.000	0.005	0.020	0.010	0.029	2.700	1.885	1.860	1.870	1.890	1.890	1.885
0.005	-0.029	0.000	0.000	-0.010	-0.010	0.034	2.681	1.885	1.885	1.875	1.890	1.880	1.885
-0.005	0.122	0.000	-0.005	0.005	-0.005	0.034	2.710	1.895	1.919	1.890	1.895	1.890	1.885
0.000	0.044	0.010	-0.005	-0.010	-0.049	0.034	2.676	1.885	1.890	1.890	1.899	1.885	1.875
0.000	-0.049	0.005	-0.005	-0.020	-0.044	0.034	2.681	1.880	1.860	1.880	1.895	1.880	1.875
0.005	-0.034	0.000	-0.015	-0.029	-0.039	0.034	2.700	1.885	1.875	1.875	1.895	1.885	1.880
0.020	0.010	0.010	0.000	-0.034	-0.039	0.034	2.666	1.890	1.890	1.880	1.899	1.885	1.880
0.020	0.000	0.005	0.005	-0.039	-0.010	0.029	2.671	1.885	1.885	1.880	1.899	1.890	1.890
0.015	-0.010	0.005	0.015	-0.034	0.010	0.034	2.686	1.885	1.880	1.880	1.904	1.895	1.899
0.000	-0.024	0.000	0.034	-0.054	0.020	0.034	2.700	1.880	1.880	1.880	1.904	1.890	1.895
0.000	-0.005	0.005	0.024	-0.044	0.024	0.029	2.671	1.880	1.880	1.880	1.899	1.895	1.895
0.000	-0.005	0.000	-0.010	-0.010	0.044	0.034	2.676	1.880	1.880	1.875	1.890	1.904	1.904
0.000	-0.005	0.000	-0.020	0.020	0.044	0.034	2.690	1.880	1.880	1.875	1.890	1.904	1.904
0.005	0.000	-0.010	-0.024	0.024	0.029	0.029	2.651	1.880	1.880	1.875	1.890	1.899	1.899
-0.005	0.005	-0.005	-0.020	0.015	0.010	0.034	2.690	1.875	1.880	1.875	1.890	1.890	1.890
-0.010	0.005	-0.005	-0.005	0.005	0.015	0.029	2.798	1.895	1.880	1.875	1.899	1.890	1.890
-0.015	-0.010	-0.005	0.010	0.015	0.005	0.034	2.642	1.885	1.875	1.875	1.899	1.895	1.890
0.000	-0.044	0.000	0.020	0.029	0.005	0.034	2.695	1.880	1.870	1.875	1.904	1.899	1.890
0.010	-0.039	0.000	0.015	0.029	0.005	0.034	2.729	1.890	1.875	1.875	1.895	1.899	1.895
0.000	-0.029	-0.005	0.015	0.024	0.000	0.034	2.656	1.885	1.880	1.875	1.895	1.895	1.895
0.000	-0.005	0.000	0.010	0.024	0.005	0.034	2.749	1.895	1.890	1.880	1.899	1.895	1.895
0.015	0.000	0.005	0.005	0.015	0.005	0.034	2.749	1.904	1.895	1.890	1.899	1.890	1.895
0.029	0.049	0.010	-0.010	0.005	0.005	0.034	2.681	1.899	1.909	1.890	1.895	1.890	1.895
0.005	0.171	0.015	-0.024	0.010	0.020	0.034	2.739	1.904	1.943	1.909	1.904	1.890	1.890
0.015	0.093	0.010	-0.010	-0.005	0.024	0.034	2.666	1.890	1.904	1.909	1.914	1.895	1.895
-0.034	-0.010	0.000	-0.010	0.015	0.020	0.034	2.739	1.880	1.870	1.890	1.909	1.899	1.895
-0.044	-0.020	-0.005	-0.015	0.015	0.010	0.034	2.695	1.870	1.865	1.880	1.904	1.899	1.895
-0.039	-0.015	0.000	0.005	0.010	0.015	0.034	2.729	1.890	1.870	1.880	1.909	1.904	1.899
-0.029	-0.005	-0.010	0.024	0.015	0.010	0.034	2.690	1.890	1.880	1.875	1.909	1.904	1.895
-0.005	-0.015	-0.010	0.049	0.015	0.015	0.034	2.646	1.890	1.880	1.875	1.914	1.909	1.899
0.029	-0.020	-0.005	0.103	0.029	0.015	0.034	2.681	1.899	1.880	1.885	1.924	1.914	1.904
0.034	-0.015	-0.005	0.039	0.020	0.015	0.029	2.705	1.899	1.885	1.880	1.899	1.904	1.904
0.039	-0.020	-0.005	-0.020	0.020	0.005	0.034	2.705	1.899	1.890	1.880	1.880	1.895	1.895
0.034	-0.020	-0.005	-0.059	0.015	0.010	0.034	2.671	1.885	1.890	1.880	1.875	1.885	1.899
0.024	-0.010	0.015	-0.083	0.005	-0.005	0.034	2.700	1.890	1.890	1.885	1.875	1.880	1.890
0.000	0.010	0.029	-0.068	-0.015	0.005	0.034	2.676	1.880	1.895	1.890	1.890	1.880	1.890
-0.020	0.020	0.010	-0.024	-0.005	0.015	0.034	2.705	1.875	1.890	1.890	1.909	1.885	1.890
-0.010	0.024	0.015	0.015	0.000	0.010	0.029	2.681	1.885	1.890	1.890	1.919	1.895	1.890
0.015	0.024	0.010	0.034	0.005	0.005	0.034	2.695	1.890	1.890	1.890	1.919	1.904	1.890
0.005	0.005	0.005	0.034	0.015	0.015	0.034	2.700	1.890	1.885	1.890	1.919	1.909	1.904
