0.000	0.005	0.000	0.005	-0.010	0.000	0.034	2.676	2.319	2.031	1.968	1.904	1.899	1.904
0.005	0.000	-0.005	0.000	0.000	-0.005	0.034	2.681	2.207	2.085	1.997	1.934	1.909	1.899
0.005	-0.005	0.010	0.005	0.005	-0.005	0.034	2.676	2.129	2.100	2.026	1.968	1.924	1.904
0.000	-0.005	0.005	0.000	0.010	-0.005	0.029	2.690	2.070	2.090	2.041	1.992	1.943	1.914
0.005	-0.005	0.005	0.005	-0.005	0.010	0.034	2.656	2.026	2.075	2.051	2.012	1.958	1.934
0.000	-0.005	0.000	0.000	-0.005	0.005	0.029	2.681	1.992	2.056	2.051	2.026	1.973	1.938
0.005	0.005	-0.005	0.005	-0.005	0.015	0.029	2.671	1.978	2.036	2.046	2.036	1.992	1.953
0.000	-0.020	0.005	0.005	0.010	-0.005	0.034	2.676	1.958	2.007	2.036	2.041	2.007	1.963
0.000	-0.024	0.000	0.000	-0.010	-0.005	0.029	2.686	1.948	1.992	2.026	2.041	2.012	1.973
0.010	-0.015	0.000	0.000	-0.015	0.010	0.034	2.690	1.948	1.982	2.012	2.036	2.017	1.992
-0.005	-0.010	0.000	0.005	-0.010	0.010	0.034	2.671	1.943	1.973	2.002	2.031	2.021	2.002
-0.005	0.005	0.000	0.000	-0.010	0.010	0.034	2.676	1.943	1.968	1.992	2.026	2.026	2.007
0.000	0.010	0.005	0.005	-0.010	0.005	0.034	2.690	1.948	1.963	1.982	2.021	2.021	2.012
0.005	0.015	0.005	0.005	-0.020	0.010	0.034	2.676	1.943	1.958	1.978	2.017	2.017	2.012
-0.005	0.000	0.005	0.000	-0.005	-0.010	0.034	2.690	1.948	1.953	1.968	2.007	2.017	2.012
0.000	0.000	0.005	0.000	-0.005	-0.020	0.034	2.681	1.948	1.948	1.963	2.002	2.012	2.007
0.000	0.005	0.005	0.000	-0.005	0.000	0.029	2.681	1.948	1.953	1.963	1.992	2.007	2.012
-0.005	0.010	0.000	0.000	-0.010	-0.005	0.029	2.686	1.943	1.948	1.958	1.987	1.997	2.012
-0.005	0.005	0.005	-0.005	0.000	0.005	0.029	2.676	1.943	1.948	1.953	1.982	1.997	2.007
-0.005	-0.005	0.000	0.000	0.049	-0.010	0.034	2.676	1.948	1.943	1.948	1.982	2.002	2.007
0.000	-0.005	-0.005	0.000	0.059	0.000	0.034	2.681	1.948	1.943	1.948	1.978	1.997	2.007
0.000	0.005	-0.005	0.000	0.029	-0.015	0.034	2.681	1.953	1.948	1.948	1.973	1.978	1.997
0.005	0.005	-0.005	0.000	0.020	0.015	0.034	2.676	1.953	1.948	1.943	1.968	1.978	1.997
0.000	-0.005	-0.005	0.000	0.015	0.015	0.034	2.666	1.948	1.943	1.943	1.968	1.973	1.987
0.005	0.005	-0.005	0.000	-0.010	0.005	0.034	2.681	1.948	1.948	1.948	1.968	1.958	1.978
0.000	0.010	-0.005	0.000	-0.024	-0.010	0.034	2.671	1.943	1.948	1.943	1.968	1.958	1.968
0.000	0.000	0.000	0.000	-0.020	-0.005	0.034	2.676	1.938	1.943	1.943	1.963	1.958	1.963
0.005	0.000	0.005	0.000	-0.005	0.010	0.029	2.686	1.943	1.943	1.943	1.963	1.963	1.968
0.005	0.005	0.000	0.000	-0.005	0.000	0.034	2.676	1.943	1.943	1.943	1.963	1.963	1.963
-0.005	0.010	0.000	0.005	-0.044	0.005	0.034	2.671	1.934	1.938	1.943	1.963	1.948	1.963
0.000	0.010	0.005	0.000	-0.039	-0.005	0.034	2.690	1.938	1.938	1.938	1.963	1.953	1.958
-0.005	0.020	0.005	0.000	-0.020	0.005	0.034	2.700	1.938	1.943	1.938	1.963	1.958	1.958
0.000	0.029	0.000	0.005	-0.010	0.005	0.034	2.671	1.943	1.943	1.943	1.963	1.963	1.963
0.005	0.020	0.000	0.000	-0.029	0.015	0.029	2.681	1.938	1.938	1.943	1.958	1.953	1.963
0.000	0.010	0.000	0.000	-0.039	-0.005	0.034	2.690	1.938	1.934	1.938	1.958	1.953	1.953
-0.010	0.005	0.005	-0.005	0.029	-0.020	0.029	2.681	1.934	1.934	1.938	1.958	1.973	1.958
0.005	-0.005	0.000	0.000	0.112	0.000	0.034	2.676	1.934	1.934	1.934	1.963	1.987	1.968
0.000	-0.020	0.000	0.000	0.039	-0.020	0.029	2.681	1.934	1.929	1.934	1.953	1.958	1.958
0.005	-0.015	0.000	0.000	0.010	0.010	0.034	2.676	1.934	1.934	1.929	1.953	1.948	1.968
0.000	-0.005	-0.005	0.000	0.010	0.010	0.034	2.681	1.934	1.934	1.929	1.953	1.948	1.958
0.000	-0.010	-0.010	0.000	0.029	0.000	0.034	2.681	1.934	1.929	1.929	1.948	1.953	1.953
0.000	-0.020	-0.005	0.000	0.024	0.010	0.034	2.686	1.934	1.934	1.929	1.948	1.948	1.953
0.005	-0.010	-0.005	0.005	0.010	0.010	0.034	2.676	1.929	1.934	1.929	1.948	1.943	1.953
0.000	-0.010	0.000	0.000	-0.005	-0.005	0.034	2.686	1.934	1.934	1.929	1.948	1.938	1.943
0.000	0.010	0.000	0.000	-0.010	0.000	0.034	2.690	1.934	1.934	1.934	1.948	1.938	1.943
0.015	0.010	0.005	0.000	-0.010	-0.005	0.034	2.690	1.934	1.934	1.934	1.948	1.943	1.938
0.000	0.015	0.005	0.005	-0.010	0.005	0.034	2.686	1.929	1.934	1.934	1.948	1.943	1.943
-0.005	0.010	0.000	0.000	-0.005	0.005	0.034	2.681	1.924	1.934	1.934	1.948	1.943	1.948
0.000	0.010	0.005	0.000	-0.010	0.000	0.034	2.686	1.929	1.929	1.934	1.948	1.943	1.943
0.000	0.005	0.005	0.000	-0.005	0.005	0.034	2.686	1.929	1.934	1.929	1.948	1.943	1.943
-0.005	0.005	0.005	0.000	-0.005	0.000	0.029	2.681	1.924	1.929	1.929	1.948	1.948	1.943
0.000	-0.010	0.000	0.005	0.000	0.005	0.034	2.676	1.924	1.924	1.929	1.948	1.948	1.948
-0.010	-0.005	0.005	0.000	-0.005	0.005	0.034	2.661	1.924	1.924	1.924	1.948	1.943	1.943
0.000	-0.005	-0.005	0.000	-0.005	-0.005	0.034	2.651	1.924	1.919	1.924	1.943	1.943	1.943
0.005	-0.010	0.000	0.000	0.000	-0.015	0.029	2.759	1.929	1.919	1.924	1.943	1.943	1.938
0.005	-0.005	0.000	0.000	0.000	-0.020	0.034	2.632	1.919	1.924	1.919	1.943	1.938	1.938
-0.005	-0.005	0.000	0.005	0.000	0.010	0.029	2.656	1.914	1.919	1.919	1.943	1.943	1.948
0.005	0.000	0.000	0.000	0.000	0.010	0.034	2.661	1.914	1.919	1.919	1.938	1.938	1.943
0.005	0.000	-0.005	0.000	-0.005	0.005	0.034	2.651	1.914	1.914	1.919	1.938	1.938	1.938
0.010	-0.005	0.000	0.000	-0.005	0.010	0.034	2.632	1.909	1.919	1.914	1.934	1.938	1.938
0.005	0.005	-0.005	0.000	-0.005	0.005	0.034	2.637	1.909	1.919	1.919	1.938	1.934	1.934
0.010	0.020	0.005	0.005	0.000	0.000	0.034	2.666	1.909	1.914	1.919	1.934	1.934	1.934
-0.005	0.010	0.000	-0.005	0.000	-0.005	0.034	2.661	1.904	1.909	1.914	1.934	1.934	1.934
-0.005	0.010	0.005	0.000	0.000	0.000	0.034	2.651	1.909	1.909	1.914	1.934	1.934	1.934
-0.005	0.005	0.005	0.000	0.000	0.005	0.034	2.808	1.924	1.909	1.914	1.934	1.934	1.934
-0.010	0.005	0.005	0.000	0.000	-0.010	0.034	2.671	1.919	1.914	1.914	1.934	1.934	1.929
-0.005	0.005	0.000	-0.005	0.000	0.000	0.029	2.690	1.924	1.919	1.914	1.934	1.929	1.934
-0.005	-0.005	0.000	0.005	0.000	0.015	0.034	2.676	1.924	1.914	1.914	1.934	1.929	1.934
0.000	0.010	-0.005	0.000	0.005	-0.005	0.029	2.676	1.924	1.919	1.914	1.934	1.929	1.929
0.000	-0.010	0.005	0.000	0.005	0.005	0.034	2.681	1.914	1.909	1.914	1.934	1.929	1.934
0.000	-0.015	-0.005	0.005	0.005	0.005	0.029	2.661	1.914	1.914	1.909	1.934	1.929	1.929
0.000	-0.020	-0.005	0.005	0.000	0.000	0.034	2.661	1.914	1.909	1.909	1.934	1.929	1.929
0.005	-0.010	0.000	0.000	0.000	0.000	0.034	2.656	1.914	1.914	1.914	1.929	1.924	1.924
0.005	-0.010	0.000	0.000	0.005	-0.020	0.034	2.651	1.909	1.909	1.909	1.929	1.924	1.924
0.010	-0.005	0.000	0.000	0.000	0.005	0.034	2.637	1.904	1.914	1.909	1.929	1.924	1.929
0.000	-0.005	0.000	0.000	0.005	0.010	0.034	2.676	1.909	1.909	1.904	1.929	1.924	1.929
0.005	0.010	-0.005	0.000	0.005	-0.024	0.034	2.642	1.904	1.909	1.909	1.929	1.924	1.919
0.000	0.005	-0.005	0.000	0.005	0.005	0.029	2.808	1.919	1.909	1.909	1.929	1.924	1.929
0.000	0.020	0.000	-0.005	0.000	0.005	0.034	2.656	1.909	1.914	1.914	1.929	1.924	1.929
0.000	0.024	0.000	0.000	0.000	0.010	0.034	2.686	1.914	1.914	1.909	1.929	1.924	1.924
-0.005	0.020	0.000	0.005	0.010	0.010	0.034	2.686	1.914	1.909	1.914	1.929	1.929	1.929
0.000	0.020	0.010	0.000	0.000	0.000	0.029	2.671	1.909	1.909	1.909	1.929	1.924	1.924
0.005	0.010	0.010	0.000	0.005	-0.020	0.029	2.676	1.909	1.909	1.909	1.929	1.924	1.919
0.000	0.015	0.005	0.000	-0.010	-0.005	0.034	2.661	1.909	1.909	1.909	1.929	1.919	1.924
-0.005	0.000	0.005	0.000	0.000	-0.005	0.034	2.676	1.909	1.904	1.904	1.929	1.924	1.919
0.000	0.000	0.005	0.000	0.010	0.000	0.029	2.651	1.909	1.904	1.904	1.929	1.924	1.924
0.000	0.000	0.005	-0.005	0.005	0.010	0.034	2.651	1.904	1.904	1.904	1.924	1.924	1.929
0.000	-0.005	0.000	0.005	0.005	-0.010	0.034	2.651	1.904	1.899	1.899	1.924	1.919	1.919
-0.005	-0.010	0.000	0.005	0.005	-0.015	0.034	2.622	1.895	1.899	1.899	1.924	1.919	1.919
0.010	-0.010	0.000	0.000	0.005	0.015	0.034	2.656	1.895	1.895	1.899	1.924	1.919	1.924
0.005	-0.010	-0.005	0.000	0.000	0.000	0.034	2.803	1.914	1.899	1.895	1.919	1.919	1.919
0.000	0.000	0.000	0.005	0.000	0.000	0.034	2.646	1.904	1.904	1.899	1.919	1.914	1.919
0.005	-0.005	0.005	0.000	0.000	0.015	0.034	2.817	1.924	1.904	1.899	1.919	1.919	1.924
0.010	-0.015	0.000	0.000	-0.005	0.010	0.029	2.671	1.914	1.904	1.899	1.919	1.914	1.919
0.005	-0.024	0.000	0.000	0.000	0.005	0.034	2.671	1.909	1.904	1.899	1.919	1.914	1.919
0.010	-0.010	0.000	0.000	0.000	0.005	0.034	2.686	1.909	1.909	1.899	1.919	1.914	1.914
-0.005	0.005	0.000	-0.005	0.005	-0.024	0.034	2.676	1.904	1.914	1.904	1.919	1.914	1.909
-0.005	0.010	0.000	-0.005	-0.005	-0.010	0.034	2.676	1.904	1.909	1.909	1.919	1.914	1.909
0.000	0.015	0.005	-0.005	-0.005	-0.005	0.034	2.681	1.904	1.909	1.909	1.924	1.914	1.914
-0.005	0.010	0.005	0.000	0.000	-0.015	0.034	2.661	1.899	1.904	1.909	1.924	1.919	1.914
-0.010	0.005	0.005	0.005	-0.005	0.005	0.034	2.651	1.895	1.899	1.904	1.924	1.919	1.919
0.005	0.000	0.005	0.010	-0.005	0.015	0.034	2.651	1.895	1.899	1.904	1.924	1.919	1.924
-0.005	-0.010	0.000	0.005	0.000	0.015	0.029	2.651	1.895	1.895	1.899	1.924	1.919	1.924
0.005	-0.015	0.000	0.005	0.010	0.010	0.029	2.666	1.899	1.895	1.895	1.919	1.919	1.919
0.000	0.005	0.000	0.005	0.000	0.000	0.034	2.808	1.914	1.904	1.899	1.919	1.914	1.919
0.005	0.005	0.000	0.000	0.005	-0.005	0.029	2.651	1.904	1.904	1.895	1.919	1.914	1.914
0.010	0.000	0.005	-0.005	0.005	0.005	0.034	2.808	1.919	1.904	1.899	1.914	1.914	1.919
0.005	0.000	0.000	-0.005	0.000	-0.005	0.034	2.847	1.934	1.909	1.899	1.914	1.909	1.914
-0.005	-0.005	0.000	0.000	0.000	-0.015	0.034	2.681	1.919	1.914	1.904	1.919	1.914	1.909
0.000	0.010	0.000	0.000	0.005	0.010	0.029	2.666	1.914	1.914	1.904	1.919	1.914	1.919
-0.005	0.000	-0.005	-0.005	0.005	-0.015	0.034	2.676	1.904	1.909	1.909	1.919	1.914	1.909
-0.005	0.010	0.000	-0.005	0.005	0.010	0.034	2.681	1.904	1.909	1.909	1.924	1.914	1.914
-0.005	0.010	0.000	0.000	0.000	0.015	0.034	2.676	1.904	1.904	1.909	1.924	1.914	1.914
0.005	0.010	0.005	0.000	0.005	0.010	0.029	2.671	1.904	1.909	1.909	1.924	1.919	1.919
0.005	0.015	0.000	0.005	0.000	0.010	0.029	2.651	1.899	1.904	1.909	1.924	1.919	1.914
0.000	-0.005	0.005	0.005	0.000	0.005	0.034	2.646	1.895	1.899	1.904	1.929	1.919	1.919
0.005	0.010	0.000	0.010	0.005	0.000	0.034	2.646	1.895	1.899	1.904	1.924	1.924	1.919
0.000	0.005	0.005	0.010	0.000	0.010	0.029	2.651	1.890	1.895	1.899	1.924	1.919	1.919
0.010	-0.010	0.000	0.010	-0.005	-0.005	0.034	2.788	1.909	1.895	1.895	1.924	1.919	1.914
-0.015	0.005	0.000	0.005	0.000	-0.005	0.034	2.646	1.895	1.895	1.895	1.919	1.919	1.919
-0.010	-0.015	-0.005	0.000	0.010	0.000	0.034	2.637	1.895	1.890	1.895	1.914	1.919	1.919
0.005	0.000	-0.005	-0.005	0.005	0.005	0.034	2.666	1.899	1.895	1.890	1.909	1.909	1.919
0.010	-0.015	0.000	-0.010	0.000	-0.005	0.034	2.676	1.899	1.890	1.895	1.909	1.909	1.914
0.020	-0.005	0.000	-0.015	0.000	-0.015	0.034	2.671	1.899	1.895	1.895	1.909	1.909	1.909
0.005	0.000	-0.005	-0.020	-0.005	0.010	0.029	2.671	1.895	1.895	1.895	1.909	1.904	1.914
0.005	0.005	0.000	-0.010	0.000	0.005	0.034	2.676	1.895	1.895	1.895	1.909	1.904	1.909
0.010	0.010	0.000	-0.005	0.010	0.000	0.034	2.671	1.895	1.895	1.895	1.914	1.909	1.909
-0.005	0.000	0.000	0.000	0.000	-0.020	0.029	2.661	1.890	1.890	1.895	1.914	1.909	1.904
-0.010	0.010	0.005	0.005	0.010	0.005	0.034	2.656	1.890	1.890	1.890	1.914	1.914	1.909
-0.010	0.000	0.005	0.005	0.005	0.005	0.034	2.656	1.885	1.890	1.895	1.914	1.909	1.909
-0.010	0.000	0.005	0.010	0.000	0.000	0.029	2.651	1.885	1.890	1.890	1.914	1.909	1.909
-0.039	0.010	0.005	0.015	0.000	0.005	0.034	2.646	1.880	1.890	1.885	1.914	1.909	1.909
-0.029	0.005	0.005	0.005	0.005	-0.005	0.034	2.759	1.899	1.890	1.890	1.909	1.909	1.904
-0.010	0.005	0.005	0.005	0.005	0.010	0.034	2.646	1.895	1.890	1.890	1.909	1.909	1.914
0.010	-0.005	0.000	0.005	0.005	0.005	0.034	2.808	1.914	1.895	1.890	1.909	1.904	1.909
0.029	-0.005	0.000	0.005	0.005	0.000	0.034	2.837	1.934	1.904	1.890	1.909	1.904	1.909
-0.005	0.005	-0.005	0.005	0.000	-0.005	0.034	2.681	1.914	1.909	1.890	1.909	1.904	1.904
0.005	0.000	0.000	0.015	0.005	-0.010	0.034	2.651	1.909	1.904	1.895	1.914	1.904	1.899
0.015	-0.005	0.000	0.010	0.000	0.000	0.029	2.676	1.904	1.904	1.899	1.914	1.904	1.904
0.024	-0.010	0.000	0.005	0.000	0.000	0.034	2.676	1.904	1.899	1.899	1.914	1.904	1.904
0.024	-0.005	0.000	0.010	-0.010	0.010	0.029	2.686	1.904	1.904	1.899	1.914	1.904	1.904
0.034	-0.005	0.000	0.000	-0.005	0.005	0.029	2.651	1.899	1.904	1.899	1.909	1.909	1.904
0.034	-0.005	0.005	-0.005	-0.005	0.005	0.034	2.676	1.895	1.899	1.899	1.914	1.904	1.904
0.020	0.005	0.000	-0.005	0.005	0.005	0.034	2.651	1.885	1.899	1.899	1.909	1.909	1.904
0.000	0.000	0.000	-0.010	0.005	0.005	0.034	2.656	1.885	1.890	1.895	1.914	1.909	1.904
-0.010	0.010	0.005	-0.010	-0.005	-0.005	0.034	2.646	1.880	1.890	1.895	1.909	1.909	1.904
-0.015	0.015	-0.005	-0.015	-0.005	0.005	0.034	2.729	1.885	1.890	1.890	1.909	1.904	1.909
-0.024	0.020	0.000	-0.005	0.000	0.010	0.029	2.656	1.885	1.890	1.890	1.914	1.909	1.909
-0.020	0.005	0.005	0.000	-0.005	-0.010	0.034	2.646	1.890	1.885	1.890	1.914	1.904	1.899
-0.015	-0.005	0.000	0.010	0.000	-0.005	0.029	2.798	1.904	1.890	1.890	1.914	1.909	1.909
-0.015	0.010	0.000	0.005	0.000	0.000	0.034	2.666	1.904	1.895	1.890	1.914	1.909	1.904
-0.005	0.010	0.000	0.005	0.000	0.000	0.034	2.656	1.899	1.899	1.890	1.909	1.909	1.909
-0.010	0.000	0.005	0.005	0.000	-0.015	0.034	2.646	1.895	1.895	1.890	1.909	1.904	1.904
-0.005	-0.010	0.000	-0.005	0.000	0.010	0.029	2.666	1.890	1.885	1.890	1.909	1.904	1.909
0.000	-0.015	0.005	0.000	-0.005	0.010	0.029	2.808	1.909	1.890	1.890	1.909	1.904	1.909
0.010	0.000	0.005	-0.005	-0.005	-0.005	0.029	2.661	1.904	1.899	1.895	1.909	1.904	1.904
-0.005	-0.005	0.000	-0.005	-0.005	0.000	0.029	2.822	1.914	1.899	1.890	1.909	1.904	1.904
0.005	0.000	0.000	-0.005	-0.015	-0.005	0.034	2.671	1.909	1.904	1.890	1.909	1.899	1.899
0.005	-0.005	-0.005	0.000	-0.005	0.010	0.034	2.637	1.895	1.899	1.895	1.909	1.904	1.904
0.000	0.000	-0.005	0.005	0.010	0.005	0.034	2.651	1.890	1.899	1.895	1.914	1.909	1.904
0.010	0.005	-0.005	0.005	0.000	0.010	0.034	2.651	1.890	1.899	1.895	1.909	1.909	1.909
0.010	0.005	-0.005	0.005	0.005	0.000	0.034	2.700	1.890	1.895	1.895	1.914	1.904	1.904
0.000	0.015	0.010	0.000	0.000	0.000	0.029	2.827	1.904	1.899	1.899	1.914	1.909	1.909
0.010	-0.010	0.010	0.005	0.015	0.010	0.034	2.642	1.899	1.890	1.895	1.914	1.914	1.909
0.000	0.015	0.010	0.005	0.010	0.005	0.034	2.847	1.919	1.904	1.899	1.919	1.909	1.909
0.000	0.010	0.005	0.010	0.000	0.000	0.029	2.671	1.904	1.904	1.899	1.914	1.909	1.909
0.005	0.000	0.005	0.000	0.010	-0.020	0.029	2.661	1.899	1.899	1.899	1.914	1.909	1.904
0.000	0.000	0.005	0.005	0.015	-0.015	0.034	2.651	1.895	1.899	1.899	1.914	1.914	1.904
0.000	0.000	0.000	0.000	0.005	0.000	0.034	2.661	1.895	1.895	1.895	1.914	1.909	1.909
0.000	-0.005	-0.005	0.005	0.000	0.020	0.029	2.646	1.890	1.890	1.895	1.914	1.909	1.914
0.000	-0.005	0.000	0.010	0.000	0.005	0.029	2.646	1.890	1.890	1.895	1.919	1.909	1.909
0.000	0.000	0.000	0.015	0.000	0.010	0.034	2.812	1.904	1.895	1.890	1.914	1.909	1.909
-0.005	-0.015	0.000	0.005	-0.005	0.005	0.034	2.676	1.899	1.890	1.890	1.909	1.904	1.909
0.005	-0.005	-0.005	0.000	0.010	-0.005	0.034	2.676	1.899	1.895	1.890	1.909	1.909	1.904
0.005	0.000	0.000	-0.005	0.005	0.010	0.034	2.681	1.895	1.895	1.890	1.909	1.909	1.909
0.010	-0.005	0.000	-0.010	-0.005	-0.005	0.029	2.676	1.895	1.895	1.890	1.904	1.899	1.904
0.005	-0.005	0.000	-0.010	-0.005	-0.015	0.029	2.681	1.895	1.890	1.890	1.904	1.899	1.899
0.005	0.005	0.005	-0.015	0.000	-0.010	0.034	2.681	1.890	1.895	1.890	1.909	1.904	1.904
0.005	0.015	0.005	-0.005	-0.010	0.005	0.034	2.637	1.890	1.895	1.895	1.909	1.904	1.904
0.015	0.020	0.005	0.000	-0.005	0.015	0.034	2.837	1.909	1.899	1.895	1.909	1.904	1.909
0.000	0.015	0.000	0.010	0.000	0.010	0.034	2.690	1.904	1.895	1.895	1.919	1.909	1.909
-0.005	0.005	0.005	0.015	0.010	-0.015	0.029	2.651	1.895	1.895	1.895	1.914	1.909	1.904
0.000	0.000	0.000	0.015	0.010	0.005	0.034	2.646	1.890	1.890	1.895	1.919	1.909	1.909
0.005	0.000	0.000	0.005	0.000	0.005	0.029	2.666	1.895	1.890	1.890	1.914	1.909	1.904
0.005	-0.005	0.000	0.005	0.000	0.005	0.034	2.808	1.909	1.899	1.895	1.909	1.909	1.909
0.005	0.005	0.000	-0.005	0.005	0.000	0.034	2.646	1.899	1.899	1.890	1.909	1.909	1.904
-0.005	0.000	0.000	0.000	0.000	0.000	0.029	2.803	1.904	1.895	1.895	1.909	1.909	1.909
-0.005	-0.010	0.005	-0.010	0.000	-0.015	0.034	2.852	1.924	1.899	1.895	1.909	1.904	1.904
-0.005	-0.015	0.000	-0.005	0.000	0.010	0.034	2.676	1.909	1.904	1.895	1.909	1.909	1.909
-0.005	0.000	-0.005	0.000	-0.005	0.010	0.034	2.661	1.899	1.904	1.895	1.909	1.904	1.909
-0.015	-0.005	0.000	0.000	0.000	0.005	0.034	2.671	1.895	1.899	1.899	1.914	1.904	1.904
-0.010	0.000	-0.005	0.000	-0.005	0.005	0.034	2.637	1.890	1.899	1.895	1.914	1.904	1.904
-0.010	0.000	-0.005	0.010	0.000	-0.005	0.034	2.808	1.904	1.899	1.899	1.914	1.909	1.904
-0.005	0.000	0.000	0.005	-0.005	0.000	0.034	2.627	1.895	1.895	1.895	1.914	1.904	1.909
-0.010	0.005	0.000	0.000	-0.005	0.000	0.034	2.646	1.890	1.899	1.895	1.914	1.909	1.904
0.000	0.005	0.000	0.000	-0.010	0.000	0.029	2.666	1.899	1.899	1.899	1.909	1.904	1.904
-0.005	0.015	0.000	-0.005	-0.005	-0.015	0.034	2.739	1.909	1.899	1.895	1.914	1.909	1.899
-0.005	0.015	0.005	0.000	0.000	0.005	0.034	2.715	1.890	1.899	1.899	1.914	1.909	1.909
0.000	0.005	0.000	0.005	-0.005	0.010	0.029	2.695	1.895	1.895	1.895	1.914	1.909	1.914
-0.005	0.000	0.005	0.000	-0.005	0.005	0.029	2.690	1.899	1.895	1.899	1.914	1.909	1.909
-0.005	0.010	0.005	-0.005	-0.010	0.015	0.034	2.695	1.899	1.895	1.895	1.914	1.909	1.914
0.005	-0.005	0.000	-0.010	-0.010	0.005	0.034	2.676	1.899	1.895	1.895	1.909	1.909	1.909
0.015	0.000	0.000	-0.015	-0.005	-0.005	0.034	2.695	1.899	1.895	1.895	1.909	1.909	1.904
0.010	-0.005	0.000	-0.015	-0.005	-0.005	0.034	2.661	1.895	1.895	1.895	1.909	1.909	1.909
0.015	-0.005	0.000	-0.015	-0.005	-0.005	0.034	2.686	1.895	1.890	1.890	1.914	1.909	1.904
0.015	-0.010	-0.005	-0.005	-0.005	0.010	0.034	2.671	1.895	1.890	1.890	1.909	1.909	1.909
0.015	-0.005	0.000	-0.005	-0.005	0.000	0.034	2.686	1.895	1.890	1.895	1.914	1.909	1.909
0.005	0.000	0.000	0.015	0.000	0.010	0.034	2.651	1.890	1.895	1.890	1.914	1.909	1.909
0.000	0.000	-0.005	0.010	0.000	0.005	0.029	2.676	1.890	1.890	1.890	1.914	1.909	1.909
-0.005	0.000	0.000	0.010	0.005	0.010	0.034	2.686	1.890	1.890	1.890	1.914	1.909	1.909
0.005	0.005	0.000	0.010	0.010	0.005	0.034	2.686	1.895	1.890	1.890	1.909	1.909	1.909
0.005	-0.005	0.000	0.005	0.005	0.005	0.034	2.686	1.895	1.890	1.890	1.909	1.909	1.909
0.000	0.000	0.000	0.010	0.010	-0.010	0.034	2.686	1.895	1.890	1.890	1.909	1.909	1.899
0.005	0.005	0.000	0.020	0.015	0.000	0.034	2.681	1.895	1.895	1.890	1.914	1.909	1.909
0.010	0.005	0.005	0.020	0.020	-0.010	0.034	2.690	1.895	1.895	1.895	1.914	1.909	1.904
0.015	0.000	0.000	0.020	0.015	0.005	0.034	2.651	1.895	1.895	1.890	1.914	1.909	1.909
0.000	-0.005	0.000	0.020	0.015	-0.005	0.034	2.676	1.885	1.885	1.890	1.909	1.904	1.909
0.005	-0.024	0.005	0.015	0.015	-0.024	0.034	2.681	1.890	1.885	1.885	1.909	1.904	1.899
0.010	-0.010	0.005	0.005	0.024	0.000	0.034	2.681	1.895	1.895	1.890	1.904	1.909	1.909
-0.005	0.010	0.005	0.005	0.020	-0.010	0.029	2.646	1.885	1.895	1.890	1.904	1.909	1.904
-0.010	0.000	0.000	0.000	0.020	-0.015	0.034	2.676	1.890	1.890	1.885	1.904	1.904	1.904
-0.005	0.000	-0.005	-0.015	0.015	0.000	0.034	2.681	1.890	1.885	1.885	1.899	1.899	1.904
-0.005	0.000	0.000	-0.024	0.024	-0.005	0.034	2.681	1.890	1.890	1.885	1.899	1.899	1.904
0.005	0.000	0.000	-0.029	0.029	-0.010	0.034	2.681	1.895	1.890	1.885	1.899	1.899	1.899
0.024	-0.005	0.000	-0.029	0.029	-0.024	0.034	2.690	1.899	1.890	1.885	1.899	1.899	1.895
0.020	0.005	-0.005	-0.024	0.024	0.000	0.034	2.690	1.895	1.890	1.890	1.899	1.895	1.899
0.005	-0.005	0.000	-0.010	0.029	-0.029	0.034	2.686	1.890	1.890	1.890	1.909	1.899	1.895
0.000	0.000	0.005	-0.005	0.024	-0.005	0.029	2.690	1.890	1.890	1.890	1.909	1.899	1.899
-0.015	-0.020	0.005	0.005	0.024	-0.034	0.034	2.681	1.885	1.885	1.885	1.909	1.899	1.895
-0.020	0.000	0.010	0.010	0.015	-0.010	0.034	2.686	1.885	1.890	1.890	1.909	1.904	1.904
-0.015	0.015	0.000	0.010	0.010	-0.024	0.029	2.666	1.885	1.890	1.890	1.909	1.899	1.899
-0.024	0.015	0.005	0.005	0.010	0.005	0.029	2.690	1.885	1.890	1.885	1.904	1.899	1.904
-0.020	0.005	0.005	0.005	0.010	-0.005	0.034	2.671	1.890	1.885	1.885	1.909	1.899	1.899
-0.005	0.000	0.005	0.005	0.005	0.005	0.034	2.671	1.890	1.885	1.885	1.904	1.899	1.904
0.000	0.005	0.000	0.005	0.000	0.005	0.034	2.671	1.895	1.885	1.885	1.904	1.899	1.904
0.000	-0.005	0.005	0.010	-0.005	0.000	0.029	2.690	1.895	1.885	1.885	1.904	1.899	1.899
0.000	-0.010	-0.005	0.010	0.000	-0.015	0.034	2.681	1.890	1.885	1.885	1.904	1.899	1.895
0.005	-0.005	-0.005	0.010	-0.005	0.005	0.034	2.676	1.895	1.890	1.885	1.904	1.899	1.904
0.015	0.000	0.000	0.015	-0.010	0.010	0.034	2.666	1.895	1.890	1.885	1.904	1.899	1.899
0.010	0.000	0.000	0.010	-0.024	-0.005	0.034	2.671	1.890	1.890	1.885	1.904	1.895	1.895
0.005	0.000	0.000	0.005	-0.024	0.005	0.029	2.666	1.890	1.885	1.885	1.899	1.895	1.899
0.005	-0.010	0.005	0.005	-0.024	0.005	0.034	2.661	1.890	1.885	1.885	1.899	1.895	1.895
0.005	0.005	0.000	0.000	-0.024	0.015	0.034	2.715	1.890	1.890	1.885	1.904	1.895	1.899
0.020	0.010	0.000	0.000	-0.020	0.005	0.034	2.671	1.890	1.890	1.885	1.904	1.895	1.895
0.005	0.015	0.000	0.005	-0.024	0.010	0.034	2.666	1.890	1.890	1.885	1.904	1.899	1.895
0.000	0.015	0.005	0.010	-0.024	0.000	0.034	2.686	1.890	1.885	1.890	1.909	1.899	1.895
0.005	0.010	0.000	0.010	-0.010	0.000	0.034	2.690	1.890	1.885	1.885	1.909	1.899	1.899
0.000	0.015	0.000	0.005	-0.020	0.000	0.034	2.671	1.885	1.885	1.885	1.904	1.904	1.899
-0.005	0.005	0.000	0.000	-0.020	0.005	0.034	2.686	1.885	1.885	1.880	1.904	1.899	1.899
-0.005	0.005	0.000	-0.005	-0.020	0.015	0.034	2.681	1.885	1.885	1.885	1.899	1.899	1.899
0.005	0.000	0.000	-0.015	-0.020	0.010	0.029	2.666	1.890	1.885	1.885	1.899	1.899	1.899
0.005	0.005	0.000	-0.010	-0.010	0.005	0.034	2.681	1.885	1.885	1.885	1.899	1.899	1.899
0.000	0.005	0.005	-0.005	-0.020	0.000	0.029	2.690	1.895	1.885	1.880	1.904	1.895	1.895
-0.005	-0.005	0.000	-0.005	-0.010	0.010	0.029	2.676	1.890	1.880	1.885	1.904	1.899	1.899
0.010	-0.005	0.000	0.000	-0.010	-0.010	0.029	2.686	1.890	1.885	1.880	1.904	1.899	1.895
0.005	-0.005	0.000	-0.005	-0.010	0.005	0.034	2.666	1.885	1.885	1.880	1.904	1.899	1.899
0.000	-0.005	-0.005	0.000	-0.005	-0.005	0.029	2.666	1.880	1.880	1.880	1.899	1.899	1.895
0.010	-0.005	0.000	0.000	0.015	0.005	0.034	2.695	1.890	1.880	1.880	1.899	1.904	1.904
0.000	-0.010	0.000	0.010	0.020	0.010	0.034	2.651	1.880	1.880	1.880	1.904	1.904	1.904
0.010	-0.005	0.000	0.005	0.024	0.010	0.034	2.676	1.885	1.880	1.880	1.899	1.904	1.904
0.005	0.000	0.000	0.005	0.015	0.005	0.034	2.686	1.890	1.885	1.880	1.899	1.899	1.899
0.005	0.005	0.000	0.005	0.015	0.005	0.034	2.676	1.890	1.885	1.880	1.899	1.899	1.899
0.005	0.000	0.000	0.000	0.015	0.005	0.029	2.681	1.885	1.885	1.885	1.899	1.895	1.899
0.015	0.000	0.000	0.005	0.000	0.000	0.034	2.686	1.890	1.885	1.885	1.899	1.890	1.890
0.005	0.005	0.000	0.005	0.005	0.000	0.029	2.681	1.890	1.890	1.885	1.899	1.895	1.895
0.000	0.010	0.000	0.000	0.010	-0.015	0.029	2.690	1.890	1.890	1.885	1.899	1.895	1.890
0.000	0.000	0.005	0.005	0.010	0.010	0.029	2.695	1.890	1.890	1.885	1.904	1.899	1.895
-0.005	0.010	0.000	0.005	0.010	0.015	0.034	2.666	1.885	1.890	1.885	1.904	1.899	1.895
0.005	0.005	0.005	0.005	0.005	0.010	0.034	2.676	1.890	1.890	1.885	1.904	1.895	1.899
-0.005	-0.005	0.000	0.000	0.005	0.005	0.034	2.676	1.885	1.885	1.885	1.899	1.895	1.899
-0.005	0.005	0.000	0.010	-0.010	0.005	0.034	2.681	1.890	1.885	1.885	1.904	1.890	1.895
-0.005	0.000	0.000	0.000	-0.010	-0.005	0.034	2.671	1.880	1.885	1.880	1.899	1.895	1.890
0.005	-0.010	0.000	0.000	-0.005	0.005	0.034	2.681	1.885	1.880	1.880	1.899	1.895	1.895
0.000	0.005	0.000	0.005	-0.015	0.000	0.029	2.656	1.880	1.885	1.880	1.899	1.890	1.890
0.005	-0.020	0.000	0.010	-0.015	-0.020	0.034	2.686	1.885	1.875	1.880	1.899	1.895	1.885
0.000	-0.010	0.005	0.010	0.010	0.000	0.029	2.661	1.875	1.880	1.880	1.899	1.904	1.895
-0.029	0.010	0.005	0.005	0.010	0.000	0.029	2.671	1.875	1.880	1.880	1.895	1.899	1.895
-0.020	0.005	0.000	0.000	0.015	-0.005	0.029	2.671	1.880	1.880	1.880	1.895	1.899	1.895
0.005	0.005	-0.005	-0.005	0.015	-0.005	0.034	2.676	1.885	1.880	1.880	1.895	1.895	1.899
0.024	0.010	0.000	-0.010	0.010	0.005	0.034	2.686	1.890	1.885	1.880	1.895	1.895	1.899
0.024	0.005	0.000	-0.005	0.020	-0.010	0.034	2.671	1.890	1.885	1.880	1.899	1.895	1.895
0.024	0.005	0.000	-0.005	0.015	0.000	0.034	2.661	1.890	1.885	1.885	1.895	1.895	1.899
0.024	0.005	-0.005	-0.005	0.000	0.015	0.034	2.656	1.885	1.885	1.885	1.899	1.890	1.895
0.015	0.005	0.000	0.000	0.010	0.010	0.034	2.686	1.885	1.880	1.880	1.904	1.895	1.895
0.000	-0.005	0.000	0.005	0.024	0.010	0.029	2.686	1.885	1.875	1.880	1.904	1.899	1.895
-0.015	-0.010	0.005	-0.005	0.010	0.000	0.034	2.686	1.880	1.875	1.880	1.899	1.895	1.895
-0.010	-0.010	0.000	0.005	0.005	0.000	0.034	2.686	1.880	1.875	1.880	1.899	1.895	1.895
-0.005	-0.005	0.000	0.000	0.000	0.010	0.029	2.686	1.885	1.880	1.875	1.899	1.890	1.895
-0.005	-0.015	-0.005	0.005	-0.010	-0.010	0.034	2.671	1.885	1.880	1.875	1.895	1.890	1.885
-0.005	-0.005	0.000	0.005	-0.010	-0.005	0.034	2.676	1.885	1.880	1.875	1.895	1.890	1.890
-0.010	-0.005	0.000	0.000	-0.010	-0.005	0.034	2.676	1.880	1.880	1.875	1.895	1.890	1.885
-0.005	-0.010	-0.005	0.000	-0.005	0.000	0.034	2.681	1.880	1.880	1.875	1.895	1.890	1.890
0.010	0.000	0.000	0.000	0.005	0.005	0.029	2.671	1.890	1.880	1.880	1.895	1.890	1.890
-0.005	0.000	0.000	0.000	0.000	0.005	0.034	2.690	1.890	1.880	1.880	1.899	1.890	1.890
-0.005	0.005	0.005	0.000	0.005	-0.015	0.029	2.666	1.880	1.885	1.880	1.895	1.895	1.885
0.000	0.010	-0.005	0.005	-0.005	-0.010	0.034	2.681	1.885	1.885	1.880	1.899	1.890	1.890
-0.010	0.010	0.005	0.005	-0.005	-0.005	0.029	2.686	1.885	1.885	1.880	1.899	1.895	1.890
-0.005	0.010	0.000	0.010	0.000	0.010	0.029	2.671	1.885	1.885	1.880	1.899	1.895	1.899
0.000	0.010	0.010	0.010	0.000	0.015	0.034	2.651	1.880	1.885	1.885	1.899	1.899	1.895
-0.010	-0.015	0.010	0.015	-0.005	0.005	0.034	2.686	1.880	1.875	1.880	1.904	1.895	1.895
-0.010	-0.015	0.005	0.010	-0.005	-0.005	0.034	2.676	1.880	1.875	1.875	1.899	1.895	1.890
-0.005	-0.005	0.000	0.010	0.005	-0.005	0.034	2.686	1.885	1.880	1.875	1.899	1.895	1.895
0.000	0.000	0.000	-0.005	0.005	0.005	0.029	2.686	1.890	1.880	1.875	1.895	1.895	1.895
0.005	0.005	0.000	-0.010	0.005	0.000	0.034	2.681	1.885	1.890	1.880	1.895	1.895	1.895
0.000	-0.010	0.005	0.000	0.005	0.000	0.034	2.681	1.885	1.880	1.880	1.899	1.890	1.890
0.005	-0.005	0.000	0.015	0.005	-0.005	0.034	2.681	1.890	1.880	1.880	1.899	1.895	1.890
0.000	-0.005	0.000	0.010	0.005	0.000	0.029	2.690	1.885	1.880	1.880	1.899	1.895	1.895
0.015	0.015	-0.005	0.000	-0.005	0.010	0.034	2.671	1.890	1.890	1.880	1.895	1.890	1.890
0.015	0.005	-0.005	-0.010	-0.010	0.000	0.029	2.686	1.890	1.885	1.880	1.890	1.890	1.890
0.000	0.015	0.000	-0.020	0.005	0.005	0.034	2.671	1.885	1.890	1.885	1.895	1.890	1.890
0.005	0.000	0.000	-0.015	0.010	-0.010	0.034	2.676	1.880	1.880	1.880	1.895	1.890	1.890
0.005	0.005	0.005	-0.020	0.015	0.000	0.034	2.686	1.885	1.880	1.880	1.899	1.895	1.895
0.005	0.000	0.000	-0.015	0.015	0.000	0.034	2.681	1.885	1.880	1.880	1.899	1.895	1.895
-0.005	0.010	0.005	-0.010	0.010	0.005	0.034	2.686	1.885	1.880	1.880	1.904	1.895	1.895
-0.010	0.010	0.005	0.000	0.000	0.005	0.034	2.690	1.885	1.880	1.880	1.904	1.895	1.895
-0.005	0.015	0.005	0.005	0.000	0.005	0.034	2.671	1.880	1.885	1.880	1.904	1.895	1.895
0.000	0.015	0.005	0.005	0.000	0.005	0.034	2.681	1.885	1.885	1.880	1.904	1.895	1.895
-0.010	0.010	0.010	0.010	0.010	-0.005	0.034	2.690	1.885	1.880	1.880	1.904	1.899	1.895
-0.020	0.005	0.005	0.010	0.015	0.015	0.029	2.695	1.885	1.880	1.875	1.904	1.899	1.899
-0.005	-0.005	0.000	0.000	0.020	0.000	0.029	2.676	1.885	1.875	1.875	1.899	1.899	1.895
-0.005	-0.005	0.005	0.000	0.005	-0.010	0.034	2.676	1.885	1.880	1.880	1.899	1.890	1.890
-0.005	-0.010	-0.005	0.000	0.000	0.000	0.029	2.666	1.885	1.880	1.875	1.895	1.890	1.895
-0.005	0.000	-0.005	-0.005	-0.005	-0.005	0.034	2.651	1.880	1.880	1.875	1.890	1.885	1.885
-0.005	-0.010	-0.005	-0.005	-0.010	0.020	0.034	2.676	1.880	1.880	1.875	1.890	1.890	1.895
0.005	-0.005	-0.005	0.000	-0.005	0.010	0.034	2.681	1.885	1.880	1.875	1.895	1.890	1.895
0.005	-0.010	0.000	0.010	0.005	0.000	0.034	2.686	1.880	1.880	1.880	1.899	1.895	1.890
0.010	-0.010	0.000	0.010	-0.005	-0.005	0.034	2.676	1.885	1.880	1.880	1.895	1.890	1.890
0.010	0.010	-0.005	0.015	-0.005	0.000	0.034	2.661	1.880	1.885	1.880	1.895	1.890	1.890
0.005	0.015	-0.005	0.005	0.005	-0.005	0.034	2.686	1.880	1.885	1.880	1.895	1.895	1.890
0.000	0.000	0.005	-0.005	0.000	0.010	0.029	2.686	1.880	1.880	1.880	1.895	1.895	1.890
0.000	0.000	0.005	0.000	-0.005	0.005	0.034	2.671	1.880	1.880	1.880	1.895	1.890	1.890
0.000	0.005	0.005	0.005	-0.005	0.005	0.034	2.686	1.885	1.880	1.880	1.899	1.890	1.890
-0.005	0.010	0.000	0.000	-0.010	0.000	0.034	2.671	1.880	1.885	1.880	1.899	1.890	1.885
-0.010	0.000	0.005	0.005	0.000	-0.005	0.029	2.681	1.880	1.880	1.880	1.899	1.895	1.890
-0.010	0.005	0.000	0.000	0.015	-0.020	0.034	2.671	1.880	1.880	1.880	1.899	1.895	1.890
-0.005	0.010	-0.005	0.000	0.010	0.010	0.034	2.690	1.885	1.880	1.880	1.899	1.895	1.899
0.000	0.005	0.005	-0.005	0.000	0.005	0.034	2.690	1.885	1.880	1.880	1.899	1.890	1.890
0.000	-0.010	0.000	0.000	0.000	0.005	0.034	2.710	1.890	1.875	1.875	1.895	1.890	1.895
0.005	-0.020	-0.005	-0.005	0.000	0.000	0.034	2.642	1.885	1.875	1.875	1.895	1.890	1.890
0.010	-0.015	-0.005	0.015	0.000	0.000	0.034	2.671	1.885	1.880	1.875	1.899	1.895	1.890
0.010	-0.010	0.000	0.005	0.015	0.010	0.034	2.681	1.880	1.880	1.880	1.895	1.895	1.895
0.005	-0.005	0.000	0.010	0.010	-0.005	0.034	2.676	1.880	1.880	1.875	1.895	1.895	1.890
0.005	0.000	-0.005	0.010	0.005	0.010	0.034	2.676	1.880	1.880	1.875	1.895	1.895	1.895
0.015	-0.015	0.000	0.005	0.020	0.010	0.034	2.671	1.885	1.880	1.880	1.895	1.895	1.895
0.024	-0.015	0.005	0.000	0.015	0.005	0.029	2.681	1.885	1.880	1.880	1.895	1.890	1.890
0.015	0.000	0.010	0.005	-0.005	0.005	0.034	2.681	1.885	1.885	1.880	1.895	1.885	1.890
0.005	0.010	0.005	0.000	-0.005	-0.020	0.034	2.676	1.880	1.885	1.880	1.895	1.890	1.885
0.010	0.005	0.000	0.000	-0.005	-0.005	0.034	2.676	1.880	1.880	1.880	1.895	1.890	1.890
-0.005	0.000	0.000	0.000	0.005	0.005	0.029	2.686	1.880	1.880	1.880	1.899	1.895	1.890
0.000	-0.005	-0.005	0.005	0.010	0.005	0.034	2.671	1.880	1.880	1.880	1.899	1.895	1.890
-0.015	0.000	0.005	0.005	-0.029	-0.005	0.034	2.690	1.880	1.875	1.880	1.899	1.885	1.885
0.000	-0.010	0.000	0.010	-0.010	-0.015	0.034	2.671	1.885	1.875	1.880	1.899	1.895	1.885
0.010	-0.005	0.000	0.010	-0.005	-0.010	0.029	2.676	1.885	1.880	1.880	1.899	1.895	1.890
-0.005	0.000	0.000	0.005	-0.029	0.010	0.034	2.656	1.875	1.875	1.880	1.895	1.885	1.895
-0.010	0.024	0.000	0.005	-0.063	0.020	0.029	2.686	1.880	1.885	1.880	1.895	1.880	1.890
0.000	0.054	0.005	0.000	-0.059	0.000	0.029	2.676	1.885	1.890	1.880	1.895	1.885	1.890
0.000	0.039	-0.005	0.000	-0.024	0.015	0.034	2.686	1.880	1.885	1.880	1.899	1.895	1.895
0.010	0.010	0.005	0.010	0.005	0.005	0.034	2.686	1.885	1.875	1.880	1.899	1.904	1.890
0.005	-0.010	0.000	0.005	0.005	-0.005	0.034	2.686	1.885	1.870	1.875	1.895	1.899	1.895
0.010	-0.005	0.005	0.005	0.005	0.005	0.034	2.666	1.880	1.875	1.875	1.895	1.899	1.895
0.010	0.020	0.000	0.000	-0.015	0.015	0.034	2.671	1.880	1.885	1.875	1.895	1.890	1.895
0.005	0.044	0.010	-0.005	0.000	0.020	0.034	2.676	1.885	1.890	1.880	1.895	1.899	1.895
-0.010	0.000	0.000	0.000	0.044	-0.005	0.034	2.666	1.880	1.875	1.875	1.895	1.904	1.890
-0.005	-0.010	0.000	-0.005	0.068	0.005	0.034	2.676	1.880	1.870	1.875	1.895	1.904	1.904
0.000	0.000	0.000	-0.010	0.049	0.010	0.034	2.686	1.885	1.875	1.875	1.890	1.895	1.899
0.005	0.005	0.005	-0.005	0.020	0.010	0.029	2.686	1.890	1.880	1.875	1.895	1.890	1.899
0.005	-0.005	0.005	0.000	0.005	0.005	0.034	2.671	1.885	1.880	1.875	1.895	1.885	1.890
-0.005	-0.020	0.000	0.000	0.000	0.010	0.029	2.676	1.880	1.880	1.875	1.895	1.885	1.890
-0.010	-0.010	0.000	0.000	0.005	0.005	0.034	2.690	1.880	1.880	1.875	1.895	1.885	1.890
0.000	-0.010	0.000	0.005	0.020	0.000	0.034	2.671	1.885	1.880	1.880	1.895	1.895	1.890
0.005	-0.010	0.000	0.000	0.010	0.000	0.034	2.671	1.885	1.880	1.875	1.895	1.890	1.885
-0.010	0.000	0.000	0.000	0.005	0.005	0.034	2.686	1.880	1.880	1.875	1.895	1.890	1.890
-0.005	0.000	0.000	0.000	-0.005	-0.005	0.034	2.651	1.875	1.880	1.875	1.890	1.885	1.885
0.000	0.005	0.000	0.000	-0.015	-0.020	0.034	2.681	1.880	1.880	1.880	1.895	1.885	1.880
0.000	0.015	0.000	-0.010	-0.010	0.000	0.034	2.686	1.885	1.885	1.880	1.895	1.890	1.885
0.005	0.020	0.000	-0.010	-0.005	0.000	0.034	2.681	1.885	1.885	1.880	1.895	1.885	1.885
0.005	0.005	-0.005	-0.015	-0.005	0.005	0.034	2.676	1.880	1.880	1.880	1.890	1.890	1.890
0.005	0.015	-0.005	-0.010	-0.010	-0.005	0.034	2.725	1.890	1.885	1.880	1.895	1.885	1.885
-0.005	0.000	0.000	-0.005	-0.005	-0.005	0.029	2.642	1.875	1.880	1.880	1.895	1.890	1.880
0.000	-0.005	0.000	0.005	-0.005	-0.005	0.034	2.690	1.880	1.875	1.880	1.899	1.895	1.890
0.000	-0.015	0.000	0.005	-0.015	0.000	0.029	2.686	1.880	1.875	1.875	1.899	1.890	1.890
0.000	-0.010	0.005	0.005	-0.029	-0.005	0.034	2.686	1.885	1.875	1.875	1.899	1.890	1.890
-0.010	-0.005	0.005	0.010	-0.029	0.000	0.034	2.686	1.880	1.880	1.875	1.899	1.890	1.890
-0.005	0.010	0.005	0.010	-0.015	0.005	0.034	2.676	1.885	1.885	1.880	1.899	1.895	1.890
-0.005	0.000	0.005	0.010	-0.039	-0.005	0.034	2.681	1.880	1.880	1.880	1.895	1.890	1.890
0.005	0.005	0.005	0.005	-0.024	0.005	0.029	2.676	1.885	1.880	1.880	1.895	1.895	1.890
-0.005	0.000	-0.005	0.010	0.034	0.000	0.034	2.671	1.880	1.880	1.880	1.899	1.909	1.895
0.000	0.005	0.000	0.005	0.073	0.010	0.034	2.686	1.885	1.880	1.880	1.899	1.914	1.904
-0.005	0.000	0.000	0.005	0.024	0.010	0.029	2.681	1.880	1.880	1.880	1.895	1.895	1.904
0.000	-0.005	0.000	0.000	-0.015	0.005	0.029	2.681	1.880	1.880	1.875	1.890	1.880	1.895
0.000	-0.010	-0.005	0.000	0.034	0.015	0.029	2.754	1.880	1.875	1.875	1.895	1.899	1.899
0.000	-0.010	0.000	0.005	0.088	0.005	0.034	2.676	1.880	1.880	1.875	1.895	1.909	1.899
0.000	-0.005	-0.005	0.000	0.088	-0.020	0.034	2.686	1.880	1.875	1.875	1.895	1.904	1.895
0.000	-0.010	0.000	0.000	0.059	-0.015	0.034	2.656	1.880	1.880	1.875	1.895	1.890	1.895
0.005	-0.005	0.000	0.000	0.010	-0.015	0.034	2.681	1.885	1.880	1.875	1.890	1.875	1.890
0.005	0.015	0.000	-0.005	-0.024	-0.005	0.029	2.676	1.880	1.885	1.880	1.890	1.870	1.885
-0.015	0.015	0.000	0.005	-0.044	-0.024	0.034	2.676	1.875	1.880	1.880	1.895	1.870	1.875
0.010	0.005	0.000	0.020	-0.034	0.000	0.034	2.681	1.885	1.880	1.880	1.899	1.880	1.885
0.000	0.010	0.000	0.015	-0.024	-0.015	0.034	2.681	1.880	1.880	1.880	1.899	1.890	1.880
-0.005	0.010	0.005	0.005	-0.024	0.015	0.034	2.681	1.875	1.880	1.880	1.895	1.890	1.890
-0.005	0.015	0.010	-0.005	-0.010	0.010	0.029	2.681	1.880	1.880	1.880	1.895	1.895	1.890
-0.005	0.000	0.005	-0.005	0.010	0.000	0.034	2.690	1.880	1.875	1.880	1.895	1.899	1.890
0.000	0.000	0.005	-0.005	0.020	0.010	0.034	2.671	1.880	1.875	1.875	1.895	1.899	1.895
0.005	0.039	0.000	0.000	0.024	0.000	0.034	2.676	1.880	1.890	1.880	1.895	1.895	1.890
-0.005	0.015	0.000	0.000	0.010	-0.005	0.034	2.671	1.875	1.875	1.875	1.895	1.890	1.895
-0.005	-0.005	0.005	0.000	-0.010	0.000	0.034	2.676	1.880	1.870	1.875	1.895	1.890	1.890
-0.005	-0.020	0.000	0.005	-0.010	0.010	0.034	2.661	1.880	1.870	1.870	1.895	1.890	1.890
0.010	-0.024	0.005	0.000	-0.010	0.010	0.034	2.666	1.880	1.870	1.870	1.890	1.885	1.890
0.020	-0.024	0.000	0.000	-0.010	0.010	0.029	2.686	1.885	1.870	1.870	1.890	1.885	1.885
0.005	-0.020	0.005	-0.005	-0.020	0.010	0.034	2.686	1.880	1.875	1.870	1.890	1.885	1.885
0.010	0.000	0.000	0.000	-0.024	0.005	0.034	2.676	1.885	1.880	1.875	1.890	1.885	1.880
0.000	0.005	0.005	0.000	-0.010	-0.005	0.034	2.681	1.880	1.880	1.875	1.890	1.890	1.880
0.000	0.005	0.005	-0.005	0.000	0.000	0.029	2.690	1.880	1.880	1.875	1.890	1.890	1.885
0.000	0.010	0.000	-0.005	0.005	-0.015	0.034	2.681	1.880	1.885	1.875	1.890	1.890	1.885
-0.005	0.015	0.000	-0.010	-0.005	0.005	0.029	2.778	1.890	1.885	1.880	1.895	1.885	1.890
-0.005	0.015	0.005	-0.005	-0.010	-0.010	0.034	2.671	1.890	1.885	1.880	1.895	1.885	1.885
0.000	0.000	0.005	0.000	-0.015	0.010	0.034	2.666	1.885	1.880	1.880	1.899	1.890	1.890
0.000	0.010	0.005	-0.005	0.000	0.015	0.034	2.642	1.880	1.885	1.880	1.899	1.895	1.895
-0.005	0.015	0.000	-0.005	-0.005	0.010	0.029	2.681	1.885	1.880	1.880	1.899	1.890	1.890
0.005	-0.010	0.000	0.000	0.000	0.005	0.034	2.695	1.885	1.875	1.880	1.899	1.895	1.890
0.005	-0.024	0.000	0.005	-0.010	0.005	0.034	2.671	1.880	1.875	1.875	1.895	1.890	1.890
0.015	-0.020	0.005	0.005	-0.010	0.005	0.029	2.681	1.885	1.875	1.875	1.899	1.890	1.890
0.000	-0.010	-0.005	0.000	-0.015	-0.010	0.034	2.681	1.880	1.880	1.875	1.895	1.885	1.885
0.010	0.000	-0.005	0.005	-0.010	0.010	0.034	2.671	1.885	1.885	1.875	1.895	1.890	1.890
0.005	0.000	-0.005	0.010	-0.005	0.010	0.034	2.676	1.880	1.885	1.875	1.895	1.890	1.890
0.000	-0.005	-0.005	0.015	0.000	0.005	0.034	2.681	1.880	1.875	1.875	1.899	1.895	1.890
0.005	-0.010	-0.005	0.029	-0.005	0.015	0.034	2.676	1.880	1.880	1.875	1.899	1.895	1.890
0.000	0.000	0.000	0.024	-0.005	-0.024	0.034	2.666	1.875	1.880	1.880	1.899	1.895	1.885
-0.010	0.005	0.000	0.010	0.000	0.015	0.034	2.681	1.875	1.880	1.880	1.895	1.895	1.895
-0.005	0.010	0.010	-0.010	0.005	0.010	0.034	2.686	1.880	1.880	1.875	1.890	1.895	1.890
-0.005	0.010	0.005	-0.020	0.000	0.015	0.029	2.686	1.880	1.880	1.880	1.890	1.885	1.895
0.000	0.005	0.000	-0.024	-0.005	-0.005	0.029	2.676	1.880	1.880	1.875	1.890	1.885	1.890
0.000	0.010	0.000	-0.020	-0.005	0.010	0.029	2.720	1.885	1.885	1.880	1.895	1.890	1.890
0.000	0.024	0.010	-0.015	-0.005	0.005	0.034	2.686	1.890	1.890	1.880	1.895	1.890	1.890
-0.005	0.000	0.005	-0.005	0.005	-0.005	0.029	2.695	1.885	1.880	1.880	1.899	1.890	1.885
0.010	0.000	0.005	0.000	0.015	0.005	0.029	2.661	1.890	1.885	1.880	1.899	1.899	1.890
0.015	-0.005	0.000	0.005	0.029	-0.010	0.029	2.681	1.885	1.880	1.880	1.899	1.899	1.890
0.005	-0.010	0.000	0.010	0.020	-0.005	0.034	2.671	1.880	1.880	1.880	1.899	1.899	1.895
0.005	-0.010	-0.005	0.010	0.034	0.000	0.034	2.676	1.880	1.880	1.880	1.899	1.899	1.895
-0.010	0.005	0.000	0.010	0.034	0.005	0.029	2.681	1.880	1.880	1.880	1.899	1.899	1.899
0.000	0.000	0.000	0.005	0.024	0.015	0.029	2.661	1.875	1.880	1.880	1.895	1.895	1.899
-0.005	-0.005	-0.005	0.010	-0.005	0.000	0.034	2.671	1.880	1.875	1.875	1.895	1.885	1.890
-0.005	0.005	-0.005	0.005	-0.010	0.000	0.029	2.686	1.885	1.880	1.880	1.895	1.885	1.890
0.010	0.005	-0.005	0.005	-0.020	-0.015	0.029	2.686	1.885	1.880	1.875	1.895	1.885	1.885
0.010	0.010	0.000	-0.005	-0.010	0.010	0.029	2.686	1.885	1.880	1.880	1.895	1.890	1.890
0.010	0.010	-0.005	-0.005	0.000	0.010	0.034	2.671	1.880	1.885	1.880	1.895	1.890	1.895
-0.005	0.020	0.000	-0.005	-0.020	-0.020	0.034	2.676	1.880	1.880	1.880	1.895	1.885	1.880
-0.005	0.000	0.005	0.000	-0.015	0.000	0.029	2.686	1.875	1.875	1.880	1.895	1.890	1.890
0.005	0.005	0.005	0.005	-0.020	0.005	0.029	2.676	1.880	1.875	1.880	1.899	1.890	1.890
-0.005	0.015	0.005	0.005	-0.029	0.005	0.029	2.700	1.880	1.880	1.880	1.899	1.885	1.890
-0.010	0.010	0.000	0.010	-0.024	0.010	0.034	2.681	1.880	1.880	1.875	1.899	1.890	1.890
-0.010	0.015	0.000	0.005	0.039	0.010	0.034	2.676	1.880	1.880	1.880	1.899	1.909	1.895
-0.005	0.000	-0.005	0.015	0.073	0.005	0.034	2.676	1.880	1.875	1.875	1.899	1.914	1.899
0.005	0.020	0.000	0.010	0.039	0.000	0.034	2.676	1.885	1.885	1.880	1.895	1.899	1.899
-0.005	-0.020	0.000	0.010	0.049	0.005	0.029	2.686	1.880	1.870	1.875	1.899	1.899	1.899
-0.010	-0.020	0.000	0.010	0.107	0.000	0.034	2.666	1.880	1.875	1.875	1.895	1.914	1.904
0.005	-0.029	0.000	0.005	0.083	-0.024	0.029	2.715	1.890	1.875	1.875	1.895	1.895	1.895
0.010	-0.034	0.000	0.005	0.044	-0.024	0.029	2.646	1.885	1.875	1.875	1.895	1.885	1.890
0.010	-0.015	0.000	0.005	0.005	-0.005	0.034	2.681	1.885	1.885	1.875	1.890	1.875	1.890
0.000	0.000	0.000	-0.005	-0.020	0.000	0.029	2.681	1.885	1.885	1.880	1.890	1.875	1.885
0.000	-0.005	-0.005	-0.010	0.005	0.000	0.034	2.671	1.880	1.885	1.875	1.890	1.880	1.885
-0.005	0.000	0.000	-0.010	0.000	0.005	0.034	2.690	1.885	1.885	1.880	1.895	1.885	1.885
-0.005	0.010	-0.005	-0.005	-0.010	-0.005	0.034	2.671	1.880	1.885	1.880	1.895	1.880	1.885
0.000	0.024	0.000	0.000	-0.054	0.015	0.034	2.690	1.885	1.890	1.880	1.899	1.875	1.885
0.005	0.010	0.000	0.010	-0.049	0.029	0.034	2.681	1.880	1.885	1.885	1.904	1.885	1.890
-0.005	0.000	0.005	0.010	-0.054	0.015	0.029	2.690	1.880	1.880	1.880	1.899	1.885	1.885
0.000	0.000	0.000	0.010	-0.054	0.015	0.034	2.671	1.885	1.880	1.880	1.899	1.885	1.885
-0.005	0.024	0.005	0.020	-0.059	0.034	0.034	2.681	1.885	1.885	1.885	1.904	1.890	1.890
-0.005	0.015	0.005	0.024	-0.005	0.024	0.029	2.676	1.880	1.880	1.885	1.904	1.909	1.890
-0.005	0.005	0.005	0.015	-0.005	0.000	0.029	2.666	1.880	1.880	1.880	1.899	1.899	1.885
-0.005	-0.005	0.000	-0.005	-0.024	0.000	0.029	2.676	1.880	1.875	1.875	1.890	1.890	1.890
0.000	-0.005	0.000	-0.015	-0.054	-0.010	0.029	2.686	1.880	1.875	1.875	1.890	1.885	1.880
0.000	0.000	-0.005	-0.020	-0.044	-0.005	0.034	2.661	1.875	1.875	1.875	1.890	1.885	1.890
0.000	-0.005	0.005	-0.015	0.005	-0.005	0.034	2.686	1.880	1.875	1.875	1.890	1.899	1.890
0.000	-0.005	-0.005	-0.010	0.020	-0.010	0.034	2.676	1.880	1.875	1.870	1.895	1.899	1.890
0.000	-0.010	0.000	-0.005	-0.010	-0.039	0.034	2.676	1.880	1.875	1.875	1.895	1.885	1.880
0.000	0.000	0.000	0.005	-0.005	-0.024	0.034	2.690	1.880	1.880	1.875	1.895	1.890	1.890
0.000	-0.005	0.000	0.010	-0.015	0.000	0.034	2.681	1.875	1.875	1.875	1.899	1.890	1.895
0.000	-0.010	0.000	0.005	-0.005	-0.029	0.034	2.676	1.880	1.875	1.875	1.895	1.895	1.885
-0.005	-0.005	0.000	0.005	0.039	-0.010	0.034	2.686	1.880	1.875	1.875	1.895	1.904	1.895
-0.005	0.005	0.000	0.000	0.044	0.000	0.034	2.676	1.880	1.880	1.875	1.895	1.899	1.899
0.000	0.000	0.000	0.000	0.024	0.000	0.034	2.808	1.899	1.880	1.875	1.895	1.895	1.899
0.000	0.010	0.000	-0.005	0.015	0.005	0.034	2.793	1.904	1.890	1.880	1.895	1.890	1.899
0.005	0.015	0.005	-0.005	0.063	0.010	0.029	2.661	1.899	1.895	1.885	1.899	1.904	1.904
0.005	0.024	0.000	0.000	0.059	0.010	0.034	2.646	1.890	1.895	1.890	1.899	1.899	1.899
0.005	0.005	0.010	-0.005	0.063	0.034	0.029	2.808	1.904	1.890	1.885	1.904	1.899	1.909
0.000	0.005	0.000	0.005	0.039	0.049	0.034	2.734	1.899	1.895	1.890	1.904	1.895	1.909
0.000	-0.005	0.000	0.000	0.059	0.015	0.034	2.642	1.890	1.890	1.890	1.904	1.899	1.895
0.000	-0.010	-0.005	0.000	0.034	0.010	0.034	2.725	1.895	1.885	1.885	1.904	1.890	1.895
0.005	-0.005	0.000	0.005	-0.024	-0.020	0.029	2.637	1.890	1.890	1.885	1.904	1.880	1.880
0.000	-0.005	0.000	0.000	-0.044	-0.005	0.029	2.793	1.895	1.890	1.885	1.899	1.875	1.880
0.005	-0.010	0.000	0.000	-0.059	0.005	0.029	2.729	1.899	1.890	1.885	1.899	1.880	1.885
0.010	-0.010	-0.005	0.010	-0.034	0.000	0.029	2.637	1.890	1.885	1.885	1.904	1.890	1.885
0.005	-0.020	0.000	0.015	-0.020	0.000	0.029	2.729	1.885	1.890	1.885	1.904	1.899	1.890
0.000	0.010	0.000	0.015	-0.034	-0.005	0.029	2.725	1.875	1.890	1.890	1.904	1.895	1.890
-0.005	0.010	0.005	0.010	-0.063	-0.020	0.034	2.734	1.885	1.890	1.885	1.904	1.885	1.885
-0.005	0.010	0.000	0.005	-0.063	-0.010	0.029	2.656	1.880	1.885	1.885	1.904	1.890	1.890
0.000	0.010	0.000	0.005	-0.044	0.000	0.029	2.798	1.890	1.885	1.885	1.904	1.899	1.895
-0.005	0.005	0.005	-0.005	-0.020	0.000	0.034	2.666	1.885	1.885	1.885	1.904	1.904	1.899
-0.005	-0.005	-0.005	-0.005	-0.005	-0.005	0.034	2.651	1.880	1.880	1.885	1.904	1.904	1.899
0.000	0.000	0.000	-0.005	0.010	-0.005	0.034	2.798	1.899	1.885	1.885	1.904	1.909	1.904
0.005	-0.010	0.005	-0.005	0.015	0.005	0.034	2.632	1.885	1.885	1.885	1.899	1.909	1.909
0.010	-0.005	0.000	-0.005	0.024	-0.005	0.034	2.686	1.890	1.885	1.885	1.899	1.909	1.909
-0.005	-0.010	0.000	-0.005	0.034	0.005	0.029	2.622	1.880	1.885	1.885	1.904	1.904	1.904
0.015	0.005	0.005	-0.010	0.034	-0.015	0.034	2.798	1.899	1.890	1.885	1.904	1.904	1.904
0.010	0.005	0.000	-0.005	0.054	0.015	0.029	2.720	1.899	1.890	1.885	1.904	1.909	1.914
0.000	0.005	0.000	-0.005	0.103	-0.005	0.034	2.622	1.885	1.890	1.885	1.904	1.919	1.909
0.000	-0.010	0.000	-0.005	0.093	0.005	0.029	2.715	1.895	1.885	1.885	1.904	1.909	1.909
0.005	-0.010	-0.005	-0.005	0.029	0.000	0.029	2.754	1.899	1.890	1.885	1.899	1.890	1.904
0.000	-0.005	0.000	-0.005	0.000	-0.005	0.029	2.734	1.899	1.895	1.885	1.899	1.885	1.895
0.000	0.010	0.005	0.000	-0.039	0.015	0.034	2.754	1.904	1.899	1.890	1.904	1.880	1.895
-0.005	0.005	-0.005	0.000	-0.039	0.010	0.034	2.676	1.895	1.895	1.890	1.904	1.885	1.890
0.000	0.015	0.005	0.000	-0.034	0.010	0.034	2.754	1.904	1.899	1.895	1.909	1.890	1.890
-0.005	0.005	0.000	0.000	-0.034	0.005	0.034	2.690	1.895	1.895	1.895	1.909	1.895	1.890
-0.005	0.024	0.000	0.005	-0.029	0.000	0.029	2.676	1.895	1.904	1.895	1.909	1.899	1.890
0.000	0.039	0.000	0.005	-0.024	0.000	0.029	2.690	1.890	1.899	1.899	1.914	1.904	1.895
-0.005	0.000	0.000	0.005	-0.024	-0.005	0.034	2.671	1.890	1.890	1.895	1.914	1.904	1.895
0.000	-0.015	0.010	0.005	-0.020	-0.015	0.034	2.671	1.885	1.880	1.890	1.909	1.909	1.899
0.005	-0.029	0.005	0.005	-0.010	0.000	0.029	2.695	1.890	1.880	1.885	1.909	1.909	1.904
0.000	-0.015	-0.005	0.005	0.000	0.005	0.029	2.690	1.885	1.885	1.885	1.909	1.909	1.904
0.010	-0.015	0.000	0.005	-0.005	0.000	0.034	2.695	1.895	1.885	1.885	1.904	1.909	1.909
-0.005	-0.010	-0.005	0.005	0.000	0.005	0.034	2.666	1.885	1.885	1.885	1.904	1.904	1.909
0.005	-0.015	-0.005	0.005	0.000	0.010	0.029	2.671	1.890	1.885	1.880	1.904	1.904	1.909
-0.005	0.015	-0.010	0.005	-0.005	-0.005	0.034	2.690	1.890	1.895	1.885	1.899	1.899	1.899
0.000	0.000	-0.005	0.005	-0.005	-0.010	0.029	2.690	1.890	1.890	1.885	1.899	1.899	1.895
0.005	0.024	-0.005	0.005	-0.005	0.005	0.034	2.671	1.890	1.895	1.890	1.904	1.899	1.904
0.010	-0.005	0.000	0.005	-0.005	0.005	0.034	2.695	1.890	1.885	1.885	1.904	1.899	1.899
0.015	-0.020	0.005	0.000	-0.005	0.000	0.029	2.700	1.890	1.880	1.885	1.904	1.899	1.899
0.000	-0.020	0.010	0.005	0.000	0.005	0.029	2.676	1.890	1.880	1.885	1.904	1.904	1.904
0.000	-0.005	0.000	0.000	-0.005	0.005	0.029	2.686	1.885	1.885	1.880	1.904	1.899	1.899
0.000	0.005	0.005	0.005	-0.005	0.005	0.029	2.676	1.890	1.890	1.885	1.904	1.899	1.899
0.000	0.005	0.015	0.005	0.005	0.005	0.034	2.700	1.895	1.890	1.890	1.904	1.904	1.904
0.005	0.010	0.010	0.000	0.010	-0.005	0.034	2.686	1.899	1.895	1.885	1.904	1.904	1.899
0.000	0.020	0.005	0.000	0.010	0.010	0.034	2.676	1.895	1.895	1.890	1.904	1.899	1.899
-0.005	0.015	0.010	0.000	0.005	-0.010	0.034	2.700	1.895	1.895	1.890	1.904	1.899	1.895
-0.005	0.010	0.005	0.005	0.000	0.000	0.029	2.686	1.895	1.890	1.890	1.909	1.899	1.899
0.000	0.005	0.000	0.000	0.005	0.000	0.029	2.661	1.890	1.890	1.885	1.904	1.904	1.904
0.005	0.005	-0.005	0.000	0.000	0.000	0.034	2.793	1.899	1.890	1.890	1.904	1.899	1.899
0.010	-0.010	0.005	-0.005	0.000	0.010	0.029	2.661	1.899	1.890	1.885	1.904	1.899	1.899
0.000	-0.005	-0.005	-0.010	0.000	0.005	0.034	2.637	1.885	1.885	1.885	1.899	1.899	1.899
0.005	-0.005	-0.005	-0.010	0.000	0.000	0.034	2.773	1.899	1.890	1.885	1.904	1.899	1.899
-0.005	0.000	-0.005	-0.010	-0.010	0.000	0.029	2.637	1.890	1.890	1.885	1.904	1.895	1.895
0.005	0.000	-0.005	0.005	-0.010	-0.005	0.034	2.695	1.890	1.890	1.885	1.909	1.895	1.895
-0.005	0.010	0.000	0.010	-0.010	0.005	0.034	2.720	1.895	1.895	1.890	1.909	1.899	1.895
0.000	0.015	0.000	0.010	-0.005	-0.010	0.034	2.788	1.904	1.899	1.890	1.909	1.904	1.899
0.000	0.015	0.005	0.015	-0.034	0.000	0.029	2.622	1.895	1.895	1.895	1.914	1.895	1.895
-0.005	0.005	0.000	0.010	-0.068	0.000	0.034	2.656	1.890	1.890	1.895	1.909	1.890	1.895
-0.005	0.015	0.000	0.005	-0.044	0.000	0.029	2.749	1.895	1.895	1.895	1.909	1.899	1.895
0.005	0.015	0.005	0.005	-0.005	0.000	0.034	2.617	1.885	1.895	1.895	1.909	1.914	1.899
0.005	0.005	0.000	0.000	0.005	0.005	0.029	2.695	1.890	1.885	1.890	1.909	1.914	1.904
0.000	-0.005	0.000	0.000	-0.044	0.010	0.029	2.744	1.895	1.885	1.890	1.909	1.895	1.904
0.000	-0.005	0.005	0.000	-0.039	0.015	0.029	2.676	1.895	1.890	1.885	1.904	1.899	1.904
0.010	-0.010	0.000	-0.005	-0.024	0.015	0.034	2.651	1.890	1.890	1.885	1.904	1.904	1.904
-0.005	0.000	0.000	0.000	0.015	0.005	0.029	2.666	1.885	1.885	1.885	1.909	1.914	1.904
0.005	0.000	0.005	0.000	0.063	-0.005	0.034	2.681	1.890	1.890	1.890	1.909	1.924	1.909
-0.005	-0.005	0.000	-0.005	0.117	0.000	0.034	2.695	1.885	1.885	1.885	1.904	1.934	1.919
0.005	-0.005	0.005	-0.010	0.171	0.000	0.034	2.676	1.890	1.890	1.885	1.909	1.938	1.924
0.005	-0.015	-0.005	-0.005	0.186	0.000	0.029	2.681	1.885	1.880	1.885	1.904	1.934	1.924
0.005	-0.034	-0.010	0.000	0.200	-0.005	0.029	2.695	1.895	1.880	1.880	1.904	1.929	1.924
0.000	0.005	-0.005	-0.005	0.171	0.010	0.029	2.710	1.899	1.895	1.885	1.904	1.914	1.924
0.010	0.024	0.000	0.000	0.088	0.010	0.034	2.695	1.904	1.904	1.890	1.904	1.885	1.909
0.005	0.010	0.000	0.005	0.010	0.000	0.029	2.676	1.895	1.895	1.895	1.904	1.870	1.895
0.005	-0.010	0.000	0.005	-0.039	-0.015	0.029	2.700	1.895	1.890	1.890	1.904	1.865	1.880
-0.005	-0.005	0.005	0.010	-0.054	0.005	0.029	2.695	1.895	1.895	1.890	1.904	1.875	1.880
0.000	0.024	0.005	0.005	-0.073	0.015	0.034	2.695	1.895	1.899	1.890	1.904	1.875	1.885
0.000	0.029	0.000	0.000	-0.078	0.010	0.034	2.671	1.890	1.899	1.895	1.909	1.880	1.875
-0.005	-0.010	0.000	0.005	-0.073	0.000	0.034	2.671	1.885	1.885	1.890	1.909	1.890	1.880
-0.005	-0.005	0.005	0.005	-0.059	0.015	0.029	2.700	1.890	1.885	1.890	1.909	1.895	1.890
0.000	0.020	0.005	0.000	-0.054	0.015	0.034	2.681	1.895	1.890	1.890	1.909	1.899	1.895
-0.005	-0.005	0.000	0.000	-0.049	0.024	0.034	2.676	1.885	1.885	1.890	1.909	1.904	1.899
0.000	-0.005	0.000	0.005	-0.039	0.015	0.034	2.676	1.890	1.885	1.885	1.909	1.904	1.895
0.010	-0.005	0.000	0.010	-0.049	-0.005	0.034	2.681	1.890	1.890	1.885	1.904	1.899	1.895
0.015	-0.005	0.000	0.005	-0.039	-0.020	0.029	2.700	1.895	1.885	1.885	1.904	1.899	1.890
-0.005	-0.005	0.000	-0.005	-0.015	-0.020	0.034	2.676	1.885	1.885	1.885	1.904	1.909	1.895
0.000	0.005	0.000	-0.005	0.059	-0.029	0.029	2.705	1.890	1.890	1.885	1.904	1.924	1.899
0.010	-0.010	0.000	0.000	0.029	-0.039	0.029	2.686	1.890	1.885	1.885	1.904	1.909	1.899
-0.005	0.000	0.000	0.000	0.020	-0.049	0.029	2.666	1.885	1.885	1.885	1.904	1.904	1.899
0.000	0.000	0.000	0.000	-0.020	-0.024	0.029	2.783	1.895	1.890	1.885	1.904	1.890	1.899
-0.010	0.015	0.000	0.005	-0.088	-0.015	0.029	2.642	1.890	1.890	1.885	1.904	1.875	1.895
-0.005	0.010	0.000	0.005	-0.049	0.000	0.029	2.646	1.885	1.885	1.885	1.909	1.895	1.899
0.000	0.000	0.000	0.005	-0.005	0.020	0.034	2.656	1.885	1.885	1.885	1.904	1.909	1.909
0.015	0.000	0.000	0.005	0.024	0.020	0.034	2.642	1.885	1.885	1.890	1.904	1.914	1.914
0.000	0.015	0.000	0.005	0.010	0.034	0.034	2.695	1.885	1.890	1.885	1.904	1.909	1.914
-0.005	0.005	0.000	0.005	0.029	0.029	0.034	2.627	1.885	1.885	1.885	1.909	1.914	1.914
-0.005	-0.010	0.000	0.015	0.059	0.000	0.034	2.637	1.875	1.880	1.885	1.904	1.919	1.909
0.000	-0.020	0.000	0.010	0.029	-0.005	0.029	2.617	1.875	1.875	1.880	1.899	1.904	1.904
0.000	-0.010	0.000	0.000	0.010	0.015	0.034	2.744	1.885	1.880	1.880	1.899	1.895	1.904
-0.005	0.010	-0.005	0.000	-0.005	0.005	0.029	2.725	1.895	1.885	1.880	1.899	1.890	1.899
0.000	0.005	0.000	-0.005	-0.005	-0.010	0.029	2.754	1.890	1.885	1.880	1.895	1.890	1.895
0.010	0.000	0.005	-0.010	-0.010	0.010	0.029	2.739	1.895	1.890	1.885	1.895	1.890	1.895
0.000	0.005	0.005	-0.010	-0.015	0.010	0.029	2.744	1.899	1.890	1.885	1.899	1.890	1.895
-0.005	0.000	0.000	-0.005	-0.015	0.024	0.034	2.661	1.895	1.890	1.885	1.899	1.890	1.895
0.010	0.005	0.000	-0.010	-0.010	0.029	0.034	2.651	1.895	1.890	1.885	1.904	1.895	1.895
0.005	0.000	0.000	-0.005	0.000	0.020	0.029	2.690	1.885	1.890	1.885	1.899	1.899	1.895
-0.005	0.005	0.005	-0.005	0.015	0.000	0.029	2.681	1.885	1.890	1.885	1.904	1.899	1.895
0.000	0.010	0.000	-0.005	0.010	-0.010	0.029	2.666	1.885	1.890	1.885	1.904	1.899	1.890
-0.005	0.005	0.000	-0.005	0.010	-0.034	0.029	2.705	1.885	1.885	1.885	1.904	1.899	1.885
0.000	0.010	0.000	-0.010	0.000	-0.024	0.029	2.695	1.890	1.885	1.885	1.899	1.899	1.890
0.010	0.005	0.000	0.000	0.005	-0.020	0.029	2.690	1.895	1.885	1.885	1.904	1.899	1.899
0.000	0.005	0.000	0.010	0.005	0.000	0.029	2.705	1.895	1.890	1.885	1.909	1.899	1.899
0.000	0.000	0.000	0.010	0.000	0.010	0.029	2.710	1.895	1.890	1.885	1.909	1.904	1.909
-0.005	-0.005	0.010	0.020	-0.005	0.015	0.034	2.695	1.890	1.890	1.890	1.909	1.899	1.904
0.005	0.005	-0.005	0.015	-0.010	0.010	0.029	2.695	1.899	1.890	1.885	1.909	1.899	1.904
0.005	-0.005	0.005	0.015	0.000	0.020	0.034	2.666	1.895	1.890	1.890	1.904	1.904	1.904
0.005	0.000	0.000	0.010	-0.010	0.024	0.034	2.700	1.895	1.890	1.890	1.904	1.899	1.899
0.000	-0.005	-0.005	0.010	-0.010	0.020	0.034	2.700	1.890	1.890	1.885	1.904	1.899	1.899
0.010	-0.010	0.000	0.005	0.000	0.024	0.034	2.666	1.895	1.890	1.885	1.904	1.899	1.904
0.010	-0.020	-0.005	0.010	0.005	0.015	0.029	2.671	1.890	1.885	1.885	1.904	1.899	1.899
0.005	-0.010	0.000	0.000	-0.005	0.020	0.034	2.676	1.890	1.890	1.885	1.904	1.895	1.899
0.005	-0.015	0.000	0.010	0.000	0.000	0.034	2.671	1.885	1.885	1.885	1.904	1.899	1.895
0.005	-0.005	0.000	0.010	-0.005	-0.015	0.034	2.671	1.885	1.890	1.885	1.904	1.899	1.890
-0.005	0.000	0.000	0.000	-0.005	-0.010	0.029	2.705	1.890	1.885	1.885	1.899	1.899	1.890
0.000	0.000	0.000	0.000	0.000	-0.005	0.029	2.690	1.890	1.890	1.885	1.899	1.899	1.895
0.005	0.020	0.000	-0.010	-0.005	-0.020	0.029	2.676	1.890	1.890	1.885	1.899	1.895	1.890
-0.010	0.020	0.005	-0.010	0.010	0.000	0.034	2.705	1.890	1.895	1.890	1.899	1.904	1.899
-0.005	0.024	-0.005	0.000	0.005	0.000	0.034	2.686	1.890	1.890	1.890	1.904	1.899	1.899
0.000	0.000	0.000	0.000	0.005	0.005	0.029	2.666	1.890	1.880	1.885	1.909	1.899	1.899
0.005	0.010	-0.005	0.000	0.015	0.000	0.034	2.783	1.899	1.890	1.885	1.904	1.904	1.899
0.000	0.010	0.000	-0.005	0.005	0.005	0.034	2.656	1.895	1.890	1.885	1.909	1.899	1.904
-0.005	0.010	-0.005	0.005	0.010	-0.020	0.034	2.646	1.890	1.890	1.885	1.904	1.899	1.895
0.000	0.000	-0.005	0.010	0.010	0.000	0.029	2.646	1.895	1.890	1.885	1.909	1.899	1.904
0.000	-0.010	-0.005	0.010	-0.005	0.005	0.034	2.734	1.899	1.885	1.885	1.904	1.899	1.899
0.000	0.000	-0.005	0.005	0.000	0.005	0.034	2.676	1.895	1.895	1.885	1.904	1.904	1.904
0.000	-0.010	0.000	0.000	-0.005	0.010	0.029	2.705	1.895	1.890	1.890	1.904	1.899	1.904
0.005	-0.005	0.005	0.000	0.000	0.015	0.034	2.817	1.909	1.895	1.890	1.904	1.899	1.904
0.005	0.005	0.005	0.000	0.005	0.034	0.029	2.632	1.895	1.895	1.890	1.904	1.899	1.909
0.005	-0.005	0.005	-0.005	0.005	0.029	0.029	2.754	1.904	1.895	1.890	1.904	1.904	1.904
-0.005	0.000	0.000	0.000	0.000	0.044	0.029	2.739	1.904	1.899	1.895	1.909	1.899	1.909
0.005	0.000	0.010	0.000	-0.024	0.039	0.034	2.744	1.909	1.899	1.895	1.909	1.895	1.904
0.005	0.005	0.000	0.000	-0.049	0.034	0.029	2.710	1.904	1.904	1.895	1.909	1.890	1.895
-0.005	0.020	0.005	0.005	-0.054	-0.005	0.034	2.739	1.904	1.909	1.899	1.909	1.890	1.885
0.000	0.024	0.005	0.000	-0.107	-0.020	0.034	2.690	1.904	1.904	1.899	1.914	1.880	1.880
0.000	0.010	0.005	0.000	-0.117	-0.034	0.034	2.715	1.899	1.899	1.899	1.914	1.885	1.875
0.005	0.005	0.010	0.005	-0.063	-0.059	0.034	2.690	1.895	1.895	1.899	1.919	1.909	1.880
0.010	-0.005	0.005	0.010	-0.015	-0.068	0.034	2.700	1.890	1.895	1.899	1.919	1.924	1.890
0.005	-0.010	0.005	0.005	0.034	-0.073	0.034	2.690	1.890	1.890	1.895	1.919	1.934	1.904
0.010	-0.015	0.005	0.000	0.088	-0.073	0.029	2.695	1.895	1.890	1.895	1.919	1.943	1.909
0.000	-0.024	0.005	0.000	0.146	-0.068	0.034	2.710	1.895	1.885	1.890	1.914	1.948	1.924
0.005	0.000	0.000	0.000	0.171	-0.039	0.029	2.700	1.899	1.895	1.890	1.914	1.943	1.938
0.010	-0.010	0.000	0.000	0.137	0.010	0.034	2.700	1.899	1.890	1.890	1.909	1.929	1.948
0.015	-0.049	-0.005	0.000	0.112	0.034	0.034	2.705	1.904	1.885	1.885	1.909	1.914	1.943
0.010	-0.034	0.005	0.000	0.068	0.068	0.034	2.671	1.899	1.890	1.890	1.904	1.899	1.938
0.005	0.005	0.000	-0.005	0.068	0.063	0.029	2.695	1.904	1.904	1.890	1.909	1.899	1.929
-0.005	0.010	0.000	0.000	0.083	0.059	0.034	2.705	1.904	1.904	1.895	1.909	1.904	1.919
-0.005	0.034	0.000	-0.005	0.059	0.039	0.034	2.690	1.899	1.909	1.899	1.909	1.895	1.909
-0.005	0.054	0.000	0.000	-0.020	0.034	0.034	2.710	1.899	1.909	1.904	1.909	1.875	1.895
-0.005	0.034	0.005	0.005	-0.068	0.024	0.034	2.681	1.899	1.904	1.904	1.914	1.875	1.885
-0.005	0.024	0.000	0.000	-0.059	0.010	0.029	2.666	1.895	1.895	1.899	1.914	1.885	1.885
-0.005	0.010	0.000	0.000	-0.059	0.010	0.029	2.681	1.890	1.890	1.899	1.914	1.895	1.885
-0.005	0.020	0.015	-0.005	-0.063	0.010	0.029	2.666	1.885	1.890	1.895	1.914	1.899	1.890
0.000	0.020	0.000	0.005	-0.049	0.015	0.029	2.676	1.885	1.890	1.895	1.919	1.904	1.895
0.005	-0.020	0.005	0.000	-0.034	0.029	0.029	2.676	1.890	1.875	1.890	1.914	1.909	1.904
0.015	-0.073	0.000	0.000	-0.015	0.054	0.029	2.705	1.890	1.870	1.880	1.909	1.919	1.909
0.015	-0.015	0.010	0.000	0.000	0.049	0.034	2.671	1.890	1.890	1.885	1.909	1.914	1.914
0.010	-0.015	0.005	0.005	-0.059	0.024	0.034	2.695	1.895	1.890	1.880	1.904	1.890	1.899
-0.005	0.020	0.005	0.005	-0.083	0.005	0.034	2.681	1.890	1.899	1.885	1.904	1.890	1.890
-0.005	0.020	-0.005	0.005	-0.103	-0.005	0.034	2.666	1.885	1.895	1.890	1.904	1.885	1.890
-0.005	0.000	0.000	0.005	-0.103	-0.020	0.029	2.783	1.895	1.890	1.885	1.904	1.890	1.885
-0.005	0.005	-0.005	0.005	-0.078	-0.024	0.034	2.656	1.890	1.890	1.885	1.904	1.899	1.890
-0.010	0.005	-0.005	0.010	-0.078	-0.020	0.029	2.646	1.885	1.890	1.890	1.904	1.899	1.890
-0.005	0.015	-0.005	0.000	-0.068	-0.054	0.029	2.656	1.899	1.890	1.890	1.904	1.899	1.885
0.005	0.020	-0.005	0.005	-0.063	-0.103	0.029	2.734	1.899	1.895	1.890	1.909	1.899	1.875
0.005	0.015	0.000	0.005	-0.049	-0.088	0.034	2.700	1.899	1.895	1.890	1.904	1.909	1.890
0.000	-0.005	0.005	0.000	0.039	-0.107	0.034	2.637	1.890	1.890	1.890	1.909	1.929	1.899
0.000	0.000	0.005	0.005	0.078	-0.063	0.034	2.642	1.899	1.890	1.890	1.909	1.934	1.919
-0.005	-0.005	0.000	0.000	0.054	-0.020	0.034	2.720	1.899	1.890	1.890	1.909	1.919	1.929
0.000	-0.024	0.005	0.000	0.059	0.010	0.029	2.739	1.909	1.890	1.890	1.909	1.924	1.938
0.005	-0.020	0.000	0.000	0.176	0.034	0.034	2.627	1.899	1.895	1.890	1.909	1.953	1.953
0.005	0.010	0.000	0.005	0.269	0.044	0.034	2.651	1.899	1.904	1.895	1.914	1.968	1.958
0.000	0.015	0.000	0.005	0.288	0.044	0.034	2.729	1.904	1.904	1.899	1.914	1.953	1.958
0.000	0.005	0.000	0.010	0.200	0.034	0.029	2.739	1.914	1.904	1.895	1.914	1.919	1.943
-0.005	0.005	0.000	0.005	0.093	0.034	0.029	2.676	1.909	1.904	1.895	1.909	1.885	1.924
-0.005	0.005	0.000	0.000	0.005	0.020	0.029	2.646	1.899	1.904	1.895	1.909	1.870	1.904
0.005	0.020	0.005	0.005	-0.024	0.020	0.034	2.671	1.899	1.909	1.899	1.909	1.870	1.890
-0.005	-0.010	0.000	0.000	-0.044	0.024	0.029	2.686	1.895	1.895	1.899	1.909	1.875	1.885
0.005	-0.015	-0.005	0.000	-0.044	0.015	0.029	2.666	1.895	1.895	1.895	1.909	1.880	1.880
0.005	-0.049	0.000	0.000	-0.059	0.005	0.034	2.671	1.890	1.880	1.890	1.909	1.885	1.875
0.005	-0.054	0.000	0.000	-0.044	0.015	0.034	2.695	1.890	1.885	1.885	1.909	1.895	1.885
0.000	0.000	0.000	0.000	-0.044	-0.005	0.034	2.700	1.895	1.904	1.890	1.909	1.899	1.885
0.000	0.024	0.000	0.000	-0.049	-0.010	0.034	2.695	1.895	1.904	1.895	1.909	1.895	1.885
0.010	0.020	0.000	0.000	-0.054	0.005	0.034	2.705	1.895	1.899	1.895	1.914	1.899	1.895
0.005	0.010	0.005	0.000	-0.063	-0.010	0.029	2.671	1.890	1.895	1.895	1.914	1.895	1.890
-0.005	0.010	0.000	0.000	-0.054	0.000	0.034	2.676	1.890	1.890	1.895	1.914	1.904	1.895
0.015	-0.049	0.000	0.005	-0.044	0.010	0.029	2.695	1.895	1.875	1.890	1.914	1.909	1.899
0.005	-0.005	-0.005	0.005	-0.034	0.005	0.029	2.700	1.895	1.895	1.890	1.909	1.909	1.899
0.000	0.093	0.005	0.000	-0.029	0.000	0.029	2.695	1.895	1.924	1.899	1.909	1.909	1.904
0.000	0.054	0.005	0.000	-0.024	0.000	0.029	2.686	1.895	1.899	1.899	1.914	1.909	1.909
-0.005	0.034	0.000	0.000	-0.010	0.000	0.029	2.686	1.895	1.895	1.895	1.914	1.914	1.909
-0.005	0.044	0.000	0.005	-0.005	0.005	0.029	2.676	1.890	1.895	1.895	1.914	1.914	1.909
0.000	0.020	0.005	0.005	-0.010	-0.005	0.034	2.666	1.890	1.885	1.890	1.914	1.909	1.909
0.000	-0.039	0.005	0.010	-0.010	0.000	0.034	2.671	1.890	1.870	1.885	1.909	1.909	1.909
0.005	-0.049	0.000	0.005	-0.005	0.000	0.029	2.695	1.895	1.875	1.880	1.904	1.909	1.909
0.015	-0.020	-0.005	0.000	0.000	0.000	0.029	2.676	1.895	1.890	1.880	1.904	1.904	1.909
0.010	-0.020	-0.005	0.000	-0.005	0.000	0.034	2.671	1.885	1.890	1.880	1.899	1.904	1.909
0.005	-0.005	-0.005	0.000	0.000	-0.005	0.034	2.700	1.890	1.890	1.885	1.904	1.904	1.904
0.000	0.005	0.000	-0.005	0.000	0.005	0.034	2.686	1.890	1.895	1.890	1.904	1.904	1.909
-0.005	0.010	0.005	-0.005	-0.005	0.005	0.029	2.666	1.890	1.895	1.890	1.904	1.899	1.904
-0.010	0.005	0.000	-0.005	-0.005	0.000	0.029	2.793	1.899	1.895	1.890	1.904	1.899	1.904
0.000	0.005	0.000	-0.005	0.000	-0.010	0.029	2.651	1.899	1.895	1.890	1.904	1.899	1.899
-0.010	0.000	-0.005	0.000	0.015	0.000	0.034	2.646	1.890	1.890	1.890	1.909	1.904	1.904
-0.010	0.024	0.000	0.000	0.039	-0.005	0.034	2.656	1.909	1.899	1.895	1.909	1.909	1.904
-0.015	0.029	0.005	0.005	0.049	0.000	0.034	2.642	1.899	1.899	1.895	1.914	1.909	1.909
-0.020	0.010	0.005	0.010	0.039	0.010	0.034	2.656	1.895	1.895	1.895	1.914	1.914	1.909
-0.020	0.000	0.000	0.005	0.029	0.005	0.034	2.695	1.895	1.890	1.890	1.909	1.909	1.909
0.005	-0.005	0.000	0.005	0.015	0.015	0.029	2.808	1.914	1.895	1.890	1.909	1.899	1.909
0.020	-0.015	0.000	0.005	0.015	-0.015	0.029	2.622	1.904	1.895	1.895	1.909	1.904	1.899
0.015	0.010	0.000	0.005	0.015	0.000	0.029	2.749	1.909	1.904	1.895	1.914	1.904	1.899
0.010	0.000	0.000	0.005	0.015	0.000	0.029	2.749	1.909	1.899	1.895	1.909	1.904	1.904
0.010	-0.010	0.005	0.005	0.015	-0.010	0.029	2.642	1.895	1.895	1.895	1.909	1.904	1.899
0.005	0.010	0.000	0.005	0.010	-0.010	0.029	2.715	1.895	1.899	1.895	1.914	1.904	1.899
0.005	0.005	0.000	0.000	0.010	-0.005	0.029	2.744	1.899	1.899	1.899	1.914	1.904	1.904
0.000	-0.005	0.005	0.000	0.010	0.005	0.034	2.651	1.890	1.895	1.895	1.914	1.909	1.909
0.010	-0.010	0.000	0.000	0.010	0.010	0.034	2.656	1.890	1.890	1.895	1.909	1.909	1.909
0.000	-0.020	0.010	0.000	0.005	0.010	0.029	2.676	1.885	1.885	1.890	1.909	1.904	1.909
-0.005	-0.020	0.005	0.000	0.000	0.005	0.034	2.700	1.895	1.885	1.890	1.914	1.904	1.904
-0.005	0.005	0.010	0.000	0.000	0.000	0.034	2.695	1.895	1.895	1.890	1.909	1.904	1.904
0.000	0.005	0.010	0.005	-0.005	-0.005	0.034	2.666	1.895	1.895	1.890	1.914	1.904	1.904
0.005	0.010	0.005	0.005	-0.010	0.010	0.029	2.681	1.890	1.895	1.890	1.909	1.904	1.909
-0.010	0.000	-0.005	0.010	-0.010	0.059	0.029	2.690	1.890	1.890	1.890	1.909	1.909	1.924
0.005	-0.015	-0.010	0.010	-0.005	0.098	0.029	2.705	1.899	1.890	1.885	1.909	1.909	1.924
0.000	-0.010	-0.015	0.010	0.005	0.088	0.034	2.700	1.899	1.890	1.885	1.909	1.909	1.919
0.005	-0.010	-0.005	0.000	-0.005	0.034	0.034	2.686	1.899	1.895	1.890	1.904	1.899	1.899
0.010	0.010	0.000	0.000	-0.039	-0.024	0.034	2.666	1.899	1.904	1.895	1.904	1.890	1.880
-0.005	0.054	0.000	0.000	-0.078	-0.063	0.029	2.695	1.895	1.909	1.899	1.904	1.880	1.870
0.005	0.020	-0.005	0.005	-0.107	-0.083	0.034	2.695	1.890	1.895	1.895	1.909	1.880	1.870
-0.005	0.000	0.000	0.000	-0.073	-0.112	0.029	2.690	1.885	1.890	1.890	1.909	1.895	1.870
0.005	0.005	-0.005	0.000	-0.054	-0.098	0.034	2.671	1.885	1.885	1.890	1.909	1.904	1.880
0.005	0.020	-0.005	0.005	-0.034	-0.103	0.029	2.690	1.885	1.890	1.890	1.909	1.909	1.885
0.010	0.020	0.010	0.005	0.010	-0.098	0.034	2.661	1.885	1.890	1.895	1.909	1.924	1.899
0.010	0.020	0.005	0.000	0.044	-0.059	0.029	2.681	1.885	1.885	1.890	1.909	1.924	1.914
0.005	0.024	0.000	0.005	0.068	-0.020	0.029	2.676	1.885	1.885	1.890	1.909	1.934	1.934
0.000	-0.005	0.005	0.005	0.083	0.024	0.029	2.705	1.890	1.875	1.885	1.909	1.929	1.943
0.010	0.000	0.005	0.000	0.063	0.034	0.034	2.695	1.899	1.885	1.885	1.909	1.914	1.938
0.005	-0.010	0.005	-0.005	0.039	0.063	0.034	2.686	1.895	1.885	1.885	1.904	1.904	1.934
0.000	-0.088	0.010	-0.005	0.034	0.068	0.034	2.705	1.895	1.865	1.875	1.904	1.904	1.924
0.000	-0.083	0.000	0.000	0.063	0.073	0.034	2.686	1.899	1.875	1.875	1.899	1.909	1.924
-0.005	-0.034	0.010	-0.005	0.137	0.044	0.034	2.666	1.895	1.895	1.885	1.899	1.924	1.919
0.000	0.020	0.005	-0.005	0.137	0.054	0.029	2.793	1.909	1.909	1.890	1.899	1.914	1.919
0.010	-0.005	0.000	-0.005	0.044	0.029	0.029	2.651	1.904	1.904	1.890	1.899	1.885	1.899
0.010	0.010	-0.005	-0.005	0.000	0.034	0.029	2.642	1.899	1.904	1.895	1.904	1.875	1.895
0.015	0.039	0.005	0.000	-0.020	0.029	0.029	2.656	1.895	1.909	1.899	1.909	1.880	1.890
0.015	0.044	-0.005	0.000	-0.029	0.005	0.029	2.632	1.885	1.909	1.899	1.909	1.880	1.880
0.015	0.088	0.000	0.000	-0.059	0.005	0.029	2.671	1.890	1.909	1.904	1.914	1.880	1.875
0.024	-0.024	0.005	0.000	-0.054	0.000	0.034	2.627	1.875	1.865	1.890	1.909	1.890	1.880
0.010	-0.034	0.000	0.005	-0.049	-0.010	0.034	2.778	1.885	1.875	1.885	1.909	1.895	1.880
0.005	-0.005	0.000	0.005	-0.039	-0.024	0.034	2.627	1.875	1.885	1.885	1.909	1.899	1.885
-0.010	0.059	0.000	0.005	-0.034	-0.029	0.034	2.710	1.890	1.895	1.885	1.909	1.904	1.885
-0.024	0.059	-0.005	-0.005	-0.029	-0.015	0.034	2.754	1.895	1.895	1.885	1.909	1.904	1.895
-0.020	0.015	-0.005	-0.005	-0.034	-0.005	0.029	2.646	1.899	1.880	1.885	1.904	1.904	1.899
-0.010	-0.020	0.000	0.000	-0.015	0.005	0.029	2.710	1.895	1.875	1.880	1.909	1.909	1.909
-0.005	-0.024	0.000	0.005	-0.020	0.044	0.034	2.739	1.909	1.885	1.885	1.904	1.909	1.914
0.000	-0.005	0.005	0.005	-0.015	0.044	0.029	2.686	1.904	1.895	1.885	1.904	1.904	1.914
0.005	0.000	0.010	0.010	-0.024	0.020	0.034	2.739	1.904	1.899	1.890	1.909	1.904	1.904
-0.005	0.000	0.000	0.010	-0.029	0.005	0.034	2.671	1.895	1.895	1.890	1.909	1.899	1.899
0.000	0.000	0.005	0.005	-0.039	-0.005	0.034	2.700	1.895	1.899	1.895	1.904	1.895	1.895
-0.005	0.010	0.005	0.005	-0.039	-0.024	0.029	2.700	1.895	1.895	1.895	1.909	1.899	1.890
-0.010	-0.010	0.005	0.005	-0.024	-0.024	0.034	2.661	1.890	1.890	1.890	1.909	1.904	1.895
0.010	-0.015	-0.005	0.000	-0.010	-0.029	0.034	2.671	1.890	1.885	1.890	1.909	1.904	1.899
0.005	-0.029	0.005	0.000	0.000	-0.049	0.034	2.695	1.895	1.885	1.890	1.904	1.909	1.895
0.000	-0.034	-0.005	0.005	0.015	-0.024	0.034	2.651	1.885	1.885	1.885	1.904	1.909	1.904
0.005	-0.020	0.000	0.000	0.020	-0.005	0.034	2.700	1.890	1.890	1.890	1.904	1.909	1.909
0.015	-0.015	0.010	0.000	0.000	0.010	0.029	2.681	1.890	1.890	1.890	1.904	1.904	1.909
0.000	-0.005	0.010	0.005	-0.005	-0.005	0.034	2.695	1.890	1.895	1.890	1.904	1.899	1.904
0.005	0.024	0.000	0.005	0.000	0.010	0.024	2.705	1.899	1.899	1.890	1.909	1.899	1.904
0.005	0.068	-0.005	0.000	-0.005	0.010	0.029	2.705	1.899	1.914	1.895	1.909	1.904	1.904
-0.010	0.034	-0.005	0.005	0.005	0.029	0.034	2.676	1.890	1.895	1.895	1.909	1.909	1.914
-0.005	0.015	-0.015	0.005	0.024	0.015	0.034	2.681	1.895	1.890	1.890	1.909	1.914	1.909
-0.015	0.015	-0.005	0.000	0.034	0.015	0.034	2.710	1.895	1.890	1.890	1.909	1.914	1.909
-0.015	0.005	0.005	0.005	0.039	0.005	0.029	2.666	1.890	1.885	1.890	1.909	1.914	1.909
0.005	-0.015	0.000	0.000	0.034	0.000	0.034	2.676	1.895	1.885	1.890	1.909	1.909	1.904
0.010	-0.005	0.000	0.005	0.029	-0.010	0.034	2.681	1.904	1.895	1.885	1.909	1.904	1.899
0.020	0.005	-0.005	0.005	0.010	0.005	0.034	2.695	1.904	1.895	1.890	1.909	1.899	1.904
0.010	-0.024	0.005	0.005	0.000	0.010	0.034	2.700	1.899	1.890	1.890	1.909	1.899	1.904
0.005	-0.020	0.000	0.000	-0.005	0.015	0.034	2.676	1.895	1.895	1.890	1.904	1.899	1.904
0.005	-0.034	0.005	0.000	-0.020	0.005	0.029	2.681	1.890	1.890	1.890	1.904	1.895	1.895
-0.010	-0.024	0.005	-0.005	-0.024	0.015	0.034	2.686	1.890	1.885	1.885	1.904	1.895	1.899
0.010	-0.054	0.005	-0.015	-0.015	0.015	0.029	2.661	1.890	1.880	1.885	1.899	1.895	1.895
0.000	-0.044	0.005	-0.015	-0.010	0.010	0.029	2.798	1.899	1.890	1.885	1.899	1.899	1.895
0.015	0.024	0.005	-0.015	-0.005	0.000	0.034	2.651	1.899	1.909	1.890	1.904	1.899	1.895
0.015	-0.029	0.000	-0.005	-0.005	0.020	0.029	2.651	1.895	1.885	1.890	1.909	1.899	1.904
0.015	-0.010	0.010	0.010	0.000	0.024	0.034	2.744	1.904	1.899	1.895	1.914	1.909	1.909
-0.005	0.029	0.010	0.010	-0.015	0.044	0.034	2.646	1.895	1.909	1.895	1.914	1.899	1.909
-0.015	0.015	0.010	0.015	-0.039	0.029	0.034	2.671	1.890	1.899	1.895	1.914	1.899	1.904
-0.005	0.015	-0.005	0.015	-0.059	0.010	0.034	2.627	1.885	1.895	1.895	1.914	1.895	1.895
-0.010	0.044	-0.005	0.010	-0.059	-0.029	0.034	2.788	1.899	1.899	1.895	1.909	1.899	1.885
0.000	0.020	-0.005	0.010	-0.049	-0.015	0.029	2.622	1.895	1.890	1.890	1.909	1.904	1.895
0.015	-0.010	-0.005	0.005	-0.063	-0.005	0.034	2.734	1.890	1.885	1.890	1.909	1.899	1.895
0.005	-0.039	-0.010	0.020	-0.049	-0.029	0.034	2.749	1.895	1.875	1.880	1.909	1.904	1.895
0.010	-0.005	0.000	0.020	-0.034	-0.034	0.029	2.754	1.904	1.899	1.885	1.909	1.909	1.895
-0.005	0.044	0.000	0.015	-0.015	-0.044	0.029	2.705	1.895	1.904	1.890	1.904	1.914	1.899
-0.010	0.029	0.000	0.000	0.029	-0.049	0.034	2.759	1.904	1.904	1.890	1.909	1.919	1.899
-0.005	0.005	-0.005	-0.010	0.044	-0.029	0.034	2.656	1.895	1.890	1.890	1.904	1.919	1.914
-0.005	-0.010	-0.005	-0.015	0.073	-0.010	0.029	2.661	1.890	1.890	1.885	1.904	1.924	1.919
-0.010	-0.010	0.000	-0.010	0.059	0.000	0.034	2.671	1.885	1.890	1.890	1.904	1.909	1.924
-0.005	0.020	0.000	-0.010	0.044	0.010	0.034	2.676	1.890	1.895	1.890	1.904	1.904	1.919
0.000	-0.005	0.000	0.000	0.049	0.005	0.034	2.676	1.899	1.890	1.890	1.914	1.909	1.914
0.015	-0.015	0.005	0.005	0.068	0.015	0.034	2.676	1.899	1.890	1.890	1.914	1.914	1.919
0.020	-0.020	0.005	0.010	0.107	0.015	0.034	2.676	1.899	1.890	1.890	1.914	1.924	1.919
0.005	0.049	0.015	0.015	0.112	0.029	0.029	2.700	1.899	1.914	1.899	1.914	1.924	1.924
-0.005	0.054	0.000	0.010	0.088	0.020	0.029	2.671	1.895	1.909	1.899	1.914	1.909	1.919
0.000	0.039	0.010	0.020	0.059	0.029	0.034	2.705	1.899	1.904	1.899	1.919	1.904	1.914
-0.015	0.024	0.010	0.015	0.020	0.024	0.034	2.671	1.890	1.895	1.895	1.914	1.899	1.909
-0.005	0.015	0.000	0.010	-0.020	0.034	0.034	2.671	1.890	1.890	1.895	1.909	1.885	1.904
-0.010	-0.005	0.000	-0.005	-0.034	0.029	0.034	2.676	1.890	1.885	1.890	1.904	1.890	1.895
-0.010	-0.005	0.000	-0.010	-0.068	0.020	0.034	2.695	1.890	1.885	1.885	1.904	1.880	1.890
0.000	0.015	-0.005	-0.015	-0.068	0.024	0.029	2.700	1.895	1.890	1.885	1.904	1.885	1.890
0.005	0.010	0.000	0.000	-0.039	0.010	0.034	2.656	1.890	1.890	1.885	1.904	1.899	1.890
-0.010	-0.044	0.000	-0.010	-0.049	0.005	0.034	2.695	1.885	1.870	1.880	1.899	1.895	1.890
-0.005	-0.029	0.000	-0.005	-0.029	-0.034	0.029	2.681	1.890	1.880	1.880	1.899	1.899	1.880
-0.005	0.020	0.005	0.000	-0.015	-0.039	0.034	2.690	1.890	1.899	1.885	1.904	1.904	1.885
-0.005	0.000	0.005	0.005	-0.024	-0.054	0.034	2.676	1.895	1.890	1.885	1.904	1.899	1.880
0.010	0.020	0.000	0.000	0.000	-0.063	0.034	2.671	1.895	1.895	1.885	1.904	1.909	1.890
0.000	0.015	0.010	0.005	0.015	-0.039	0.034	2.710	1.895	1.895	1.890	1.909	1.909	1.899
0.005	0.005	0.010	0.005	0.020	-0.029	0.029	2.676	1.890	1.895	1.895	1.909	1.909	1.909
0.015	-0.020	0.005	0.005	0.034	-0.005	0.034	2.705	1.895	1.880	1.885	1.909	1.914	1.914
0.010	-0.063	0.000	0.010	0.059	-0.005	0.034	2.681	1.895	1.880	1.885	1.904	1.919	1.919
0.015	-0.024	0.005	0.005	0.078	0.010	0.034	2.671	1.895	1.890	1.885	1.909	1.919	1.924
0.010	-0.010	0.005	0.010	0.078	0.005	0.034	2.798	1.904	1.899	1.890	1.909	1.914	1.919
0.010	0.010	0.000	0.005	0.078	-0.020	0.034	2.656	1.899	1.904	1.890	1.904	1.909	1.909
0.010	0.020	0.000	0.000	0.054	0.015	0.029	2.637	1.895	1.909	1.895	1.904	1.899	1.914
0.000	-0.020	-0.005	-0.015	0.015	0.024	0.029	2.651	1.885	1.885	1.890	1.904	1.890	1.909
-0.010	-0.029	-0.005	0.000	-0.010	0.034	0.034	2.710	1.885	1.885	1.885	1.904	1.890	1.904
-0.005	0.005	-0.015	0.029	-0.039	0.015	0.034	2.686	1.890	1.895	1.890	1.914	1.885	1.895
-0.010	0.029	-0.015	0.015	-0.068	0.034	0.034	2.725	1.885	1.899	1.890	1.909	1.880	1.895
-0.005	0.010	-0.005	-0.020	-0.078	0.034	0.034	2.778	1.899	1.890	1.890	1.895	1.880	1.890
-0.005	0.000	0.000	-0.063	-0.063	0.005	0.029	2.612	1.885	1.885	1.885	1.885	1.885	1.885
0.000	-0.005	0.000	-0.083	-0.020	0.015	0.034	2.744	1.895	1.885	1.890	1.890	1.895	1.895
0.010	0.010	0.000	-0.078	0.063	0.015	0.034	2.734	1.899	1.895	1.890	1.895	1.919	1.899
0.010	0.010	0.005	-0.054	0.103	0.010	0.034	2.656	1.895	1.895	1.890	1.909	1.924	1.904
0.015	0.049	0.010	0.000	0.049	0.000	0.029	2.710	1.895	1.904	1.899	1.924	1.904	1.899
-0.015	0.044	0.015	0.034	0.029	-0.024	0.034	2.754	1.899	1.899	1.899	1.934	1.909	1.895
-0.020	0.039	0.010	0.059	0.039	-0.054	0.029	2.656	1.895	1.899	1.899	1.934	1.914	1.890
0.000	0.015	0.000	0.063	0.034	-0.073	0.034	2.744	1.904	1.890	1.895	1.929	1.914	1.895
0.000	-0.020	-0.010	0.068	0.010	-0.068	0.034	2.700	1.899	1.885	1.890	1.924	1.909	1.899
0.000	-0.039	0.000	0.054	-0.020	-0.054	0.034	2.676	1.895	1.880	1.885	1.914	1.904	1.909
0.010	-0.024	0.010	0.015	-0.044	-0.010	0.034	2.671	1.895	1.890	1.890	1.899	1.895	1.914
0.010	0.005	0.005	0.005	-0.054	0.020	0.034	2.681	1.895	1.895	1.890	1.899	1.895	1.914
0.005	-0.015	0.010	-0.005	-0.088	0.020	0.034	2.686	1.890	1.890	1.890	1.895	1.885	1.909
0.000	0.005	0.005	0.000	-0.107	0.000	0.034	2.695	1.895	1.895	1.890	1.904	1.880	1.890
0.000	0.010	0.000	-0.010	-0.112	-0.010	0.034	2.666	1.890	1.895	1.890	1.899	1.885	1.890
-0.005	0.015	0.005	-0.015	-0.117	0.015	0.034	2.690	1.885	1.890	1.890	1.899	1.885	1.895
0.005	0.005	0.000	-0.005	-0.093	0.020	0.034	2.676	1.885	1.885	1.890	1.909	1.895	1.899
0.000	0.000	0.000	0.000	-0.068	0.034	0.029	2.705	1.890	1.885	1.885	1.909	1.904	1.899
0.005	-0.010	0.000	0.000	-0.049	0.010	0.034	2.705	1.895	1.885	1.885	1.904	1.909	1.899
0.005	0.000	0.000	-0.010	0.005	0.034	0.034	2.705	1.899	1.890	1.885	1.904	1.924	1.909
-0.005	0.015	0.000	-0.005	0.083	0.015	0.034	2.681	1.890	1.895	1.890	1.909	1.938	1.914
-0.010	0.020	0.000	-0.005	0.088	0.005	0.034	2.671	1.890	1.895	1.890	1.909	1.929	1.914
-0.005	0.024	0.010	0.000	0.078	0.024	0.034	2.681	1.895	1.899	1.895	1.909	1.924	1.924
0.005	0.005	0.010	0.005	0.049	0.005	0.034	2.681	1.899	1.890	1.890	1.909	1.909	1.914
0.020	-0.020	0.000	-0.005	0.029	0.005	0.029	2.671	1.895	1.885	1.890	1.904	1.899	1.909
0.000	-0.024	-0.005	-0.005	-0.010	0.005	0.034	2.681	1.895	1.880	1.885	1.904	1.890	1.904
0.000	-0.015	0.010	0.005	-0.034	0.010	0.029	2.695	1.895	1.890	1.890	1.904	1.890	1.899
0.000	-0.039	0.000	0.005	-0.044	-0.005	0.034	2.695	1.890	1.885	1.885	1.904	1.890	1.895
0.000	-0.020	0.000	0.024	-0.049	0.000	0.029	2.671	1.890	1.890	1.885	1.914	1.895	1.890
-0.005	-0.034	0.010	0.044	-0.010	0.000	0.034	2.695	1.890	1.885	1.890	1.914	1.909	1.899
-0.015	-0.015	0.000	0.010	0.020	-0.015	0.034	2.671	1.885	1.890	1.885	1.899	1.909	1.895
-0.005	-0.020	0.000	-0.039	0.039	-0.005	0.034	2.666	1.890	1.885	1.880	1.890	1.909	1.904
-0.010	-0.024	0.000	-0.059	0.039	0.005	0.034	2.783	1.895	1.890	1.880	1.885	1.904	1.909
0.005	0.059	-0.005	-0.059	0.024	-0.005	0.029	2.646	1.899	1.914	1.890	1.890	1.890	1.899
0.000	0.029	-0.005	-0.029	0.005	0.020	0.034	2.642	1.890	1.899	1.890	1.904	1.890	1.904
0.010	-0.005	-0.005	-0.010	0.000	0.010	0.029	2.632	1.885	1.885	1.890	1.909	1.895	1.899
0.000	0.015	0.000	0.010	0.010	-0.015	0.034	2.627	1.880	1.890	1.895	1.914	1.899	1.895
0.005	0.020	0.000	0.000	0.015	0.000	0.034	2.695	1.885	1.885	1.890	1.909	1.904	1.899
0.010	0.015	0.000	0.010	0.010	0.000	0.034	2.646	1.885	1.885	1.890	1.914	1.904	1.899
0.010	-0.005	0.010	0.020	0.000	-0.010	0.034	2.808	1.899	1.885	1.890	1.914	1.899	1.895
0.000	-0.005	0.010	0.049	0.015	-0.020	0.034	2.632	1.885	1.885	1.890	1.924	1.909	1.899
0.000	0.000	0.005	0.049	0.024	-0.005	0.034	2.759	1.899	1.885	1.885	1.919	1.914	1.909
-0.005	0.029	0.005	0.029	0.024	-0.005	0.034	2.734	1.904	1.899	1.890	1.909	1.914	1.909
0.020	0.010	0.005	0.010	0.024	0.005	0.034	2.744	1.909	1.899	1.890	1.904	1.909	1.909
0.010	0.010	0.000	0.010	0.024	0.005	0.034	2.700	1.899	1.895	1.890	1.904	1.904	1.909
0.000	0.010	0.000	-0.005	0.010	0.000	0.034	2.744	1.904	1.899	1.895	1.904	1.899	1.904
-0.005	0.010	0.000	0.000	0.015	0.000	0.029	2.646	1.895	1.895	1.890	1.904	1.899	1.904
-0.015	-0.005	0.000	-0.010	0.015	0.015	0.034	2.710	1.890	1.890	1.890	1.904	1.904	1.904
0.000	0.005	0.000	-0.015	0.015	-0.015	0.034	2.700	1.899	1.895	1.890	1.904	1.899	1.895
0.000	0.020	0.005	-0.024	0.024	0.020	0.034	2.676	1.899	1.895	1.890	1.904	1.899	1.904
-0.005	-0.010	0.000	-0.010	0.020	0.010	0.034	2.686	1.895	1.885	1.890	1.909	1.899	1.904
-0.005	0.010	0.000	0.000	0.010	0.010	0.029	2.676	1.895	1.890	1.890	1.909	1.899	1.904
0.005	0.024	-0.005	0.000	0.010	0.000	0.034	2.695	1.895	1.899	1.890	1.909	1.899	1.899
-0.005	0.015	-0.010	0.010	0.010	0.015	0.034	2.700	1.895	1.890	1.890	1.914	1.904	1.904
-0.015	-0.039	-0.005	0.000	0.020	-0.005	0.034	2.686	1.890	1.875	1.885	1.909	1.904	1.899
0.005	-0.049	0.000	-0.010	0.010	0.000	0.034	2.710	1.899	1.880	1.885	1.904	1.899	1.899
0.005	-0.073	0.000	-0.024	0.015	0.010	0.034	2.676	1.890	1.875	1.880	1.899	1.899	1.899
0.000	-0.078	-0.005	-0.015	0.010	0.005	0.029	2.681	1.890	1.880	1.880	1.904	1.899	1.899
-0.020	-0.020	0.000	0.005	0.010	0.015	0.029	2.710	1.890	1.895	1.885	1.909	1.904	1.904
-0.005	0.127	0.000	0.010	0.010	0.010	0.034	2.705	1.904	1.943	1.904	1.914	1.904	1.899
0.010	0.161	0.005	0.010	-0.015	0.015	0.034	2.690	1.904	1.929	1.914	1.914	1.899	1.904
0.020	-0.063	0.005	0.005	-0.020	0.020	0.029	2.681	1.895	1.860	1.895	1.914	1.899	1.899
0.005	-0.088	0.000	0.024	-0.010	-0.005	0.034	2.705	1.895	1.865	1.885	1.919	1.904	1.895
0.010	0.010	0.005	0.044	-0.005	0.010	0.034	2.681	1.895	1.899	1.890	1.919	1.909	1.904
0.010	-0.024	-0.005	0.034	0.005	0.029	0.029	2.681	1.890	1.885	1.885	1.914	1.914	1.914
-0.010	0.024	-0.005	0.020	0.010	0.039	0.034	2.676	1.890	1.899	1.890	1.909	1.909	1.914
-0.010	0.000	0.000	0.010	-0.005	0.024	0.034	2.705	1.890	1.890	1.890	1.904	1.904	1.904
-0.010	0.049	-0.005	0.020	-0.005	0.029	0.029	2.705	1.890	1.899	1.890	1.909	1.904	1.904
-0.005	0.034	-0.005	0.000	0.000	0.000	0.029	2.681	1.890	1.890	1.890	1.904	1.904	1.895
0.000	-0.015	0.000	-0.024	0.005	-0.005	0.034	2.695	1.895	1.880	1.885	1.895	1.899	1.895
0.005	0.000	0.005	-0.044	0.010	-0.044	0.029	2.695	1.899	1.890	1.885	1.895	1.895	1.885
0.010	0.020	0.005	-0.049	0.020	-0.059	0.029	2.671	1.895	1.899	1.890	1.895	1.899	1.885
0.005	0.034	0.005	-0.039	0.034	-0.088	0.034	2.788	1.899	1.899	1.890	1.904	1.904	1.885
0.000	0.059	0.005	-0.005	0.034	-0.068	0.034	2.661	1.895	1.904	1.899	1.914	1.904	1.895
0.000	0.010	0.010	0.015	0.034	-0.054	0.029	2.651	1.890	1.885	1.895	1.924	1.909	1.899
-0.005	-0.005	0.000	0.010	0.034	-0.024	0.034	2.656	1.880	1.880	1.890	1.914	1.914	1.914
-0.005	-0.020	0.005	0.015	0.034	0.015	0.034	2.734	1.895	1.880	1.885	1.914	1.914	1.924
0.000	-0.029	0.005	0.034	0.054	0.024	0.034	2.671	1.895	1.880	1.885	1.919	1.919	1.924
-0.015	-0.020	0.005	0.029	0.054	0.029	0.029	2.729	1.895	1.890	1.885	1.909	1.914	1.924
0.005	-0.024	0.005	0.020	0.039	0.010	0.034	2.646	1.909	1.890	1.885	1.904	1.909	1.914
0.015	0.103	-0.005	0.005	0.029	0.044	0.029	2.729	1.919	1.938	1.899	1.904	1.904	1.919
0.005	0.103	-0.005	0.000	0.015	0.039	0.034	2.656	1.904	1.924	1.904	1.909	1.899	1.909
0.005	-0.068	-0.010	0.005	0.005	0.029	0.034	2.617	1.880	1.865	1.890	1.909	1.899	1.904
0.000	-0.107	-0.005	-0.005	0.000	0.020	0.034	2.744	1.890	1.860	1.880	1.899	1.895	1.899
0.005	-0.059	-0.005	-0.020	-0.015	0.029	0.034	2.749	1.899	1.885	1.885	1.895	1.885	1.899
0.010	-0.098	0.000	0.005	-0.039	0.049	0.034	2.651	1.895	1.875	1.880	1.904	1.885	1.899
0.020	-0.103	0.000	0.063	-0.044	0.049	0.034	2.681	1.895	1.880	1.880	1.919	1.895	1.895
0.029	0.054	0.000	0.039	-0.049	0.034	0.034	2.739	1.909	1.934	1.895	1.909	1.899	1.890
0.024	0.127	0.005	-0.005	-0.044	0.015	0.029	2.705	1.909	1.943	1.909	1.904	1.895	1.885
0.015	0.054	0.005	-0.024	-0.034	0.010	0.034	2.686	1.895	1.909	1.909	1.899	1.899	1.890
0.005	-0.049	0.010	-0.039	-0.044	-0.015	0.034	2.676	1.885	1.875	1.895	1.904	1.895	1.885
0.005	-0.029	0.010	-0.024	-0.059	-0.034	0.034	2.695	1.890	1.880	1.895	1.909	1.895	1.885
0.010	0.000	0.015	-0.024	-0.059	-0.034	0.034	2.695	1.890	1.895	1.895	1.909	1.899	1.885
-0.063	0.015	0.015	-0.024	-0.068	-0.049	0.034	2.695	1.870	1.890	1.890	1.909	1.895	1.880
-0.117	0.020	0.010	-0.005	-0.034	-0.068	0.034	2.671	1.860	1.880	1.885	1.914	1.909	1.890
-0.098	0.005	0.000	0.010	-0.010	-0.059	0.034	2.690	1.870	1.875	1.880	1.914	1.914	1.899
-0.054	0.010	0.005	0.015	-0.020	-0.059	0.034	2.690	1.890	1.880	1.880	1.909	1.909	1.899
-0.005	0.005	0.005	0.010	0.000	-0.034	0.034	2.695	1.904	1.885	1.880	1.904	1.914	1.914
0.059	-0.010	0.000	0.010	0.010	-0.010	0.034	2.676	1.919	1.890	1.880	1.904	1.914	1.919
0.117	0.024	-0.005	0.020	0.000	0.034	0.034	2.695	1.929	1.909	1.890	1.904	1.909	1.929
0.132	0.015	-0.005	0.020	-0.005	0.044	0.034	2.681	1.924	1.914	1.895	1.909	1.909	1.929
0.112	0.015	-0.005	0.010	-0.024	0.049	0.034	2.695	1.914	1.909	1.899	1.904	1.899	1.919
0.078	0.005	0.000	0.000	-0.005	0.054	0.034	2.700	1.899	1.904	1.899	1.909	1.909	1.919
0.054	-0.010	-0.005	0.020	0.049	0.044	0.034	2.700	1.895	1.895	1.899	1.919	1.924	1.919
0.020	-0.005	0.000	0.005	0.068	0.044	0.034	2.681	1.885	1.890	1.899	1.914	1.924	1.919
-0.015	-0.010	0.005	-0.005	0.039	0.034	0.034	2.676	1.875	1.885	1.890	1.909	1.909	1.914
-0.039	0.005	0.000	-0.005	-0.005	0.034	0.034	2.690	1.880	1.890	1.890	1.909	1.895	1.909
-0.049	0.010	-0.005	-0.005	0.000	0.024	0.029	2.681	1.875	1.885	1.890	1.909	1.899	1.904
-0.054	0.020	0.000	-0.005	-0.010	0.020	0.034	2.676	1.880	1.885	1.885	1.904	1.899	1.899
-0.044	0.000	-0.005	0.000	0.000	0.015	0.029	2.690	1.885	1.880	1.885	1.904	1.904	1.899
-0.029	-0.024	0.005	-0.005	0.015	0.020	0.029	2.686	1.890	1.875	1.880	1.904	1.904	1.904
-0.024	-0.010	0.000	-0.015	0.039	0.000	0.034	2.661	1.890	1.885	1.880	1.899	1.909	1.899
-0.034	-0.005	-0.005	-0.010	0.039	0.010	0.034	2.793	1.899	1.885	1.880	1.899	1.904	1.899
-0.034	0.005	0.000	-0.020	0.024	0.010	0.034	2.651	1.890	1.890	1.885	1.899	1.895	1.899
-0.034	0.024	-0.005	-0.005	0.010	-0.005	0.034	2.646	1.890	1.895	1.885	1.904	1.895	1.895
-0.005	0.010	0.000	-0.005	0.000	0.000	0.034	2.651	1.895	1.890	1.885	1.904	1.890	1.895
0.005	-0.010	0.000	0.010	-0.020	0.005	0.034	2.710	1.895	1.885	1.885	1.909	1.890	1.895
0.015	-0.015	-0.005	0.029	-0.020	0.000	0.034	2.686	1.899	1.890	1.885	1.909	1.895	1.895
0.010	-0.005	-0.010	0.020	-0.034	-0.010	0.034	2.715	1.899	1.890	1.885	1.904	1.895	1.890
0.015	0.005	-0.005	0.010	-0.049	0.000	0.029	2.671	1.899	1.895	1.890	1.904	1.890	1.890
0.015	0.000	0.000	0.000	-0.054	0.005	0.034	2.637	1.885	1.890	1.890	1.904	1.890	1.890
0.010	0.020	0.015	-0.005	-0.044	0.000	0.034	2.651	1.885	1.895	1.895	1.904	1.895	1.890
0.010	0.005	0.010	0.005	-0.044	-0.024	0.034	2.754	1.895	1.890	1.890	1.909	1.895	1.890
0.015	0.005	0.005	0.015	-0.029	-0.034	0.034	2.734	1.890	1.890	1.890	1.909	1.904	1.885
0.015	-0.005	0.010	0.015	-0.020	-0.034	0.034	2.754	1.890	1.890	1.890	1.909	1.909	1.890
0.005	-0.010	0.005	0.020	-0.010	-0.029	0.034	2.744	1.899	1.890	1.890	1.909	1.909	1.899
0.005	-0.020	0.000	0.015	-0.010	-0.034	0.034	2.656	1.890	1.885	1.885	1.904	1.904	1.899
0.020	-0.020	0.000	0.005	-0.039	-0.044	0.034	2.715	1.899	1.885	1.885	1.899	1.895	1.899
0.029	-0.010	0.005	-0.005	-0.010	0.000	0.029	2.671	1.895	1.890	1.885	1.899	1.909	1.909
-0.005	-0.005	0.000	-0.005	0.010	0.005	0.034	2.671	1.885	1.890	1.885	1.904	1.909	1.914
-0.024	-0.010	0.000	-0.010	0.010	-0.010	0.034	2.661	1.880	1.885	1.885	1.899	1.899	1.904
-0.024	0.000	0.000	-0.015	-0.005	0.000	0.034	2.710	1.885	1.885	1.885	1.899	1.899	1.904
-0.024	0.020	0.000	-0.005	0.005	-0.005	0.034	2.676	1.885	1.890	1.885	1.904	1.899	1.904
-0.010	0.010	0.000	-0.005	-0.005	0.010	0.034	2.700	1.890	1.890	1.885	1.904	1.895	1.904
0.005	0.015	0.005	0.015	-0.015	0.020	0.034	2.671	1.895	1.890	1.885	1.909	1.899	1.904
0.024	0.015	0.000	0.020	-0.010	0.015	0.034	2.710	1.904	1.895	1.890	1.909	1.899	1.904
0.029	0.020	0.000	0.010	-0.005	0.029	0.034	2.671	1.899	1.895	1.890	1.904	1.904	1.904
0.024	0.024	0.010	0.024	0.005	0.015	0.034	2.671	1.895	1.895	1.890	1.914	1.909	1.904
0.024	0.015	0.000	0.034	0.015	0.015	0.034	2.661	1.890	1.890	1.895	1.914	1.909	1.909
0.015	-0.005	0.005	0.010	0.044	0.015	0.034	2.700	1.890	1.885	1.890	1.909	1.914	1.909
0.015	-0.010	0.010	-0.010	0.059	0.020	0.034	2.676	1.890	1.885	1.885	1.899	1.914	1.909
0.000	0.000	0.005	-0.005	0.068	0.015	0.029	2.681	1.890	1.885	1.885	1.904	1.914	1.909
-0.015	-0.010	0.000	0.000	0.044	0.005	0.034	2.690	1.890	1.880	1.880	1.904	1.904	1.904
-0.015	-0.015	0.000	0.034	0.024	-0.010	0.034	2.671	1.885	1.885	1.885	1.914	1.899	1.904
-0.005	-0.015	0.005	0.029	0.015	-0.005	0.029	2.681	1.890	1.880	1.885	1.909	1.899	1.904
-0.020	-0.015	0.005	0.000	0.005	0.010	0.034	2.666	1.885	1.885	1.885	1.895	1.895	1.899
-0.010	0.000	0.005	-0.029	0.000	0.000	0.029	2.700	1.895	1.885	1.880	1.890	1.890	1.895
-0.005	-0.005	0.000	-0.054	0.010	0.000	0.034	2.705	1.895	1.885	1.880	1.885	1.890	1.895
0.005	-0.005	-0.005	-0.054	0.015	0.000	0.034	2.666	1.890	1.890	1.880	1.890	1.890	1.890
0.005	-0.005	0.000	-0.020	0.015	0.000	0.034	2.705	1.895	1.890	1.885	1.904	1.890	1.890
0.010	0.005	-0.005	0.005	0.010	0.005	0.034	2.676	1.890	1.895	1.885	1.909	1.895	1.895
0.005	0.000	0.000	-0.005	0.010	0.000	0.034	2.666	1.890	1.890	1.885	1.909	1.899	1.890
0.015	-0.005	0.000	0.024	0.024	-0.015	0.034	2.788	1.899	1.890	1.890	1.914	1.904	1.890
0.010	0.005	0.000	0.020	0.020	-0.010	0.034	2.651	1.890	1.895	1.890	1.909	1.904	1.899
0.000	0.024	0.000	0.005	0.024	-0.010	0.029	2.646	1.890	1.895	1.890	1.904	1.904	1.899
-0.005	0.020	0.005	-0.010	0.034	0.015	0.029	2.656	1.885	1.890	1.890	1.904	1.904	1.904
0.000	0.024	0.000	-0.005	0.034	0.000	0.034	2.725	1.890	1.890	1.890	1.904	1.904	1.899
-0.005	0.000	-0.005	0.000	0.034	0.000	0.034	2.661	1.885	1.885	1.890	1.909	1.904	1.899
-0.015	0.000	0.005	0.000	0.015	0.000	0.029	2.632	1.880	1.880	1.885	1.909	1.899	1.904
-0.010	0.000	0.005	0.005	0.000	-0.005	0.029	2.798	1.895	1.885	1.885	1.909	1.899	1.899
-0.010	0.000	0.005	0.015	0.000	0.000	0.034	2.627	1.885	1.885	1.885	1.909	1.899	1.899
-0.005	-0.015	0.000	0.010	0.005	0.005	0.034	2.661	1.885	1.880	1.880	1.904	1.899	1.904
0.000	-0.010	0.000	0.015	-0.005	0.005	0.034	2.759	1.895	1.885	1.880	1.904	1.899	1.899
0.010	-0.005	-0.010	0.015	-0.020	0.000	0.034	2.651	1.895	1.885	1.880	1.904	1.895	1.895
0.000	-0.005	-0.005	0.010	-0.015	0.010	0.034	2.715	1.895	1.885	1.880	1.899	1.895	1.899
-0.005	-0.005	-0.010	0.005	0.005	0.005	0.034	2.710	1.890	1.885	1.880	1.899	1.899	1.899
0.000	-0.010	-0.005	-0.005	0.010	0.005	0.034	2.676	1.895	1.890	1.885	1.895	1.899	1.895
0.010	-0.010	0.000	-0.010	0.005	0.005	0.029	2.656	1.890	1.885	1.885	1.899	1.895	1.899
0.005	0.005	0.005	-0.005	0.010	0.000	0.034	2.671	1.885	1.890	1.885	1.899	1.899	1.895
0.010	0.039	0.000	-0.010	0.010	-0.010	0.029	2.671	1.885	1.899	1.890	1.899	1.899	1.895
-0.005	0.029	0.000	0.000	0.005	-0.005	0.034	2.681	1.885	1.890	1.890	1.904	1.895	1.895
-0.005	0.029	0.020	0.015	0.000	0.010	0.034	2.671	1.885	1.890	1.895	1.909	1.899	1.899
-0.005	0.029	0.020	0.020	0.000	-0.005	0.034	2.700	1.885	1.885	1.895	1.914	1.899	1.899
0.005	0.015	0.015	0.005	0.010	-0.010	0.034	2.695	1.890	1.885	1.890	1.909	1.904	1.899
-0.005	0.005	0.010	-0.005	0.005	0.000	0.034	2.681	1.890	1.880	1.885	1.904	1.904	1.904
0.005	-0.039	0.000	0.000	0.005	-0.010	0.034	2.690	1.890	1.870	1.875	1.899	1.904	1.899
0.000	-0.063	0.000	0.000	0.010	0.000	0.034	2.690	1.890	1.865	1.875	1.899	1.899	1.899
-0.010	-0.059	0.000	0.015	0.000	0.000	0.029	2.671	1.890	1.875	1.875	1.899	1.895	1.899
0.010	-0.010	0.005	0.034	-0.005	-0.005	0.034	2.700	1.890	1.895	1.880	1.904	1.899	1.899
0.005	0.010	0.000	0.020	0.005	-0.005	0.034	2.700	1.895	1.899	1.885	1.899	1.899	1.899
0.015	0.024	-0.005	0.005	-0.005	0.000	0.034	2.700	1.895	1.899	1.885	1.895	1.895	1.899
0.029	0.015	-0.005	-0.005	-0.010	0.015	0.034	2.671	1.899	1.899	1.890	1.895	1.895	1.895
0.024	0.015	-0.005	-0.020	-0.005	0.024	0.034	2.676	1.890	1.890	1.885	1.890	1.895	1.899
0.015	-0.049	0.000	-0.024	-0.020	0.005	0.029	2.676	1.885	1.875	1.885	1.895	1.885	1.890
0.000	0.000	-0.005	-0.020	-0.015	-0.010	0.029	2.686	1.880	1.890	1.885	1.899	1.890	1.885
0.005	0.020	-0.005	-0.005	-0.005	-0.015	0.034	2.671	1.885	1.895	1.885	1.904	1.895	1.890
-0.005	0.010	-0.010	0.000	-0.005	-0.024	0.034	2.705	1.885	1.885	1.885	1.904	1.899	1.890
0.000	0.000	-0.005	0.000	-0.015	-0.020	0.034	2.695	1.885	1.885	1.885	1.904	1.895	1.890
-0.005	0.010	0.000	0.000	-0.029	-0.024	0.034	2.676	1.880	1.885	1.890	1.909	1.890	1.890
0.000	0.005	0.010	0.010	-0.029	0.015	0.034	2.705	1.890	1.885	1.890	1.909	1.899	1.904
0.005	0.005	0.010	0.010	-0.024	0.000	0.034	2.686	1.890	1.890	1.890	1.909	1.899	1.899
-0.010	0.010	0.010	0.000	-0.005	0.015	0.034	2.666	1.885	1.885	1.890	1.904	1.904	1.904
0.000	0.000	0.010	0.000	0.010	0.015	0.034	2.793	1.899	1.885	1.885	1.904	1.909	1.909
0.000	0.010	0.005	0.000	0.015	0.015	0.034	2.656	1.895	1.890	1.885	1.904	1.909	1.909
0.000	0.020	0.005	-0.005	0.024	0.024	0.034	2.646	1.890	1.895	1.885	1.904	1.909	1.909
-0.010	0.024	-0.005	-0.005	0.039	0.010	0.034	2.651	1.899	1.895	1.885	1.904	1.909	1.904
-0.005	0.024	-0.010	0.010	0.029	-0.020	0.034	2.637	1.895	1.895	1.885	1.909	1.904	1.895
-0.010	0.010	-0.005	0.010	0.034	0.010	0.034	2.671	1.885	1.890	1.890	1.904	1.904	1.909
-0.010	-0.010	-0.010	-0.005	0.024	0.005	0.034	2.710	1.875	1.880	1.880	1.899	1.899	1.904
-0.005	-0.015	-0.010	-0.005	0.024	0.005	0.034	2.666	1.875	1.875	1.875	1.899	1.895	1.899
-0.005	-0.010	-0.010	0.015	0.024	0.000	0.034	2.627	1.880	1.875	1.880	1.904	1.899	1.895
-0.005	-0.005	-0.005	0.029	0.020	-0.020	0.029	2.646	1.875	1.880	1.880	1.904	1.895	1.895
0.000	0.010	-0.005	0.029	0.024	-0.010	0.034	2.734	1.890	1.885	1.880	1.904	1.899	1.895
0.015	0.015	0.000	0.020	0.010	-0.010	0.034	2.671	1.890	1.890	1.880	1.899	1.895	1.895
0.015	0.024	0.000	0.010	-0.005	0.015	0.029	2.744	1.895	1.890	1.885	1.899	1.890	1.904
-0.005	0.010	0.000	-0.020	-0.015	0.015	0.034	2.729	1.895	1.890	1.885	1.890	1.885	1.899
-0.010	-0.015	0.020	-0.034	-0.010	0.024	0.034	2.671	1.890	1.880	1.885	1.895	1.890	1.895
-0.005	-0.015	0.020	-0.020	-0.005	0.024	0.034	2.744	1.895	1.885	1.890	1.899	1.890	1.899
0.000	-0.020	0.020	-0.020	0.000	0.029	0.034	2.690	1.895	1.885	1.890	1.899	1.895	1.899
0.005	-0.010	0.010	-0.010	-0.005	0.034	0.029	2.695	1.899	1.890	1.885	1.904	1.895	1.899
-0.005	-0.010	0.010	-0.010	-0.020	0.024	0.034	2.676	1.890	1.890	1.885	1.899	1.890	1.890
-0.005	-0.005	0.000	-0.005	-0.010	0.020	0.034	2.690	1.890	1.890	1.885	1.904	1.895	1.895
0.000	0.005	0.005	0.015	-0.005	0.015	0.034	2.695	1.895	1.895	1.885	1.914	1.899	1.895
0.010	-0.005	0.000	0.059	-0.005	-0.020	0.034	2.681	1.890	1.890	1.890	1.919	1.904	1.885
0.024	-0.015	0.005	0.049	-0.010	-0.054	0.034	2.705	1.899	1.885	1.890	1.914	1.899	1.880
0.024	-0.024	0.005	0.015	0.005	-0.039	0.034	2.700	1.895	1.885	1.885	1.899	1.904	1.890
0.024	-0.029	0.010	-0.005	0.005	-0.029	0.029	2.705	1.885	1.885	1.885	1.895	1.899	1.895
0.020	-0.005	0.000	0.015	-0.010	-0.029	0.034	2.656	1.890	1.890	1.885	1.904	1.895	1.895
0.010	0.000	0.000	0.034	-0.010	-0.029	0.034	2.700	1.885	1.890	1.890	1.909	1.899	1.895
-0.010	0.034	0.000	0.049	0.005	-0.049	0.034	2.690	1.880	1.895	1.890	1.914	1.904	1.895
-0.020	0.059	0.010	0.015	-0.005	-0.063	0.034	2.700	1.885	1.895	1.895	1.904	1.899	1.895
-0.029	0.063	0.000	-0.015	0.005	-0.015	0.034	2.666	1.880	1.895	1.890	1.895	1.899	1.909
-0.005	0.044	0.000	-0.054	0.005	0.005	0.034	2.681	1.890	1.885	1.890	1.890	1.895	1.909
-0.015	0.020	0.000	-0.059	0.005	0.024	0.034	2.686	1.885	1.880	1.885	1.890	1.895	1.909
-0.010	0.000	0.000	-0.029	0.000	0.039	0.034	2.666	1.885	1.875	1.885	1.904	1.895	1.909
-0.020	0.010	0.000	-0.005	0.010	0.029	0.034	2.676	1.890	1.880	1.885	1.909	1.899	1.904
-0.005	-0.005	0.000	0.000	0.005	0.034	0.034	2.700	1.895	1.880	1.880	1.909	1.899	1.904
0.005	-0.015	0.005	0.015	0.010	0.020	0.029	2.705	1.899	1.880	1.880	1.909	1.904	1.899
0.015	-0.024	-0.005	0.039	0.015	0.029	0.029	2.681	1.890	1.880	1.880	1.914	1.904	1.904
0.005	-0.015	0.000	0.049	0.010	0.024	0.029	2.700	1.895	1.890	1.885	1.909	1.904	1.899
0.010	-0.015	0.000	0.029	0.005	0.005	0.034	2.681	1.890	1.890	1.880	1.899	1.899	1.895
0.010	-0.010	-0.005	0.005	0.005	0.024	0.034	2.666	1.890	1.890	1.880	1.895	1.899	1.904
0.005	-0.005	-0.005	0.020	0.005	0.034	0.034	2.793	1.899	1.890	1.885	1.899	1.895	1.904
0.005	0.005	0.000	-0.005	0.005	0.020	0.034	2.656	1.890	1.895	1.890	1.899	1.895	1.899
-0.015	0.005	0.000	-0.024	0.005	0.020	0.034	2.646	1.880	1.890	1.885	1.890	1.895	1.895
-0.010	0.000	0.000	-0.024	0.015	0.005	0.034	2.651	1.880	1.890	1.890	1.895	1.895	1.895
-0.020	0.005	0.005	-0.034	0.020	-0.005	0.034	2.720	1.880	1.885	1.890	1.895	1.895	1.890
-0.015	0.010	0.005	-0.029	0.005	-0.010	0.034	2.661	1.880	1.885	1.885	1.899	1.890	1.890
-0.010	0.000	0.010	0.020	-0.010	-0.010	0.029	2.632	1.880	1.885	1.885	1.919	1.895	1.890
0.010	0.010	0.005	0.029	-0.010	0.010	0.034	2.793	1.899	1.890	1.885	1.914	1.899	1.895
0.029	0.020	0.005	0.010	-0.020	-0.005	0.034	2.627	1.895	1.895	1.890	1.909	1.895	1.895
0.049	0.015	0.000	0.015	-0.015	-0.024	0.029	2.744	1.904	1.895	1.890	1.909	1.899	1.890
0.044	0.000	0.000	0.010	-0.005	0.020	0.029	2.739	1.904	1.895	1.890	1.904	1.904	1.904
0.039	0.005	0.005	-0.020	-0.005	0.024	0.034	2.656	1.895	1.890	1.890	1.899	1.904	1.904
0.015	0.000	0.000	-0.034	0.005	0.020	0.029	2.725	1.890	1.890	1.890	1.895	1.899	1.899
0.005	0.005	-0.005	-0.039	0.015	0.000	0.034	2.739	1.890	1.890	1.885	1.899	1.899	1.899
0.000	0.000	-0.005	-0.024	0.010	0.010	0.029	2.686	1.890	1.885	1.885	1.904	1.899	1.899
-0.015	-0.010	-0.005	-0.010	0.005	-0.020	0.034	2.734	1.890	1.885	1.885	1.909	1.899	1.895
-0.010	0.010	-0.005	0.005	0.005	-0.005	0.029	2.690	1.890	1.890	1.885	1.909	1.904	1.899
-0.020	0.010	-0.005	0.000	-0.005	-0.010	0.029	2.695	1.885	1.890	1.885	1.909	1.899	1.895
-0.015	-0.010	0.000	0.010	-0.015	-0.005	0.029	2.681	1.890	1.880	1.885	1.909	1.895	1.899
-0.005	-0.010	0.000	0.020	-0.015	0.010	0.029	2.695	1.890	1.885	1.885	1.909	1.899	1.899
-0.010	-0.015	0.000	0.015	-0.020	0.024	0.029	2.700	1.890	1.885	1.885	1.904	1.899	1.904
-0.015	-0.010	-0.005	0.015	-0.015	0.015	0.029	2.695	1.890	1.890	1.885	1.904	1.899	1.899
0.005	0.000	0.000	0.010	-0.005	0.000	0.029	2.700	1.899	1.895	1.890	1.904	1.904	1.899
0.005	0.020	0.000	0.010	0.000	-0.010	0.029	2.710	1.899	1.899	1.890	1.904	1.904	1.895
-0.010	0.020	0.000	0.005	-0.005	-0.024	0.034	2.695	1.890	1.895	1.890	1.904	1.899	1.895
-0.010	0.039	-0.005	-0.005	-0.005	-0.005	0.029	2.676	1.890	1.899	1.890	1.904	1.904	1.904
-0.020	0.020	0.000	0.010	0.005	0.020	0.029	2.690	1.890	1.890	1.890	1.909	1.904	1.909
0.000	-0.005	0.000	0.029	-0.005	0.000	0.034	2.695	1.895	1.885	1.890	1.914	1.904	1.904
0.005	-0.034	0.000	0.029	-0.010	0.000	0.034	2.700	1.895	1.875	1.885	1.909	1.904	1.904
0.005	-0.029	0.000	0.010	-0.010	0.000	0.029	2.686	1.895	1.885	1.885	1.904	1.899	1.904
0.005	-0.020	0.000	-0.005	-0.015	0.000	0.029	2.690	1.890	1.890	1.885	1.899	1.899	1.899
-0.010	-0.029	0.005	-0.010	-0.020	0.005	0.029	2.676	1.885	1.880	1.880	1.899	1.895	1.899
-0.015	-0.034	0.000	-0.010	-0.015	-0.010	0.029	2.681	1.885	1.880	1.880	1.895	1.895	1.890
0.000	-0.029	0.000	-0.005	-0.005	0.000	0.029	2.676	1.885	1.880	1.880	1.899	1.899	1.899
0.005	-0.073	-0.005	-0.005	0.000	-0.015	0.029	2.690	1.885	1.870	1.875	1.899	1.899	1.895
0.005	-0.034	-0.005	0.000	0.010	-0.005	0.029	2.690	1.895	1.890	1.880	1.899	1.899	1.899
0.010	0.015	0.000	-0.005	0.005	0.005	0.029	2.671	1.890	1.904	1.890	1.899	1.899	1.899
0.024	0.044	0.005	0.005	0.005	0.005	0.034	2.700	1.899	1.914	1.899	1.904	1.899	1.899
0.005	0.161	0.005	0.015	0.010	0.005	0.029	2.686	1.895	1.934	1.909	1.914	1.904	1.904
0.020	0.093	0.005	0.024	0.005	0.005	0.029	2.651	1.890	1.904	1.904	1.919	1.904	1.904
0.015	0.000	0.000	-0.005	0.005	-0.015	0.029	2.793	1.895	1.870	1.895	1.909	1.904	1.899
0.005	-0.068	0.005	-0.015	0.000	0.000	0.029	2.651	1.885	1.860	1.880	1.904	1.899	1.899
-0.010	-0.054	0.000	-0.024	0.000	-0.015	0.029	2.646	1.880	1.870	1.880	1.899	1.904	1.899
0.000	-0.020	-0.005	0.000	0.015	0.010	0.029	2.656	1.885	1.885	1.880	1.909	1.904	1.904
-0.005	0.054	0.000	0.005	0.010	0.005	0.029	2.642	1.880	1.904	1.885	1.909	1.904	1.904
-0.020	0.054	0.010	0.005	0.005	0.005	0.029	2.700	1.880	1.895	1.890	1.904	1.904	1.904
-0.015	0.034	0.005	0.010	0.000	-0.005	0.029	2.632	1.880	1.885	1.885	1.909	1.899	1.899
-0.024	-0.015	-0.005	0.010	-0.005	-0.005	0.029	2.793	1.895	1.870	1.880	1.904	1.899	1.895
-0.005	-0.024	-0.005	0.000	0.000	-0.005	0.029	2.642	1.885	1.875	1.875	1.899	1.899	1.899
0.015	-0.034	-0.005	0.005	-0.005	0.005	0.029	2.646	1.890	1.875	1.875	1.899	1.899	1.899
0.015	-0.029	-0.005	0.024	0.005	-0.005	0.029	2.744	1.895	1.880	1.875	1.904	1.899	1.899
0.015	-0.024	0.000	0.020	-0.005	0.005	0.034	2.637	1.909	1.890	1.880	1.899	1.895	1.899
0.015	0.000	0.005	0.015	-0.010	0.000	0.029	2.725	1.909	1.899	1.885	1.899	1.895	1.895
0.015	0.024	0.000	-0.005	-0.010	-0.010	0.029	2.710	1.904	1.909	1.890	1.899	1.895	1.890
-0.010	0.034	0.000	-0.015	0.000	-0.005	0.029	2.681	1.890	1.899	1.895	1.899	1.895	1.895
-0.010	0.010	0.010	-0.005	-0.005	0.005	0.029	2.739	1.895	1.895	1.899	1.904	1.895	1.899
-0.010	0.024	0.010	0.005	-0.010	0.000	0.029	2.671	1.890	1.899	1.895	1.909	1.899	1.895
-0.015	0.000	0.005	0.000	0.005	-0.005	0.029	2.695	1.890	1.890	1.895	1.909	1.904	1.899
-0.020	-0.029	0.010	0.005	0.005	0.000	0.029	2.671	1.885	1.880	1.890	1.909	1.904	1.899
-0.010	-0.073	0.015	0.049	0.005	0.000	0.029	2.661	1.890	1.870	1.885	1.919	1.909	1.904
0.000	-0.034	0.015	0.049	0.005	0.024	0.029	2.666	1.885	1.885	1.885	1.914	1.909	1.914
0.015	-0.049	0.000	0.015	0.010	0.000	0.029	2.676	1.895	1.880	1.880	1.904	1.909	1.904
0.034	0.039	-0.005	0.000	0.005	0.000	0.029	2.671	1.899	1.919	1.890	1.899	1.899	1.904
0.020	0.151	-0.010	-0.020	-0.005	-0.015	0.034	2.690	1.899	1.934	1.899	1.899	1.895	1.895
0.024	0.010	-0.024	-0.049	-0.010	-0.029	0.029	2.690	1.890	1.880	1.885	1.890	1.890	1.890
0.005	-0.005	-0.015	-0.005	0.000	-0.024	0.029	2.695	1.885	1.880	1.890	1.914	1.899	1.895
0.005	0.015	0.000	0.054	0.000	-0.020	0.029	2.676	1.885	1.885	1.895	1.924	1.904	1.899
0.005	-0.005	-0.005	-0.005	-0.005	-0.020	0.029	2.690	1.885	1.880	1.885	1.899	1.899	1.899
0.000	-0.034	-0.005	-0.054	0.005	-0.015	0.029	2.686	1.880	1.870	1.880	1.885	1.899	1.899
-0.005	-0.039	0.000	-0.083	-0.005	-0.015	0.029	2.666	1.875	1.870	1.875	1.880	1.890	1.895
-0.010	-0.015	0.005	-0.088	0.000	-0.015	0.029	2.671	1.880	1.880	1.880	1.885	1.890	1.895
-0.015	0.000	0.005	-0.044	0.020	-0.020	0.034	2.671	1.875	1.880	1.880	1.899	1.895	1.895
0.000	-0.010	0.010	0.015	-0.010	-0.020	0.029	2.676	1.885	1.880	1.885	1.919	1.895	1.895
0.010	0.034	0.000	0.034	-0.024	0.015	0.029	2.676	1.890	1.895	1.890	1.919	1.895	1.904
0.010	0.083	0.000	0.034	-0.039	0.024	0.029	2.695	1.890	1.909	1.890	1.919	1.899	1.904
-0.005	0.049	0.000	0.034	0.000	0.034	0.029	2.700	1.890	1.890	1.890	1.914	1.914	1.909
0.000	0.044	0.010	0.010	0.024	0.010	0.029	2.676	1.890	1.890	1.890	1.909	1.914	1.904
0.000	0.020	0.005	0.015	0.054	0.015	0.029	2.695	1.885	1.880	1.890	1.909	1.919	1.909
-0.005	-0.015	0.005	-0.010	0.059	0.020	0.029	2.676	1.885	1.875	1.880	1.899	1.919	1.914
-0.005	-0.020	0.000	0.020	0.078	0.010	0.029	2.656	1.890	1.875	1.880	1.909	1.914	1.914
0.005	-0.015	0.005	0.015	0.068	0.010	0.029	2.788	1.904	1.885	1.880	1.899	1.909	1.909
-0.029	-0.020	0.000	0.010	0.068	0.024	0.029	2.651	1.880	1.880	1.880	1.899	1.904	1.909
-0.156	-0.015	0.005	0.010	0.034	0.010	0.029	2.646	1.846	1.870	1.875	1.895	1.895	1.904
-0.176	-0.024	0.000	0.000	0.020	-0.015	0.029	2.651	1.865	1.860	1.870	1.890	1.885	1.890
-0.146	-0.034	-0.015	-0.010	-0.005	0.015	0.029	2.627	1.870	1.865	1.865	1.885	1.880	1.895
-0.068	-0.020	-0.015	0.000	-0.024	0.015	0.034	2.690	1.899	1.875	1.870	1.885	1.870	1.890
0.029	-0.005	0.000	-0.005	-0.059	0.000	0.034	2.617	1.919	1.895	1.880	1.885	1.865	1.875
0.142	0.000	0.010	0.000	-0.059	0.000	0.029	2.803	1.958	1.919	1.890	1.895	1.875	1.875
0.259	0.015	0.005	0.010	-0.044	-0.005	0.034	2.710	1.973	1.938	1.904	1.904	1.885	1.875
0.317	0.020	0.005	0.005	-0.039	0.000	0.034	2.754	1.978	1.948	1.919	1.914	1.890	1.885
0.317	0.015	0.024	-0.005	-0.005	-0.029	0.029	2.637	1.943	1.948	1.929	1.919	1.909	1.880
0.264	0.010	0.039	0.000	0.000	-0.020	0.029	2.764	1.919	1.938	1.934	1.929	1.914	1.895
0.166	0.010	0.020	0.010	0.005	-0.015	0.029	2.759	1.890	1.919	1.924	1.938	1.919	1.899
0.054	0.015	0.020	0.005	-0.015	-0.015	0.029	2.632	1.846	1.895	1.919	1.934	1.914	1.904
-0.049	0.010	0.005	-0.005	-0.020	-0.005	0.029	2.681	1.831	1.870	1.899	1.929	1.919	1.914
-0.142	0.000	-0.020	-0.015	-0.005	0.015	0.029	2.632	1.812	1.851	1.880	1.914	1.919	1.919
-0.195	-0.010	-0.020	-0.010	-0.010	0.000	0.034	2.671	1.816	1.836	1.870	1.909	1.914	1.914
-0.195	-0.015	-0.010	0.000	0.000	-0.005	0.034	2.700	1.841	1.836	1.860	1.904	1.914	1.914
-0.161	-0.024	-0.029	0.005	0.034	0.020	0.029	2.681	1.865	1.841	1.851	1.899	1.919	1.919
-0.132	-0.005	-0.020	0.020	0.122	0.024	0.034	2.651	1.875	1.860	1.855	1.895	1.938	1.929
-0.127	-0.005	-0.015	0.020	0.195	-0.005	0.029	2.705	1.890	1.865	1.860	1.890	1.938	1.924
-0.137	-0.015	-0.005	0.015	0.151	0.020	0.034	2.681	1.885	1.870	1.860	1.885	1.909	1.924
-0.103	-0.005	-0.010	0.010	0.107	0.020	0.029	2.700	1.899	1.880	1.865	1.880	1.890	1.914
-0.063	0.005	0.000	0.010	0.093	0.000	0.029	2.695	1.914	1.890	1.875	1.880	1.880	1.904
-0.039	0.005	0.005	0.005	0.039	0.010	0.029	2.661	1.909	1.895	1.880	1.885	1.870	1.895
-0.005	0.000	0.029	0.010	0.020	-0.005	0.029	2.686	1.914	1.904	1.890	1.895	1.870	1.880
0.015	0.000	0.010	0.020	0.000	0.020	0.029	2.681	1.914	1.904	1.890	1.899	1.875	1.885
0.039	0.000	0.000	0.044	-0.029	0.010	0.029	2.695	1.914	1.909	1.895	1.909	1.870	1.880
-0.020	0.000	0.015	0.034	-0.059	0.005	0.029	2.676	1.885	1.899	1.899	1.909	1.875	1.875
-0.088	0.010	0.024	-0.005	-0.093	-0.015	0.029	2.695	1.865	1.890	1.895	1.895	1.870	1.870
-0.117	0.015	0.005	-0.020	-0.112	0.000	0.029	2.686	1.865	1.885	1.885	1.895	1.870	1.870
-0.078	-0.010	-0.015	-0.024	-0.107	0.010	0.029	2.681	1.880	1.870	1.880	1.895	1.875	1.875
0.010	-0.010	-0.005	-0.044	-0.112	-0.005	0.029	2.676	1.904	1.885	1.880	1.890	1.875	1.870
0.029	-0.005	-0.020	-0.010	-0.103	-0.005	0.029	2.666	1.895	1.885	1.880	1.899	1.885	1.870
0.059	-0.005	-0.039	-0.015	-0.122	0.000	0.029	2.705	1.909	1.890	1.875	1.899	1.880	1.875
0.156	-0.005	-0.024	-0.010	-0.137	0.000	0.039	2.676	1.934	1.904	1.890	1.899	1.880	1.880
0.181	0.029	-0.015	0.005	-0.103	-0.020	0.039	2.686	1.924	1.919	1.899	1.914	1.895	1.880
0.171	0.039	-0.005	0.005	-0.146	-0.044	0.039	2.710	1.914	1.919	1.904	1.914	1.890	1.875
0.200	0.010	0.000	0.000	-0.151	-0.063	0.034	2.676	1.909	1.909	1.904	1.914	1.895	1.875
0.186	0.000	0.024	-0.015	-0.103	-0.054	0.034	2.661	1.895	1.904	1.909	1.914	1.909	1.890
0.151	0.005	0.029	-0.024	-0.073	-0.044	0.039	2.803	1.895	1.899	1.909	1.919	1.919	1.899
0.103	0.010	0.039	-0.005	-0.063	-0.039	0.039	2.651	1.870	1.890	1.904	1.924	1.924	1.909
0.059	0.010	-0.005	0.034	-0.054	-0.034	0.039	2.646	1.865	1.880	1.885	1.934	1.924	1.909
0.034	0.005	-0.039	0.039	-0.054	-0.063	0.039	2.651	1.855	1.875	1.875	1.919	1.919	1.904
-0.020	0.024	-0.024	-0.005	-0.068	-0.049	0.039	2.710	1.855	1.870	1.875	1.899	1.909	1.914
-0.176	0.020	-0.020	-0.034	-0.103	0.010	0.044	2.666	1.816	1.851	1.870	1.890	1.895	1.929
-0.210	0.005	0.039	0.010	-0.010	0.034	0.039	2.617	1.826	1.841	1.880	1.909	1.929	1.929
-0.190	-0.010	0.068	0.073	0.112	0.063	0.039	2.808	1.865	1.846	1.880	1.929	1.963	1.953
-0.166	-0.015	0.063	0.083	0.278	0.063	0.039	2.642	1.875	1.851	1.870	1.924	1.997	1.968
-0.107	-0.020	0.049	0.020	0.405	0.103	0.039	2.651	1.899	1.865	1.865	1.895	1.997	1.987
-0.059	-0.024	0.073	-0.049	0.361	0.151	0.039	2.734	1.929	1.875	1.870	1.875	1.948	1.987
0.039	-0.024	0.054	-0.063	0.288	0.146	0.039	2.627	1.948	1.899	1.870	1.870	1.909	1.963
0.073	-0.020	0.039	-0.068	0.220	0.132	0.039	2.705	1.948	1.914	1.880	1.875	1.880	1.938
0.068	0.005	-0.005	-0.068	0.225	0.127	0.039	2.715	1.938	1.924	1.875	1.880	1.880	1.914
0.049	0.015	-0.039	-0.039	0.186	0.083	0.039	2.686	1.924	1.919	1.880	1.890	1.870	1.890
0.049	0.000	-0.044	-0.015	0.073	0.054	0.044	2.627	1.909	1.914	1.885	1.895	1.846	1.865
0.054	0.005	-0.059	-0.005	0.034	-0.020	0.039	2.632	1.890	1.904	1.885	1.899	1.846	1.841
-0.005	0.010	-0.117	0.005	-0.059	-0.034	0.039	2.148	1.812	1.885	1.870	1.899	1.831	1.831
-0.024	0.010	-0.059	0.039	-0.088	-0.068	0.039	1.162	1.650	1.831	1.880	1.909	1.841	1.816
-0.049	0.005	0.010	0.044	-0.132	-0.059	0.039	1.182	1.543	1.758	1.870	1.904	1.851	1.831
-0.029	0.010	0.054	0.024	-0.039	-0.054	0.039	1.187	1.479	1.694	1.831	1.890	1.885	1.851
0.010	0.015	0.039	-0.005	0.034	-0.034	0.039	1.177	1.450	1.631	1.772	1.860	1.890	1.865
0.044	0.000	0.029	-0.034	-0.063	-0.034	0.034	1.172	1.426	1.577	1.714	1.812	1.846	1.855
0.039	-0.010	-0.010	-0.005	-0.166	-0.068	0.029	1.187	1.401	1.528	1.655	1.782	1.797	1.831
0.073	-0.015	-0.034	-0.005	-0.239	-0.103	0.029	1.172	1.392	1.494	1.602	1.733	1.763	1.802
-0.078	0.005	-0.029	-0.015	-0.186	-0.132	0.029	1.182	1.318	1.455	1.562	1.694	1.758	1.782
-0.234	0.010	0.024	-0.015	-0.137	-0.117	0.029	1.162	1.284	1.411	1.538	1.660	1.738	1.772
-0.249	0.010	0.010	-0.015	-0.176	-0.112	0.029	1.182	1.294	1.382	1.489	1.616	1.699	1.758
-0.190	0.000	0.020	-0.005	-0.151	-0.117	0.029	1.172	1.318	1.367	1.460	1.582	1.670	1.733
-0.103	-0.010	0.020	0.005	-0.176	-0.103	0.034	1.157	1.348	1.367	1.431	1.553	1.631	1.709
0.024	-0.020	0.015	0.029	-0.142	-0.098	0.034	1.147	1.377	1.372	1.416	1.523	1.611	1.685
0.171	-0.020	0.010	0.039	-0.181	-0.034	0.034	1.152	1.401	1.387	1.406	1.499	1.567	1.670
0.312	-0.024	0.020	0.034	-0.117	0.010	0.034	1.157	1.416	1.401	1.406	1.479	1.562	1.655
0.254	-0.010	0.015	0.029	-0.049	0.059	0.034	1.152	1.362	1.396	1.401	1.460	1.558	1.646
0.171	-0.005	0.010	0.024	0.034	0.117	0.034	1.187	1.328	1.382	1.396	1.450	1.548	1.631
0.103	-0.005	0.024	0.059	0.186	0.117	0.034	1.167	1.304	1.362	1.392	1.450	1.567	1.616
0.059	0.000	-0.015	0.039	0.464	0.127	0.034	1.157	1.284	1.338	1.367	1.436	1.602	1.621
0.034	0.000	-0.093	0.005	0.591	0.107	0.034	1.172	1.279	1.323	1.338	1.406	1.577	1.602
-0.103	0.000	-0.083	-0.020	0.493	0.063	0.034	1.152	1.240	1.304	1.323	1.382	1.494	1.558
-0.181	0.010	-0.020	-0.039	0.283	0.020	0.034	1.128	1.221	1.279	1.328	1.362	1.396	1.499
-0.312	0.010	-0.010	-0.039	0.039	-0.015	0.034	1.270	1.201	1.260	1.309	1.348	1.318	1.436
-0.283	0.015	-0.063	-0.029	0.039	0.000	0.034	1.128	1.211	1.245	1.279	1.333	1.323	1.411
-0.137	0.020	-0.073	-0.039	0.137	0.034	0.029	1.128	1.255	1.255	1.270	1.323	1.353	1.406
-0.020	0.005	-0.098	-0.020	0.151	0.117	0.029	1.143	1.274	1.260	1.265	1.318	1.348	1.411
0.112	0.000	-0.063	0.000	0.176	0.132	0.029	1.113	1.289	1.274	1.279	1.318	1.343	1.396
0.264	0.020	-0.020	0.020	0.078	0.093	0.034	1.167	1.304	1.294	1.294	1.323	1.309	1.357
0.327	0.020	0.063	0.034	0.010	0.059	0.029	1.104	1.279	1.299	1.313	1.328	1.294	1.328
0.308	0.020	0.122	0.024	-0.083	-0.049	0.034	2.090	1.348	1.304	1.323	1.328	1.274	1.284
0.269	0.005	0.137	0.005	-0.181	-0.098	0.034	1.934	1.357	1.313	1.323	1.323	1.260	1.265
0.151	-0.005	0.151	-0.010	-0.220	-0.122	0.034	1.958	1.343	1.313	1.323	1.323	1.265	1.255
0.063	-0.015	0.142	-0.005	-0.308	-0.132	0.034	2.046	1.348	1.313	1.318	1.323	1.255	1.250
-0.073	-0.005	0.093	0.015	-0.371	-0.142	0.034	1.953	1.323	1.313	1.304	1.328	1.255	1.245
-0.254	0.029	0.039	0.029	-0.352	-0.137	0.029	2.021	1.294	1.304	1.289	1.323	1.279	1.255
-0.332	0.039	-0.024	-0.015	-0.327	-0.161	0.034	2.031	1.304	1.304	1.274	1.299	1.289	1.260
-0.347	0.029	-0.083	-0.020	-0.366	-0.117	0.039	2.007	1.323	1.304	1.265	1.294	1.279	1.274
-0.303	0.010	-0.190	0.044	-0.386	-0.063	0.039	1.938	1.348	1.309	1.250	1.304	1.284	1.294
-0.137	0.015	-0.127	0.054	-0.366	0.000	0.034	1.987	1.406	1.343	1.294	1.309	1.294	1.313
-0.005	0.005	-0.142	0.044	-0.371	0.054	0.034	2.012	1.440	1.362	1.309	1.313	1.299	1.318
0.137	-0.029	-0.088	0.039	-0.288	0.005	0.034	2.002	1.460	1.387	1.348	1.323	1.328	1.313
0.234	-0.049	0.005	-0.024	-0.151	0.015	0.034	1.987	1.465	1.406	1.387	1.333	1.367	1.333
0.371	-0.054	0.107	-0.063	-0.034	-0.005	0.034	1.987	1.479	1.431	1.421	1.357	1.392	1.348
0.474	-0.039	0.190	-0.054	0.054	-0.010	0.034	1.997	1.470	1.450	1.455	1.396	1.416	1.362
0.288	-0.029	0.210	-0.029	0.127	0.020	0.034	2.007	1.392	1.431	1.455	1.426	1.436	1.396
0.117	-0.010	0.200	-0.034	0.181	0.059	0.029	2.012	1.338	1.406	1.436	1.431	1.450	1.421
-0.015	-0.005	0.107	-0.044	0.205	0.063	0.034	2.007	1.313	1.377	1.396	1.421	1.445	1.426
-0.107	0.010	0.015	-0.054	0.171	0.073	0.039	1.987	1.299	1.353	1.357	1.401	1.421	1.426
-0.210	0.029	-0.059	-0.034	0.142	0.103	0.039	1.987	1.289	1.333	1.333	1.396	1.411	1.426
-0.254	0.044	-0.117	0.024	0.151	0.122	0.039	1.997	1.304	1.328	1.323	1.396	1.411	1.431
-0.225	0.039	-0.137	0.020	0.181	0.166	0.039	2.007	1.333	1.323	1.313	1.377	1.406	1.436
-0.156	0.015	-0.117	-0.010	0.210	0.151	0.044	1.987	1.362	1.333	1.323	1.362	1.406	1.421
-0.103	-0.010	0.005	0.000	0.327	0.112	0.044	1.982	1.377	1.343	1.362	1.377	1.426	1.416
-0.063	-0.020	0.078	0.044	0.273	0.059	0.039	1.987	1.387	1.357	1.382	1.392	1.396	1.396
-0.015	-0.005	0.059	0.049	0.234	0.020	0.044	1.978	1.392	1.372	1.367	1.392	1.387	1.382
-0.054	0.010	0.054	0.024	0.166	0.015	0.044	1.997	1.372	1.372	1.367	1.382	1.362	1.372
-0.039	0.005	0.044	0.083	0.117	0.068	0.039	2.002	1.372	1.372	1.367	1.396	1.362	1.387
-0.063	0.015	0.015	0.098	0.112	0.059	0.034	2.012	1.357	1.372	1.362	1.396	1.372	1.377
-0.049	0.044	0.024	0.107	0.093	0.059	0.034	1.997	1.362	1.377	1.367	1.401	1.367	1.372
-0.044	0.010	-0.005	0.073	0.083	-0.005	0.034	2.002	1.353	1.362	1.357	1.377	1.367	1.353
-0.039	0.005	-0.029	0.039	0.234	-0.073	0.034	1.997	1.353	1.353	1.353	1.367	1.411	1.353
0.024	-0.024	-0.068	-0.039	0.322	-0.137	0.039	1.963	1.367	1.348	1.328	1.343	1.406	1.348
0.073	-0.039	-0.078	-0.088	0.239	-0.176	0.044	2.114	1.382	1.353	1.333	1.328	1.357	1.343
0.137	-0.044	-0.088	-0.112	-0.015	-0.161	0.044	1.958	1.377	1.357	1.333	1.318	1.274	1.318
0.068	-0.039	-0.078	-0.112	-0.190	-0.112	0.049	1.953	1.343	1.357	1.343	1.328	1.245	1.309
0.049	-0.010	-0.015	-0.054	-0.303	-0.098	0.044	1.973	1.343	1.362	1.367	1.362	1.245	1.294
0.078	-0.015	0.029	-0.020	-0.371	-0.024	0.049	1.934	1.338	1.353	1.372	1.377	1.265	1.304
0.049	-0.015	0.039	-0.010	-0.332	-0.005	0.044	1.982	1.318	1.343	1.367	1.382	1.313	1.309
-0.020	-0.020	0.063	0.000	-0.229	0.010	0.044	2.031	1.304	1.333	1.367	1.392	1.362	1.333
-0.024	-0.010	0.044	-0.005	-0.171	0.044	0.044	1.953	1.304	1.323	1.348	1.387	1.382	1.357
-0.029	0.020	-0.029	-0.005	-0.132	0.024	0.044	1.929	1.304	1.323	1.323	1.372	1.387	1.362
-0.010	0.049	-0.044	0.000	-0.107	0.015	0.044	1.973	1.318	1.328	1.323	1.367	1.387	1.362
0.005	0.049	-0.015	0.020	-0.156	0.010	0.044	2.061	1.333	1.333	1.333	1.367	1.367	1.362
0.024	0.068	0.005	0.034	-0.171	-0.005	0.044	1.958	1.333	1.343	1.343	1.372	1.362	1.357
0.010	0.078	-0.010	0.049	-0.112	0.015	0.044	2.051	1.333	1.338	1.338	1.372	1.382	1.367
-0.005	0.039	-0.078	0.044	-0.024	0.010	0.044	2.026	1.328	1.323	1.309	1.357	1.396	1.377
0.000	-0.020	-0.171	0.034	-0.015	-0.039	0.044	2.012	1.328	1.299	1.284	1.338	1.377	1.362
-0.005	-0.034	-0.156	0.029	-0.044	-0.005	0.034	1.958	1.323	1.304	1.294	1.328	1.357	1.372
0.020	-0.034	-0.068	0.015	-0.156	0.010	0.034	1.987	1.333	1.313	1.323	1.328	1.313	1.357
0.024	-0.049	0.010	0.005	-0.210	0.005	0.034	2.007	1.333	1.318	1.338	1.333	1.304	1.343
0.015	-0.034	0.063	-0.005	-0.156	0.010	0.034	1.982	1.323	1.323	1.348	1.343	1.338	1.343
-0.015	-0.015	0.078	0.010	-0.005	0.044	0.039	2.012	1.318	1.328	1.348	1.353	1.372	1.362
-0.005	-0.005	0.088	0.000	0.078	0.059	0.039	2.007	1.328	1.333	1.348	1.357	1.396	1.382
0.005	0.005	0.044	0.000	0.269	0.039	0.044	2.002	1.333	1.333	1.333	1.357	1.436	1.392
0.005	0.005	-0.049	0.015	0.483	0.029	0.039	2.007	1.338	1.333	1.309	1.357	1.470	1.411
0.000	0.010	-0.034	0.029	0.513	-0.015	0.049	2.012	1.343	1.338	1.323	1.357	1.440	1.406
0.020	0.015	0.000	0.020	0.391	-0.015	0.166	1.982	1.348	1.343	1.338	1.353	1.382	1.401
0.020	0.024	0.029	0.015	0.210	0.010	0.249	1.987	1.343	1.343	1.348	1.348	1.323	1.392
-0.415	0.029	0.054	-0.010	-0.020	0.039	0.273	2.017	1.216	1.299	1.333	1.333	1.265	1.357
-0.566	0.034	0.029	-0.049	-0.132	0.044	0.112	2.002	1.211	1.274	1.309	1.318	1.250	1.323
-0.361	0.020	-0.010	-0.073	-0.117	0.078	0.078	2.012	1.304	1.279	1.289	1.309	1.274	1.318
-0.137	0.005	-0.269	-0.059	-0.068	0.112	0.107	1.982	1.372	1.299	1.211	1.289	1.289	1.323
0.068	-0.005	-0.503	-0.024	0.010	0.181	0.142	2.017	1.426	1.328	1.196	1.279	1.313	1.338
0.308	0.000	-0.312	0.020	0.117	0.151	0.107	1.992	1.475	1.382	1.304	1.309	1.338	1.328
0.537	-0.005	-0.044	0.054	0.269	0.098	0.039	1.997	1.499	1.426	1.406	1.357	1.382	1.328
0.620	0.000	0.161	0.034	0.332	0.020	0.273	1.992	1.470	1.445	1.470	1.396	1.401	1.338
0.610	0.015	0.342	0.049	0.303	-0.039	0.327	2.021	1.436	1.450	1.514	1.436	1.396	1.338
0.498	-0.005	0.488	0.044	0.107	-0.078	0.352	2.021	1.372	1.426	1.528	1.460	1.353	1.328
0.327	0.005	0.488	0.020	-0.103	-0.122	0.361	1.997	1.304	1.392	1.484	1.460	1.323	1.309
0.093	0.029	0.327	-0.010	-0.176	-0.186	0.405	2.021	1.245	1.343	1.401	1.436	1.338	1.299
-0.112	0.024	0.195	-0.020	-0.151	-0.254	0.391	2.012	1.206	1.294	1.338	1.411	1.357	1.294
-0.234	0.029	0.078	0.015	-0.186	-0.220	0.410	1.968	1.196	1.260	1.289	1.392	1.357	1.318
-0.283	0.020	0.029	0.000	-0.181	-0.161	0.405	2.109	1.230	1.245	1.265	1.357	1.362	1.353
-0.293	0.005	-0.005	-0.020	-0.156	-0.068	0.400	1.978	1.245	1.240	1.245	1.323	1.362	1.372
-0.273	-0.024	-0.024	-0.029	-0.117	0.010	0.405	1.968	1.279	1.245	1.240	1.309	1.357	1.396
-0.244	-0.054	-0.049	-0.024	-0.176	0.176	0.415	1.982	1.304	1.255	1.240	1.294	1.323	1.421
-0.190	-0.063	-0.049	-0.005	-0.249	0.283	0.464	2.051	1.343	1.274	1.245	1.289	1.299	1.411
-0.107	-0.039	-0.063	0.015	-0.327	0.264	0.522	1.987	1.372	1.313	1.260	1.284	1.265	1.372
-0.005	-0.024	-0.078	-0.024	-0.459	0.205	0.527	1.943	1.392	1.338	1.270	1.270	1.230	1.309
0.010	-0.039	-0.093	-0.034	-0.464	0.005	0.527	2.090	1.387	1.343	1.284	1.279	1.235	1.235
-0.063	-0.034	-0.107	-0.015	-0.361	-0.215	0.532	1.948	1.333	1.338	1.299	1.294	1.265	1.182
-0.078	-0.020	-0.117	-0.024	-0.220	-0.283	0.527	2.051	1.323	1.338	1.309	1.304	1.318	1.206
-0.039	-0.005	-0.093	-0.010	-0.073	-0.293	0.537	2.056	1.333	1.343	1.323	1.318	1.353	1.250
-0.171	0.010	-0.117	0.010	0.029	-0.254	0.532	2.041	1.289	1.323	1.318	1.333	1.377	1.299
-0.171	0.010	-0.146	0.024	0.127	-0.190	0.537	2.036	1.304	1.318	1.313	1.343	1.401	1.343
-0.049	0.024	-0.151	0.034	0.244	-0.107	0.542	2.041	1.353	1.333	1.318	1.343	1.411	1.387
0.107	0.034	-0.176	0.093	0.244	-0.010	0.410	1.992	1.396	1.357	1.323	1.362	1.401	1.411
0.264	0.034	-0.166	0.176	0.293	0.024	0.396	2.056	1.436	1.382	1.348	1.387	1.411	1.421
0.288	0.024	-0.073	0.142	0.371	0.063	0.396	1.992	1.416	1.396	1.387	1.382	1.426	1.436
0.273	0.024	0.015	0.020	0.444	0.112	0.396	2.007	1.392	1.396	1.406	1.367	1.431	1.450
0.195	0.029	0.068	-0.044	0.493	0.171	0.391	2.012	1.362	1.387	1.411	1.367	1.431	1.460
0.166	0.029	0.093	-0.034	0.732	0.225	0.386	2.002	1.362	1.382	1.416	1.396	1.489	1.484
0.122	0.049	0.127	-0.015	0.962	0.283	0.376	1.987	1.343	1.377	1.411	1.416	1.528	1.514
0.049	0.034	0.117	-0.059	0.913	0.244	0.405	2.007	1.338	1.362	1.396	1.401	1.470	1.489
0.054	0.024	0.112	-0.093	0.591	0.181	0.400	2.007	1.348	1.353	1.377	1.377	1.343	1.426
-0.132	-0.010	0.068	-0.098	0.020	0.063	0.425	2.012	1.289	1.318	1.343	1.357	1.191	1.318
-0.293	-0.024	0.083	-0.044	-0.317	0.005	0.405	1.982	1.245	1.289	1.328	1.367	1.147	1.250
-0.352	-0.020	0.078	0.015	-0.454	-0.068	0.420	2.012	1.240	1.274	1.313	1.367	1.172	1.201
-0.308	-0.034	0.044	0.010	-0.498	-0.054	0.430	2.012	1.265	1.270	1.289	1.343	1.211	1.211
-0.278	-0.039	0.015	-0.039	-0.474	-0.020	0.430	2.017	1.284	1.270	1.274	1.318	1.245	1.230
-0.161	-0.029	-0.034	-0.068	-0.415	-0.010	0.430	2.002	1.318	1.284	1.265	1.299	1.274	1.245
-0.024	-0.024	-0.049	-0.083	-0.356	0.020	0.430	1.987	1.353	1.304	1.274	1.299	1.294	1.274
0.054	-0.010	-0.005	-0.059	-0.303	0.063	0.430	2.017	1.362	1.328	1.304	1.313	1.313	1.294
0.098	-0.010	-0.010	-0.024	-0.254	0.044	0.439	1.992	1.362	1.338	1.309	1.328	1.328	1.299
0.132	0.005	-0.034	0.010	-0.234	-0.010	0.435	2.007	1.357	1.348	1.318	1.338	1.333	1.294
0.127	-0.005	-0.024	0.024	-0.210	-0.063	0.430	1.997	1.338	1.343	1.328	1.343	1.343	1.294
0.088	0.005	0.010	0.034	-0.181	-0.137	0.430	1.992	1.318	1.338	1.343	1.357	1.348	1.289
0.059	0.010	0.039	0.059	-0.181	-0.205	0.464	2.021	1.309	1.333	1.348	1.362	1.348	1.289
0.083	0.024	0.049	0.049	-0.151	-0.181	0.527	2.002	1.318	1.328	1.343	1.362	1.362	1.318
0.029	0.015	-0.142	0.005	-0.098	-0.137	0.513	2.017	1.289	1.304	1.274	1.328	1.362	1.343
-0.059	-0.005	-0.195	-0.010	-0.093	-0.078	0.518	1.997	1.274	1.289	1.274	1.313	1.353	1.362
-0.098	0.000	-0.054	-0.005	-0.127	-0.034	0.474	1.958	1.270	1.294	1.313	1.323	1.333	1.362
-0.225	-0.010	-0.005	0.020	-0.161	0.010	0.459	2.109	1.250	1.270	1.313	1.333	1.323	1.367
-0.239	-0.005	0.015	0.024	-0.127	0.039	0.464	1.978	1.270	1.274	1.313	1.333	1.338	1.367
-0.151	-0.005	0.088	0.039	-0.088	0.073	0.449	1.958	1.313	1.289	1.323	1.343	1.348	1.367
-0.020	0.005	0.181	0.020	-0.039	0.073	0.449	1.978	1.348	1.313	1.343	1.343	1.362	1.367
-0.005	0.029	0.171	0.000	0.068	0.073	0.454	1.968	1.348	1.328	1.338	1.343	1.387	1.372
0.132	0.029	0.132	0.010	0.142	0.088	0.518	2.021	1.387	1.348	1.328	1.348	1.396	1.387
0.264	0.029	0.112	0.029	0.293	0.073	0.518	1.938	1.406	1.372	1.343	1.362	1.431	1.396
0.508	0.034	0.083	0.068	0.513	0.073	0.454	2.109	1.479	1.401	1.353	1.377	1.470	1.421
0.576	0.034	-0.020	0.073	0.537	0.078	0.459	1.968	1.445	1.411	1.333	1.372	1.440	1.426
0.425	0.020	-0.190	0.093	0.474	0.059	0.474	2.065	1.382	1.392	1.309	1.362	1.401	1.411
0.273	0.010	-0.234	0.132	0.371	0.039	0.474	2.080	1.338	1.362	1.313	1.357	1.362	1.387
0.098	0.005	-0.181	0.078	0.264	0.005	0.503	1.953	1.279	1.338	1.333	1.343	1.328	1.362
-0.029	-0.005	-0.078	-0.005	0.107	0.000	0.464	2.036	1.260	1.313	1.348	1.318	1.279	1.333
-0.322	-0.015	0.044	-0.054	-0.059	0.015	0.464	2.021	1.177	1.270	1.357	1.323	1.240	1.309
-0.532	-0.015	0.171	-0.088	-0.161	0.039	0.493	2.017	1.157	1.235	1.353	1.323	1.240	1.299
-0.640	-0.039	0.176	-0.088	-0.190	0.054	0.532	1.938	1.157	1.206	1.313	1.328	1.255	1.289
-0.449	-0.054	0.200	-0.049	-0.146	0.029	0.562	2.007	1.260	1.221	1.299	1.338	1.289	1.284
-0.166	-0.029	0.244	-0.039	-0.161	-0.020	0.562	2.007	1.362	1.270	1.299	1.338	1.294	1.270
0.005	-0.015	0.146	-0.044	-0.151	-0.098	0.532	1.997	1.396	1.309	1.274	1.318	1.304	1.260
0.225	-0.015	0.063	-0.029	-0.127	-0.122	0.562	2.002	1.436	1.343	1.274	1.318	1.309	1.265
0.386	-0.024	0.039	-0.034	-0.166	-0.166	0.601	2.021	1.445	1.372	1.289	1.309	1.294	1.260
0.439	-0.015	-0.029	-0.029	-0.190	-0.181	0.605	2.002	1.416	1.387	1.299	1.309	1.294	1.270
0.415	-0.010	-0.059	-0.015	-0.127	-0.210	0.615	1.987	1.377	1.382	1.318	1.323	1.313	1.274
0.283	0.005	-0.132	-0.020	-0.122	-0.166	0.620	2.036	1.323	1.362	1.304	1.323	1.318	1.294
0.117	0.020	-0.220	0.005	-0.088	-0.122	0.620	1.982	1.265	1.333	1.294	1.323	1.328	1.318
-0.054	0.034	-0.166	0.000	-0.044	-0.059	0.625	2.026	1.230	1.304	1.313	1.328	1.343	1.343
-0.210	0.024	-0.195	0.010	0.010	0.005	0.620	2.012	1.211	1.270	1.289	1.328	1.353	1.367
-0.288	0.044	-0.166	0.000	0.029	0.073	0.630	2.012	1.221	1.260	1.299	1.323	1.353	1.377
-0.273	0.044	-0.088	-0.005	-0.024	0.059	0.625	1.997	1.255	1.260	1.304	1.318	1.318	1.357
-0.278	0.034	0.005	-0.005	-0.195	0.054	0.635	2.021	1.274	1.265	1.318	1.323	1.274	1.328
-0.176	0.029	0.083	-0.005	-0.229	0.059	0.630	2.012	1.328	1.284	1.328	1.328	1.284	1.318
0.107	0.005	0.117	-0.005	-0.156	0.073	0.635	1.997	1.401	1.313	1.333	1.338	1.318	1.323
0.107	-0.005	0.107	-0.005	-0.073	0.078	0.630	2.012	1.367	1.328	1.328	1.343	1.348	1.333
-0.024	-0.029	0.034	0.000	0.044	0.088	0.640	1.992	1.309	1.313	1.304	1.338	1.377	1.353
-0.088	-0.039	-0.142	0.010	0.327	0.117	0.640	2.007	1.299	1.299	1.260	1.328	1.445	1.392
-0.117	-0.034	-0.132	0.005	0.537	0.142	0.640	2.026	1.309	1.299	1.274	1.323	1.465	1.416
-0.103	-0.024	-0.059	0.044	0.703	0.093	0.640	1.992	1.318	1.313	1.309	1.338	1.470	1.426
-0.063	-0.010	-0.005	0.059	0.537	0.088	0.649	2.021	1.338	1.323	1.323	1.338	1.382	1.406
-0.107	-0.010	0.039	0.049	0.308	0.054	0.649	2.002	1.323	1.328	1.333	1.333	1.309	1.367
