-0.005	-0.005	0.005	0.000	0.005	-0.005	0.029	3.975	3.291	3.081	3.042	2.979	2.979	2.983
-0.010	0.010	0.005	0.005	0.000	0.010	0.034	3.970	3.218	3.125	3.062	3.008	2.983	2.988
-0.005	0.020	0.010	0.005	0.000	-0.024	0.029	3.975	3.159	3.135	3.086	3.032	2.993	2.979
-0.010	0.015	0.010	0.005	0.010	0.015	0.029	3.979	3.120	3.130	3.096	3.057	3.018	2.998
-0.010	0.015	0.010	0.000	0.010	0.000	0.034	3.970	3.096	3.120	3.105	3.076	3.027	3.003
-0.005	0.005	0.005	0.000	-0.005	-0.005	0.029	3.975	3.076	3.105	3.105	3.086	3.037	3.018
-0.005	-0.005	0.005	0.000	-0.005	0.010	0.034	3.984	3.062	3.091	3.101	3.096	3.052	3.027
0.000	-0.010	0.000	0.000	-0.005	0.010	0.034	3.960	3.047	3.081	3.091	3.101	3.066	3.037
0.005	-0.005	-0.005	0.000	-0.005	0.005	0.034	3.970	3.047	3.066	3.086	3.101	3.071	3.047
0.015	-0.010	0.000	-0.005	0.000	-0.010	0.034	3.975	3.047	3.062	3.076	3.101	3.081	3.052
0.000	-0.015	-0.005	-0.005	0.000	0.000	0.034	3.994	3.037	3.052	3.071	3.096	3.086	3.066
0.015	-0.010	-0.005	0.000	-0.005	-0.005	0.034	3.955	3.037	3.047	3.062	3.096	3.086	3.071
0.020	-0.005	0.000	-0.005	0.005	0.000	0.034	3.989	3.042	3.047	3.057	3.086	3.086	3.076
0.005	-0.005	-0.005	0.000	0.005	0.005	0.029	3.960	3.037	3.047	3.052	3.086	3.086	3.081
0.005	0.010	-0.005	0.005	0.000	-0.015	0.034	3.970	3.032	3.047	3.052	3.081	3.081	3.076
0.005	0.015	0.000	0.000	-0.005	0.010	0.034	3.975	3.037	3.047	3.047	3.076	3.076	3.081
-0.005	0.010	0.005	0.000	0.005	-0.005	0.034	3.975	3.037	3.042	3.047	3.071	3.076	3.081
-0.005	0.020	0.005	0.005	0.000	0.005	0.034	3.970	3.037	3.042	3.047	3.071	3.071	3.081
-0.010	0.024	0.010	0.005	0.000	0.000	0.034	3.975	3.042	3.042	3.042	3.066	3.071	3.076
-0.005	0.020	0.015	0.005	0.000	-0.020	0.034	3.979	3.042	3.042	3.042	3.066	3.071	3.066
-0.010	0.029	0.005	0.000	0.000	0.005	0.029	3.975	3.042	3.042	3.042	3.066	3.066	3.076
-0.010	0.020	0.005	0.005	0.000	0.015	0.029	3.970	3.042	3.037	3.042	3.062	3.066	3.076
-0.005	0.015	0.005	0.000	0.005	0.005	0.034	3.970	3.042	3.037	3.037	3.062	3.062	3.071
-0.005	0.000	0.005	0.000	0.005	0.010	0.029	3.965	3.037	3.032	3.037	3.057	3.062	3.071
0.000	-0.005	0.000	0.000	0.000	0.005	0.029	3.975	3.047	3.032	3.032	3.057	3.057	3.066
-0.005	-0.005	-0.005	0.000	-0.005	0.000	0.034	3.945	3.042	3.037	3.032	3.052	3.052	3.062
0.000	-0.005	0.000	0.000	0.000	-0.010	0.034	3.970	3.042	3.037	3.032	3.052	3.052	3.057
0.015	-0.020	0.000	0.000	0.000	0.005	0.034	3.975	3.042	3.032	3.027	3.052	3.052	3.057
0.020	-0.020	-0.005	0.000	0.000	0.000	0.034	3.994	3.042	3.037	3.032	3.052	3.047	3.057
0.005	-0.010	-0.005	0.005	0.005	0.010	0.034	3.979	3.037	3.037	3.032	3.052	3.052	3.057
0.010	0.000	0.000	0.005	0.000	-0.005	0.034	3.955	3.032	3.037	3.032	3.052	3.047	3.052
0.010	0.000	0.000	0.000	0.000	0.005	0.034	3.955	3.032	3.037	3.032	3.052	3.047	3.052
0.000	0.000	0.005	0.000	0.000	0.015	0.029	3.975	3.032	3.037	3.032	3.052	3.047	3.052
-0.005	0.005	0.005	0.005	0.000	0.010	0.034	3.955	3.032	3.032	3.037	3.052	3.047	3.052
0.000	0.015	0.000	0.000	0.000	-0.020	0.034	3.965	3.027	3.032	3.032	3.052	3.047	3.042
-0.010	-0.010	0.015	0.005	0.005	0.010	0.029	3.970	3.027	3.027	3.032	3.052	3.052	3.052
-0.010	0.010	0.015	0.000	0.000	-0.015	0.034	3.936	3.027	3.032	3.032	3.052	3.047	3.047
-0.005	0.005	0.015	0.005	0.000	0.010	0.034	3.970	3.032	3.032	3.032	3.052	3.047	3.052
-0.005	0.000	0.000	0.010	0.000	0.005	0.034	3.970	3.032	3.027	3.027	3.052	3.047	3.052
0.000	0.010	0.005	0.005	-0.005	0.005	0.029	3.965	3.037	3.032	3.027	3.052	3.047	3.052
0.005	0.000	0.000	0.005	0.005	-0.015	0.029	3.970	3.037	3.027	3.027	3.047	3.047	3.047
-0.005	-0.005	0.005	0.000	0.000	-0.020	0.034	3.975	3.037	3.032	3.027	3.047	3.047	3.042
0.005	-0.005	0.000	-0.005	0.005	0.005	0.029	3.979	3.037	3.032	3.027	3.047	3.047	3.052
0.010	-0.015	-0.005	0.000	-0.005	-0.005	0.029	3.970	3.037	3.027	3.022	3.042	3.042	3.047
0.010	-0.005	-0.005	0.005	0.000	0.010	0.034	3.979	3.037	3.027	3.027	3.047	3.042	3.047
0.005	-0.020	0.000	0.000	0.000	0.000	0.034	3.965	3.032	3.032	3.022	3.042	3.042	3.042
0.010	-0.005	-0.005	0.000	0.005	0.010	0.034	3.970	3.032	3.032	3.027	3.042	3.042	3.047
0.010	-0.005	0.000	0.000	0.000	0.000	0.034	3.970	3.032	3.032	3.027	3.042	3.037	3.042
0.010	0.005	0.000	0.000	0.005	0.015	0.034	3.984	3.037	3.037	3.027	3.047	3.042	3.047
0.000	0.005	0.005	0.000	0.010	0.015	0.034	3.950	3.027	3.032	3.032	3.047	3.042	3.047
-0.005	0.010	0.005	0.000	0.005	-0.015	0.034	3.975	3.027	3.032	3.032	3.047	3.042	3.037
0.000	0.010	0.005	0.000	0.000	0.010	0.029	3.979	3.027	3.032	3.032	3.047	3.042	3.047
0.000	0.010	0.010	0.005	0.005	0.010	0.034	3.940	3.022	3.027	3.032	3.047	3.042	3.047
-0.010	0.015	0.015	0.000	0.000	-0.020	0.034	3.960	3.022	3.032	3.027	3.047	3.042	3.037
0.005	0.020	0.010	0.000	0.000	0.005	0.034	3.970	3.027	3.032	3.027	3.047	3.042	3.047
-0.005	0.015	0.010	0.000	-0.005	-0.015	0.034	3.965	3.027	3.027	3.022	3.047	3.042	3.042
0.000	-0.015	0.000	0.000	0.000	-0.024	0.029	3.955	3.027	3.018	3.022	3.047	3.042	3.037
0.005	0.000	0.000	-0.005	0.010	0.005	0.029	3.975	3.032	3.027	3.022	3.042	3.042	3.047
0.005	0.000	-0.005	0.000	0.005	0.010	0.034	3.975	3.027	3.022	3.022	3.042	3.042	3.047
0.015	-0.010	-0.005	-0.005	0.000	0.005	0.034	3.970	3.027	3.022	3.018	3.042	3.037	3.047
0.015	-0.010	0.000	0.005	-0.005	0.005	0.029	3.965	3.032	3.022	3.022	3.037	3.037	3.042
0.010	-0.010	-0.005	0.000	0.000	0.005	0.034	3.970	3.027	3.027	3.022	3.037	3.037	3.042
0.010	-0.010	-0.005	0.005	0.000	-0.005	0.034	3.970	3.027	3.027	3.022	3.037	3.037	3.037
0.010	-0.015	-0.005	0.005	0.000	-0.010	0.034	3.950	3.022	3.022	3.022	3.037	3.037	3.037
0.005	-0.015	-0.005	-0.005	0.000	0.005	0.034	3.970	3.022	3.018	3.018	3.037	3.032	3.037
0.005	0.000	0.000	0.000	-0.005	0.005	0.029	3.965	3.022	3.027	3.022	3.037	3.032	3.037
-0.005	0.005	0.000	0.000	0.005	0.005	0.029	3.970	3.022	3.022	3.022	3.037	3.037	3.037
0.000	0.015	0.010	0.000	0.000	0.000	0.029	3.965	3.022	3.027	3.027	3.037	3.032	3.037
0.000	0.010	0.010	0.000	0.000	0.005	0.034	4.004	3.027	3.022	3.027	3.042	3.037	3.037
-0.005	0.010	0.010	0.005	-0.005	0.005	0.034	3.984	3.027	3.027	3.022	3.042	3.037	3.037
-0.010	0.005	0.010	0.000	-0.005	0.005	0.029	3.975	3.022	3.022	3.022	3.042	3.037	3.037
-0.010	0.005	0.005	0.000	-0.005	0.000	0.034	3.975	3.027	3.022	3.022	3.042	3.037	3.037
-0.005	0.005	0.000	0.000	0.005	0.000	0.034	3.975	3.027	3.022	3.018	3.037	3.037	3.037
-0.010	0.000	0.000	0.000	0.000	-0.024	0.034	3.975	3.027	3.022	3.018	3.037	3.037	3.027
0.000	-0.010	0.000	0.000	0.005	0.005	0.034	3.965	3.027	3.022	3.018	3.037	3.037	3.042
0.010	-0.005	0.000	0.000	0.005	-0.005	0.034	3.979	3.032	3.022	3.018	3.037	3.037	3.032
0.010	-0.005	-0.005	0.000	0.005	-0.015	0.034	3.960	3.032	3.027	3.018	3.037	3.032	3.032
0.000	-0.015	-0.005	-0.005	0.005	-0.005	0.034	3.970	3.027	3.018	3.018	3.037	3.032	3.042
0.015	-0.029	-0.005	0.000	0.005	0.010	0.034	3.960	3.027	3.022	3.018	3.037	3.037	3.042
0.010	-0.010	-0.005	0.000	0.000	-0.005	0.034	3.965	3.022	3.022	3.018	3.037	3.032	3.032
0.015	-0.015	-0.005	0.000	-0.005	0.015	0.034	3.965	3.022	3.022	3.018	3.037	3.027	3.037
0.000	0.015	-0.005	0.000	0.000	0.010	0.034	3.960	3.022	3.032	3.022	3.037	3.032	3.037
-0.005	0.020	0.005	0.000	0.005	0.005	0.034	3.975	3.022	3.027	3.027	3.042	3.032	3.032
-0.005	0.015	0.000	0.000	0.000	-0.010	0.034	3.960	3.018	3.022	3.027	3.042	3.032	3.032
-0.015	0.010	0.005	0.005	0.000	-0.015	0.034	3.975	3.013	3.018	3.022	3.042	3.032	3.027
-0.010	0.020	0.005	0.000	0.005	0.015	0.034	3.970	3.022	3.022	3.022	3.042	3.037	3.042
-0.005	0.015	0.015	0.000	0.005	0.010	0.034	3.970	3.027	3.022	3.022	3.042	3.037	3.037
-0.005	0.010	0.010	0.005	0.005	0.000	0.039	3.970	3.022	3.022	3.022	3.042	3.037	3.037
-0.010	0.020	0.005	0.000	0.000	0.000	0.034	3.955	3.022	3.022	3.018	3.037	3.037	3.037
-0.005	0.010	0.000	0.000	-0.005	0.000	0.034	3.984	3.027	3.022	3.018	3.037	3.032	3.037
-0.010	0.010	0.005	0.005	-0.010	0.010	0.034	3.979	3.022	3.022	3.018	3.037	3.032	3.037
0.005	0.000	-0.005	0.000	-0.005	0.005	0.039	3.975	3.027	3.018	3.018	3.037	3.032	3.037
0.005	-0.015	0.000	0.000	-0.005	-0.005	0.039	3.945	3.022	3.018	3.013	3.037	3.032	3.037
0.010	-0.020	0.000	0.000	-0.005	-0.015	0.034	3.945	3.022	3.018	3.013	3.032	3.032	3.027
0.010	-0.015	-0.005	0.000	0.000	0.010	0.034	3.970	3.018	3.018	3.013	3.032	3.032	3.037
0.005	-0.010	-0.005	0.005	0.005	0.005	0.039	3.970	3.022	3.018	3.013	3.032	3.032	3.037
0.000	-0.020	0.000	0.000	0.005	-0.015	0.039	3.975	3.018	3.013	3.013	3.032	3.032	3.027
0.005	0.000	-0.005	0.000	0.005	0.010	0.039	3.965	3.022	3.022	3.013	3.032	3.032	3.037
0.005	0.000	-0.005	0.000	0.010	0.005	0.039	3.970	3.022	3.022	3.013	3.032	3.027	3.032
0.000	0.015	0.000	0.000	0.005	0.000	0.039	3.975	3.018	3.022	3.018	3.032	3.027	3.032
-0.005	0.010	0.000	0.005	0.000	-0.010	0.039	3.965	3.013	3.018	3.018	3.032	3.027	3.027
-0.005	0.015	0.005	0.005	-0.005	0.005	0.039	3.975	3.022	3.022	3.018	3.032	3.027	3.032
-0.005	0.015	0.005	0.000	-0.005	0.010	0.039	3.979	3.022	3.018	3.018	3.037	3.027	3.032
-0.010	0.000	0.005	0.000	0.005	0.005	0.039	3.970	3.018	3.013	3.018	3.032	3.032	3.032
0.000	0.005	0.010	0.000	0.010	-0.015	0.039	3.970	3.018	3.018	3.013	3.032	3.032	3.027
0.000	0.010	0.005	0.000	0.005	-0.005	0.039	3.940	3.018	3.018	3.018	3.037	3.032	3.027
-0.005	0.005	0.005	0.000	0.005	0.010	0.039	3.975	3.022	3.013	3.013	3.032	3.032	3.037
0.000	-0.005	0.000	0.000	0.010	0.005	0.039	3.970	3.022	3.013	3.013	3.032	3.027	3.037
0.005	-0.005	0.000	0.005	0.005	0.000	0.039	3.984	3.022	3.018	3.013	3.032	3.027	3.032
0.005	-0.010	-0.005	0.000	0.005	0.000	0.039	3.979	3.022	3.018	3.013	3.032	3.027	3.032
0.015	-0.005	-0.005	0.000	0.000	-0.015	0.039	3.975	3.027	3.018	3.013	3.027	3.022	3.027
0.005	-0.015	-0.010	-0.005	-0.005	0.000	0.039	3.975	3.027	3.018	3.013	3.032	3.027	3.027
0.010	-0.015	-0.005	0.000	-0.005	-0.015	0.044	3.979	3.022	3.018	3.013	3.032	3.022	3.022
0.010	-0.015	-0.005	0.000	-0.005	0.005	0.039	3.970	3.022	3.018	3.013	3.032	3.027	3.032
0.005	-0.005	0.000	0.000	0.000	-0.010	0.039	3.975	3.022	3.022	3.013	3.032	3.027	3.027
0.000	0.000	-0.005	0.005	0.000	0.010	0.039	3.970	3.018	3.022	3.018	3.032	3.027	3.032
0.000	0.005	-0.005	0.000	-0.015	0.000	0.039	3.936	3.013	3.022	3.018	3.032	3.022	3.027
0.000	0.020	-0.005	0.000	-0.010	0.005	0.039	3.965	3.013	3.022	3.018	3.032	3.027	3.027
-0.010	0.010	0.005	0.005	0.000	-0.005	0.039	3.975	3.013	3.018	3.018	3.037	3.032	3.027
-0.005	0.010	0.005	0.000	0.015	-0.010	0.039	3.979	3.018	3.018	3.018	3.037	3.032	3.027
-0.010	0.015	0.005	0.000	0.015	0.010	0.039	3.965	3.018	3.018	3.018	3.032	3.037	3.037
-0.005	0.010	0.010	0.000	0.005	-0.005	0.039	3.955	3.018	3.018	3.018	3.032	3.032	3.032
-0.010	0.000	0.005	0.000	0.005	0.000	0.039	3.989	3.022	3.013	3.013	3.032	3.032	3.032
0.005	0.005	0.000	0.000	0.005	0.010	0.039	3.970	3.022	3.018	3.013	3.032	3.027	3.037
0.005	-0.005	0.000	0.000	-0.005	0.005	0.039	3.965	3.022	3.013	3.008	3.027	3.027	3.032
0.005	-0.005	-0.005	0.005	0.015	-0.005	0.039	3.965	3.018	3.018	3.013	3.032	3.032	3.032
0.015	0.000	-0.010	0.000	0.005	0.000	0.039	3.975	3.022	3.018	3.013	3.032	3.027	3.027
0.010	-0.015	-0.005	0.000	-0.010	0.015	0.039	3.979	3.022	3.013	3.008	3.027	3.022	3.032
0.015	-0.020	-0.005	0.005	-0.010	0.015	0.039	3.970	3.018	3.018	3.013	3.027	3.027	3.027
0.005	0.000	-0.005	0.005	-0.010	0.010	0.039	3.936	3.013	3.018	3.013	3.027	3.022	3.027
0.015	-0.010	-0.005	0.000	0.000	0.005	0.044	3.960	3.018	3.018	3.013	3.027	3.027	3.027
0.005	0.005	-0.005	0.000	0.000	0.005	0.039	3.975	3.013	3.018	3.013	3.027	3.027	3.027
0.010	0.010	0.000	0.010	0.000	-0.015	0.044	3.936	3.013	3.018	3.013	3.032	3.027	3.022
-0.005	0.020	0.005	0.000	0.020	-0.005	0.044	3.950	3.003	3.018	3.018	3.032	3.032	3.027
0.000	0.015	0.005	0.000	0.020	0.000	0.044	3.950	3.008	3.013	3.013	3.032	3.032	3.027
-0.010	0.020	0.010	0.005	0.005	0.010	0.039	3.950	3.008	3.013	3.013	3.032	3.027	3.032
-0.005	0.010	0.005	0.000	0.005	-0.005	0.039	3.965	3.013	3.008	3.013	3.027	3.022	3.027
0.000	0.010	0.005	0.005	0.000	0.000	0.044	3.975	3.013	3.013	3.013	3.032	3.027	3.027
-0.010	0.000	0.005	0.005	0.005	-0.005	0.044	3.975	3.013	3.008	3.008	3.032	3.027	3.027
-0.005	0.000	0.005	0.005	0.000	0.005	0.044	3.970	3.018	3.008	3.008	3.027	3.027	3.032
0.010	-0.005	0.005	0.000	0.015	0.000	0.039	3.970	3.022	3.013	3.008	3.027	3.027	3.027
-0.005	-0.005	-0.005	0.000	0.020	-0.005	0.044	3.960	3.013	3.008	3.003	3.027	3.027	3.027
0.005	-0.015	0.000	0.005	0.000	0.000	0.044	3.945	3.018	3.013	3.003	3.022	3.022	3.027
0.015	-0.020	0.000	0.000	-0.020	-0.005	0.039	3.975	3.018	3.008	3.008	3.022	3.013	3.022
0.015	-0.024	-0.005	0.000	-0.015	0.000	0.039	3.979	3.018	3.008	3.003	3.022	3.018	3.022
0.010	-0.015	-0.005	0.000	-0.015	-0.005	0.039	3.975	3.013	3.013	3.008	3.022	3.018	3.022
0.015	-0.010	-0.005	0.000	-0.020	0.000	0.039	3.970	3.018	3.018	3.008	3.022	3.018	3.022
0.000	0.010	-0.005	0.000	-0.024	0.010	0.039	3.965	3.013	3.022	3.008	3.027	3.018	3.022
0.000	0.010	0.000	0.005	0.005	0.000	0.044	3.984	3.013	3.018	3.013	3.027	3.027	3.022
-0.005	0.015	0.000	0.000	-0.005	-0.005	0.039	3.979	3.013	3.018	3.013	3.027	3.022	3.018
-0.005	0.005	0.005	0.000	-0.015	0.005	0.044	3.970	3.013	3.013	3.013	3.027	3.022	3.022
-0.010	0.010	0.010	0.000	-0.020	-0.010	0.039	3.984	3.013	3.013	3.013	3.032	3.018	3.018
-0.005	0.005	0.015	0.000	-0.015	-0.010	0.039	3.989	3.018	3.013	3.013	3.032	3.027	3.022
-0.010	0.015	0.005	0.005	0.010	0.010	0.039	3.960	3.013	3.013	3.013	3.032	3.032	3.032
-0.010	0.015	0.005	0.000	0.029	-0.005	0.044	3.970	3.013	3.013	3.013	3.032	3.037	3.027
-0.015	0.005	0.010	0.000	0.029	0.010	0.039	3.979	3.013	3.008	3.013	3.032	3.037	3.032
-0.005	0.000	0.005	-0.005	0.024	0.000	0.039	3.926	3.013	3.008	3.008	3.027	3.032	3.032
0.010	-0.005	-0.005	0.005	0.020	0.000	0.044	3.979	3.018	3.013	3.003	3.027	3.027	3.027
0.010	0.005	0.000	0.000	0.024	-0.005	0.044	3.965	3.018	3.013	3.008	3.027	3.027	3.027
0.000	-0.010	-0.005	-0.005	0.010	0.005	0.039	3.975	3.018	3.008	3.008	3.027	3.022	3.027
0.015	-0.010	-0.010	0.000	-0.005	0.005	0.044	3.975	3.018	3.013	3.003	3.027	3.013	3.027
0.000	-0.015	-0.005	0.000	-0.010	-0.005	0.044	3.979	3.018	3.008	3.008	3.027	3.018	3.022
0.010	-0.005	-0.005	0.005	-0.005	0.000	0.044	3.979	3.018	3.013	3.008	3.027	3.018	3.022
-0.005	-0.005	-0.005	0.000	0.010	-0.005	0.044	3.955	3.013	3.013	3.008	3.027	3.027	3.022
-0.005	-0.005	0.000	-0.005	0.015	0.000	0.039	3.975	3.013	3.013	3.008	3.027	3.022	3.022
0.000	0.005	0.005	-0.005	0.005	-0.005	0.039	3.975	3.013	3.013	3.008	3.027	3.022	3.022
0.000	0.010	0.005	0.005	0.000	-0.024	0.044	3.960	3.013	3.018	3.013	3.027	3.018	3.018
0.000	0.010	0.005	0.000	-0.015	0.000	0.039	3.975	3.013	3.018	3.013	3.027	3.018	3.022
0.000	0.005	0.005	0.005	-0.020	0.015	0.044	3.970	3.018	3.018	3.013	3.027	3.018	3.027
-0.010	0.000	0.005	0.005	-0.010	0.000	0.039	3.965	3.008	3.013	3.013	3.027	3.022	3.022
0.000	-0.005	0.010	0.000	-0.005	-0.005	0.044	3.979	3.018	3.008	3.013	3.027	3.027	3.022
-0.005	0.000	0.015	0.005	0.005	0.000	0.044	3.940	3.013	3.013	3.013	3.027	3.027	3.022
-0.010	0.000	0.005	0.005	0.005	0.005	0.044	3.945	3.008	3.013	3.013	3.027	3.027	3.027
-0.005	-0.010	0.000	0.000	0.000	0.000	0.039	3.970	3.013	3.008	3.008	3.027	3.027	3.027
0.005	0.000	-0.005	0.000	0.000	0.010	0.044	3.960	3.018	3.013	3.008	3.022	3.027	3.032
0.015	-0.015	-0.005	0.000	-0.005	0.005	0.039	3.955	3.018	3.013	3.003	3.027	3.022	3.027
0.024	0.000	-0.010	0.000	0.015	0.010	0.044	3.965	3.013	3.013	3.008	3.027	3.027	3.027
0.010	0.005	-0.005	-0.005	0.015	0.000	0.039	3.979	3.013	3.018	3.008	3.022	3.027	3.027
0.010	0.024	-0.005	0.000	0.010	0.005	0.034	3.979	3.018	3.018	3.013	3.027	3.018	3.022
0.005	0.015	-0.005	-0.005	-0.005	-0.005	0.034	3.975	3.018	3.013	3.008	3.027	3.018	3.018
0.000	0.005	-0.005	0.000	-0.005	-0.005	0.034	3.960	3.008	3.013	3.008	3.027	3.018	3.022
0.000	-0.005	0.000	0.000	-0.005	0.015	0.034	3.960	3.008	3.008	3.008	3.027	3.022	3.027
-0.005	0.010	0.000	0.000	0.005	0.005	0.034	3.979	3.013	3.013	3.008	3.027	3.022	3.022
-0.010	0.020	-0.005	0.000	0.005	0.000	0.034	3.975	3.013	3.013	3.008	3.027	3.022	3.022
-0.010	0.010	0.005	0.000	0.005	-0.020	0.034	3.950	3.008	3.008	3.013	3.027	3.022	3.022
-0.015	0.005	0.010	0.000	0.000	0.010	0.034	3.979	3.008	3.003	3.008	3.027	3.022	3.027
-0.010	0.005	0.010	0.000	0.000	0.005	0.034	3.965	3.013	3.008	3.008	3.027	3.022	3.022
-0.010	0.005	0.005	0.005	0.000	-0.005	0.034	3.984	3.018	3.008	3.008	3.027	3.022	3.022
-0.005	-0.010	0.010	0.000	0.000	0.000	0.029	3.989	3.018	3.008	3.008	3.027	3.022	3.027
0.000	-0.020	0.005	0.005	0.000	0.005	0.034	3.979	3.022	3.008	3.003	3.027	3.022	3.027
0.000	-0.015	0.005	0.000	0.005	-0.005	0.034	3.979	3.022	3.008	3.003	3.022	3.022	3.022
0.010	-0.020	-0.005	0.005	-0.005	0.005	0.034	3.945	3.022	3.013	3.003	3.027	3.022	3.027
0.015	-0.015	-0.005	0.000	0.005	0.005	0.034	3.975	3.018	3.018	3.008	3.022	3.022	3.027
0.015	-0.020	-0.010	0.000	0.005	0.005	0.034	3.960	3.018	3.013	3.008	3.022	3.018	3.022
0.020	-0.015	-0.005	0.000	-0.005	0.000	0.034	3.970	3.018	3.013	3.008	3.022	3.018	3.022
0.020	-0.010	-0.010	0.000	-0.010	0.005	0.034	3.984	3.018	3.013	3.008	3.027	3.018	3.022
0.015	-0.005	-0.005	0.005	-0.005	0.000	0.034	3.970	3.013	3.018	3.013	3.027	3.022	3.018
0.010	0.000	-0.005	0.005	-0.005	0.005	0.034	3.965	3.013	3.018	3.013	3.027	3.022	3.022
0.005	0.024	0.000	0.005	0.000	0.005	0.034	3.970	3.013	3.022	3.013	3.032	3.022	3.022
0.000	0.020	0.000	0.000	0.000	0.000	0.034	3.975	3.013	3.018	3.013	3.027	3.022	3.022
-0.005	0.024	0.010	0.000	-0.005	0.010	0.034	3.979	3.008	3.013	3.018	3.032	3.022	3.022
-0.005	0.029	0.005	0.005	0.000	-0.010	0.034	3.965	3.013	3.013	3.013	3.027	3.027	3.018
0.000	0.015	0.005	0.005	0.005	-0.010	0.034	3.970	3.008	3.008	3.013	3.032	3.027	3.022
-0.015	0.015	0.010	0.005	0.005	0.005	0.034	3.970	3.013	3.013	3.013	3.032	3.027	3.027
-0.015	0.010	0.010	0.000	0.000	0.015	0.034	3.965	3.013	3.008	3.008	3.027	3.027	3.032
-0.010	0.005	0.010	0.000	0.000	-0.005	0.034	3.979	3.018	3.008	3.008	3.027	3.022	3.027
-0.005	0.000	0.000	0.000	-0.005	0.000	0.034	3.965	3.018	3.008	3.003	3.027	3.022	3.022
0.000	0.000	0.000	0.005	-0.010	0.005	0.034	3.970	3.018	3.008	3.008	3.027	3.018	3.027
0.015	-0.010	0.000	0.000	-0.010	0.000	0.034	3.940	3.013	3.008	3.008	3.022	3.022	3.022
0.010	-0.010	0.000	0.005	0.005	-0.015	0.034	3.975	3.013	3.008	3.003	3.022	3.027	3.022
0.015	-0.024	-0.005	0.000	0.020	0.010	0.034	3.965	3.013	3.008	3.003	3.022	3.027	3.032
0.015	-0.020	-0.005	0.005	0.020	0.005	0.034	3.936	3.008	3.008	3.003	3.022	3.027	3.027
0.015	-0.005	-0.010	0.000	0.015	0.010	0.034	3.950	3.008	3.013	3.003	3.022	3.022	3.027
0.005	-0.005	-0.005	0.005	0.010	-0.005	0.034	3.975	3.008	3.008	3.008	3.022	3.018	3.022
0.005	0.000	-0.005	0.000	-0.005	0.005	0.034	3.960	3.008	3.008	3.008	3.022	3.013	3.022
0.005	0.010	0.000	0.005	-0.034	0.000	0.034	3.955	3.008	3.013	3.008	3.022	3.008	3.018
0.000	0.010	-0.005	0.000	-0.010	0.020	0.034	3.955	3.008	3.008	3.008	3.022	3.022	3.022
-0.005	0.010	0.000	0.000	0.020	0.005	0.034	3.970	3.008	3.008	3.008	3.022	3.027	3.027
0.000	0.010	0.010	0.000	0.039	0.020	0.034	3.965	3.008	3.008	3.008	3.027	3.032	3.027
-0.015	0.000	0.015	0.005	0.054	0.005	0.034	3.945	3.008	3.008	3.008	3.027	3.032	3.027
-0.010	0.005	0.010	0.005	0.020	-0.020	0.034	3.975	3.013	3.008	3.008	3.027	3.018	3.018
-0.015	0.010	0.010	0.000	-0.034	0.005	0.034	3.979	3.013	3.008	3.003	3.022	3.003	3.018
0.000	-0.005	0.005	0.000	-0.034	0.005	0.034	3.970	3.013	3.008	3.003	3.022	3.013	3.018
0.005	0.000	0.005	0.000	-0.024	0.000	0.034	3.955	3.018	3.013	3.003	3.022	3.018	3.018
0.000	0.005	0.005	-0.005	-0.024	0.000	0.034	3.965	3.013	3.013	3.008	3.022	3.013	3.018
-0.005	-0.005	-0.005	0.000	-0.044	-0.005	0.034	3.979	3.013	3.008	3.003	3.022	3.013	3.013
0.005	-0.010	0.000	0.005	-0.029	-0.020	0.034	3.955	3.013	3.008	3.003	3.027	3.018	3.013
0.000	-0.015	-0.010	0.000	-0.029	-0.005	0.029	3.994	3.013	3.003	3.003	3.022	3.018	3.013
0.005	-0.005	-0.005	0.000	0.010	-0.005	0.034	3.994	3.013	3.008	3.003	3.022	3.027	3.018
0.005	-0.005	0.000	0.005	0.029	0.010	0.034	3.970	3.008	3.008	3.003	3.022	3.032	3.032
0.005	0.005	0.000	0.000	0.039	0.020	0.034	3.979	3.018	3.013	3.008	3.022	3.032	3.032
0.010	0.005	0.005	0.000	0.049	0.020	0.034	3.970	3.018	3.018	3.008	3.027	3.027	3.032
-0.005	0.024	0.005	0.000	0.015	0.010	0.029	3.984	3.018	3.018	3.013	3.027	3.018	3.022
0.000	0.015	0.005	0.000	0.000	0.000	0.034	3.984	3.013	3.013	3.008	3.027	3.013	3.018
0.005	0.010	0.010	0.000	-0.024	0.000	0.034	3.970	3.018	3.018	3.008	3.027	3.013	3.018
0.000	0.024	0.000	0.005	-0.015	-0.005	0.034	3.984	3.013	3.013	3.013	3.027	3.018	3.018
-0.010	0.005	0.010	0.000	-0.024	-0.005	0.034	3.970	3.013	3.013	3.013	3.027	3.018	3.018
-0.005	0.015	0.005	0.000	-0.039	0.000	0.034	3.984	3.018	3.013	3.013	3.027	3.013	3.018
-0.005	0.005	0.000	0.000	-0.029	0.015	0.034	3.975	3.013	3.008	3.008	3.027	3.022	3.022
0.000	0.000	0.005	0.005	-0.010	0.005	0.034	3.965	3.013	3.013	3.008	3.027	3.027	3.022
-0.010	-0.005	0.000	0.000	0.034	0.000	0.034	3.975	3.013	3.008	3.008	3.027	3.037	3.027
0.000	-0.010	0.005	0.000	0.024	0.010	0.034	3.975	3.013	3.008	3.008	3.027	3.027	3.032
0.005	-0.015	0.000	0.005	-0.005	0.015	0.034	3.979	3.018	3.008	3.003	3.027	3.022	3.027
0.005	-0.010	-0.005	0.000	-0.005	-0.005	0.034	3.965	3.018	3.013	3.003	3.022	3.018	3.022
0.000	-0.015	-0.010	0.000	0.015	0.005	0.034	3.970	3.013	3.008	3.003	3.022	3.027	3.027
0.020	-0.005	-0.010	0.000	0.010	0.000	0.034	3.965	3.018	3.018	3.003	3.022	3.022	3.022
0.015	0.005	-0.010	0.000	0.015	0.005	0.034	3.979	3.018	3.018	3.008	3.022	3.022	3.027
0.000	0.015	-0.005	-0.005	0.015	0.000	0.034	3.960	3.013	3.013	3.013	3.022	3.018	3.022
0.010	0.010	0.000	0.000	-0.044	0.010	0.034	3.960	3.013	3.013	3.013	3.022	3.003	3.018
0.000	0.010	0.005	0.000	0.024	0.000	0.034	3.979	3.013	3.013	3.013	3.027	3.032	3.018
-0.005	0.010	0.005	0.000	0.098	0.005	0.029	3.984	3.008	3.008	3.008	3.032	3.047	3.032
0.000	0.015	0.010	0.005	0.073	-0.005	0.034	3.950	3.008	3.013	3.013	3.032	3.037	3.032
-0.010	0.010	0.010	0.000	0.029	-0.005	0.029	3.960	3.008	3.008	3.008	3.027	3.018	3.027
-0.010	0.005	0.005	0.000	0.005	-0.005	0.029	3.970	3.008	3.008	3.008	3.027	3.013	3.022
-0.010	0.005	0.005	0.000	0.005	-0.010	0.034	3.979	3.008	3.008	3.008	3.027	3.018	3.022
-0.005	-0.005	0.005	0.000	0.020	-0.020	0.034	3.975	3.013	3.008	3.008	3.027	3.022	3.018
-0.010	0.000	0.015	-0.005	0.039	-0.005	0.034	3.975	3.013	3.013	3.008	3.027	3.027	3.027
-0.005	-0.005	0.000	0.000	0.024	0.000	0.029	3.965	3.013	3.008	3.003	3.022	3.022	3.027
-0.005	-0.010	0.000	0.000	0.010	-0.015	0.034	3.965	3.018	3.008	3.003	3.022	3.018	3.022
0.000	-0.005	0.000	0.000	0.005	0.000	0.034	3.979	3.018	3.008	3.003	3.022	3.018	3.022
0.005	-0.010	-0.010	0.000	0.005	-0.005	0.034	3.965	3.013	3.008	3.003	3.022	3.018	3.022
0.005	-0.015	-0.005	0.000	0.005	-0.005	0.034	3.975	3.018	3.008	3.003	3.022	3.018	3.022
0.010	-0.010	-0.005	0.000	0.005	-0.020	0.034	3.979	3.013	3.013	3.003	3.022	3.018	3.018
0.005	-0.010	-0.005	0.005	-0.005	-0.005	0.034	3.979	3.013	3.008	3.003	3.022	3.018	3.018
-0.005	-0.020	-0.010	0.010	-0.005	-0.015	0.034	3.931	3.008	3.008	3.003	3.022	3.013	3.013
0.000	-0.010	-0.005	0.005	-0.020	-0.005	0.034	3.965	3.008	3.008	3.008	3.022	3.013	3.018
0.010	0.010	-0.005	0.000	-0.020	0.010	0.034	3.975	3.013	3.013	3.008	3.022	3.013	3.022
0.010	0.015	0.010	0.000	-0.039	0.000	0.034	3.989	3.013	3.013	3.013	3.022	3.008	3.018
0.000	0.010	0.010	0.000	-0.054	0.015	0.034	3.989	3.018	3.013	3.008	3.027	3.008	3.018
-0.010	0.020	0.005	0.005	-0.049	0.010	0.029	3.960	3.008	3.013	3.013	3.022	3.013	3.018
-0.005	0.015	0.010	0.000	-0.049	0.005	0.029	3.975	3.013	3.013	3.013	3.027	3.018	3.018
-0.005	0.020	0.005	0.005	-0.054	0.005	0.034	3.979	3.013	3.013	3.008	3.027	3.018	3.018
0.000	0.010	0.000	0.005	-0.029	0.010	0.034	3.960	3.013	3.008	3.013	3.027	3.027	3.022
0.000	0.010	0.000	0.005	-0.005	0.015	0.029	3.970	3.013	3.008	3.008	3.027	3.032	3.022
0.000	-0.005	0.000	0.000	0.029	-0.005	0.029	3.970	3.008	3.003	3.008	3.027	3.037	3.027
0.005	0.000	0.000	0.000	0.068	0.005	0.029	3.940	3.013	3.008	3.008	3.027	3.047	3.032
0.015	-0.015	-0.005	0.000	0.063	0.020	0.029	3.901	3.008	3.003	3.003	3.027	3.037	3.042
0.010	-0.005	-0.005	0.000	0.068	0.024	0.029	3.950	3.008	3.003	3.003	3.022	3.032	3.042
0.010	-0.015	-0.005	0.000	0.088	0.015	0.034	3.950	3.008	3.003	3.003	3.022	3.037	3.037
0.010	-0.015	-0.005	0.000	0.088	0.010	0.034	3.936	3.008	3.008	3.003	3.022	3.027	3.032
0.005	0.010	-0.005	0.000	0.039	-0.005	0.034	3.979	3.013	3.013	3.003	3.022	3.013	3.022
0.005	0.005	0.000	0.000	0.020	0.005	0.034	4.028	3.018	3.013	3.003	3.018	3.008	3.022
0.000	0.020	0.000	-0.005	-0.005	0.005	0.034	4.023	3.018	3.018	3.008	3.018	3.003	3.018
0.005	0.010	0.000	0.010	-0.024	0.000	0.034	3.936	3.013	3.013	3.008	3.022	3.003	3.008
0.005	0.015	0.000	0.000	-0.044	0.005	0.034	4.023	3.022	3.013	3.008	3.022	2.998	3.008
-0.010	0.015	0.005	-0.005	-0.044	0.010	0.034	4.033	3.022	3.013	3.013	3.022	3.003	3.008
-0.005	0.020	0.005	0.000	-0.049	-0.020	0.034	4.023	3.022	3.018	3.013	3.022	3.008	3.003
-0.005	0.020	0.005	0.005	-0.049	0.010	0.034	3.999	3.027	3.018	3.013	3.027	3.013	3.013
-0.005	0.005	0.000	0.005	-0.044	0.010	0.034	4.038	3.027	3.018	3.013	3.027	3.018	3.018
-0.010	0.005	0.000	0.000	-0.034	0.000	0.029	4.019	3.027	3.018	3.013	3.027	3.022	3.018
-0.005	-0.005	0.000	0.000	-0.029	0.010	0.034	3.931	3.022	3.018	3.013	3.027	3.022	3.022
0.000	-0.015	0.000	0.000	-0.024	-0.020	0.034	3.970	3.018	3.018	3.013	3.032	3.022	3.013
0.005	-0.020	0.000	0.000	-0.020	0.010	0.034	3.960	3.018	3.013	3.013	3.027	3.027	3.027
-0.005	-0.024	-0.010	0.000	-0.015	0.000	0.034	3.955	3.008	3.008	3.008	3.027	3.027	3.027
0.015	-0.024	-0.005	0.005	-0.005	-0.005	0.034	3.926	3.008	3.008	3.013	3.027	3.027	3.027
0.020	-0.020	-0.005	0.005	-0.010	0.005	0.034	3.936	3.003	3.013	3.008	3.027	3.027	3.027
0.000	-0.010	-0.005	0.000	-0.015	-0.005	0.034	4.033	3.013	3.013	3.008	3.027	3.022	3.027
0.000	-0.005	0.000	0.000	-0.034	0.000	0.034	4.033	3.022	3.013	3.008	3.027	3.018	3.022
0.005	0.005	0.000	0.000	-0.029	-0.005	0.034	3.945	3.013	3.018	3.008	3.027	3.022	3.022
0.010	-0.005	0.000	0.000	-0.020	0.000	0.034	4.058	3.022	3.018	3.013	3.027	3.022	3.022
0.000	0.000	0.000	0.005	-0.024	-0.005	0.034	4.014	3.022	3.018	3.013	3.027	3.022	3.022
-0.005	0.024	0.005	0.000	-0.029	-0.010	0.029	3.931	3.013	3.022	3.018	3.027	3.022	3.018
0.000	0.010	0.005	0.000	-0.054	0.015	0.034	3.955	3.013	3.018	3.013	3.027	3.018	3.027
-0.010	0.039	0.010	0.000	-0.059	0.010	0.034	4.038	3.008	3.022	3.018	3.032	3.022	3.022
0.000	0.034	0.005	0.000	-0.024	0.000	0.034	3.950	3.008	3.018	3.018	3.032	3.032	3.027
-0.005	0.015	0.005	0.005	0.029	0.005	0.034	3.916	3.003	3.008	3.013	3.032	3.047	3.037
0.000	0.005	0.005	0.000	0.103	0.010	0.034	3.970	3.013	3.003	3.013	3.032	3.062	3.047
-0.005	-0.005	0.000	0.000	0.122	-0.005	0.034	4.023	3.018	3.003	3.008	3.032	3.057	3.047
0.000	-0.005	0.005	0.005	0.122	0.000	0.034	3.975	3.022	3.008	3.008	3.032	3.047	3.047
-0.005	0.000	0.000	0.010	0.088	0.000	0.034	3.965	3.018	3.008	3.003	3.027	3.037	3.042
0.010	-0.024	0.000	0.000	0.107	0.020	0.039	3.979	3.022	3.008	3.003	3.027	3.037	3.047
0.000	-0.005	-0.005	0.000	0.107	0.015	0.039	3.994	3.022	3.018	3.003	3.022	3.032	3.042
0.015	-0.020	-0.005	0.005	0.054	-0.005	0.039	3.970	3.027	3.013	3.008	3.022	3.008	3.027
0.005	-0.010	-0.005	0.005	-0.005	-0.015	0.044	3.989	3.022	3.013	3.008	3.022	2.998	3.013
0.005	-0.010	-0.005	0.000	-0.010	-0.005	0.044	3.984	3.022	3.018	3.013	3.022	3.003	3.013
0.010	-0.005	0.000	0.005	-0.024	-0.024	0.044	3.965	3.018	3.018	3.013	3.027	3.003	3.008
0.005	-0.010	0.000	0.000	-0.034	-0.034	0.039	3.975	3.018	3.018	3.008	3.027	3.003	3.003
0.005	0.005	0.000	0.005	-0.029	-0.020	0.044	3.994	3.018	3.018	3.013	3.027	3.013	3.013
0.000	0.000	0.005	0.005	-0.063	-0.005	0.039	3.970	3.018	3.018	3.018	3.027	3.008	3.013
-0.005	0.010	0.005	0.005	-0.078	0.000	0.039	3.965	3.013	3.018	3.013	3.027	3.008	3.013
0.000	0.015	0.010	0.005	-0.063	0.005	0.039	3.965	3.008	3.018	3.018	3.032	3.018	3.018
-0.010	0.024	0.010	0.000	-0.039	0.000	0.039	3.984	3.008	3.018	3.018	3.032	3.027	3.018
0.000	0.015	0.005	0.005	-0.049	0.005	0.039	3.989	3.013	3.013	3.013	3.032	3.027	3.022
0.000	0.010	0.000	0.005	-0.044	-0.005	0.039	3.970	3.013	3.013	3.008	3.032	3.027	3.022
0.005	0.005	0.005	0.000	-0.029	0.010	0.039	3.970	3.018	3.013	3.008	3.027	3.032	3.027
0.005	0.000	0.000	0.000	0.029	0.015	0.044	3.989	3.018	3.013	3.008	3.032	3.047	3.037
-0.005	-0.005	0.000	0.005	0.063	0.005	0.044	3.984	3.018	3.008	3.008	3.027	3.047	3.037
0.010	-0.010	-0.005	0.000	0.059	0.005	0.044	3.960	3.022	3.013	3.003	3.027	3.037	3.037
0.015	-0.005	-0.010	0.000	0.044	0.024	0.039	3.994	3.027	3.018	3.003	3.027	3.032	3.042
0.005	-0.015	-0.005	0.000	0.054	0.015	0.039	3.984	3.022	3.013	3.008	3.027	3.027	3.032
0.005	-0.010	0.000	0.000	0.059	0.020	0.039	3.984	3.022	3.013	3.013	3.027	3.032	3.037
0.010	0.000	0.000	0.000	0.049	0.020	0.039	3.955	3.018	3.018	3.013	3.027	3.027	3.032
0.000	-0.005	0.000	0.005	-0.010	0.029	0.044	3.955	3.013	3.013	3.013	3.027	3.008	3.027
0.005	-0.005	0.000	0.005	-0.020	0.024	0.044	3.945	3.013	3.013	3.013	3.027	3.013	3.022
0.005	0.000	0.005	0.000	-0.020	-0.010	0.039	3.931	3.013	3.018	3.013	3.027	3.013	3.013
-0.010	0.015	0.005	0.000	0.000	-0.020	0.044	4.077	3.018	3.022	3.013	3.027	3.022	3.013
-0.010	0.005	0.000	0.005	0.054	-0.015	0.039	3.926	3.013	3.013	3.013	3.032	3.037	3.022
-0.005	0.015	0.010	0.000	0.000	0.000	0.039	4.028	3.022	3.018	3.018	3.027	3.018	3.022
-0.010	0.010	0.010	0.000	-0.068	-0.005	0.044	4.043	3.018	3.013	3.018	3.027	3.003	3.018
-0.005	0.005	0.005	0.000	-0.059	0.024	0.044	3.955	3.022	3.018	3.013	3.032	3.018	3.027
-0.005	0.010	0.000	0.000	-0.015	0.015	0.039	4.004	3.018	3.013	3.013	3.032	3.027	3.027
-0.005	0.000	-0.005	0.000	-0.015	0.015	0.044	3.960	3.018	3.013	3.013	3.032	3.027	3.022
0.000	-0.020	-0.005	0.000	0.000	-0.015	0.044	3.936	3.013	3.008	3.008	3.032	3.032	3.018
0.010	-0.024	0.000	0.000	0.005	-0.029	0.039	3.916	3.008	3.008	3.003	3.032	3.032	3.022
0.000	-0.010	-0.005	0.005	0.015	-0.034	0.039	3.955	3.008	3.008	3.008	3.027	3.032	3.022
0.010	0.010	-0.010	0.005	0.000	-0.015	0.044	4.009	3.013	3.013	3.008	3.027	3.022	3.027
0.005	0.000	-0.005	0.000	-0.039	0.000	0.039	3.989	3.013	3.008	3.008	3.022	3.013	3.027
0.005	0.000	0.000	0.000	-0.024	-0.010	0.039	3.916	3.008	3.008	3.008	3.027	3.018	3.022
0.005	0.005	0.000	0.005	-0.010	-0.010	0.044	3.975	3.013	3.013	3.008	3.027	3.027	3.022
-0.005	0.005	0.000	0.005	0.000	0.015	0.044	3.999	3.013	3.008	3.008	3.022	3.027	3.032
0.005	-0.005	0.005	0.005	0.005	0.005	0.039	3.965	3.013	3.008	3.008	3.027	3.022	3.027
0.000	0.010	0.000	0.000	0.020	0.000	0.039	3.989	3.013	3.013	3.008	3.027	3.027	3.027
0.005	0.005	0.000	0.005	0.000	0.005	0.044	3.984	3.018	3.013	3.008	3.027	3.022	3.027
-0.010	0.015	0.000	0.000	-0.029	0.015	0.044	4.009	3.018	3.013	3.008	3.027	3.013	3.027
-0.010	0.015	0.005	0.005	-0.020	0.015	0.044	3.965	3.018	3.018	3.013	3.027	3.022	3.027
0.000	0.005	0.005	0.000	-0.015	0.000	0.039	3.965	3.018	3.013	3.013	3.027	3.022	3.018
-0.010	0.005	0.010	0.000	0.000	0.020	0.044	3.979	3.013	3.013	3.013	3.027	3.027	3.027
0.005	-0.005	-0.005	0.005	0.010	0.010	0.039	3.984	3.018	3.013	3.008	3.027	3.027	3.027
0.005	0.005	0.000	0.000	0.000	0.015	0.039	3.965	3.018	3.013	3.013	3.027	3.027	3.027
0.005	-0.010	0.000	0.000	0.010	-0.020	0.039	4.004	3.018	3.013	3.008	3.027	3.027	3.018
0.000	-0.010	-0.005	0.005	0.015	0.010	0.044	3.960	3.013	3.013	3.008	3.027	3.027	3.032
0.015	-0.010	-0.010	0.000	0.020	0.000	0.039	3.989	3.022	3.013	3.008	3.022	3.027	3.027
0.010	-0.015	-0.005	0.000	0.010	0.010	0.044	3.960	3.018	3.013	3.008	3.027	3.022	3.032
0.015	-0.010	-0.005	0.000	0.005	0.000	0.039	3.970	3.018	3.013	3.008	3.027	3.022	3.027
0.005	-0.010	-0.005	0.000	0.020	0.005	0.044	3.989	3.013	3.013	3.013	3.027	3.022	3.027
0.005	-0.005	0.000	0.000	0.015	0.010	0.039	3.999	3.022	3.018	3.008	3.027	3.022	3.027
0.000	-0.005	0.000	0.000	0.005	0.000	0.039	3.994	3.018	3.018	3.013	3.027	3.018	3.022
0.000	0.000	0.000	0.000	-0.005	0.000	0.039	3.970	3.018	3.018	3.013	3.027	3.022	3.022
-0.005	0.005	0.005	0.000	0.010	0.000	0.039	3.965	3.018	3.018	3.013	3.032	3.022	3.022
-0.005	0.015	0.005	0.000	-0.005	0.015	0.039	4.009	3.022	3.022	3.018	3.032	3.022	3.027
-0.005	0.015	0.005	0.000	-0.005	0.010	0.044	3.975	3.018	3.022	3.018	3.032	3.027	3.027
-0.005	0.015	0.010	0.005	-0.005	0.010	0.039	3.965	3.018	3.018	3.018	3.037	3.022	3.022
-0.005	0.029	0.005	0.000	-0.029	0.010	0.044	3.945	3.013	3.018	3.018	3.032	3.022	3.022
-0.010	0.015	0.005	0.005	-0.020	-0.005	0.044	3.950	3.013	3.013	3.013	3.032	3.027	3.022
-0.005	0.020	0.000	0.000	0.010	0.000	0.039	3.940	3.013	3.013	3.013	3.032	3.032	3.027
-0.005	0.015	0.000	0.005	0.029	-0.005	0.044	4.023	3.027	3.013	3.013	3.032	3.037	3.027
0.005	0.010	0.000	0.000	0.054	0.005	0.039	3.931	3.022	3.013	3.013	3.032	3.042	3.037
0.010	-0.005	-0.005	0.005	0.059	0.005	0.044	3.931	3.018	3.008	3.008	3.032	3.037	3.037
0.015	-0.010	0.000	0.005	0.029	0.005	0.044	4.009	3.027	3.013	3.008	3.027	3.027	3.032
0.000	-0.010	0.000	0.005	-0.010	0.015	0.044	4.023	3.022	3.013	3.008	3.027	3.018	3.032
0.010	-0.015	-0.005	0.005	-0.005	-0.015	0.039	3.911	3.018	3.013	3.008	3.027	3.018	3.022
0.015	-0.015	-0.005	0.005	0.005	0.005	0.039	4.043	3.027	3.018	3.008	3.027	3.022	3.027
0.005	0.015	0.000	0.000	0.000	0.010	0.039	3.950	3.022	3.022	3.013	3.027	3.022	3.027
0.005	0.015	0.000	0.000	-0.005	0.000	0.039	4.023	3.018	3.022	3.018	3.027	3.018	3.018
0.010	0.015	0.005	0.000	-0.020	0.015	0.039	3.960	3.018	3.022	3.018	3.027	3.018	3.027
-0.005	0.010	0.005	0.000	-0.024	0.015	0.039	4.014	3.022	3.018	3.018	3.032	3.018	3.022
-0.005	0.010	0.005	0.000	-0.039	0.005	0.039	3.960	3.018	3.018	3.018	3.032	3.018	3.022
-0.005	0.000	0.005	0.000	-0.068	0.000	0.039	3.931	3.008	3.013	3.018	3.032	3.013	3.018
0.000	0.000	0.005	0.005	-0.088	0.010	0.039	3.984	3.013	3.018	3.013	3.032	3.013	3.018
0.000	0.005	0.005	0.005	-0.078	0.000	0.039	3.994	3.018	3.013	3.013	3.032	3.018	3.013
0.000	0.005	0.005	0.000	-0.093	-0.005	0.039	3.994	3.022	3.013	3.013	3.032	3.018	3.013
0.000	0.000	0.000	0.005	-0.044	-0.024	0.044	3.994	3.013	3.013	3.008	3.032	3.032	3.013
0.010	-0.010	-0.005	0.005	-0.029	-0.005	0.039	3.965	3.013	3.008	3.008	3.032	3.032	3.027
0.010	-0.005	-0.005	0.000	-0.059	-0.024	0.039	3.994	3.022	3.013	3.008	3.027	3.022	3.022
0.005	-0.010	-0.005	0.005	0.000	-0.029	0.044	3.989	3.018	3.013	3.003	3.032	3.047	3.027
0.005	-0.005	0.000	0.005	0.181	-0.044	0.044	3.970	3.018	3.018	3.013	3.032	3.086	3.042
0.000	0.005	0.000	0.005	0.215	-0.005	0.044	3.960	3.013	3.018	3.013	3.032	3.076	3.066
-0.005	0.010	-0.005	0.005	0.151	-0.005	0.044	3.984	3.018	3.018	3.008	3.027	3.047	3.062
0.005	0.015	0.000	0.005	0.107	0.044	0.044	3.970	3.022	3.022	3.013	3.027	3.032	3.066
0.005	0.000	-0.005	0.000	0.049	0.044	0.044	3.999	3.027	3.018	3.013	3.027	3.013	3.047
0.005	0.005	0.005	0.000	0.044	0.034	0.044	3.965	3.027	3.018	3.013	3.027	3.013	3.037
0.000	0.015	0.010	0.000	0.078	0.015	0.039	3.965	3.018	3.022	3.018	3.032	3.027	3.032
-0.005	0.005	0.010	0.005	0.103	0.010	0.044	3.970	3.018	3.018	3.018	3.032	3.037	3.032
0.005	0.015	0.010	0.000	0.112	0.039	0.039	3.965	3.027	3.022	3.018	3.037	3.037	3.042
-0.005	0.010	0.005	0.005	0.073	0.029	0.039	3.965	3.022	3.022	3.018	3.032	3.022	3.032
0.000	0.005	0.005	0.005	-0.024	-0.015	0.039	3.979	3.022	3.022	3.018	3.032	2.993	3.008
-0.005	0.000	0.005	0.000	-0.073	-0.029	0.039	3.975	3.022	3.018	3.018	3.027	2.988	2.998
0.000	-0.005	0.005	0.000	-0.020	-0.034	0.039	3.994	3.022	3.018	3.013	3.032	3.018	3.003
0.010	-0.010	0.005	0.000	-0.020	-0.039	0.039	3.965	3.018	3.018	3.013	3.032	3.018	3.008
0.005	-0.005	-0.005	-0.005	-0.083	-0.034	0.039	3.960	3.013	3.013	3.013	3.027	3.003	3.008
0.005	-0.015	0.000	-0.005	-0.078	0.005	0.039	3.984	3.013	3.008	3.013	3.027	3.013	3.018
0.010	-0.010	0.000	0.005	-0.005	0.005	0.039	3.960	3.013	3.013	3.013	3.032	3.037	3.022
0.005	-0.015	0.005	0.000	-0.005	0.000	0.039	3.955	3.008	3.008	3.008	3.027	3.032	3.027
0.000	-0.010	-0.005	0.000	-0.015	0.005	0.044	3.955	3.008	3.013	3.008	3.027	3.027	3.032
-0.005	-0.005	0.000	0.000	-0.015	0.010	0.044	3.936	3.008	3.008	3.008	3.027	3.027	3.032
0.000	-0.005	0.000	0.000	-0.020	-0.010	0.039	3.940	3.008	3.008	3.008	3.027	3.022	3.022
-0.005	-0.005	0.005	0.005	-0.024	0.010	0.039	3.965	3.003	3.008	3.008	3.027	3.022	3.027
-0.005	0.015	0.005	0.005	-0.044	0.010	0.044	3.911	2.998	3.008	3.008	3.027	3.013	3.022
-0.005	0.005	0.010	0.000	-0.063	-0.005	0.044	3.940	2.998	3.008	3.008	3.027	3.013	3.018
0.000	0.010	0.010	0.005	-0.044	0.005	0.039	4.023	3.013	3.008	3.008	3.027	3.022	3.022
-0.005	0.010	0.005	0.000	-0.029	0.000	0.039	4.004	3.018	3.008	3.008	3.027	3.027	3.027
-0.005	0.000	0.005	0.000	-0.020	0.010	0.039	4.014	3.022	3.008	3.003	3.027	3.027	3.027
-0.005	0.005	0.000	0.000	0.005	0.010	0.039	3.945	3.018	3.013	3.008	3.027	3.032	3.032
-0.005	-0.005	0.005	0.000	0.005	0.000	0.039	3.940	3.027	3.013	3.008	3.027	3.027	3.027
0.015	0.000	0.000	0.005	-0.005	-0.005	0.039	3.970	3.027	3.018	3.008	3.027	3.027	3.027
0.010	0.000	0.000	0.000	0.000	-0.015	0.039	3.901	3.013	3.018	3.008	3.027	3.027	3.027
0.005	0.005	-0.005	0.005	0.020	0.005	0.044	3.989	3.018	3.018	3.013	3.027	3.027	3.037
0.005	0.010	-0.005	0.000	0.044	0.020	0.039	3.921	3.013	3.018	3.013	3.027	3.037	3.037
0.010	0.005	0.000	-0.005	0.024	0.015	0.039	3.975	3.013	3.013	3.013	3.027	3.022	3.032
0.015	-0.010	0.000	0.000	0.005	0.015	0.039	3.994	3.018	3.013	3.008	3.027	3.018	3.027
0.005	-0.010	0.010	0.000	-0.010	0.005	0.039	3.999	3.018	3.008	3.013	3.027	3.018	3.022
0.010	0.000	0.005	0.000	-0.044	0.000	0.039	3.999	3.022	3.013	3.008	3.027	3.008	3.018
0.024	0.010	0.005	0.005	-0.088	-0.010	0.039	3.975	3.022	3.022	3.013	3.027	2.998	3.008
0.015	0.010	0.005	0.000	-0.054	0.010	0.039	3.994	3.018	3.018	3.013	3.027	3.018	3.018
0.000	0.000	0.010	0.000	-0.010	0.010	0.039	4.004	3.018	3.013	3.013	3.032	3.032	3.022
-0.010	-0.005	0.005	0.005	0.010	0.010	0.039	3.955	3.013	3.013	3.013	3.032	3.037	3.027
0.000	-0.005	0.005	0.005	0.024	-0.010	0.039	3.975	3.013	3.013	3.013	3.032	3.037	3.022
-0.005	0.010	0.000	0.005	0.015	0.000	0.044	3.989	3.018	3.018	3.013	3.032	3.032	3.027
-0.015	0.015	0.005	0.000	0.000	0.000	0.039	3.970	3.013	3.013	3.013	3.027	3.027	3.027
-0.020	0.015	0.005	0.000	-0.005	-0.010	0.044	3.970	3.013	3.013	3.008	3.027	3.022	3.027
-0.020	0.015	0.000	-0.005	-0.010	0.005	0.039	3.965	3.008	3.013	3.008	3.027	3.022	3.032
0.010	0.000	0.000	0.000	-0.010	0.005	0.039	3.965	3.018	3.013	3.008	3.027	3.027	3.027
0.010	-0.005	0.000	0.000	0.000	0.000	0.039	3.970	3.018	3.013	3.008	3.027	3.027	3.027
0.015	-0.005	0.000	0.005	0.005	-0.010	0.039	3.994	3.022	3.013	3.013	3.027	3.027	3.022
0.010	-0.010	-0.005	0.000	0.000	0.000	0.044	3.975	3.018	3.008	3.008	3.027	3.027	3.027
0.005	-0.020	-0.005	0.000	0.005	0.010	0.039	3.984	3.013	3.008	3.008	3.022	3.027	3.027
-0.005	-0.010	-0.005	0.000	0.020	0.000	0.039	3.965	3.018	3.013	3.008	3.022	3.027	3.027
-0.015	-0.005	0.000	0.005	0.015	0.005	0.039	3.979	3.013	3.013	3.008	3.027	3.022	3.027
-0.015	0.000	0.000	0.000	0.015	0.000	0.039	3.984	3.013	3.013	3.008	3.022	3.027	3.027
0.000	-0.005	0.000	0.000	0.010	-0.005	0.039	3.989	3.018	3.013	3.013	3.022	3.022	3.022
-0.010	0.005	0.000	0.000	0.020	-0.010	0.039	3.984	3.018	3.013	3.013	3.027	3.022	3.022
-0.005	0.000	0.000	0.000	0.010	0.005	0.039	3.960	3.018	3.013	3.013	3.027	3.022	3.027
-0.015	-0.005	0.005	0.005	0.010	0.000	0.039	3.950	3.008	3.013	3.013	3.027	3.022	3.022
-0.005	0.005	0.010	0.000	0.015	0.005	0.039	3.950	3.013	3.018	3.013	3.027	3.027	3.027
-0.005	0.005	0.010	0.010	0.015	0.000	0.039	3.926	3.008	3.013	3.013	3.032	3.027	3.027
0.005	0.000	0.005	0.000	0.024	-0.005	0.039	3.965	3.037	3.013	3.013	3.032	3.027	3.027
0.010	0.000	0.010	0.000	0.024	0.010	0.039	3.926	3.022	3.018	3.013	3.027	3.027	3.032
0.010	0.005	0.005	0.005	0.024	-0.005	0.039	3.921	3.018	3.018	3.013	3.032	3.027	3.027
0.000	0.015	0.000	0.005	0.024	0.000	0.039	4.043	3.022	3.022	3.013	3.027	3.027	3.032
0.010	0.005	0.000	-0.005	0.015	0.010	0.039	4.014	3.027	3.018	3.013	3.032	3.027	3.027
0.010	0.010	-0.005	0.000	0.010	0.010	0.034	4.014	3.027	3.022	3.013	3.027	3.022	3.027
0.005	0.020	0.000	0.000	0.010	-0.015	0.039	4.043	3.032	3.027	3.018	3.032	3.027	3.022
0.005	0.010	-0.005	-0.005	0.010	-0.010	0.039	3.965	3.022	3.022	3.018	3.027	3.022	3.022
0.010	0.000	-0.005	0.000	0.010	0.015	0.039	3.950	3.018	3.018	3.018	3.032	3.027	3.032
0.015	0.005	0.005	0.005	0.010	0.010	0.039	3.945	3.018	3.018	3.018	3.032	3.027	3.027
0.020	-0.005	0.005	0.000	0.000	-0.010	0.039	3.901	3.008	3.018	3.018	3.032	3.022	3.022
0.010	-0.005	0.000	-0.005	-0.010	0.010	0.039	3.975	3.008	3.013	3.013	3.032	3.027	3.027
-0.005	0.005	0.005	0.000	0.000	0.005	0.039	3.916	3.003	3.013	3.013	3.032	3.027	3.027
0.010	0.005	0.005	0.000	0.015	0.005	0.039	3.984	3.008	3.013	3.013	3.032	3.032	3.032
0.005	0.005	0.010	0.000	0.020	-0.015	0.039	3.999	3.018	3.013	3.013	3.032	3.027	3.027
-0.010	0.015	0.005	-0.005	0.015	0.010	0.039	3.994	3.013	3.013	3.013	3.032	3.027	3.032
-0.010	0.015	0.010	0.005	0.015	0.010	0.044	3.994	3.018	3.013	3.013	3.032	3.027	3.032
-0.010	0.005	0.005	0.000	0.010	0.000	0.039	3.970	3.018	3.013	3.008	3.027	3.027	3.027
0.005	0.000	0.005	0.005	0.020	0.005	0.039	3.989	3.022	3.013	3.008	3.032	3.032	3.032
0.005	0.000	0.005	0.000	0.015	-0.010	0.039	3.989	3.022	3.018	3.008	3.027	3.027	3.027
0.005	-0.005	0.000	0.005	0.015	-0.005	0.039	3.989	3.027	3.018	3.013	3.027	3.027	3.027
0.015	-0.015	0.000	0.000	0.005	0.005	0.039	3.965	3.022	3.013	3.008	3.027	3.022	3.027
0.020	-0.020	-0.005	0.005	-0.015	-0.005	0.044	3.989	3.018	3.018	3.013	3.027	3.018	3.022
0.010	-0.020	-0.005	0.005	-0.029	0.005	0.044	3.989	3.022	3.018	3.008	3.027	3.018	3.022
0.005	-0.010	0.005	0.000	-0.029	0.005	0.039	3.970	3.018	3.018	3.013	3.027	3.018	3.022
0.010	-0.010	-0.005	0.000	-0.020	0.005	0.039	3.960	3.013	3.018	3.008	3.027	3.022	3.022
0.015	-0.010	0.000	0.000	-0.020	-0.005	0.039	3.975	3.018	3.018	3.013	3.027	3.018	3.018
0.005	-0.005	0.000	0.000	-0.015	0.005	0.039	3.970	3.018	3.018	3.013	3.027	3.022	3.022
0.005	0.000	0.005	0.000	-0.010	0.000	0.039	3.994	3.018	3.018	3.013	3.032	3.027	3.022
0.000	0.024	0.000	0.000	0.005	0.000	0.039	3.970	3.013	3.022	3.018	3.032	3.027	3.027
-0.005	0.010	0.005	0.005	0.010	0.005	0.039	3.999	3.018	3.018	3.018	3.032	3.032	3.027
-0.010	0.015	0.005	0.000	0.005	0.005	0.039	3.994	3.018	3.018	3.013	3.032	3.027	3.032
-0.010	0.015	0.005	0.000	0.005	0.000	0.044	3.970	3.018	3.018	3.018	3.032	3.027	3.027
-0.010	0.015	0.005	0.000	0.005	0.000	0.039	3.999	3.022	3.018	3.018	3.032	3.027	3.032
-0.010	0.015	0.000	0.000	-0.015	-0.010	0.044	3.960	3.018	3.018	3.018	3.032	3.022	3.022
0.000	0.005	0.005	0.000	-0.020	-0.015	0.044	3.970	3.022	3.018	3.013	3.032	3.022	3.027
-0.010	-0.010	0.000	0.000	-0.024	0.000	0.044	3.950	3.013	3.008	3.008	3.032	3.022	3.027
0.000	-0.015	-0.005	0.000	-0.034	0.000	0.039	3.955	3.013	3.008	3.008	3.027	3.022	3.022
-0.005	-0.010	-0.005	0.000	-0.020	0.000	0.044	3.945	3.008	3.008	3.008	3.027	3.027	3.027
0.010	-0.010	-0.010	0.000	-0.010	0.005	0.044	3.936	3.013	3.008	3.008	3.027	3.027	3.027
0.000	0.000	-0.005	-0.005	-0.015	0.010	0.039	3.950	3.013	3.013	3.008	3.027	3.022	3.027
0.010	-0.005	0.000	0.000	0.000	-0.010	0.039	3.940	3.008	3.008	3.008	3.027	3.027	3.022
0.005	-0.005	0.005	0.000	0.010	0.015	0.039	3.931	3.003	3.008	3.008	3.027	3.032	3.032
-0.005	0.000	0.000	0.000	0.024	0.010	0.039	3.921	3.003	3.008	3.008	3.027	3.032	3.032
0.005	0.000	0.000	0.005	0.015	0.015	0.039	4.023	3.018	3.013	3.008	3.027	3.027	3.032
0.000	0.010	0.005	0.000	0.020	0.015	0.039	3.916	3.008	3.008	3.003	3.027	3.022	3.032
-0.005	0.010	0.005	0.005	0.020	0.005	0.039	4.004	3.013	3.013	3.008	3.022	3.027	3.027
-0.005	0.005	0.000	0.000	0.015	0.010	0.039	3.931	3.008	3.013	3.008	3.022	3.022	3.027
-0.005	0.015	0.005	0.000	0.000	0.010	0.044	3.984	3.013	3.013	3.008	3.027	3.018	3.027
0.005	0.010	0.005	0.000	0.000	0.005	0.044	3.960	3.013	3.013	3.008	3.022	3.018	3.022
0.010	0.005	0.005	0.005	0.024	0.005	0.039	3.906	3.008	3.008	3.008	3.027	3.027	3.027
-0.005	0.005	0.005	0.005	0.039	-0.005	0.044	3.970	3.008	3.003	3.008	3.027	3.027	3.027
-0.005	0.005	-0.005	0.000	0.049	0.010	0.044	3.916	3.003	3.003	3.003	3.022	3.027	3.027
0.000	0.000	0.000	0.000	0.010	-0.010	0.044	3.970	3.008	3.003	3.003	3.022	3.013	3.022
0.000	0.000	0.000	0.005	0.000	-0.005	0.039	3.984	3.013	3.003	3.003	3.022	3.013	3.018
-0.005	-0.005	-0.005	0.000	0.000	-0.029	0.044	3.984	3.013	3.003	2.998	3.022	3.013	3.013
0.000	-0.015	-0.005	0.000	-0.010	-0.034	0.044	3.979	3.018	3.003	2.998	3.018	3.008	3.013
0.010	-0.010	-0.005	0.005	-0.024	0.000	0.044	3.965	3.013	3.008	3.003	3.018	3.008	3.018
0.000	-0.005	-0.005	0.005	-0.020	0.005	0.044	3.994	3.018	3.008	3.003	3.022	3.013	3.018
0.010	-0.005	-0.005	0.005	-0.029	0.010	0.039	3.975	3.018	3.013	3.003	3.022	3.013	3.018
0.010	0.010	0.000	0.005	-0.044	0.020	0.044	3.994	3.018	3.018	3.008	3.022	3.008	3.018
0.005	0.000	0.005	0.005	-0.049	0.029	0.044	3.975	3.018	3.018	3.013	3.022	3.013	3.018
0.015	0.005	0.005	0.000	0.020	0.020	0.039	3.994	3.018	3.018	3.013	3.027	3.032	3.027
0.010	0.024	0.005	0.005	0.054	0.005	0.039	3.960	3.018	3.022	3.013	3.027	3.037	3.022
-0.005	0.024	0.010	0.005	0.054	-0.005	0.039	3.989	3.013	3.018	3.018	3.032	3.037	3.022
-0.005	0.024	0.010	0.000	0.010	0.015	0.039	3.950	3.008	3.018	3.013	3.027	3.022	3.032
-0.010	0.015	0.000	0.000	0.000	0.015	0.044	3.960	3.008	3.013	3.013	3.027	3.022	3.027
-0.005	0.000	0.000	0.005	-0.005	0.005	0.044	3.975	3.013	3.008	3.008	3.027	3.022	3.022
-0.005	0.000	-0.005	0.005	0.015	-0.005	0.044	3.994	3.013	3.008	3.008	3.027	3.027	3.022
0.000	-0.005	0.005	0.000	0.063	0.010	0.039	3.965	3.013	3.008	3.008	3.027	3.042	3.032
-0.005	-0.010	0.000	0.000	0.093	-0.020	0.039	3.989	3.018	3.008	3.003	3.027	3.037	3.027
-0.005	-0.010	0.000	0.000	0.020	-0.005	0.039	3.979	3.018	3.008	3.003	3.022	3.013	3.027
-0.010	-0.020	0.000	0.000	-0.024	-0.024	0.039	3.994	3.018	3.008	3.003	3.022	3.003	3.013
-0.005	-0.010	0.000	0.000	-0.034	0.000	0.039	3.970	3.018	3.013	3.008	3.022	3.003	3.022
0.005	-0.005	0.000	-0.005	-0.039	0.015	0.039	3.960	3.018	3.013	3.008	3.022	3.008	3.022
0.000	-0.005	0.000	0.000	-0.039	0.010	0.044	3.979	3.018	3.013	3.008	3.022	3.013	3.018
-0.005	-0.005	0.000	0.000	-0.034	-0.020	0.044	3.950	3.008	3.013	3.008	3.022	3.013	3.008
0.000	-0.005	0.005	0.005	-0.020	-0.015	0.039	3.960	3.008	3.013	3.008	3.027	3.018	3.013
0.010	0.000	0.000	0.005	-0.015	0.020	0.044	3.960	3.008	3.013	3.008	3.022	3.022	3.027
0.005	0.000	0.005	0.005	-0.015	0.005	0.039	3.940	3.008	3.013	3.008	3.027	3.022	3.018
0.005	0.010	0.010	0.000	-0.010	0.010	0.044	3.950	3.018	3.013	3.013	3.027	3.022	3.022
0.005	0.015	0.005	0.000	-0.005	0.015	0.044	3.921	3.013	3.013	3.013	3.027	3.027	3.027
-0.005	0.015	0.000	0.000	0.000	0.005	0.044	3.936	3.003	3.013	3.008	3.027	3.027	3.027
0.000	0.010	0.005	0.000	0.000	0.000	0.044	3.931	3.013	3.008	3.008	3.027	3.022	3.022
0.010	0.010	0.000	0.005	-0.005	-0.010	0.039	4.033	3.018	3.013	3.008	3.027	3.022	3.022
0.005	-0.005	0.000	0.000	-0.010	0.015	0.044	4.009	3.018	3.013	3.008	3.027	3.022	3.027
0.000	-0.005	0.000	0.000	0.000	0.015	0.044	4.009	3.022	3.013	3.008	3.027	3.027	3.027
0.005	-0.010	0.000	0.005	-0.015	0.015	0.044	3.936	3.013	3.013	3.008	3.027	3.022	3.027
0.000	-0.005	-0.005	0.000	-0.010	0.000	0.039	3.945	3.008	3.008	3.003	3.022	3.022	3.022
0.005	-0.010	-0.005	0.000	-0.010	0.000	0.044	3.955	3.008	3.008	3.008	3.022	3.022	3.022
0.005	-0.005	0.000	0.000	-0.005	-0.005	0.039	3.911	3.003	3.003	3.003	3.022	3.018	3.022
0.010	-0.005	-0.010	-0.005	-0.029	-0.005	0.044	3.979	3.008	3.008	3.003	3.022	3.013	3.018
0.010	0.005	-0.005	0.005	-0.049	-0.039	0.039	3.921	3.003	3.008	3.003	3.022	3.008	3.003
0.000	0.000	0.000	-0.005	-0.034	-0.024	0.039	3.975	3.003	3.003	3.003	3.022	3.013	3.013
-0.005	0.005	0.000	0.000	-0.020	-0.020	0.039	3.994	3.003	3.008	3.003	3.022	3.022	3.018
0.000	0.010	0.005	0.000	0.024	0.000	0.044	3.984	3.008	3.008	3.008	3.027	3.032	3.027
0.005	0.010	0.000	0.000	0.054	-0.005	0.044	3.994	3.013	3.008	3.003	3.027	3.037	3.027
-0.005	0.005	0.005	0.000	0.049	-0.005	0.039	3.965	3.008	3.008	3.003	3.027	3.032	3.032
-0.005	0.000	0.005	0.005	0.073	0.000	0.039	3.984	3.003	3.008	3.008	3.027	3.037	3.037
-0.005	0.010	0.010	0.000	0.078	-0.010	0.039	3.994	3.008	3.008	3.008	3.022	3.032	3.032
-0.005	0.005	0.005	0.000	0.063	0.024	0.039	3.994	3.018	3.013	3.003	3.027	3.027	3.037
0.000	0.005	0.005	0.000	0.034	0.015	0.039	3.975	3.018	3.013	3.008	3.022	3.013	3.032
0.000	0.000	0.005	0.000	-0.010	0.010	0.039	3.979	3.018	3.013	3.008	3.022	3.003	3.022
0.005	0.000	0.005	0.005	-0.005	0.005	0.044	3.979	3.027	3.018	3.008	3.022	3.013	3.018
0.000	0.000	0.000	0.000	0.000	-0.005	0.044	3.999	3.027	3.018	3.008	3.027	3.013	3.013
0.005	-0.005	-0.005	0.005	-0.010	0.015	0.044	3.955	3.018	3.013	3.008	3.027	3.013	3.018
0.010	-0.010	-0.005	-0.005	-0.020	0.005	0.044	3.975	3.018	3.013	3.008	3.022	3.013	3.018
0.000	-0.010	0.000	0.000	-0.015	0.005	0.039	3.970	3.013	3.013	3.008	3.027	3.013	3.013
0.005	-0.010	-0.005	0.005	-0.024	0.005	0.044	3.955	3.008	3.008	3.008	3.022	3.013	3.018
0.005	-0.010	-0.005	0.005	-0.015	0.005	0.039	3.960	3.008	3.008	3.008	3.027	3.018	3.018
0.000	0.000	-0.005	0.000	-0.024	0.010	0.039	3.989	3.013	3.013	3.008	3.027	3.018	3.018
0.005	0.000	0.000	0.000	-0.020	0.005	0.044	3.975	3.013	3.013	3.008	3.027	3.022	3.018
0.005	0.015	0.000	0.005	-0.005	-0.010	0.044	3.989	3.013	3.018	3.013	3.027	3.022	3.013
0.000	0.010	0.000	0.000	-0.005	-0.005	0.039	3.994	3.008	3.008	3.008	3.027	3.022	3.022
-0.005	0.000	0.005	0.000	-0.029	-0.010	0.039	3.994	3.008	3.008	3.008	3.027	3.018	3.018
-0.005	0.005	0.005	0.000	0.015	-0.010	0.044	3.979	3.008	3.013	3.008	3.027	3.032	3.022
-0.005	0.005	0.005	0.005	0.044	-0.005	0.044	3.936	3.008	3.013	3.008	3.027	3.037	3.027
-0.005	0.020	0.010	0.005	0.020	0.010	0.039	4.082	3.022	3.018	3.013	3.027	3.027	3.032
-0.010	0.005	0.005	0.005	0.024	0.010	0.039	3.955	3.018	3.013	3.008	3.027	3.027	3.032
0.000	-0.005	0.005	0.005	0.010	0.000	0.039	3.936	3.013	3.013	3.008	3.027	3.022	3.027
0.010	0.005	0.000	0.000	0.020	0.015	0.039	3.950	3.018	3.018	3.013	3.027	3.027	3.032
-0.005	0.005	0.000	0.005	-0.005	0.020	0.039	3.936	3.013	3.013	3.008	3.027	3.018	3.027
0.000	0.015	0.000	0.000	-0.020	0.010	0.039	4.014	3.013	3.013	3.008	3.027	3.018	3.022
0.000	0.015	-0.005	-0.005	-0.024	-0.010	0.039	4.023	3.018	3.013	3.008	3.022	3.013	3.013
-0.005	-0.005	-0.005	0.000	-0.054	-0.010	0.044	3.945	3.013	3.008	3.008	3.022	3.008	3.008
0.000	0.000	-0.005	0.005	-0.068	-0.005	0.044	3.931	3.008	3.013	3.008	3.027	3.008	3.013
0.010	0.000	0.000	0.000	-0.049	0.010	0.044	3.936	3.003	3.008	3.008	3.022	3.018	3.018
0.005	0.000	0.000	0.005	-0.005	0.015	0.044	3.975	3.008	3.008	3.008	3.027	3.032	3.022
0.005	0.000	0.005	0.000	0.000	0.005	0.039	3.916	3.003	3.008	3.008	3.027	3.027	3.027
-0.005	-0.005	0.000	0.005	0.000	0.005	0.044	3.955	3.003	3.003	3.003	3.022	3.022	3.022
0.000	0.010	0.000	0.000	0.000	-0.005	0.039	3.994	3.008	3.008	3.008	3.027	3.022	3.022
-0.005	0.000	0.005	0.000	0.029	-0.015	0.044	3.984	3.008	3.003	3.008	3.022	3.032	3.027
0.005	0.010	0.000	0.000	0.034	-0.010	0.044	4.014	3.022	3.013	3.008	3.022	3.027	3.027
-0.010	0.015	0.005	0.000	0.024	-0.010	0.044	3.984	3.018	3.018	3.008	3.022	3.027	3.027
-0.005	0.010	0.000	0.000	0.024	-0.005	0.039	3.960	3.018	3.013	3.008	3.022	3.022	3.027
0.000	0.005	0.000	0.000	0.020	0.000	0.039	3.975	3.013	3.013	3.008	3.027	3.022	3.027
-0.005	-0.010	0.000	0.000	0.024	0.005	0.039	3.975	3.018	3.013	3.008	3.027	3.022	3.027
0.000	-0.015	0.000	0.005	0.024	-0.010	0.039	3.960	3.018	3.008	3.008	3.027	3.022	3.027
0.015	-0.015	0.005	0.005	0.015	-0.005	0.039	3.999	3.027	3.013	3.008	3.027	3.018	3.022
0.005	-0.010	0.000	0.010	0.010	-0.010	0.039	3.975	3.018	3.018	3.008	3.022	3.018	3.022
0.010	-0.015	0.000	0.005	-0.005	0.000	0.039	3.984	3.013	3.013	3.008	3.022	3.013	3.022
0.015	0.000	-0.005	0.000	-0.015	0.005	0.039	3.970	3.022	3.018	3.008	3.022	3.013	3.018
0.005	-0.010	-0.005	0.000	-0.020	-0.005	0.044	3.989	3.018	3.013	3.013	3.022	3.013	3.018
0.005	-0.005	0.000	0.005	-0.029	-0.005	0.044	3.984	3.013	3.013	3.013	3.027	3.013	3.018
0.005	0.005	0.000	-0.005	-0.039	-0.029	0.044	3.999	3.018	3.018	3.013	3.027	3.008	3.008
-0.005	0.000	-0.005	0.000	-0.059	-0.010	0.044	3.975	3.008	3.013	3.013	3.027	3.013	3.013
0.000	0.005	0.005	0.000	-0.044	-0.015	0.044	3.979	3.013	3.013	3.013	3.027	3.018	3.013
-0.005	0.000	0.000	0.005	-0.029	0.010	0.044	3.970	3.008	3.013	3.013	3.032	3.027	3.022
-0.005	0.005	0.005	0.005	-0.024	0.000	0.044	3.945	3.008	3.013	3.013	3.027	3.027	3.022
-0.010	0.010	0.005	0.000	0.010	0.010	0.039	3.989	3.013	3.013	3.013	3.032	3.037	3.032
-0.005	0.010	0.005	0.000	0.044	0.015	0.044	3.999	3.018	3.013	3.008	3.032	3.047	3.037
-0.005	-0.005	0.000	0.000	0.063	0.015	0.044	3.989	3.022	3.013	3.008	3.027	3.047	3.042
-0.005	0.000	0.005	0.000	0.107	0.000	0.044	3.989	3.022	3.018	3.013	3.032	3.052	3.037
0.005	-0.005	0.000	0.000	0.112	0.015	0.044	3.970	3.022	3.018	3.013	3.027	3.047	3.042
0.005	-0.010	0.000	0.000	0.049	0.010	0.044	3.960	3.022	3.018	3.013	3.027	3.022	3.037
0.015	-0.015	0.000	0.000	-0.005	0.024	0.039	3.979	3.022	3.013	3.008	3.027	3.008	3.032
0.010	-0.010	-0.005	0.000	-0.044	0.029	0.044	3.945	3.018	3.018	3.008	3.022	3.003	3.022
-0.005	-0.015	-0.005	0.000	-0.044	0.029	0.044	3.950	3.013	3.013	3.008	3.022	3.003	3.018
0.010	-0.005	-0.005	0.000	0.044	0.015	0.039	3.955	3.013	3.013	3.013	3.027	3.037	3.022
0.005	0.010	-0.010	0.000	0.112	0.005	0.044	3.940	3.008	3.013	3.013	3.027	3.052	3.027
0.005	0.000	0.000	0.000	0.093	0.015	0.044	3.945	3.003	3.013	3.008	3.027	3.037	3.037
0.000	0.000	0.000	0.000	0.078	0.005	0.044	3.936	3.003	3.008	3.008	3.027	3.027	3.032
0.000	0.005	0.005	0.000	0.015	-0.020	0.044	4.033	3.013	3.013	3.013	3.027	3.008	3.018
0.000	0.010	0.010	0.005	-0.039	-0.005	0.044	4.004	3.018	3.013	3.008	3.027	3.003	3.013
-0.005	0.015	0.010	0.000	-0.054	-0.010	0.039	3.931	3.008	3.013	3.013	3.027	3.003	3.013
-0.005	0.010	0.005	0.000	-0.034	-0.020	0.044	3.916	3.003	3.008	3.008	3.027	3.013	3.008
-0.010	0.010	0.005	-0.005	-0.029	-0.015	0.039	3.945	3.003	3.008	3.008	3.027	3.018	3.013
-0.005	0.015	0.010	0.005	-0.020	-0.024	0.044	3.960	3.003	3.008	3.008	3.027	3.022	3.013
-0.005	0.010	0.000	0.000	-0.005	-0.005	0.044	4.014	3.008	3.008	3.003	3.027	3.027	3.022
0.010	0.000	-0.005	0.000	0.010	0.000	0.044	3.965	3.013	3.003	3.003	3.027	3.027	3.027
-0.010	0.010	0.000	0.000	0.005	0.000	0.044	3.960	3.003	3.008	3.003	3.022	3.022	3.027
0.005	0.010	-0.005	0.000	-0.005	0.005	0.044	3.965	3.008	3.008	3.003	3.022	3.018	3.027
0.000	-0.015	-0.005	0.000	-0.005	0.000	0.044	3.921	2.998	2.998	2.998	3.022	3.018	3.022
0.010	-0.010	0.000	0.005	0.000	0.005	0.044	3.975	3.008	3.003	3.003	3.022	3.018	3.022
0.000	-0.005	0.000	0.000	0.000	-0.010	0.044	3.994	3.008	3.003	2.998	3.018	3.018	3.018
0.000	0.000	-0.005	0.005	-0.005	-0.015	0.044	3.965	3.013	3.008	2.998	3.022	3.018	3.013
0.005	0.000	0.000	0.000	0.000	0.005	0.044	3.994	3.018	3.008	3.003	3.018	3.018	3.022
0.005	0.015	0.000	0.000	-0.010	0.005	0.044	3.970	3.018	3.018	3.003	3.018	3.013	3.018
0.005	0.005	-0.005	0.000	-0.005	0.010	0.044	3.994	3.018	3.013	3.008	3.018	3.013	3.018
0.005	0.005	0.000	0.000	-0.005	0.015	0.044	3.999	3.022	3.013	3.008	3.022	3.013	3.022
-0.005	0.015	0.005	0.005	-0.010	0.010	0.044	3.965	3.013	3.013	3.013	3.022	3.018	3.018
-0.005	0.005	0.005	0.005	0.005	0.010	0.044	3.994	3.018	3.013	3.008	3.027	3.022	3.022
-0.010	0.000	0.005	0.005	0.005	0.010	0.039	3.999	3.018	3.013	3.008	3.027	3.022	3.022
-0.010	-0.005	0.005	0.000	-0.005	0.005	0.044	3.970	3.013	3.008	3.008	3.022	3.018	3.022
-0.005	0.000	0.000	0.000	-0.015	0.010	0.044	3.970	3.018	3.013	3.008	3.027	3.013	3.018
0.000	-0.005	0.005	0.000	-0.020	-0.005	0.044	3.955	3.013	3.013	3.008	3.022	3.018	3.018
-0.010	-0.005	0.005	0.005	-0.029	0.010	0.044	3.950	3.008	3.008	3.008	3.027	3.018	3.018
0.010	0.005	-0.005	0.005	-0.034	0.015	0.044	3.970	3.013	3.013	3.008	3.027	3.013	3.018
0.005	-0.005	-0.005	0.005	-0.024	0.000	0.044	3.965	3.008	3.008	3.008	3.027	3.018	3.018
0.005	-0.015	-0.005	0.005	-0.020	-0.005	0.044	3.960	3.008	3.008	3.008	3.022	3.022	3.018
0.000	-0.005	0.000	0.000	-0.020	-0.020	0.044	3.989	3.018	3.013	3.008	3.027	3.022	3.013
0.015	-0.005	-0.005	0.005	0.005	0.000	0.044	3.994	3.018	3.013	3.003	3.022	3.027	3.027
0.020	-0.029	-0.005	0.000	0.034	-0.005	0.044	3.965	3.018	3.008	3.008	3.022	3.037	3.027
0.010	-0.010	-0.005	0.000	0.044	0.000	0.044	3.975	3.013	3.018	3.008	3.022	3.032	3.032
0.005	0.020	0.000	0.005	0.049	-0.010	0.044	3.960	3.013	3.022	3.013	3.027	3.032	3.032
-0.010	0.054	0.005	0.005	0.088	-0.005	0.044	3.975	3.013	3.027	3.018	3.032	3.042	3.032
0.000	0.039	0.005	0.005	0.083	0.020	0.044	3.950	3.013	3.018	3.018	3.032	3.037	3.037
0.000	0.005	0.000	0.005	0.049	0.020	0.044	3.945	3.008	3.008	3.013	3.027	3.022	3.037
-0.005	0.000	0.000	0.000	0.063	0.005	0.044	3.960	3.008	3.003	3.008	3.027	3.027	3.032
-0.010	0.010	0.005	-0.005	0.083	0.000	0.044	3.931	3.008	3.008	3.008	3.027	3.032	3.032
-0.005	0.010	0.005	-0.005	0.049	-0.005	0.044	3.955	3.008	3.008	3.008	3.027	3.018	3.027
0.000	0.015	0.000	0.005	-0.005	0.005	0.044	3.989	3.003	3.003	3.008	3.027	3.003	3.022
-0.005	-0.010	0.000	0.005	-0.039	0.005	0.044	3.901	2.998	2.998	3.003	3.022	2.998	3.018
0.005	-0.005	0.000	0.005	-0.039	0.005	0.044	3.940	3.003	3.003	3.003	3.022	3.008	3.013
0.005	0.000	-0.005	0.005	-0.029	0.000	0.044	4.009	3.008	3.003	2.998	3.022	3.013	3.013
0.010	0.000	0.000	0.000	-0.029	-0.015	0.044	4.009	3.018	3.003	3.003	3.018	3.013	3.013
0.005	-0.005	0.000	0.000	-0.024	-0.010	0.044	3.999	3.018	3.008	2.998	3.018	3.013	3.008
0.015	-0.010	-0.005	0.000	-0.020	-0.005	0.044	3.970	3.018	3.008	3.003	3.018	3.013	3.018
0.010	-0.010	0.000	0.000	-0.015	-0.010	0.044	3.936	3.022	3.008	3.003	3.022	3.013	3.013
0.000	-0.010	0.000	0.000	-0.010	0.015	0.044	3.955	3.013	3.008	3.003	3.018	3.018	3.022
0.010	0.005	0.000	0.000	0.000	-0.005	0.044	3.906	3.013	3.013	3.003	3.022	3.022	3.018
0.000	0.000	0.005	0.000	-0.015	0.005	0.044	4.004	3.008	3.008	3.003	3.022	3.013	3.022
0.000	-0.010	0.005	0.000	-0.005	0.015	0.044	3.916	3.003	3.008	3.003	3.022	3.018	3.022
-0.005	0.000	0.005	0.000	-0.005	0.005	0.044	3.975	3.003	3.008	3.008	3.022	3.018	3.018
-0.005	0.005	0.010	0.000	-0.010	0.010	0.044	3.999	3.013	3.008	3.008	3.022	3.018	3.022
-0.005	0.000	0.005	0.005	-0.010	0.010	0.044	3.984	3.013	3.013	3.008	3.027	3.018	3.018
-0.010	0.015	0.000	0.005	-0.005	-0.010	0.044	3.984	3.013	3.013	3.008	3.022	3.022	3.018
-0.005	0.010	0.000	0.005	-0.020	0.005	0.044	3.970	3.013	3.013	3.008	3.022	3.018	3.022
0.000	0.010	0.000	0.000	-0.015	-0.010	0.044	3.989	3.018	3.013	3.008	3.022	3.018	3.018
-0.005	0.005	0.000	0.000	-0.010	0.010	0.044	3.955	3.008	3.013	3.008	3.022	3.022	3.022
0.000	0.010	-0.005	0.000	-0.005	0.015	0.044	3.984	3.013	3.013	3.008	3.022	3.022	3.027
0.005	0.005	-0.005	0.005	-0.005	0.005	0.044	3.979	3.013	3.013	3.008	3.022	3.022	3.022
0.005	-0.005	0.000	0.005	-0.005	0.005	0.044	3.984	3.013	3.008	3.008	3.022	3.022	3.022
0.005	-0.010	0.000	0.005	-0.015	-0.020	0.044	3.960	3.013	3.008	3.003	3.022	3.018	3.018
0.015	0.000	-0.005	0.005	-0.020	0.005	0.044	3.994	3.018	3.013	3.003	3.022	3.018	3.022
0.010	-0.010	-0.005	0.005	0.000	0.005	0.044	3.960	3.013	3.008	3.003	3.027	3.022	3.022
0.015	-0.015	-0.005	0.000	0.010	0.010	0.044	3.994	3.018	3.008	3.008	3.022	3.027	3.027
0.015	-0.005	0.010	0.000	0.024	0.010	0.044	3.994	3.022	3.013	3.008	3.022	3.027	3.027
0.005	0.005	0.000	0.000	0.044	0.005	0.044	3.984	3.018	3.018	3.008	3.027	3.032	3.027
0.000	0.010	0.005	0.005	0.054	0.000	0.044	3.965	3.013	3.018	3.013	3.027	3.032	3.027
-0.015	0.015	0.010	0.000	0.034	-0.015	0.044	3.994	3.013	3.013	3.013	3.027	3.022	3.022
-0.010	0.010	0.005	-0.005	0.049	-0.005	0.044	3.999	3.018	3.013	3.013	3.027	3.027	3.027
-0.005	0.015	0.010	0.000	0.044	-0.015	0.044	3.970	3.018	3.018	3.013	3.032	3.022	3.022
-0.005	0.024	0.015	0.000	0.015	0.000	0.044	3.984	3.022	3.022	3.018	3.032	3.018	3.027
-0.020	-0.005	0.015	0.005	0.005	-0.005	0.044	3.989	3.018	3.008	3.013	3.032	3.018	3.022
-0.010	-0.010	0.010	0.005	-0.015	-0.005	0.044	3.975	3.018	3.008	3.013	3.027	3.013	3.022
0.000	-0.005	0.005	0.005	-0.044	-0.034	0.044	3.950	3.013	3.013	3.008	3.027	3.008	3.008
0.005	-0.010	0.000	0.005	-0.098	0.015	0.044	3.950	3.013	3.008	3.008	3.027	2.998	3.018
0.000	-0.005	-0.005	0.005	-0.117	0.005	0.044	3.950	3.008	3.008	3.008	3.022	2.998	3.013
0.005	-0.005	-0.005	0.000	-0.088	-0.005	0.044	3.945	3.008	3.008	3.003	3.022	3.013	3.008
0.015	-0.005	-0.005	0.010	-0.073	0.020	0.044	3.950	3.027	3.013	3.008	3.022	3.018	3.022
0.010	0.010	-0.005	0.005	-0.073	0.029	0.044	3.931	3.018	3.022	3.008	3.022	3.022	3.027
0.015	0.010	-0.005	-0.005	-0.010	0.044	0.044	3.901	3.008	3.013	3.013	3.027	3.037	3.032
0.005	-0.005	0.000	0.000	0.039	0.039	0.044	4.004	2.998	3.008	3.008	3.027	3.047	3.037
0.005	0.005	-0.005	0.000	0.063	0.010	0.044	3.940	2.998	3.008	3.008	3.027	3.047	3.032
0.005	0.000	-0.005	0.000	0.044	0.015	0.044	4.009	3.008	3.008	3.008	3.027	3.032	3.032
-0.005	0.005	0.000	0.000	0.034	-0.010	0.044	4.028	3.018	3.008	3.008	3.027	3.027	3.027
-0.005	0.020	-0.005	0.000	0.044	-0.010	0.044	3.960	3.013	3.013	3.008	3.022	3.027	3.027
-0.020	0.024	0.000	0.000	0.020	0.000	0.044	4.004	3.013	3.013	3.008	3.027	3.018	3.027
-0.024	0.015	0.000	0.005	0.054	-0.015	0.044	3.965	3.013	3.013	3.008	3.027	3.032	3.027
-0.005	0.000	0.000	0.005	0.068	0.000	0.044	3.926	3.013	3.008	3.008	3.027	3.032	3.032
-0.010	-0.005	0.000	0.005	0.049	-0.020	0.044	3.984	3.013	3.008	3.008	3.027	3.022	3.027
0.005	-0.005	0.000	0.000	0.020	-0.005	0.044	3.926	3.013	3.008	3.008	3.027	3.018	3.027
0.010	-0.005	0.005	0.000	0.015	-0.005	0.044	3.975	3.013	3.008	3.008	3.022	3.018	3.022
0.010	0.000	0.000	0.000	-0.005	-0.020	0.044	3.994	3.018	3.013	3.003	3.022	3.008	3.013
0.015	-0.015	0.000	0.000	-0.005	0.000	0.044	3.970	3.018	3.008	3.008	3.022	3.013	3.022
0.015	-0.010	-0.005	0.000	0.000	-0.024	0.044	3.989	3.018	3.013	3.003	3.022	3.013	3.013
0.015	-0.010	0.000	0.000	-0.005	-0.005	0.044	3.970	3.013	3.008	3.008	3.022	3.013	3.018
0.015	-0.005	-0.005	0.000	-0.005	0.015	0.044	3.994	3.018	3.013	3.008	3.022	3.018	3.022
0.000	0.000	-0.010	0.000	-0.005	-0.005	0.044	3.994	3.013	3.013	3.008	3.027	3.018	3.018
0.005	0.005	-0.005	0.005	0.000	0.024	0.044	3.994	3.018	3.013	3.008	3.027	3.018	3.027
0.010	0.005	0.000	0.000	-0.024	0.015	0.044	3.984	3.022	3.018	3.013	3.022	3.013	3.022
0.000	0.000	-0.005	0.005	-0.049	0.015	0.044	3.994	3.018	3.013	3.008	3.027	3.008	3.018
0.000	0.005	0.005	0.000	-0.049	0.000	0.044	3.989	3.013	3.018	3.013	3.022	3.013	3.013
-0.010	0.010	0.005	-0.005	-0.039	-0.024	0.044	3.999	3.013	3.013	3.013	3.027	3.018	3.008
-0.010	0.000	0.010	0.005	-0.020	-0.005	0.044	3.965	3.008	3.008	3.013	3.032	3.022	3.022
-0.005	0.020	0.010	0.000	-0.029	-0.020	0.044	3.970	3.013	3.018	3.013	3.027	3.022	3.018
-0.010	0.005	0.010	0.005	-0.024	-0.005	0.044	3.989	3.013	3.013	3.013	3.032	3.027	3.022
-0.005	0.010	0.000	0.005	0.000	-0.010	0.044	3.960	3.013	3.013	3.013	3.027	3.032	3.027
0.000	-0.010	-0.005	0.000	0.020	-0.010	0.044	3.989	3.013	3.008	3.008	3.027	3.037	3.027
0.005	0.005	0.000	0.000	0.020	-0.010	0.044	3.989	3.022	3.018	3.008	3.027	3.032	3.027
-0.010	-0.010	0.000	0.005	0.029	0.000	0.049	3.999	3.018	3.008	3.008	3.027	3.032	3.032
0.005	-0.005	-0.005	0.000	0.029	0.005	0.044	3.975	3.018	3.013	3.008	3.027	3.032	3.037
0.005	0.005	0.000	0.000	0.044	0.000	0.044	3.975	3.018	3.013	3.008	3.027	3.032	3.037
0.015	0.000	0.000	0.000	0.068	0.005	0.044	3.965	3.022	3.018	3.008	3.027	3.037	3.032
0.010	-0.005	-0.005	0.000	0.098	0.015	0.044	3.989	3.022	3.018	3.008	3.027	3.042	3.042
0.010	0.005	-0.005	0.000	0.103	-0.005	0.044	3.960	3.018	3.018	3.013	3.027	3.037	3.032
0.010	0.000	-0.005	0.005	0.088	0.015	0.044	3.950	3.013	3.013	3.008	3.027	3.027	3.037
0.000	0.005	0.005	0.005	0.034	0.000	0.044	3.950	3.013	3.013	3.013	3.027	3.013	3.027
0.000	0.000	0.005	0.000	0.034	0.000	0.044	3.931	3.013	3.013	3.013	3.027	3.018	3.027
0.005	0.000	0.005	0.005	0.049	-0.010	0.044	3.955	3.013	3.013	3.013	3.027	3.022	3.027
-0.005	0.010	0.005	0.000	0.024	0.000	0.044	3.940	3.003	3.013	3.013	3.027	3.013	3.027
-0.005	0.005	0.010	0.000	-0.010	0.024	0.044	4.019	3.013	3.008	3.013	3.027	3.008	3.022
-0.005	0.000	0.000	0.005	-0.029	0.005	0.044	4.033	3.018	3.008	3.008	3.027	3.008	3.018
-0.005	-0.005	0.005	0.000	-0.044	0.005	0.044	3.931	3.013	3.008	3.008	3.027	3.008	3.013
0.000	-0.005	0.000	0.005	-0.039	-0.020	0.044	3.906	3.003	3.003	3.008	3.027	3.013	3.008
0.005	-0.005	0.000	0.000	-0.024	0.005	0.044	3.931	3.003	3.008	3.003	3.022	3.022	3.018
-0.010	-0.005	0.005	0.000	-0.024	-0.020	0.044	3.979	3.008	3.003	3.003	3.022	3.018	3.013
0.005	0.015	0.005	0.000	-0.039	-0.015	0.049	4.009	3.013	3.013	3.008	3.022	3.013	3.013
0.010	0.005	0.000	0.005	-0.034	-0.005	0.044	3.955	3.013	3.008	3.003	3.022	3.018	3.018
0.010	-0.005	0.005	0.005	-0.029	-0.010	0.044	4.014	3.008	3.008	3.008	3.022	3.022	3.018
0.010	0.000	0.000	0.000	-0.024	-0.005	0.044	3.984	3.013	3.008	3.003	3.022	3.018	3.022
0.010	0.000	0.000	0.005	-0.024	0.005	0.044	3.940	3.008	3.008	3.003	3.022	3.018	3.022
-0.005	0.024	0.000	0.005	-0.034	0.010	0.044	3.975	3.008	3.013	3.003	3.022	3.018	3.022
0.010	0.015	-0.005	0.005	-0.034	0.020	0.044	3.975	3.013	3.008	3.003	3.022	3.018	3.027
0.005	0.015	0.005	0.005	-0.024	0.005	0.044	3.970	3.013	3.008	3.008	3.027	3.022	3.022
0.005	0.015	0.010	0.000	-0.015	0.000	0.044	3.994	3.013	3.008	3.008	3.027	3.022	3.022
-0.010	0.015	0.010	0.000	-0.010	-0.005	0.044	3.975	3.013	3.013	3.008	3.027	3.022	3.022
0.005	0.000	0.005	0.005	0.000	0.024	0.044	3.999	3.018	3.008	3.008	3.027	3.027	3.032
-0.005	0.005	0.010	0.000	-0.010	0.015	0.044	3.989	3.018	3.008	3.008	3.027	3.022	3.027
-0.010	-0.005	0.010	0.005	-0.010	0.034	0.044	3.970	3.018	3.013	3.008	3.027	3.022	3.032
0.000	0.000	0.015	0.005	0.034	0.020	0.044	3.979	3.018	3.013	3.008	3.027	3.037	3.032
0.000	-0.010	0.010	0.000	0.039	0.015	0.044	3.999	3.022	3.013	3.008	3.027	3.032	3.032
0.000	-0.010	0.005	0.000	0.015	0.010	0.044	3.965	3.018	3.013	3.008	3.027	3.022	3.022
-0.005	-0.010	0.005	0.010	-0.020	-0.010	0.044	3.965	3.018	3.013	3.008	3.027	3.013	3.018
0.005	0.000	0.000	0.000	-0.010	-0.010	0.044	3.960	3.013	3.013	3.003	3.022	3.013	3.022
0.005	-0.005	0.000	-0.005	-0.020	-0.024	0.044	3.999	3.018	3.013	3.008	3.022	3.013	3.013
0.015	-0.015	0.005	0.000	-0.034	-0.015	0.044	3.984	3.018	3.013	3.008	3.022	3.008	3.013
0.005	-0.010	0.005	0.000	-0.039	-0.015	0.044	3.999	3.018	3.013	3.008	3.022	3.013	3.013
0.005	0.015	-0.005	0.000	-0.010	-0.005	0.044	3.999	3.018	3.018	3.008	3.027	3.022	3.018
0.000	0.015	-0.005	-0.005	0.020	-0.005	0.044	3.975	3.013	3.018	3.013	3.027	3.032	3.022
0.000	0.020	-0.005	0.000	0.029	0.000	0.044	3.965	3.013	3.018	3.013	3.027	3.027	3.027
0.000	0.005	0.000	0.000	0.039	0.005	0.044	3.999	3.018	3.013	3.013	3.027	3.037	3.027
0.010	0.015	0.005	0.000	0.034	-0.010	0.044	3.965	3.013	3.018	3.013	3.027	3.027	3.027
0.000	0.020	0.010	0.000	0.034	0.000	0.044	4.004	3.018	3.022	3.018	3.032	3.027	3.027
-0.005	0.024	0.005	0.005	-0.034	-0.024	0.044	3.975	3.018	3.018	3.018	3.032	3.008	3.018
-0.015	0.020	0.005	0.000	-0.039	0.005	0.044	3.960	3.013	3.013	3.013	3.032	3.018	3.022
0.000	0.005	0.005	0.005	0.024	-0.015	0.044	3.945	3.013	3.008	3.013	3.032	3.037	3.022
-0.005	-0.005	0.005	0.000	0.107	0.010	0.044	3.945	3.008	3.008	3.013	3.032	3.057	3.042
0.015	-0.015	0.005	0.000	0.078	0.010	0.044	3.926	3.013	3.003	3.008	3.027	3.037	3.042
0.000	-0.005	-0.005	0.000	0.059	0.020	0.044	3.950	3.008	3.003	3.003	3.027	3.032	3.042
0.010	-0.015	-0.005	0.000	0.044	0.024	0.044	3.975	3.003	3.003	3.003	3.027	3.022	3.037
0.015	-0.015	0.000	0.005	0.015	0.015	0.044	3.936	3.008	3.003	3.003	3.027	3.018	3.027
0.005	0.000	0.000	0.000	0.015	0.015	0.044	4.009	3.013	3.013	3.003	3.022	3.018	3.022
0.010	-0.005	0.000	0.000	0.010	0.000	0.044	4.014	3.018	3.013	3.003	3.022	3.013	3.018
0.010	0.005	-0.005	0.000	0.010	0.000	0.044	3.921	3.013	3.013	3.003	3.022	3.013	3.018
0.000	0.005	-0.005	0.005	0.015	-0.005	0.039	3.940	3.008	3.013	3.008	3.022	3.018	3.018
0.005	0.005	0.000	0.005	0.034	-0.005	0.044	3.950	3.008	3.008	3.008	3.027	3.022	3.018
0.000	0.005	0.005	0.000	0.029	-0.005	0.044	4.009	3.003	3.008	3.008	3.022	3.022	3.022
0.000	0.010	0.005	0.005	0.020	0.015	0.044	3.960	3.003	3.003	3.008	3.027	3.018	3.022
0.005	0.015	0.005	0.000	0.010	0.010	0.044	3.921	3.003	3.008	3.003	3.027	3.013	3.022
-0.010	0.010	0.010	0.005	-0.005	0.005	0.044	3.970	3.003	3.003	3.003	3.027	3.013	3.018
-0.005	0.000	0.010	0.000	-0.029	0.000	0.044	3.921	3.003	3.003	3.003	3.022	3.008	3.013
-0.010	-0.005	0.005	0.000	-0.049	0.000	0.044	3.975	3.003	2.998	3.003	3.018	3.003	3.013
-0.005	0.000	0.010	0.005	-0.063	0.010	0.039	3.989	3.008	2.998	3.003	3.022	3.003	3.013
0.000	-0.005	0.005	0.005	-0.078	0.005	0.044	3.999	3.018	3.003	2.998	3.018	3.003	3.008
0.000	0.005	0.000	0.005	-0.088	0.000	0.044	3.994	3.018	3.008	3.003	3.018	3.003	3.008
0.005	0.000	-0.005	0.005	-0.078	-0.005	0.044	3.975	3.013	3.008	2.998	3.018	3.008	3.008
-0.005	-0.010	-0.005	0.000	-0.083	-0.005	0.044	3.994	3.013	3.008	2.998	3.018	3.008	3.008
0.000	-0.015	-0.005	0.000	-0.073	-0.015	0.044	3.960	3.008	3.008	2.998	3.018	3.013	3.003
-0.005	-0.010	0.000	0.000	-0.039	-0.005	0.044	3.989	3.013	3.008	2.998	3.022	3.022	3.013
-0.005	0.000	0.000	0.000	-0.034	0.005	0.044	3.994	3.013	3.008	3.003	3.022	3.022	3.018
0.005	-0.020	-0.005	0.000	-0.020	0.010	0.044	3.984	3.018	3.003	3.003	3.018	3.022	3.022
0.005	-0.015	0.000	0.005	-0.005	0.005	0.044	3.989	3.018	3.008	3.003	3.022	3.027	3.022
-0.005	-0.020	0.000	0.000	-0.005	-0.015	0.044	3.989	3.018	3.008	3.008	3.022	3.022	3.018
0.005	0.005	0.000	0.005	0.015	0.000	0.044	3.960	3.018	3.018	3.008	3.022	3.032	3.022
0.005	0.005	0.005	0.000	0.029	0.005	0.044	3.970	3.018	3.018	3.013	3.027	3.027	3.027
-0.005	0.029	0.005	0.000	0.059	0.020	0.044	3.989	3.018	3.022	3.013	3.027	3.037	3.037
-0.010	0.015	0.010	0.000	0.127	0.010	0.044	3.979	3.013	3.018	3.013	3.032	3.052	3.037
0.000	0.015	0.005	0.005	0.176	0.010	0.044	3.989	3.022	3.018	3.018	3.037	3.062	3.047
0.000	0.010	0.000	0.005	0.210	0.010	0.044	3.975	3.022	3.018	3.013	3.032	3.062	3.052
0.000	0.010	0.005	0.000	0.117	-0.010	0.044	3.989	3.022	3.018	3.013	3.027	3.022	3.037
-0.005	0.005	0.005	0.000	0.039	0.005	0.044	3.994	3.022	3.013	3.013	3.027	3.003	3.027
-0.005	0.010	-0.005	-0.005	-0.005	0.010	0.044	3.999	3.027	3.018	3.013	3.027	2.998	3.022
-0.005	0.000	0.000	0.000	-0.029	0.000	0.044	3.960	3.018	3.013	3.013	3.027	2.998	3.013
0.000	-0.010	0.005	0.000	-0.059	-0.005	0.044	3.989	3.022	3.013	3.008	3.027	2.998	3.008
0.000	-0.005	0.005	0.005	-0.068	-0.005	0.044	3.965	3.018	3.013	3.013	3.027	3.003	3.003
0.000	-0.005	0.000	-0.005	-0.063	-0.005	0.044	4.092	3.027	3.013	3.013	3.027	3.008	3.008
0.010	-0.010	-0.005	0.000	-0.049	-0.010	0.044	3.945	3.018	3.013	3.008	3.027	3.018	3.008
0.005	-0.015	0.000	0.000	-0.039	0.000	0.044	3.936	3.008	3.013	3.008	3.027	3.018	3.018
0.010	-0.010	0.005	0.000	-0.073	0.010	0.044	3.960	3.008	3.013	3.013	3.027	3.008	3.018
0.000	0.005	0.000	0.000	-0.098	0.000	0.044	4.023	3.013	3.013	3.008	3.027	3.008	3.013
-0.005	0.020	0.000	0.000	-0.098	0.005	0.044	4.014	3.018	3.018	3.008	3.027	3.013	3.013
-0.010	0.034	0.005	0.005	-0.088	0.010	0.044	4.004	3.018	3.022	3.013	3.027	3.022	3.018
-0.020	0.039	0.000	0.000	-0.063	0.015	0.044	4.058	3.022	3.022	3.018	3.032	3.027	3.022
-0.005	0.015	0.005	0.005	-0.024	0.015	0.044	3.940	3.018	3.013	3.013	3.032	3.037	3.027
-0.010	0.020	0.005	0.005	-0.005	0.020	0.044	3.950	3.013	3.013	3.013	3.032	3.042	3.037
0.005	0.010	0.000	0.000	0.024	-0.005	0.044	3.965	3.018	3.013	3.013	3.032	3.047	3.027
0.000	0.000	-0.005	0.000	0.054	-0.020	0.044	3.945	3.008	3.008	3.013	3.032	3.047	3.037
0.010	-0.005	-0.005	0.010	0.068	-0.029	0.044	3.950	3.013	3.008	3.008	3.032	3.047	3.037
0.010	0.000	-0.005	0.000	0.073	-0.029	0.039	4.028	3.018	3.008	3.008	3.027	3.042	3.037
0.015	-0.010	0.000	0.000	0.073	-0.015	0.044	3.970	3.018	3.008	3.008	3.027	3.037	3.042
0.005	-0.015	-0.010	0.000	0.049	-0.024	0.044	4.014	3.022	3.013	3.003	3.022	3.027	3.032
0.000	-0.020	0.000	0.000	0.049	-0.024	0.044	3.965	3.018	3.013	3.008	3.022	3.022	3.032
0.015	-0.015	0.000	-0.005	0.083	-0.020	0.044	3.965	3.018	3.013	3.008	3.027	3.032	3.032
0.010	-0.005	0.000	0.000	0.107	-0.010	0.044	3.975	3.018	3.013	3.008	3.027	3.037	3.037
0.010	0.000	0.000	0.000	0.073	0.000	0.044	3.994	3.022	3.018	3.013	3.027	3.022	3.037
0.015	0.000	0.000	-0.005	0.034	0.015	0.044	3.975	3.022	3.018	3.013	3.027	3.013	3.032
0.005	-0.005	0.005	-0.005	0.034	0.024	0.044	4.004	3.022	3.018	3.013	3.027	3.018	3.032
0.005	0.000	0.010	0.000	-0.020	0.039	0.044	3.984	3.022	3.022	3.013	3.027	3.003	3.027
-0.005	0.005	0.010	0.005	-0.029	0.034	0.039	4.004	3.022	3.018	3.018	3.032	3.008	3.022
-0.010	0.010	0.005	0.005	-0.034	0.044	0.044	3.994	3.027	3.027	3.018	3.032	3.008	3.018
-0.005	0.005	0.010	0.005	-0.059	0.049	0.044	3.989	3.022	3.022	3.018	3.032	3.008	3.022
0.000	0.005	0.005	0.000	-0.063	0.034	0.044	3.970	3.022	3.022	3.018	3.032	3.013	3.013
-0.005	0.010	0.005	0.000	-0.068	0.015	0.039	4.004	3.022	3.022	3.018	3.032	3.018	3.008
-0.005	0.000	0.000	-0.005	-0.039	-0.010	0.044	3.984	3.018	3.018	3.018	3.032	3.027	3.008
0.000	0.005	0.000	0.000	-0.024	-0.034	0.044	3.989	3.018	3.018	3.018	3.037	3.027	3.008
-0.005	-0.005	0.005	0.000	-0.010	-0.034	0.039	3.999	3.018	3.018	3.018	3.037	3.032	3.013
0.000	-0.005	-0.005	0.000	-0.015	-0.044	0.044	3.965	3.013	3.013	3.013	3.032	3.032	3.018
0.010	-0.005	-0.010	0.000	-0.010	-0.024	0.039	3.994	3.018	3.013	3.008	3.032	3.032	3.027
0.005	-0.010	-0.010	0.000	-0.015	-0.015	0.044	3.970	3.013	3.013	3.008	3.027	3.027	3.027
0.010	-0.005	-0.005	0.005	0.000	-0.015	0.044	4.004	3.018	3.018	3.013	3.027	3.032	3.032
0.005	-0.005	-0.005	0.000	0.010	0.010	0.039	3.960	3.013	3.013	3.013	3.027	3.037	3.042
-0.005	0.020	0.000	-0.005	0.015	0.020	0.039	3.999	3.022	3.022	3.018	3.032	3.032	3.042
0.005	0.024	0.000	0.000	0.034	0.020	0.044	3.989	3.022	3.027	3.018	3.032	3.037	3.042
0.005	0.015	0.005	0.000	0.029	0.039	0.039	3.975	3.022	3.018	3.018	3.032	3.032	3.047
-0.005	0.015	0.005	0.000	0.024	0.034	0.039	3.940	3.013	3.018	3.018	3.032	3.037	3.042
0.000	0.015	0.005	0.005	0.039	0.034	0.039	3.950	3.013	3.018	3.018	3.037	3.032	3.037
-0.010	0.010	0.005	0.005	0.024	0.034	0.039	3.960	3.013	3.018	3.013	3.037	3.032	3.037
0.000	0.024	0.000	0.000	0.000	0.020	0.039	3.931	3.013	3.018	3.013	3.032	3.022	3.027
-0.010	0.024	0.005	0.005	-0.024	0.005	0.039	3.955	3.008	3.013	3.013	3.032	3.018	3.022
-0.005	0.005	0.000	0.000	-0.034	-0.005	0.039	3.931	3.008	3.008	3.008	3.027	3.018	3.018
0.000	-0.005	0.000	0.005	-0.029	-0.010	0.039	3.901	3.003	3.003	3.008	3.032	3.022	3.018
0.005	0.000	0.000	0.000	-0.015	-0.010	0.039	3.931	3.003	3.003	3.003	3.027	3.022	3.022
0.005	-0.005	-0.005	0.000	-0.029	-0.024	0.039	4.009	3.013	3.003	3.003	3.027	3.018	3.018
-0.005	-0.005	-0.005	0.005	-0.034	-0.015	0.039	3.921	3.003	3.003	3.003	3.027	3.022	3.022
0.015	-0.005	-0.005	0.005	-0.029	-0.010	0.039	4.033	3.018	3.008	3.003	3.022	3.022	3.022
0.015	-0.005	0.000	0.000	-0.024	-0.005	0.039	3.955	3.018	3.008	3.003	3.022	3.022	3.022
0.010	-0.020	-0.005	0.005	-0.020	0.015	0.039	4.004	3.018	3.008	3.003	3.022	3.022	3.027
0.005	-0.015	-0.010	0.000	0.000	0.010	0.039	3.960	3.018	3.008	3.003	3.022	3.027	3.032
0.005	-0.010	-0.010	0.005	0.010	0.020	0.039	3.896	3.008	3.008	3.003	3.022	3.027	3.032
0.000	0.000	-0.005	0.005	0.000	0.020	0.044	3.970	3.003	3.013	3.003	3.022	3.022	3.027
0.005	-0.005	-0.005	0.005	-0.005	0.020	0.039	3.926	3.008	3.008	3.008	3.022	3.022	3.027
-0.005	0.000	-0.005	0.005	-0.015	0.024	0.044	3.975	3.008	3.008	3.008	3.022	3.018	3.027
-0.005	0.005	0.000	0.005	-0.015	0.020	0.039	3.999	3.018	3.013	3.008	3.022	3.018	3.022
0.000	0.020	0.000	0.000	-0.010	0.020	0.039	3.965	3.013	3.018	3.008	3.022	3.018	3.022
-0.005	0.034	0.000	0.000	-0.010	0.015	0.039	4.004	3.022	3.018	3.013	3.022	3.022	3.022
-0.020	0.034	-0.005	0.000	-0.005	-0.005	0.039	3.970	3.018	3.018	3.013	3.027	3.022	3.018
-0.005	0.005	-0.005	0.000	0.020	0.005	0.039	3.984	3.018	3.013	3.013	3.027	3.032	3.022
0.000	0.010	0.000	0.000	0.015	-0.010	0.039	3.989	3.022	3.018	3.008	3.027	3.022	3.018
0.010	0.000	-0.005	0.005	0.005	-0.020	0.039	3.965	3.022	3.013	3.013	3.027	3.022	3.018
0.000	-0.010	0.005	0.005	0.024	-0.010	0.039	3.984	3.018	3.013	3.013	3.027	3.027	3.022
0.015	-0.020	0.005	0.000	0.034	-0.024	0.039	3.989	3.022	3.008	3.008	3.027	3.027	3.022
0.015	-0.029	0.005	0.000	0.029	-0.005	0.039	3.965	3.018	3.013	3.008	3.027	3.027	3.027
0.015	-0.024	0.005	-0.005	-0.005	0.010	0.039	3.994	3.022	3.013	3.008	3.027	3.018	3.027
0.005	-0.015	0.010	-0.005	-0.020	-0.005	0.039	3.960	3.018	3.018	3.008	3.022	3.013	3.022
0.010	0.000	0.005	0.000	-0.029	0.005	0.039	3.979	3.018	3.018	3.008	3.027	3.013	3.018
0.015	0.005	0.005	0.000	-0.015	0.000	0.039	3.979	3.018	3.022	3.013	3.027	3.018	3.018
-0.010	0.015	0.005	0.000	0.000	0.000	0.039	3.970	3.013	3.018	3.013	3.027	3.027	3.022
-0.005	0.039	0.000	0.000	-0.015	-0.010	0.039	3.970	3.013	3.022	3.013	3.027	3.022	3.018
-0.015	0.020	0.000	0.000	-0.024	-0.024	0.039	3.989	3.008	3.013	3.013	3.032	3.018	3.013
-0.005	0.010	0.000	0.000	-0.015	-0.020	0.039	3.984	3.018	3.008	3.013	3.032	3.022	3.022
-0.005	-0.020	-0.005	0.000	0.005	0.000	0.039	3.989	3.013	3.003	3.008	3.027	3.027	3.027
-0.005	-0.029	-0.005	0.000	0.039	-0.010	0.039	3.994	3.018	3.003	3.008	3.027	3.037	3.027
-0.010	-0.044	-0.005	0.000	0.049	-0.005	0.039	3.975	3.018	3.003	3.003	3.027	3.037	3.032
0.005	-0.005	0.000	0.000	0.098	-0.005	0.039	3.979	3.022	3.022	3.013	3.027	3.047	3.037
0.000	0.000	0.000	0.000	0.117	-0.005	0.039	3.960	3.018	3.022	3.013	3.027	3.047	3.042
-0.010	0.005	0.000	-0.005	0.137	0.000	0.039	3.950	3.018	3.022	3.013	3.027	3.047	3.047
-0.005	0.020	-0.005	0.000	0.117	0.000	0.039	3.955	3.018	3.022	3.018	3.027	3.037	3.042
0.005	0.000	-0.010	0.000	0.117	0.000	0.039	3.940	3.013	3.013	3.013	3.032	3.032	3.042
0.015	0.000	-0.005	0.005	0.088	0.015	0.039	3.940	3.013	3.018	3.013	3.027	3.022	3.037
0.000	0.034	-0.010	0.005	0.054	0.010	0.039	4.014	3.022	3.027	3.018	3.027	3.013	3.032
0.005	0.034	-0.010	0.005	0.000	0.015	0.039	3.931	3.013	3.022	3.018	3.032	3.003	3.022
0.010	-0.005	-0.005	0.005	-0.029	0.015	0.039	3.940	3.013	3.008	3.013	3.027	2.998	3.013
0.015	-0.029	-0.005	0.005	-0.063	0.010	0.039	4.038	3.018	3.003	3.008	3.027	2.998	3.008
0.010	-0.024	0.000	0.005	-0.093	0.005	0.039	3.901	3.018	3.008	3.008	3.027	2.998	3.008
-0.005	-0.015	0.005	0.015	-0.088	0.000	0.039	3.921	3.008	3.013	3.013	3.027	3.003	3.003
-0.005	0.000	0.010	0.010	-0.054	0.000	0.039	3.960	3.003	3.013	3.013	3.027	3.022	3.013
0.000	0.000	0.005	0.005	-0.029	-0.005	0.039	3.931	3.003	3.013	3.013	3.027	3.027	3.013
0.000	0.015	0.000	0.000	-0.015	-0.029	0.039	3.960	3.003	3.013	3.013	3.027	3.027	3.013
-0.010	0.039	0.005	0.000	-0.010	-0.015	0.039	3.911	2.998	3.018	3.013	3.027	3.032	3.022
-0.015	0.034	0.010	0.005	-0.029	-0.020	0.039	3.999	3.003	3.013	3.018	3.027	3.022	3.022
-0.010	0.005	0.010	0.005	-0.049	0.010	0.044	3.994	3.003	2.998	3.008	3.027	3.022	3.027
-0.005	0.000	0.010	0.000	-0.054	0.020	0.039	3.975	3.008	2.998	3.003	3.027	3.018	3.027
0.015	-0.005	0.010	0.000	-0.044	0.000	0.039	3.984	3.022	3.003	3.003	3.022	3.018	3.022
0.015	-0.005	0.005	0.005	-0.049	0.010	0.039	4.004	3.022	3.003	3.003	3.022	3.022	3.022
0.015	-0.005	-0.005	0.000	-0.034	-0.005	0.039	4.009	3.022	3.013	3.003	3.018	3.022	3.018
0.005	-0.005	0.010	-0.005	-0.034	-0.015	0.039	3.975	3.013	3.008	3.003	3.018	3.018	3.018
0.000	-0.024	0.044	-0.005	-0.054	-0.020	0.039	3.999	3.018	3.008	3.013	3.022	3.013	3.018
0.015	-0.020	0.044	0.000	-0.054	-0.005	0.044	3.975	3.018	3.008	3.013	3.027	3.018	3.018
0.010	-0.020	0.034	0.000	-0.044	-0.010	0.044	3.960	3.013	3.008	3.008	3.027	3.018	3.018
-0.005	-0.005	0.015	0.000	-0.054	-0.015	0.044	3.984	3.013	3.013	3.003	3.022	3.018	3.018
-0.015	0.000	0.010	0.005	-0.044	-0.020	0.044	3.994	3.013	3.013	3.003	3.022	3.018	3.018
0.005	0.015	0.000	0.005	-0.039	0.034	0.044	3.994	3.018	3.018	3.008	3.022	3.022	3.037
-0.010	0.029	-0.010	0.005	-0.010	0.068	0.039	3.989	3.018	3.022	3.008	3.022	3.032	3.047
-0.020	0.029	-0.005	0.005	0.034	0.078	0.044	3.970	3.018	3.022	3.013	3.032	3.047	3.047
-0.005	0.015	0.010	0.005	0.117	0.068	0.039	3.970	3.022	3.018	3.018	3.032	3.062	3.052
-0.005	0.010	0.020	0.005	0.142	0.034	0.039	4.004	3.022	3.018	3.018	3.032	3.057	3.047
-0.005	0.005	0.015	0.000	0.107	0.010	0.039	3.979	3.027	3.018	3.018	3.032	3.037	3.037
-0.005	0.005	0.010	-0.005	0.073	-0.005	0.044	3.970	3.027	3.018	3.013	3.027	3.022	3.027
0.000	0.034	0.005	-0.005	0.020	-0.034	0.044	3.975	3.022	3.027	3.018	3.027	3.008	3.013
0.005	0.010	0.000	0.000	-0.005	-0.068	0.039	3.999	3.022	3.018	3.013	3.032	3.003	3.003
0.024	-0.010	0.000	0.000	0.000	-0.059	0.044	3.965	3.022	3.013	3.013	3.032	3.013	3.008
0.005	-0.015	-0.010	0.005	0.005	-0.029	0.039	3.970	3.013	3.008	3.008	3.027	3.018	3.022
0.000	-0.015	-0.010	0.005	0.015	-0.015	0.039	3.960	3.013	3.008	3.008	3.027	3.022	3.027
0.005	-0.015	-0.010	0.000	0.000	-0.005	0.039	3.979	3.013	3.008	3.003	3.027	3.018	3.027
0.000	-0.005	-0.010	0.000	0.000	0.015	0.039	3.955	3.013	3.013	3.008	3.027	3.022	3.027
-0.005	0.010	-0.010	0.000	0.015	0.034	0.039	3.940	3.008	3.018	3.013	3.027	3.022	3.037
-0.005	0.024	-0.015	0.000	-0.005	0.039	0.039	3.965	3.013	3.018	3.008	3.027	3.018	3.032
-0.005	0.005	-0.020	0.000	-0.015	0.054	0.039	3.940	3.008	3.003	3.008	3.027	3.018	3.032
-0.010	0.005	-0.015	0.000	-0.005	0.068	0.039	3.945	3.008	3.008	3.008	3.027	3.022	3.032
-0.015	-0.005	-0.015	0.005	-0.010	0.039	0.039	3.940	3.003	3.003	3.003	3.022	3.018	3.022
-0.020	-0.015	-0.015	0.005	-0.005	-0.010	0.039	3.936	3.003	2.998	3.003	3.022	3.022	3.008
-0.010	-0.010	-0.010	0.000	-0.020	-0.010	0.039	3.931	3.003	3.003	2.998	3.022	3.018	3.013
-0.005	-0.020	-0.020	0.005	-0.029	-0.024	0.039	4.014	3.013	2.998	2.998	3.022	3.013	3.008
-0.005	0.000	-0.020	0.010	-0.010	-0.039	0.039	3.931	3.013	3.013	2.998	3.022	3.022	3.008
0.015	-0.005	-0.010	0.005	0.015	-0.024	0.039	4.043	3.027	3.013	3.008	3.022	3.027	3.018
0.010	0.000	-0.010	0.000	0.015	-0.044	0.039	3.940	3.018	3.013	3.008	3.022	3.022	3.013
0.020	-0.024	-0.015	0.000	0.024	-0.054	0.044	3.911	3.008	3.008	3.003	3.022	3.027	3.013
0.005	-0.010	-0.015	0.000	0.039	-0.063	0.044	3.960	3.008	3.013	3.003	3.022	3.027	3.018
0.015	0.020	-0.020	-0.005	0.024	-0.063	0.044	4.004	3.013	3.018	3.003	3.022	3.018	3.022
0.010	0.000	-0.005	-0.005	0.010	-0.005	0.044	3.965	3.008	3.008	3.013	3.022	3.018	3.032
0.005	-0.005	-0.005	-0.005	0.000	0.020	0.039	3.926	3.003	3.003	3.008	3.022	3.013	3.037
0.000	0.000	0.000	-0.005	0.000	0.034	0.039	3.970	3.008	3.008	3.008	3.027	3.018	3.032
0.000	0.015	-0.010	0.000	-0.005	0.024	0.039	3.989	3.013	3.013	3.003	3.022	3.018	3.027
0.005	0.039	-0.015	0.005	-0.020	0.034	0.039	3.950	3.013	3.018	3.008	3.027	3.018	3.027
0.015	0.029	-0.010	0.015	-0.039	0.034	0.039	3.989	3.018	3.018	3.013	3.027	3.013	3.022
0.010	0.020	-0.005	0.005	-0.029	0.054	0.039	3.970	3.018	3.013	3.013	3.027	3.018	3.027
0.000	0.015	0.000	0.005	-0.005	0.054	0.039	3.999	3.018	3.013	3.008	3.027	3.027	3.027
0.000	0.020	0.000	0.005	0.000	0.024	0.039	3.970	3.018	3.018	3.013	3.027	3.027	3.022
0.015	0.010	0.005	0.000	0.024	0.034	0.039	3.975	3.018	3.013	3.013	3.032	3.032	3.027
0.020	-0.029	0.015	0.000	0.039	0.015	0.039	3.984	3.027	3.008	3.008	3.032	3.037	3.022
0.005	-0.020	0.010	0.010	0.034	0.010	0.044	3.960	3.018	3.013	3.008	3.032	3.032	3.027
0.000	-0.015	0.015	0.005	0.034	-0.015	0.039	3.960	3.008	3.013	3.013	3.027	3.027	3.022
0.005	-0.015	0.010	0.000	-0.005	0.000	0.039	3.989	3.013	3.013	3.008	3.027	3.018	3.022
0.000	0.005	0.005	0.005	-0.005	-0.010	0.044	3.965	3.013	3.018	3.008	3.027	3.018	3.018
-0.005	-0.015	0.000	0.005	0.015	-0.039	0.044	3.965	3.003	3.008	3.003	3.022	3.022	3.013
0.000	-0.034	-0.005	-0.005	0.010	-0.015	0.039	3.975	3.013	3.003	3.003	3.022	3.022	3.022
0.000	0.015	-0.005	-0.005	-0.005	-0.034	0.039	3.975	3.013	3.018	3.008	3.022	3.018	3.018
0.000	0.005	0.000	0.005	-0.005	-0.005	0.039	3.955	3.008	3.013	3.008	3.022	3.018	3.022
-0.005	0.024	-0.005	0.005	0.005	-0.015	0.044	3.975	3.008	3.018	3.013	3.027	3.022	3.022
0.015	0.024	0.005	0.000	0.000	-0.010	0.044	3.975	3.013	3.018	3.008	3.027	3.022	3.018
0.005	0.034	0.015	0.000	0.005	0.010	0.039	3.975	3.008	3.018	3.013	3.027	3.022	3.032
0.000	0.010	0.010	-0.005	-0.015	0.024	0.039	3.975	3.008	3.003	3.013	3.027	3.018	3.027
-0.015	-0.010	0.015	-0.005	-0.015	0.010	0.039	3.970	3.018	3.003	3.008	3.027	3.018	3.018
-0.005	0.000	0.020	0.000	-0.015	0.010	0.044	3.960	3.013	3.013	3.008	3.027	3.018	3.022
-0.015	0.010	0.015	0.005	-0.020	0.005	0.039	3.950	3.013	3.013	3.008	3.032	3.018	3.022
-0.010	0.020	0.010	0.010	-0.024	0.000	0.039	3.955	3.013	3.013	3.008	3.027	3.018	3.018
-0.010	0.034	0.010	0.010	-0.034	-0.005	0.039	3.950	3.013	3.018	3.013	3.027	3.018	3.022
-0.010	0.020	0.015	0.015	-0.054	0.020	0.039	3.936	3.008	3.013	3.008	3.027	3.018	3.022
0.000	0.005	0.010	0.010	-0.049	0.010	0.039	3.945	3.008	3.003	3.008	3.027	3.018	3.022
0.005	-0.029	0.015	0.005	-0.029	0.015	0.044	4.028	3.003	2.993	3.003	3.022	3.027	3.022
0.000	-0.049	0.015	0.000	0.044	0.000	0.044	3.916	2.993	2.988	2.998	3.022	3.047	3.027
0.005	-0.044	0.005	0.000	0.127	-0.005	0.044	4.004	3.008	2.993	2.993	3.022	3.057	3.037
0.010	-0.034	0.005	0.000	0.117	0.000	0.044	4.023	3.013	3.003	2.993	3.018	3.042	3.037
0.010	0.029	0.005	0.000	0.088	-0.010	0.044	3.921	3.013	3.022	3.003	3.018	3.027	3.032
0.000	0.005	0.000	0.000	0.044	-0.010	0.044	3.950	3.008	3.008	3.003	3.018	3.008	3.027
-0.005	0.010	-0.005	0.000	-0.005	0.000	0.044	3.945	3.008	3.008	3.003	3.018	2.998	3.018
0.010	0.015	-0.005	-0.005	-0.024	-0.005	0.039	3.931	3.008	3.013	3.003	3.018	2.998	3.013
0.000	0.024	-0.005	-0.005	-0.029	0.010	0.044	3.970	3.003	3.008	3.003	3.018	3.003	3.013
0.005	0.024	0.010	0.000	-0.024	0.000	0.044	4.019	3.013	3.008	3.013	3.022	3.008	3.008
-0.010	0.015	0.010	0.000	-0.015	-0.010	0.044	3.999	3.013	3.008	3.008	3.022	3.013	3.008
0.000	0.005	0.005	0.005	-0.005	-0.024	0.044	3.926	3.008	3.003	3.003	3.027	3.018	3.008
0.000	0.010	0.005	0.000	-0.005	0.020	0.044	3.970	3.008	3.003	3.003	3.027	3.018	3.022
-0.010	0.010	0.015	0.000	-0.010	0.015	0.044	3.999	3.013	3.008	3.003	3.027	3.018	3.022
-0.010	0.000	0.005	0.000	-0.005	-0.005	0.039	3.994	3.013	3.008	3.003	3.022	3.022	3.018
0.000	0.005	0.010	0.000	-0.005	-0.010	0.039	3.994	3.018	3.008	3.008	3.022	3.018	3.013
0.005	0.000	0.005	0.000	-0.005	-0.024	0.039	3.979	3.018	3.008	3.003	3.022	3.018	3.013
0.005	-0.005	0.015	-0.005	-0.015	-0.010	0.039	3.999	3.018	3.008	3.003	3.022	3.018	3.018
-0.005	-0.010	0.020	0.000	-0.005	-0.005	0.039	3.970	3.013	3.008	3.008	3.022	3.018	3.022
0.000	-0.024	0.015	0.000	-0.005	-0.010	0.039	3.999	3.013	3.003	3.003	3.022	3.018	3.018
0.005	-0.029	0.000	0.000	-0.020	-0.010	0.039	3.984	3.013	3.003	2.998	3.018	3.013	3.018
0.000	-0.044	-0.015	0.000	-0.054	-0.039	0.044	3.955	3.008	2.998	2.993	3.018	3.003	3.008
0.010	-0.044	-0.020	0.000	-0.054	-0.024	0.039	3.999	3.018	3.003	2.998	3.018	3.008	3.008
0.015	-0.029	-0.005	0.000	-0.054	-0.015	0.044	3.960	3.013	3.013	3.003	3.018	3.008	3.013
0.005	-0.010	-0.005	0.005	-0.039	0.005	0.044	3.960	3.008	3.018	3.008	3.022	3.013	3.022
0.010	0.010	0.010	0.005	-0.015	0.024	0.044	3.970	3.013	3.018	3.013	3.027	3.022	3.027
0.005	0.024	0.015	0.005	-0.020	0.020	0.044	3.970	3.013	3.022	3.018	3.027	3.022	3.027
-0.005	0.049	0.015	0.000	0.000	0.015	0.039	3.965	3.013	3.022	3.018	3.027	3.027	3.027
0.000	-0.005	0.000	-0.005	0.000	0.010	0.039	3.970	3.008	3.003	3.008	3.027	3.027	3.022
0.000	-0.005	-0.005	-0.005	0.005	0.015	0.044	3.994	3.013	3.008	3.008	3.027	3.027	3.027
-0.010	0.010	-0.005	-0.005	0.015	0.005	0.044	3.970	3.013	3.013	3.008	3.027	3.027	3.022
-0.005	0.005	0.000	0.000	0.039	-0.005	0.039	3.994	3.018	3.013	3.008	3.032	3.037	3.022
-0.005	0.005	0.020	0.000	0.059	-0.015	0.044	3.975	3.013	3.013	3.013	3.032	3.037	3.027
0.010	0.015	0.010	0.010	0.054	-0.005	0.039	3.965	3.018	3.018	3.013	3.032	3.032	3.032
0.000	0.000	0.015	0.010	0.063	0.005	0.039	3.979	3.018	3.013	3.008	3.032	3.037	3.032
0.005	-0.005	-0.005	0.010	0.054	0.000	0.039	3.960	3.018	3.008	3.003	3.027	3.027	3.032
0.005	-0.010	-0.029	0.010	0.005	0.015	0.044	3.940	3.013	3.003	2.993	3.022	3.013	3.027
0.005	0.000	-0.020	0.010	-0.039	0.015	0.039	3.945	3.008	3.013	3.003	3.018	3.003	3.022
0.005	0.039	-0.005	0.000	-0.044	-0.015	0.039	3.936	3.008	3.022	3.008	3.022	3.003	3.013
0.010	0.024	-0.005	0.005	-0.034	0.020	0.039	3.955	3.008	3.008	3.008	3.022	3.013	3.022
0.010	0.005	-0.010	0.000	-0.005	0.020	0.039	3.960	3.003	3.003	3.008	3.022	3.018	3.022
0.000	0.005	0.010	0.005	0.005	0.020	0.039	3.936	3.003	3.003	3.008	3.027	3.027	3.022
-0.010	0.000	0.015	0.005	0.044	0.015	0.039	3.926	2.998	3.003	3.008	3.027	3.037	3.022
-0.005	-0.005	0.020	0.010	0.063	0.015	0.039	4.019	3.013	2.998	3.008	3.027	3.037	3.032
0.005	-0.010	0.020	0.005	0.039	0.020	0.039	4.004	3.018	3.003	3.003	3.022	3.022	3.032
0.010	0.000	0.010	0.005	0.005	0.015	0.039	3.999	3.022	3.008	3.003	3.022	3.013	3.022
-0.005	0.000	0.005	0.005	-0.005	0.024	0.039	3.970	3.018	3.013	3.003	3.022	3.013	3.027
0.010	-0.015	0.000	0.000	-0.020	-0.005	0.039	3.945	3.027	3.013	3.003	3.022	3.008	3.013
0.010	-0.015	-0.005	0.000	-0.039	-0.010	0.039	3.965	3.018	3.008	3.003	3.018	3.003	3.008
0.000	-0.015	0.005	0.005	-0.044	-0.010	0.039	4.014	3.027	3.018	3.008	3.022	3.008	3.008
0.000	0.000	0.005	0.000	-0.029	-0.024	0.039	3.989	3.022	3.018	3.008	3.022	3.013	3.008
0.000	-0.015	0.010	-0.005	-0.015	-0.049	0.039	3.916	3.013	3.018	3.008	3.022	3.018	3.003
0.010	-0.015	0.010	-0.005	-0.005	-0.034	0.039	3.970	3.008	3.013	3.013	3.022	3.022	3.013
0.020	-0.005	0.000	-0.005	-0.005	-0.029	0.044	3.989	3.013	3.018	3.008	3.022	3.018	3.018
0.005	0.000	0.000	0.000	-0.005	-0.020	0.039	4.004	3.018	3.018	3.008	3.027	3.022	3.022
0.010	0.039	-0.005	0.010	0.020	-0.015	0.039	3.994	3.018	3.027	3.013	3.032	3.032	3.027
-0.015	0.078	-0.010	0.005	0.020	0.005	0.039	3.970	3.008	3.032	3.018	3.027	3.027	3.032
-0.034	0.059	-0.005	0.000	0.005	0.015	0.039	3.989	3.008	3.018	3.018	3.027	3.022	3.032
-0.015	0.020	0.005	0.000	-0.005	0.000	0.044	3.960	3.013	3.008	3.018	3.027	3.022	3.027
0.000	0.010	0.005	0.005	0.000	0.020	0.039	3.989	3.018	3.008	3.013	3.032	3.022	3.032
-0.044	0.000	0.010	0.005	-0.010	0.000	0.039	3.984	3.003	3.003	3.008	3.032	3.022	3.022
-0.039	-0.020	0.010	0.005	-0.020	-0.010	0.039	3.979	3.008	3.003	3.008	3.027	3.022	3.022
-0.029	-0.020	0.015	0.005	-0.029	0.010	0.039	3.989	3.013	3.003	3.008	3.027	3.018	3.027
0.000	-0.010	0.005	0.005	-0.039	0.024	0.039	3.994	3.027	3.013	3.003	3.027	3.018	3.027
0.029	0.000	0.005	0.000	-0.059	0.010	0.044	3.955	3.032	3.022	3.008	3.022	3.013	3.018
0.039	0.000	0.005	0.000	-0.059	0.034	0.044	3.979	3.032	3.022	3.013	3.027	3.018	3.027
0.059	-0.010	0.005	0.005	-0.044	0.000	0.044	3.975	3.032	3.022	3.013	3.027	3.022	3.018
0.049	-0.005	0.005	-0.005	-0.010	0.029	0.039	3.999	3.027	3.027	3.013	3.027	3.032	3.027
0.039	-0.005	0.000	-0.010	0.020	0.015	0.044	3.970	3.018	3.022	3.018	3.027	3.037	3.027
0.034	-0.005	0.005	-0.005	0.039	0.024	0.039	3.960	3.013	3.018	3.018	3.032	3.037	3.032
0.015	-0.005	0.000	0.000	0.039	0.015	0.044	3.994	3.013	3.018	3.013	3.037	3.037	3.032
-0.005	-0.005	-0.005	0.000	0.044	0.015	0.044	3.999	3.013	3.013	3.013	3.032	3.032	3.032
-0.010	-0.015	-0.010	0.005	0.044	0.005	0.044	3.979	3.008	3.008	3.008	3.032	3.032	3.027
-0.010	-0.015	-0.005	0.010	0.044	0.010	0.044	3.994	3.013	3.008	3.008	3.032	3.032	3.037
-0.010	-0.010	0.000	0.005	0.024	0.010	0.044	3.984	3.013	3.013	3.008	3.027	3.022	3.032
-0.015	-0.015	0.000	0.000	0.020	0.000	0.039	3.950	3.013	3.008	3.008	3.027	3.022	3.022
-0.005	-0.010	0.000	-0.005	0.005	0.005	0.044	4.077	3.027	3.018	3.013	3.027	3.018	3.027
0.000	0.005	0.000	0.005	0.010	-0.005	0.039	3.960	3.022	3.022	3.013	3.027	3.022	3.022
-0.005	0.010	0.000	0.000	0.010	-0.015	0.044	3.936	3.018	3.022	3.018	3.032	3.022	3.018
0.005	0.005	0.005	-0.005	0.005	-0.010	0.044	3.955	3.018	3.022	3.018	3.027	3.022	3.022
-0.005	0.024	0.000	-0.005	0.000	0.005	0.039	4.028	3.018	3.027	3.018	3.027	3.022	3.027
-0.029	0.039	0.000	-0.010	0.005	0.000	0.039	4.038	3.018	3.022	3.018	3.032	3.022	3.027
-0.039	0.049	-0.005	-0.005	-0.005	-0.010	0.039	4.014	3.022	3.027	3.018	3.032	3.022	3.022
-0.049	0.015	-0.005	0.005	0.005	-0.020	0.044	4.038	3.022	3.013	3.013	3.037	3.027	3.022
-0.039	-0.010	-0.010	0.010	0.015	-0.010	0.044	3.994	3.022	3.008	3.013	3.037	3.032	3.027
-0.010	-0.015	-0.005	0.000	0.000	-0.010	0.039	3.921	3.018	3.013	3.008	3.027	3.027	3.027
0.015	-0.010	-0.005	-0.005	0.015	-0.020	0.039	3.975	3.022	3.018	3.013	3.027	3.027	3.027
0.024	-0.010	0.000	-0.005	0.024	-0.024	0.039	4.038	3.037	3.018	3.013	3.032	3.032	3.022
0.044	-0.005	0.000	-0.005	0.020	-0.010	0.039	3.955	3.032	3.022	3.018	3.032	3.027	3.032
0.044	0.024	0.000	0.000	0.020	-0.010	0.039	3.950	3.027	3.032	3.022	3.037	3.027	3.032
0.034	0.034	0.005	0.010	0.020	-0.005	0.039	3.989	3.022	3.032	3.022	3.037	3.032	3.037
0.020	0.005	0.005	0.010	0.024	0.020	0.039	4.004	3.022	3.022	3.022	3.042	3.032	3.042
0.010	0.005	0.005	0.024	0.020	0.015	0.039	3.975	3.018	3.018	3.018	3.042	3.032	3.042
0.005	0.000	0.010	0.005	0.000	0.020	0.039	3.984	3.018	3.018	3.018	3.037	3.027	3.037
-0.010	-0.005	0.015	-0.005	-0.005	0.020	0.039	4.004	3.018	3.013	3.018	3.032	3.027	3.032
-0.024	-0.024	0.010	-0.015	-0.010	-0.005	0.039	3.975	3.013	3.008	3.013	3.032	3.022	3.022
-0.010	-0.015	0.005	-0.020	-0.010	0.000	0.039	3.979	3.018	3.013	3.013	3.027	3.022	3.027
-0.010	-0.005	0.000	-0.015	-0.010	0.010	0.039	3.994	3.018	3.013	3.008	3.027	3.022	3.027
-0.005	0.005	-0.005	-0.005	-0.005	0.000	0.039	3.965	3.018	3.018	3.008	3.032	3.022	3.022
-0.005	0.005	-0.005	0.005	-0.020	0.000	0.039	3.994	3.022	3.022	3.013	3.032	3.022	3.027
-0.005	0.015	-0.010	0.015	-0.024	0.000	0.039	3.984	3.022	3.022	3.018	3.037	3.027	3.027
-0.005	0.020	-0.005	0.010	-0.015	0.020	0.039	3.994	3.018	3.022	3.018	3.032	3.032	3.032
-0.020	0.020	-0.005	0.015	0.000	-0.005	0.039	3.984	3.013	3.022	3.018	3.032	3.032	3.027
-0.039	0.029	-0.010	0.015	0.000	0.020	0.039	3.984	3.013	3.018	3.013	3.032	3.037	3.037
-0.024	-0.005	-0.005	0.000	0.005	0.010	0.039	3.979	3.018	3.008	3.013	3.027	3.032	3.032
0.005	-0.015	-0.005	-0.005	0.005	0.024	0.044	3.960	3.022	3.008	3.008	3.027	3.027	3.037
0.015	-0.029	-0.005	-0.005	0.010	0.029	0.039	3.970	3.022	3.008	3.008	3.027	3.027	3.032
0.020	-0.020	0.005	-0.005	0.015	0.024	0.039	3.989	3.032	3.018	3.013	3.027	3.027	3.032
0.020	0.005	0.010	0.005	0.015	0.005	0.039	3.965	3.027	3.027	3.018	3.032	3.027	3.027
0.015	0.000	0.010	0.005	0.024	0.015	0.039	3.965	3.018	3.022	3.018	3.032	3.032	3.032
0.015	0.000	0.005	0.005	0.024	-0.005	0.039	3.979	3.027	3.022	3.018	3.037	3.027	3.022
0.010	0.010	0.010	0.000	0.029	-0.029	0.039	3.984	3.022	3.027	3.018	3.032	3.032	3.022
0.005	0.010	0.010	0.005	0.034	0.000	0.039	3.965	3.018	3.027	3.022	3.037	3.037	3.037
0.015	0.015	0.010	0.015	0.024	-0.015	0.039	3.965	3.022	3.022	3.022	3.042	3.032	3.032
0.000	0.020	0.005	0.010	0.020	0.010	0.039	3.975	3.018	3.022	3.018	3.037	3.032	3.037
-0.010	0.024	-0.010	0.000	0.020	0.005	0.039	3.950	3.008	3.022	3.013	3.032	3.032	3.032
-0.005	0.010	-0.005	0.000	0.010	-0.015	0.039	3.955	3.008	3.013	3.013	3.032	3.027	3.027
0.024	-0.015	-0.005	-0.005	0.015	0.020	0.039	3.950	3.018	3.008	3.013	3.027	3.027	3.037
0.020	-0.015	0.005	-0.010	0.015	0.020	0.039	3.931	3.013	3.008	3.013	3.027	3.027	3.037
0.015	-0.024	0.000	-0.005	0.015	0.005	0.039	3.950	3.013	3.008	3.008	3.027	3.027	3.032
0.010	-0.020	0.010	0.000	0.005	0.015	0.039	4.028	3.008	3.008	3.008	3.027	3.022	3.032
0.005	-0.005	0.010	-0.005	0.010	0.024	0.039	4.014	3.013	3.008	3.008	3.027	3.022	3.032
-0.005	-0.010	0.000	0.020	0.005	0.015	0.039	4.023	3.018	3.013	3.008	3.032	3.027	3.032
-0.015	-0.005	-0.005	0.010	0.010	0.024	0.039	3.926	3.013	3.013	3.008	3.027	3.027	3.032
-0.010	0.000	0.005	-0.005	0.000	0.044	0.039	3.921	3.008	3.013	3.008	3.022	3.022	3.032
-0.005	0.015	0.005	-0.010	0.000	0.044	0.039	3.940	3.008	3.018	3.013	3.022	3.022	3.027
-0.005	0.015	0.005	-0.010	0.005	0.005	0.039	3.960	3.013	3.013	3.013	3.027	3.022	3.018
0.005	-0.010	0.005	0.000	0.010	0.015	0.039	4.058	3.027	3.008	3.013	3.032	3.022	3.022
-0.005	-0.024	0.029	0.010	0.005	0.010	0.039	3.965	3.018	3.008	3.013	3.037	3.027	3.022
-0.024	-0.020	0.024	0.010	0.020	0.005	0.039	4.009	3.022	3.013	3.013	3.032	3.027	3.022
0.005	-0.020	0.015	0.010	0.034	-0.010	0.039	3.970	3.022	3.013	3.008	3.032	3.032	3.022
0.020	0.005	0.010	0.010	0.044	-0.010	0.039	4.023	3.022	3.027	3.013	3.032	3.032	3.027
-0.010	0.029	0.005	0.000	0.034	-0.029	0.039	3.970	3.013	3.027	3.013	3.027	3.027	3.022
-0.005	0.015	0.000	0.005	0.020	-0.039	0.039	3.984	3.013	3.022	3.013	3.027	3.022	3.018
-0.015	0.039	0.005	0.005	0.020	-0.039	0.039	3.965	3.013	3.022	3.018	3.032	3.022	3.022
0.010	0.000	0.020	0.000	0.000	-0.029	0.039	3.989	3.027	3.013	3.018	3.032	3.018	3.022
0.044	-0.020	0.024	0.000	0.000	-0.020	0.039	3.989	3.032	3.013	3.013	3.032	3.022	3.027
0.044	-0.015	0.020	0.015	0.000	-0.029	0.039	3.999	3.027	3.018	3.013	3.032	3.022	3.022
0.024	-0.005	0.005	0.010	0.005	-0.020	0.039	3.975	3.018	3.018	3.008	3.032	3.027	3.022
0.015	0.010	-0.005	0.005	0.000	0.005	0.039	3.970	3.013	3.018	3.008	3.027	3.027	3.032
0.010	0.020	-0.020	0.005	-0.005	0.000	0.039	3.994	3.018	3.018	3.008	3.027	3.022	3.032
0.005	0.020	-0.010	0.000	0.000	0.020	0.039	3.999	3.018	3.018	3.013	3.027	3.027	3.032
-0.015	0.005	0.000	0.000	0.005	0.020	0.039	3.994	3.013	3.013	3.013	3.032	3.022	3.032
-0.020	-0.005	0.000	0.005	0.005	0.020	0.039	3.979	3.013	3.008	3.013	3.032	3.027	3.032
-0.005	0.000	0.000	0.005	0.000	0.024	0.039	3.965	3.022	3.013	3.013	3.032	3.022	3.032
-0.015	0.010	-0.010	0.000	0.000	0.024	0.039	3.984	3.018	3.018	3.013	3.027	3.022	3.032
-0.010	0.005	-0.005	-0.005	0.000	0.010	0.039	3.989	3.022	3.018	3.013	3.027	3.022	3.027
-0.005	0.010	-0.005	0.000	0.000	0.015	0.044	3.975	3.022	3.018	3.013	3.027	3.022	3.027
-0.010	0.000	0.005	0.005	0.000	0.010	0.039	3.989	3.018	3.018	3.018	3.032	3.022	3.027
-0.005	-0.005	0.005	0.000	0.000	0.010	0.039	3.984	3.018	3.013	3.013	3.032	3.027	3.022
0.015	-0.015	-0.005	-0.005	0.005	-0.005	0.039	3.965	3.022	3.013	3.013	3.027	3.022	3.022
0.000	-0.015	0.005	-0.015	-0.005	-0.010	0.039	3.989	3.018	3.013	3.013	3.027	3.022	3.022
0.010	-0.029	0.005	-0.015	0.005	0.005	0.039	3.965	3.018	3.013	3.008	3.027	3.022	3.027
0.015	-0.015	0.000	0.000	0.000	0.005	0.039	3.989	3.022	3.018	3.013	3.032	3.022	3.022
0.010	0.005	0.000	-0.010	0.000	0.000	0.039	3.989	3.022	3.027	3.013	3.027	3.022	3.022
0.015	0.010	-0.005	0.005	0.000	0.005	0.039	3.945	3.022	3.022	3.013	3.032	3.027	3.022
0.000	0.020	-0.005	0.015	-0.005	0.010	0.039	3.945	3.013	3.022	3.018	3.037	3.027	3.027
-0.005	0.039	0.000	0.005	0.000	-0.010	0.039	3.950	3.008	3.022	3.022	3.037	3.027	3.027
-0.005	0.015	-0.005	0.024	0.005	0.005	0.039	3.936	3.003	3.018	3.018	3.042	3.032	3.032
-0.010	0.034	0.000	0.034	0.000	0.000	0.039	3.950	3.008	3.018	3.018	3.042	3.032	3.027
-0.015	0.029	-0.005	0.010	0.000	-0.010	0.044	4.014	3.013	3.013	3.013	3.032	3.032	3.027
-0.015	0.020	0.005	0.000	-0.005	-0.015	0.039	3.945	3.008	3.008	3.013	3.027	3.032	3.027
-0.005	-0.005	0.005	0.005	-0.010	0.005	0.039	3.936	3.008	3.003	3.008	3.032	3.027	3.032
-0.015	-0.020	-0.005	-0.005	-0.005	0.005	0.039	4.019	3.013	2.998	3.003	3.027	3.027	3.032
-0.020	-0.039	-0.005	-0.010	-0.005	0.005	0.039	4.004	3.008	2.998	2.998	3.022	3.022	3.027
0.005	-0.063	-0.010	-0.010	-0.010	0.005	0.039	4.038	3.027	2.993	2.993	3.018	3.022	3.027
0.005	-0.049	-0.005	-0.015	0.000	0.000	0.039	3.965	3.022	3.003	2.998	3.018	3.022	3.022
0.000	-0.015	-0.005	-0.005	0.010	-0.005	0.039	3.945	3.018	3.022	3.003	3.022	3.022	3.022
-0.005	0.103	-0.010	0.005	0.000	-0.015	0.039	3.950	3.018	3.057	3.018	3.027	3.018	3.018
-0.010	0.063	-0.005	0.010	0.005	-0.010	0.039	3.921	3.008	3.022	3.022	3.032	3.022	3.022
-0.020	0.020	-0.010	0.010	0.000	0.005	0.039	3.984	3.003	3.008	3.013	3.032	3.022	3.027
-0.010	0.005	-0.005	0.015	-0.005	-0.015	0.039	3.989	3.008	3.003	3.013	3.032	3.022	3.018
0.015	0.024	-0.005	0.010	-0.005	-0.020	0.039	3.975	3.022	3.013	3.008	3.032	3.027	3.022
0.039	-0.024	-0.010	0.005	0.000	-0.005	0.039	3.999	3.022	3.003	3.008	3.027	3.027	3.027
0.020	-0.024	0.005	0.005	0.005	0.000	0.039	3.994	3.018	3.003	3.008	3.027	3.027	3.027
0.010	-0.068	0.010	-0.005	0.010	-0.005	0.039	3.989	3.018	2.993	3.003	3.022	3.022	3.027
0.005	0.000	0.005	-0.005	0.015	0.000	0.039	3.975	3.022	3.022	3.008	3.022	3.027	3.027
0.000	0.020	0.000	-0.005	0.010	0.000	0.039	3.999	3.018	3.022	3.013	3.022	3.022	3.027
-0.010	-0.010	0.000	-0.010	0.010	-0.005	0.039	3.965	3.013	3.008	3.013	3.027	3.022	3.027
-0.005	0.000	0.015	-0.010	0.005	-0.005	0.039	3.975	3.018	3.018	3.018	3.027	3.022	3.022
0.000	0.049	0.005	0.000	0.010	-0.005	0.044	3.979	3.022	3.032	3.018	3.032	3.027	3.027
0.024	-0.024	-0.005	-0.015	0.010	-0.010	0.039	3.955	3.018	3.008	3.008	3.022	3.022	3.022
0.005	-0.010	-0.005	-0.020	0.000	-0.005	0.039	3.970	3.013	3.013	3.008	3.027	3.018	3.022
-0.010	0.000	-0.010	-0.015	-0.010	0.005	0.039	3.979	3.013	3.013	3.008	3.027	3.018	3.027
0.000	-0.005	-0.010	-0.015	-0.010	0.000	0.039	3.960	3.013	3.013	3.008	3.027	3.018	3.022
0.005	-0.010	-0.015	-0.010	-0.005	-0.005	0.039	3.970	3.013	3.008	3.008	3.027	3.022	3.018
0.010	-0.015	-0.010	0.010	0.005	0.000	0.039	3.989	3.013	3.008	3.008	3.032	3.027	3.027
0.020	-0.010	0.000	0.029	0.000	0.005	0.039	3.994	3.022	3.018	3.013	3.037	3.027	3.027
0.010	0.010	0.005	0.039	0.000	-0.005	0.039	3.994	3.022	3.022	3.013	3.042	3.027	3.027
0.000	0.024	0.015	0.054	0.000	0.010	0.039	3.994	3.022	3.022	3.022	3.042	3.032	3.032
0.005	0.029	0.024	0.034	-0.005	0.000	0.039	3.989	3.018	3.022	3.022	3.037	3.032	3.027
-0.005	0.010	0.015	0.024	0.000	-0.015	0.039	3.960	3.013	3.013	3.013	3.032	3.032	3.027
-0.024	0.005	-0.005	0.015	0.005	0.010	0.039	3.975	3.013	3.008	3.008	3.027	3.027	3.032
-0.010	0.000	-0.015	0.015	0.010	0.000	0.039	3.984	3.018	3.008	3.003	3.022	3.027	3.032
0.000	0.005	-0.015	-0.010	-0.005	-0.010	0.039	3.984	3.022	3.013	3.008	3.018	3.018	3.027
-0.010	0.000	-0.005	-0.029	-0.005	-0.024	0.039	3.950	3.018	3.018	3.008	3.018	3.018	3.018
-0.005	0.029	-0.005	-0.010	-0.005	-0.010	0.039	3.950	3.013	3.022	3.013	3.027	3.018	3.027
0.010	0.024	0.005	0.005	-0.010	-0.020	0.039	3.950	3.018	3.018	3.018	3.032	3.022	3.022
0.020	-0.010	0.010	-0.005	-0.005	0.005	0.039	3.940	3.013	3.008	3.013	3.027	3.022	3.027
0.000	-0.010	0.034	-0.020	-0.005	0.005	0.039	3.955	3.008	3.008	3.018	3.027	3.022	3.027
-0.015	0.010	0.024	-0.015	0.000	-0.005	0.039	3.940	3.003	3.008	3.013	3.027	3.027	3.027
-0.039	0.020	0.024	-0.034	0.005	0.010	0.039	3.940	2.998	3.008	3.008	3.027	3.027	3.027
-0.010	-0.015	0.005	-0.015	0.005	0.005	0.039	3.950	3.003	2.998	2.998	3.027	3.022	3.027
0.000	-0.029	-0.005	-0.005	-0.010	0.010	0.039	4.009	3.013	2.998	2.993	3.022	3.018	3.027
0.015	-0.044	-0.005	0.005	-0.015	0.000	0.039	3.911	3.008	2.998	2.998	3.027	3.018	3.018
-0.005	-0.024	0.000	0.010	-0.005	-0.005	0.039	3.950	3.008	3.003	2.998	3.022	3.022	3.018
0.024	-0.015	-0.005	0.005	-0.005	-0.005	0.039	3.965	3.013	3.008	2.998	3.018	3.018	3.022
0.010	-0.010	-0.005	0.015	-0.010	0.000	0.039	3.955	3.008	3.008	2.998	3.022	3.018	3.022
-0.010	0.015	-0.015	0.015	-0.015	-0.005	0.039	3.970	3.008	3.018	3.003	3.018	3.018	3.022
-0.020	0.005	-0.005	0.005	-0.020	0.005	0.039	3.911	2.998	3.008	3.003	3.018	3.013	3.018
-0.020	-0.020	0.005	0.000	-0.020	0.000	0.039	3.965	3.003	2.998	3.003	3.018	3.018	3.018
0.015	-0.010	0.000	-0.005	-0.010	-0.005	0.039	3.911	3.008	3.003	3.003	3.018	3.018	3.018
0.034	0.044	0.015	0.000	-0.010	-0.005	0.039	3.970	3.022	3.022	3.013	3.022	3.018	3.018
0.020	0.000	0.034	-0.010	-0.020	0.000	0.039	3.994	3.013	3.008	3.018	3.022	3.018	3.018
-0.010	-0.029	0.034	0.000	-0.020	0.000	0.039	3.960	3.003	2.998	3.008	3.027	3.018	3.018
-0.024	-0.044	0.024	0.005	-0.005	-0.005	0.039	3.999	3.003	2.993	2.998	3.027	3.022	3.022
-0.015	-0.020	0.000	0.015	-0.005	0.000	0.039	3.975	3.013	3.003	2.998	3.027	3.022	3.022
-0.024	0.000	0.000	0.020	0.015	0.005	0.039	3.994	3.013	3.013	2.998	3.027	3.027	3.022
0.000	-0.029	0.000	0.020	0.005	0.000	0.039	3.975	3.018	3.008	3.003	3.022	3.022	3.022
0.000	0.073	0.000	0.005	0.010	-0.010	0.039	3.965	3.018	3.042	3.013	3.018	3.022	3.022
0.024	0.068	0.010	0.000	0.005	-0.005	0.039	3.984	3.027	3.032	3.018	3.022	3.018	3.018
0.034	0.049	0.015	0.005	0.000	0.000	0.039	3.965	3.022	3.027	3.022	3.027	3.018	3.022
0.049	0.063	0.020	-0.005	0.000	-0.010	0.039	3.999	3.022	3.027	3.027	3.027	3.018	3.018
0.034	-0.049	0.024	0.000	0.000	0.000	0.039	3.999	3.018	2.988	3.013	3.032	3.022	3.022
0.024	-0.107	0.020	0.010	0.000	-0.005	0.039	3.965	3.008	2.983	3.003	3.027	3.022	3.022
-0.005	-0.024	0.010	-0.015	-0.010	-0.015	0.039	3.970	3.008	3.008	2.998	3.018	3.018	3.022
0.020	-0.024	0.005	-0.015	-0.015	-0.015	0.039	3.994	3.018	3.013	3.003	3.022	3.018	3.018
0.034	0.010	-0.005	0.005	-0.010	0.010	0.039	3.979	3.022	3.027	3.008	3.027	3.022	3.027
-0.005	0.078	0.005	0.010	-0.005	0.015	0.039	3.970	3.008	3.042	3.022	3.032	3.022	3.027
-0.029	0.103	0.005	0.024	0.005	0.015	0.039	3.984	3.008	3.032	3.022	3.037	3.032	3.027
-0.029	0.020	0.000	0.005	0.015	0.000	0.039	3.975	3.008	3.003	3.013	3.032	3.032	3.027
-0.015	-0.054	-0.005	-0.010	0.029	0.000	0.039	3.989	3.013	2.988	3.003	3.022	3.032	3.027
-0.015	-0.015	-0.005	-0.034	0.020	0.005	0.039	3.989	3.018	3.003	3.003	3.018	3.022	3.027
-0.020	0.000	-0.005	-0.010	0.005	0.000	0.039	3.950	3.013	3.008	3.003	3.022	3.018	3.022
0.010	-0.020	0.000	0.000	0.000	-0.005	0.039	3.975	3.018	3.003	3.008	3.027	3.018	3.022
0.024	-0.083	-0.005	-0.015	0.000	-0.015	0.039	3.931	3.008	2.993	2.993	3.018	3.018	3.018
0.000	0.034	-0.010	-0.024	0.000	0.000	0.039	3.950	3.008	3.022	3.003	3.013	3.013	3.022
-0.005	-0.020	-0.010	-0.029	-0.015	0.005	0.039	3.960	3.008	3.003	3.003	3.018	3.008	3.018
0.034	0.049	-0.010	0.005	-0.029	0.000	0.039	3.926	3.018	3.037	3.013	3.027	3.013	3.018
0.049	0.112	-0.005	0.039	-0.020	0.000	0.039	3.955	3.022	3.042	3.022	3.042	3.022	3.018
0.020	0.063	0.000	0.029	-0.005	-0.005	0.039	4.019	3.003	3.018	3.022	3.037	3.027	3.018
-0.063	0.093	-0.010	0.010	0.000	0.000	0.034	4.009	2.988	3.018	3.018	3.032	3.027	3.027
-0.073	0.112	-0.005	0.024	-0.005	0.010	0.034	4.019	2.998	3.013	3.018	3.037	3.027	3.027
-0.020	-0.010	-0.010	0.024	-0.010	0.015	0.034	3.931	3.008	2.979	3.003	3.032	3.027	3.027
-0.015	-0.078	-0.005	0.024	-0.020	0.005	0.034	3.916	3.003	2.969	2.993	3.027	3.022	3.027
-0.010	-0.049	0.000	0.010	-0.020	-0.010	0.034	3.911	3.003	2.988	2.993	3.018	3.022	3.022
-0.024	-0.010	0.000	0.000	0.000	0.010	0.034	3.950	3.003	2.998	2.993	3.013	3.022	3.027
-0.020	0.020	0.000	0.005	0.005	0.000	0.034	4.043	3.018	3.013	2.998	3.018	3.022	3.027
-0.010	0.015	-0.005	-0.010	0.015	0.000	0.034	3.965	3.022	3.018	2.998	3.008	3.018	3.022
-0.005	0.059	-0.005	-0.015	0.034	0.005	0.029	4.004	3.032	3.027	3.008	3.013	3.022	3.027
0.015	0.015	-0.010	-0.015	0.039	0.010	0.034	3.950	3.022	3.013	3.003	3.013	3.018	3.027
0.015	-0.044	-0.015	-0.015	0.010	-0.005	0.034	4.014	3.013	2.998	3.003	3.018	3.008	3.018
0.020	-0.068	-0.015	-0.005	0.005	0.000	0.034	3.965	3.013	2.993	2.998	3.018	3.008	3.018
0.010	-0.083	0.000	0.020	0.010	0.005	0.034	3.999	3.013	2.993	2.998	3.027	3.013	3.013
0.015	-0.068	0.000	0.029	0.000	0.005	0.034	3.989	3.013	3.003	3.003	3.022	3.013	3.018
0.010	-0.029	0.005	0.020	-0.015	-0.020	0.034	3.984	3.013	3.018	3.003	3.022	3.008	3.008
0.020	-0.005	0.000	0.010	-0.015	0.000	0.034	3.975	3.022	3.027	3.008	3.022	3.013	3.018
0.005	0.029	0.005	0.010	-0.005	0.005	0.034	3.994	3.018	3.027	3.013	3.022	3.018	3.018
0.010	-0.029	0.000	-0.005	0.000	0.005	0.034	2.720	2.866	2.979	3.003	3.018	3.013	3.013
0.010	0.039	0.010	0.010	-0.005	-0.024	0.034	2.671	2.773	2.949	2.988	3.018	3.013	3.003
0.015	0.029	0.005	0.005	0.005	0.015	0.034	2.695	2.700	2.881	2.959	3.008	3.013	3.018
0.010	-0.020	0.005	-0.015	-0.005	0.010	0.034	2.671	2.651	2.808	2.920	2.979	3.003	3.013
-0.020	-0.049	0.005	-0.024	-0.015	0.024	0.034	2.666	2.607	2.754	2.876	2.959	2.983	3.008
-0.024	-0.005	0.000	-0.010	-0.024	0.024	0.034	2.695	2.588	2.720	2.832	2.935	2.969	2.998
0.000	0.005	0.000	0.000	-0.010	-0.005	0.034	2.676	2.588	2.695	2.798	2.905	2.954	2.983
0.020	0.005	0.005	0.000	-0.010	-0.010	0.034	2.666	2.583	2.666	2.759	2.871	2.930	2.969
0.029	-0.010	0.005	-0.005	-0.010	0.005	0.034	2.671	2.573	2.642	2.729	2.837	2.900	2.954
0.044	0.005	0.010	0.005	-0.010	-0.010	0.034	2.700	2.573	2.627	2.700	2.808	2.876	2.930
0.005	0.034	-0.005	0.020	-0.010	-0.024	0.034	2.695	2.554	2.617	2.676	2.778	2.847	2.900
-0.010	0.010	-0.015	0.015	-0.010	0.000	0.034	2.690	2.549	2.593	2.651	2.749	2.822	2.891
-0.005	0.005	-0.010	0.024	-0.005	0.010	0.029	2.676	2.549	2.583	2.632	2.725	2.793	2.866
0.000	-0.024	-0.005	0.029	-0.005	0.010	0.029	2.695	2.549	2.568	2.612	2.695	2.769	2.837
0.005	-0.044	-0.005	0.005	0.010	0.010	0.034	2.686	2.544	2.559	2.598	2.671	2.744	2.812
0.005	-0.034	0.005	0.005	0.005	0.000	0.034	2.705	2.544	2.559	2.588	2.651	2.715	2.783
-0.005	0.005	0.000	0.024	0.000	0.015	0.034	2.686	2.529	2.563	2.578	2.642	2.695	2.764
-0.020	0.015	0.005	0.005	-0.010	-0.005	0.034	2.646	2.515	2.554	2.573	2.627	2.671	2.734
-0.024	0.024	0.000	0.005	-0.020	0.005	0.034	2.651	2.500	2.549	2.563	2.612	2.651	2.710
-0.034	0.049	0.000	0.010	0.000	0.005	0.029	2.661	2.495	2.539	2.559	2.607	2.646	2.695
-0.039	0.068	0.000	0.015	0.010	0.020	0.034	2.646	2.490	2.534	2.554	2.598	2.632	2.686
-0.029	0.088	0.010	0.000	0.020	0.005	0.034	2.637	2.485	2.524	2.544	2.583	2.622	2.666
-0.015	0.024	0.000	-0.024	0.034	0.005	0.034	2.729	2.485	2.495	2.529	2.568	2.607	2.651
0.005	-0.020	0.000	-0.020	0.039	0.005	0.034	2.656	2.476	2.480	2.515	2.559	2.598	2.632
0.005	-0.029	-0.005	-0.020	0.024	-0.005	0.034	2.749	2.476	2.476	2.500	2.549	2.573	2.617
0.020	-0.020	0.005	-0.005	0.015	0.015	0.034	2.725	2.471	2.480	2.495	2.544	2.563	2.603
0.000	-0.015	0.000	0.010	0.005	0.015	0.029	2.710	2.461	2.476	2.490	2.539	2.554	2.593
0.005	-0.024	-0.010	0.020	0.020	-0.010	0.034	2.651	2.446	2.471	2.480	2.529	2.549	2.573
0.015	-0.020	-0.005	0.024	0.015	0.010	0.034	2.646	2.437	2.461	2.480	2.520	2.539	2.573
0.034	-0.034	-0.005	0.034	0.024	-0.015	0.034	2.739	2.441	2.451	2.471	2.515	2.534	2.559
0.024	-0.039	0.005	0.010	0.010	0.005	0.034	2.666	2.422	2.441	2.466	2.500	2.520	2.549
0.005	-0.005	-0.010	-0.024	0.000	-0.010	0.034	2.622	2.397	2.437	2.451	2.480	2.505	2.534
-0.010	0.015	-0.005	-0.010	-0.005	-0.010	0.034	2.690	2.393	2.437	2.451	2.485	2.495	2.524
-0.010	0.044	0.020	-0.005	-0.024	0.015	0.034	2.671	2.383	2.427	2.451	2.480	2.490	2.520
-0.015	0.034	0.029	-0.005	-0.024	-0.015	0.034	2.676	2.378	2.412	2.441	2.476	2.480	2.500
-0.024	0.010	0.054	-0.005	-0.020	-0.005	0.034	2.700	2.373	2.397	2.432	2.471	2.480	2.500
-0.010	0.005	0.029	0.010	-0.010	0.005	0.034	2.676	2.368	2.388	2.417	2.466	2.480	2.495
0.000	-0.020	0.010	0.010	-0.005	-0.005	0.034	2.700	2.363	2.378	2.397	2.451	2.471	2.485
0.005	-0.005	-0.005	0.005	0.005	0.015	0.034	2.671	2.358	2.378	2.388	2.437	2.466	2.490
0.005	-0.005	0.000	0.005	0.024	0.010	0.034	2.705	2.358	2.368	2.383	2.432	2.461	2.480
0.010	0.000	0.000	0.005	0.020	0.005	0.034	2.681	2.349	2.368	2.383	2.422	2.446	2.471
0.034	0.000	0.000	-0.020	0.024	0.010	0.029	2.681	2.349	2.363	2.373	2.407	2.437	2.461
0.029	-0.034	0.000	-0.039	0.015	0.015	0.034	2.700	2.339	2.344	2.363	2.393	2.422	2.451
0.024	-0.049	-0.005	-0.059	0.000	0.005	0.034	2.676	2.329	2.339	2.354	2.383	2.402	2.437
0.005	-0.039	0.005	-0.063	-0.005	0.000	0.029	2.671	2.314	2.334	2.349	2.378	2.393	2.422
0.000	0.000	0.000	-0.015	0.005	0.010	0.029	2.700	2.305	2.339	2.349	2.388	2.397	2.417
0.005	0.024	-0.010	0.020	0.005	0.020	0.029	2.666	2.300	2.339	2.344	2.393	2.393	2.412
0.005	0.020	-0.005	0.039	0.000	0.010	0.034	2.671	2.295	2.324	2.339	2.388	2.388	2.407
0.000	0.015	-0.005	0.054	-0.015	-0.020	0.029	2.695	2.290	2.319	2.334	2.378	2.378	2.393
-0.010	0.015	-0.005	0.034	-0.010	0.005	0.034	2.661	2.275	2.305	2.329	2.363	2.378	2.393
-0.005	0.029	-0.005	0.010	-0.010	0.020	0.029	2.676	2.275	2.305	2.319	2.349	2.368	2.388
-0.020	0.000	0.010	-0.015	-0.015	0.010	0.029	2.686	2.266	2.285	2.310	2.339	2.358	2.378
-0.015	0.010	0.020	-0.029	-0.015	0.005	0.034	2.666	2.261	2.285	2.305	2.329	2.349	2.368
-0.015	0.073	0.029	-0.015	-0.020	-0.005	0.034	2.695	2.266	2.300	2.305	2.334	2.344	2.358
0.000	0.078	0.024	0.034	-0.005	0.005	0.034	2.676	2.261	2.290	2.300	2.344	2.349	2.358
-0.015	0.034	0.000	0.044	0.010	0.000	0.034	2.690	2.251	2.266	2.285	2.339	2.349	2.354
-0.010	-0.015	-0.005	0.034	0.020	0.000	0.034	2.681	2.246	2.246	2.271	2.319	2.344	2.349
-0.015	-0.020	0.000	0.054	0.015	-0.005	0.034	2.656	2.236	2.246	2.266	2.319	2.334	2.344
-0.015	-0.039	0.015	0.063	0.005	0.010	0.034	2.788	2.246	2.241	2.261	2.310	2.324	2.344
0.010	-0.034	0.020	0.029	0.015	0.015	0.034	2.671	2.246	2.246	2.256	2.290	2.314	2.339
0.015	-0.034	0.024	0.005	0.010	-0.020	0.034	2.651	2.236	2.241	2.251	2.275	2.300	2.319
0.020	-0.020	0.015	-0.024	0.010	0.010	0.034	2.651	2.222	2.241	2.246	2.261	2.290	2.319
0.024	-0.005	0.005	-0.063	0.015	0.005	0.034	2.627	2.212	2.241	2.241	2.251	2.280	2.305
0.020	0.015	-0.015	-0.063	0.005	0.000	0.034	2.734	2.212	2.236	2.231	2.251	2.266	2.295
-0.015	0.015	-0.020	-0.044	0.015	-0.010	0.034	2.715	2.197	2.227	2.231	2.261	2.266	2.285
-0.034	0.039	0.000	-0.034	0.010	-0.010	0.034	2.749	2.197	2.222	2.231	2.256	2.261	2.275
0.005	-0.010	0.015	-0.010	0.005	0.010	0.034	2.627	2.202	2.202	2.227	2.266	2.261	2.275
0.015	-0.044	0.020	0.005	0.015	0.010	0.034	2.656	2.187	2.192	2.222	2.261	2.261	2.275
0.005	-0.024	0.010	0.010	0.024	0.000	0.034	2.646	2.183	2.197	2.212	2.256	2.261	2.271
-0.010	0.005	0.039	0.005	0.015	-0.005	0.034	2.759	2.187	2.202	2.217	2.246	2.256	2.266
-0.020	0.083	0.015	0.005	0.010	0.000	0.034	2.656	2.178	2.212	2.212	2.241	2.246	2.261
-0.010	-0.020	-0.010	0.000	0.010	0.015	0.034	2.749	2.183	2.178	2.192	2.231	2.246	2.261
0.015	-0.015	-0.005	0.005	-0.005	-0.005	0.034	2.661	2.183	2.187	2.192	2.227	2.236	2.251
0.024	0.029	-0.020	0.015	0.005	0.000	0.034	2.710	2.183	2.192	2.187	2.222	2.231	2.246
0.029	-0.049	-0.039	0.005	0.010	0.000	0.029	2.681	2.173	2.163	2.178	2.212	2.227	2.241
0.010	-0.063	-0.015	-0.005	-0.005	-0.015	0.034	2.681	2.158	2.158	2.178	2.202	2.217	2.231
0.015	-0.068	-0.015	-0.005	-0.005	-0.015	0.034	2.705	2.158	2.163	2.173	2.202	2.207	2.227
0.015	0.029	-0.015	0.010	0.000	-0.010	0.034	2.676	2.163	2.187	2.178	2.202	2.207	2.217
0.029	0.034	0.010	0.010	0.000	0.005	0.034	2.676	2.153	2.178	2.183	2.202	2.207	2.222
0.034	0.059	0.034	0.005	-0.010	-0.005	0.029	2.700	2.153	2.183	2.187	2.202	2.202	2.212
-0.010	0.117	0.010	0.005	-0.020	0.015	0.034	2.700	2.139	2.187	2.183	2.202	2.197	2.217
-0.078	0.103	-0.005	0.010	-0.015	0.015	0.034	2.695	2.114	2.158	2.173	2.202	2.197	2.212
-0.049	0.083	-0.010	0.020	-0.005	0.010	0.029	2.686	2.124	2.148	2.163	2.192	2.197	2.207
-0.005	0.024	0.020	0.020	0.005	0.000	0.034	2.671	2.134	2.129	2.163	2.192	2.197	2.202
-0.015	0.034	0.015	0.005	0.020	0.000	0.034	2.676	2.129	2.129	2.148	2.183	2.197	2.202
-0.015	-0.010	0.010	-0.005	0.034	0.000	0.029	2.700	2.124	2.114	2.139	2.173	2.192	2.197
-0.010	-0.068	0.005	-0.020	0.024	0.000	0.034	2.690	2.119	2.100	2.124	2.163	2.183	2.192
-0.005	-0.088	0.010	-0.024	0.010	-0.005	0.034	2.705	2.119	2.100	2.119	2.153	2.168	2.183
-0.005	-0.063	0.020	-0.020	0.010	-0.005	0.034	2.700	2.124	2.114	2.119	2.153	2.163	2.183
0.034	-0.010	0.015	0.010	-0.005	-0.005	0.034	2.705	2.129	2.139	2.124	2.158	2.158	2.173
0.049	0.063	0.024	0.015	-0.005	-0.020	0.034	2.710	2.134	2.158	2.134	2.158	2.153	2.168
0.044	0.039	-0.005	0.029	-0.005	-0.005	0.034	2.695	2.119	2.134	2.129	2.158	2.153	2.163
0.034	-0.015	-0.010	0.034	-0.010	-0.005	0.034	2.681	2.104	2.109	2.119	2.153	2.153	2.163
-0.010	-0.068	-0.020	0.024	-0.005	-0.005	0.034	2.681	2.085	2.090	2.109	2.144	2.148	2.158
-0.010	-0.020	-0.024	0.020	-0.005	-0.010	0.034	2.666	2.085	2.100	2.104	2.139	2.144	2.153
0.000	-0.020	-0.024	0.000	0.000	0.000	0.034	2.676	2.085	2.095	2.100	2.124	2.139	2.153
0.000	-0.005	-0.029	-0.010	0.005	0.000	0.034	2.686	2.085	2.095	2.100	2.119	2.134	2.148
-0.005	0.010	-0.015	-0.005	0.010	-0.024	0.034	2.661	2.080	2.095	2.100	2.124	2.129	2.139
-0.015	0.024	-0.020	0.000	0.010	-0.010	0.034	2.651	2.070	2.095	2.100	2.124	2.129	2.139
0.005	-0.015	-0.005	-0.015	0.010	-0.005	0.029	2.666	2.075	2.080	2.095	2.114	2.119	2.134
0.000	-0.010	0.044	-0.020	0.005	-0.010	0.034	2.646	2.065	2.080	2.104	2.114	2.119	2.129
0.000	-0.020	0.049	-0.015	-0.010	-0.020	0.034	2.656	2.061	2.075	2.095	2.119	2.114	2.119
-0.015	-0.005	0.054	-0.024	-0.015	-0.010	0.034	2.720	2.056	2.075	2.090	2.114	2.109	2.124
-0.020	0.010	0.015	-0.010	-0.010	0.010	0.034	2.642	2.061	2.070	2.075	2.114	2.109	2.124
-0.010	-0.005	-0.024	0.024	-0.010	0.010	0.034	2.734	2.070	2.065	2.061	2.109	2.114	2.119
0.010	0.010	-0.005	0.029	-0.010	-0.005	0.034	2.720	2.075	2.075	2.070	2.104	2.109	2.114
0.020	-0.005	-0.034	0.015	-0.010	0.005	0.034	2.632	2.065	2.065	2.061	2.095	2.104	2.114
0.020	-0.024	-0.044	0.015	-0.010	0.010	0.034	2.710	2.065	2.061	2.061	2.090	2.100	2.109
0.039	-0.049	-0.020	0.010	0.005	0.000	0.034	2.656	2.065	2.056	2.061	2.085	2.100	2.104
0.034	-0.059	0.010	-0.010	0.005	0.005	0.034	2.739	2.061	2.056	2.065	2.080	2.090	2.104
-0.005	-0.010	0.000	-0.005	0.000	0.000	0.034	2.651	2.041	2.065	2.061	2.085	2.090	2.095
0.015	0.010	0.005	0.005	0.000	0.005	0.029	2.612	2.041	2.065	2.065	2.085	2.085	2.095
0.015	0.059	-0.015	0.000	0.000	0.005	0.044	2.695	2.041	2.070	2.061	2.080	2.080	2.095
-0.005	0.054	-0.049	-0.005	0.015	-0.015	0.039	2.632	2.026	2.056	2.051	2.075	2.085	2.085
-0.029	0.103	-0.034	0.015	0.020	0.010	0.044	2.666	2.021	2.061	2.056	2.085	2.085	2.090
-0.063	0.039	-0.010	0.015	0.015	-0.005	0.044	2.705	2.017	2.026	2.056	2.080	2.080	2.080
-0.063	0.044	0.000	0.000	0.000	0.000	0.044	2.705	2.026	2.031	2.051	2.070	2.075	2.080
-0.015	0.034	-0.010	-0.015	-0.015	0.000	0.034	2.690	2.041	2.026	2.041	2.065	2.065	2.075
-0.005	-0.020	0.020	-0.015	0.000	0.005	0.034	2.681	2.036	2.017	2.041	2.065	2.070	2.075
0.015	-0.054	0.039	0.005	-0.010	-0.010	0.029	2.690	2.036	2.017	2.036	2.065	2.065	2.070
0.010	-0.024	0.054	0.005	0.000	-0.010	0.029	2.695	2.031	2.031	2.041	2.065	2.065	2.065
0.005	0.000	0.024	0.000	-0.005	0.005	0.029	2.700	2.031	2.036	2.026	2.061	2.061	2.070
-0.005	-0.005	-0.005	0.000	-0.029	0.000	0.034	2.695	2.026	2.031	2.021	2.051	2.051	2.061
0.015	-0.015	-0.039	0.015	-0.054	0.005	0.034	2.695	2.026	2.026	2.012	2.051	2.046	2.061
0.024	-0.024	-0.024	0.039	-0.098	0.015	0.034	2.686	2.031	2.026	2.026	2.056	2.031	2.056
0.024	-0.024	0.020	0.029	-0.161	0.000	0.034	2.681	2.026	2.026	2.031	2.046	2.017	2.041
0.044	-0.049	0.010	0.000	-0.156	-0.024	0.034	2.656	2.017	2.012	2.021	2.041	2.026	2.026
0.024	-0.054	0.039	-0.024	-0.112	-0.029	0.029	2.671	2.007	2.012	2.026	2.036	2.036	2.031
0.015	-0.059	0.015	-0.034	-0.088	-0.034	0.034	2.715	2.007	2.012	2.012	2.031	2.041	2.036
0.015	-0.034	0.005	-0.029	-0.034	-0.015	0.029	2.695	2.007	2.012	2.017	2.036	2.056	2.046
0.010	-0.010	0.010	-0.024	0.039	-0.020	0.029	2.700	2.007	2.021	2.017	2.036	2.065	2.051
0.005	0.029	0.005	-0.005	0.103	-0.015	0.034	2.705	2.002	2.026	2.021	2.046	2.080	2.061
-0.015	0.059	0.024	0.005	0.107	-0.005	0.034	2.690	2.002	2.026	2.026	2.046	2.070	2.065
-0.029	0.127	0.000	0.015	0.073	-0.010	0.029	2.695	2.002	2.036	2.026	2.046	2.051	2.061
-0.010	0.068	0.024	0.000	0.044	-0.010	0.034	2.710	2.012	2.012	2.021	2.041	2.041	2.056
-0.005	-0.005	-0.005	0.005	0.015	0.029	0.034	2.656	2.002	1.992	2.007	2.036	2.036	2.061
-0.015	-0.005	0.005	0.029	0.078	0.024	0.034	2.686	1.997	1.992	2.007	2.041	2.056	2.056
-0.005	0.000	-0.005	0.024	0.210	0.020	0.034	2.656	2.002	1.997	2.002	2.036	2.085	2.065
-0.010	0.010	-0.015	-0.010	0.298	0.024	0.039	2.646	1.997	1.997	1.997	2.021	2.090	2.075
-0.005	0.015	0.005	-0.029	0.225	0.029	0.410	2.671	2.002	1.997	2.002	2.017	2.051	2.080
-0.005	-0.015	0.000	-0.015	0.195	0.020	0.254	2.651	2.002	1.992	1.997	2.021	2.026	2.056
0.000	-0.029	-0.020	-0.010	0.112	0.024	0.503	2.661	2.002	1.992	1.987	2.017	2.007	2.046
-0.005	-0.024	-0.054	0.000	0.049	0.020	0.044	2.729	2.002	1.992	1.978	2.012	1.987	2.017
0.005	-0.020	-0.039	0.005	0.054	0.024	0.410	2.388	1.968	1.992	1.987	2.012	1.997	2.017
