0.005	0.005	0.000	0.000	0.000	-0.005	0.029	1.763	3.496	2.100	1.816	1.548	1.587	1.313
0.000	0.010	0.000	0.000	0.000	0.000	0.029	1.753	2.915	2.344	1.953	1.660	1.602	1.396
-0.010	-0.005	0.000	-0.005	0.000	-0.005	0.029	1.797	2.500	2.397	2.075	1.772	1.646	1.465
0.000	0.000	-0.005	0.000	0.000	-0.010	0.029	1.782	2.207	2.354	2.158	1.880	1.709	1.528
0.005	0.000	-0.005	0.000	0.000	0.005	0.029	1.782	1.997	2.261	2.192	1.973	1.777	1.597
0.000	-0.005	0.000	-0.005	0.000	0.000	0.029	1.777	1.846	2.153	2.187	2.036	1.846	1.665
-0.005	-0.015	0.000	0.000	0.000	0.000	0.034	1.758	1.743	2.041	2.153	2.075	1.904	1.729
-0.005	0.000	0.000	0.000	0.000	0.005	0.029	1.797	1.680	1.948	2.100	2.090	1.958	1.792
0.000	0.000	-0.005	0.000	-0.005	0.000	0.029	1.787	1.631	1.865	2.036	2.080	1.992	1.846
0.000	-0.005	-0.005	0.005	0.000	0.005	0.029	1.787	1.602	1.792	1.973	2.061	2.012	1.890
0.000	0.000	0.000	0.000	0.000	-0.010	0.029	1.753	1.582	1.738	1.909	2.026	2.017	1.919
0.000	0.000	0.000	0.000	0.000	0.000	0.029	1.812	1.587	1.699	1.855	1.982	2.007	1.943
0.000	0.000	0.000	0.000	-0.005	0.005	0.029	1.797	1.582	1.670	1.802	1.938	1.987	1.958
0.005	-0.005	-0.005	0.000	0.005	0.005	0.029	1.782	1.577	1.646	1.758	1.895	1.963	1.963
-0.005	-0.010	0.005	0.000	0.000	-0.015	0.029	1.724	1.567	1.626	1.724	1.855	1.934	1.948
-0.005	-0.005	0.000	0.000	0.000	0.000	0.029	1.797	1.577	1.616	1.694	1.816	1.899	1.938
0.000	0.000	0.000	0.000	0.000	0.000	0.029	1.787	1.582	1.611	1.670	1.782	1.865	1.924
0.000	-0.005	-0.005	-0.005	-0.005	-0.005	0.029	1.792	1.582	1.602	1.650	1.748	1.831	1.895
-0.005	0.005	0.000	0.000	0.000	0.000	0.029	1.787	1.582	1.602	1.636	1.724	1.807	1.875
-0.010	0.010	0.005	0.000	-0.005	0.000	0.029	1.782	1.582	1.602	1.631	1.704	1.777	1.851
-0.005	0.005	0.000	-0.005	0.000	0.000	0.029	1.792	1.577	1.597	1.616	1.685	1.748	1.821
0.000	0.015	0.000	0.000	-0.005	-0.010	0.029	1.719	1.567	1.597	1.611	1.670	1.724	1.792
0.000	0.005	-0.005	0.000	-0.005	-0.010	0.029	1.797	1.567	1.582	1.602	1.655	1.704	1.768
0.000	0.000	-0.005	0.000	0.000	-0.005	0.034	1.758	1.558	1.577	1.597	1.646	1.689	1.748
-0.005	0.005	0.000	-0.005	0.000	0.005	0.029	1.802	1.558	1.572	1.587	1.636	1.670	1.729
0.000	0.005	0.000	0.000	0.000	-0.010	0.029	1.787	1.553	1.567	1.582	1.626	1.660	1.709
-0.010	-0.015	0.000	0.000	-0.005	0.005	0.029	1.792	1.543	1.558	1.577	1.621	1.641	1.689
0.005	-0.015	-0.010	0.000	-0.005	-0.010	0.029	1.772	1.538	1.553	1.567	1.606	1.636	1.675
-0.005	-0.005	0.000	-0.005	0.000	0.010	0.029	1.787	1.533	1.553	1.562	1.602	1.626	1.660
0.005	-0.005	-0.005	0.000	0.000	0.000	0.029	1.782	1.528	1.543	1.558	1.592	1.616	1.650
0.000	-0.005	0.000	0.000	0.005	0.000	0.029	1.787	1.519	1.538	1.553	1.587	1.606	1.636
-0.005	0.000	0.000	-0.005	0.000	-0.005	0.029	1.787	1.514	1.533	1.548	1.577	1.597	1.626
0.000	0.000	0.000	0.000	0.000	-0.015	0.034	1.787	1.509	1.528	1.543	1.577	1.592	1.611
-0.005	0.010	-0.005	0.000	0.000	-0.005	0.029	1.782	1.499	1.528	1.538	1.567	1.587	1.611
-0.005	0.015	0.000	0.000	0.000	-0.005	0.034	1.772	1.499	1.519	1.533	1.562	1.577	1.602
-0.005	0.010	-0.005	0.000	-0.005	-0.005	0.029	1.758	1.499	1.514	1.528	1.558	1.572	1.592
0.000	0.015	-0.005	0.000	0.000	-0.005	0.029	1.787	1.489	1.509	1.523	1.558	1.567	1.587
0.005	0.010	0.005	0.000	-0.005	-0.010	0.029	1.733	1.484	1.499	1.519	1.548	1.558	1.577
-0.005	0.005	-0.005	0.000	-0.005	-0.029	0.029	1.792	1.475	1.494	1.509	1.543	1.553	1.562
0.000	0.000	0.000	0.000	-0.005	0.005	0.029	1.743	1.475	1.489	1.504	1.543	1.553	1.567
-0.005	-0.005	0.000	0.000	0.000	0.000	0.029	1.797	1.465	1.484	1.499	1.533	1.548	1.558
0.000	-0.005	0.000	0.000	0.000	0.005	0.034	1.753	1.460	1.475	1.489	1.528	1.538	1.558
-0.005	-0.005	0.000	-0.005	0.000	0.000	0.029	1.743	1.455	1.475	1.484	1.519	1.533	1.548
-0.005	-0.024	-0.005	0.000	0.000	-0.005	0.034	1.724	1.440	1.460	1.479	1.514	1.528	1.543
0.000	-0.029	-0.010	0.000	0.000	-0.010	0.029	1.787	1.440	1.450	1.470	1.504	1.519	1.533
0.000	-0.020	-0.005	0.000	0.000	0.000	0.029	1.787	1.436	1.450	1.465	1.499	1.514	1.533
0.000	-0.010	-0.005	0.000	0.000	0.005	0.029	1.763	1.431	1.450	1.460	1.494	1.509	1.523
-0.005	0.015	0.000	-0.005	-0.005	0.005	0.029	1.753	1.426	1.450	1.460	1.489	1.499	1.519
-0.005	0.000	0.000	-0.005	0.000	0.010	0.029	1.763	1.416	1.440	1.450	1.484	1.494	1.514
0.000	-0.010	0.000	0.000	0.000	0.000	0.029	1.782	1.416	1.431	1.445	1.479	1.489	1.504
-0.005	0.015	0.010	0.000	0.005	-0.010	0.029	1.748	1.406	1.436	1.445	1.475	1.484	1.494
-0.005	0.005	0.005	0.000	-0.005	-0.010	0.029	1.782	1.401	1.421	1.440	1.470	1.479	1.494
-0.005	0.005	-0.005	0.000	0.000	-0.024	0.029	1.758	1.401	1.416	1.431	1.465	1.475	1.484
-0.010	0.000	0.000	0.000	0.000	0.010	0.029	1.802	1.396	1.411	1.426	1.460	1.470	1.489
0.010	0.000	-0.005	0.005	-0.005	-0.005	0.029	1.729	1.396	1.406	1.421	1.455	1.465	1.475
-0.015	0.000	0.000	0.000	0.000	0.010	0.029	1.802	1.392	1.401	1.416	1.450	1.460	1.475
-0.005	0.005	-0.005	0.000	0.000	-0.010	0.029	1.743	1.387	1.396	1.406	1.440	1.455	1.465
-0.005	-0.005	0.005	-0.005	-0.005	0.005	0.029	1.797	1.387	1.396	1.406	1.436	1.445	1.465
-0.005	-0.010	0.000	0.000	0.000	0.005	0.029	1.738	1.377	1.392	1.401	1.431	1.445	1.455
0.005	-0.010	0.005	-0.010	0.000	0.005	0.029	1.768	1.382	1.387	1.396	1.426	1.440	1.450
-0.005	-0.010	0.005	0.000	-0.005	0.000	0.029	1.797	1.382	1.382	1.392	1.421	1.436	1.445
0.000	-0.005	-0.005	-0.005	0.005	0.000	0.029	1.807	1.372	1.382	1.387	1.416	1.426	1.440
0.005	0.000	-0.005	0.000	0.000	0.000	0.029	1.758	1.372	1.382	1.382	1.416	1.421	1.436
0.005	-0.010	-0.005	0.000	-0.005	0.005	0.029	1.738	1.362	1.377	1.382	1.411	1.416	1.426
-0.005	0.000	-0.005	0.000	-0.005	-0.010	0.029	1.792	1.357	1.372	1.382	1.406	1.411	1.426
0.005	0.005	0.000	0.000	-0.005	-0.015	0.029	1.782	1.357	1.367	1.377	1.401	1.411	1.416
0.000	0.010	0.000	0.000	0.005	-0.005	0.029	1.738	1.348	1.367	1.372	1.401	1.406	1.416
0.000	0.000	0.000	0.000	0.000	0.005	0.029	1.768	1.343	1.357	1.367	1.396	1.401	1.416
0.000	0.005	-0.005	0.000	0.005	-0.005	0.029	1.753	1.338	1.353	1.367	1.392	1.396	1.406
-0.010	0.000	0.000	0.000	-0.005	-0.005	0.029	1.768	1.333	1.348	1.362	1.392	1.396	1.401
0.000	-0.005	-0.005	0.000	-0.005	0.005	0.034	1.763	1.333	1.343	1.353	1.387	1.392	1.401
0.000	0.000	-0.005	0.000	0.000	0.005	0.029	1.719	1.323	1.338	1.353	1.382	1.387	1.396
0.005	-0.005	0.005	0.000	-0.005	0.010	0.029	1.797	1.323	1.333	1.348	1.377	1.387	1.396
0.005	0.000	0.000	0.000	0.000	0.005	0.029	1.753	1.323	1.333	1.343	1.372	1.382	1.392
-0.005	0.000	0.000	0.000	-0.005	0.005	0.029	1.719	1.318	1.328	1.333	1.367	1.377	1.387
0.000	-0.015	0.000	0.000	-0.005	0.000	0.029	1.787	1.318	1.318	1.333	1.362	1.367	1.382
-0.005	-0.005	0.000	-0.005	0.000	-0.010	0.029	1.753	1.309	1.318	1.328	1.357	1.367	1.377
-0.010	-0.005	-0.005	0.000	0.000	-0.015	0.029	1.733	1.304	1.318	1.323	1.353	1.362	1.372
-0.005	-0.010	-0.005	0.000	-0.005	0.000	0.029	1.753	1.304	1.313	1.323	1.348	1.353	1.367
-0.010	-0.005	0.005	0.000	0.000	0.005	0.029	1.748	1.299	1.309	1.318	1.348	1.353	1.367
0.000	0.000	0.000	-0.005	0.000	0.005	0.029	1.782	1.304	1.309	1.313	1.343	1.348	1.362
0.010	0.000	-0.005	0.000	-0.005	0.005	0.029	1.729	1.294	1.304	1.309	1.338	1.343	1.357
-0.005	0.010	-0.005	0.000	-0.005	-0.005	0.029	1.782	1.284	1.304	1.309	1.338	1.338	1.353
-0.005	0.015	0.000	0.005	-0.005	0.000	0.029	1.807	1.294	1.304	1.309	1.333	1.338	1.348
0.000	0.010	0.005	-0.005	-0.005	0.000	0.029	1.792	1.299	1.299	1.304	1.328	1.338	1.343
0.000	0.000	-0.005	-0.005	0.000	0.005	0.029	1.763	1.289	1.294	1.299	1.328	1.333	1.343
0.005	0.005	0.000	-0.005	0.000	-0.005	0.029	1.787	1.289	1.294	1.299	1.323	1.328	1.338
0.000	-0.005	0.005	0.000	0.000	0.000	0.029	1.782	1.289	1.294	1.294	1.323	1.328	1.333
0.000	0.005	-0.005	0.000	-0.005	-0.005	0.029	1.787	1.284	1.294	1.294	1.318	1.323	1.328
0.000	-0.005	-0.005	0.000	-0.005	-0.029	0.029	1.768	1.279	1.289	1.289	1.318	1.318	1.318
0.000	-0.020	0.000	0.000	-0.005	0.000	0.029	1.738	1.270	1.279	1.284	1.313	1.318	1.328
-0.005	-0.024	0.000	0.000	0.000	-0.005	0.029	1.777	1.270	1.274	1.284	1.309	1.313	1.323
0.005	-0.005	0.000	0.000	-0.005	0.000	0.029	1.787	1.274	1.284	1.284	1.309	1.313	1.318
0.000	0.005	0.000	0.000	0.000	-0.005	0.029	1.782	1.265	1.279	1.284	1.304	1.309	1.318
0.000	0.010	-0.005	-0.005	0.000	0.005	0.029	1.782	1.265	1.274	1.279	1.304	1.309	1.313
0.000	0.000	-0.005	0.000	0.005	-0.010	0.029	1.753	1.260	1.270	1.274	1.304	1.304	1.309
-0.010	-0.010	0.000	0.000	-0.005	-0.024	0.029	1.763	1.255	1.265	1.274	1.299	1.299	1.299
-0.005	-0.005	-0.005	0.000	0.000	0.010	0.029	1.797	1.255	1.260	1.270	1.299	1.299	1.309
0.000	-0.005	-0.005	0.005	-0.005	-0.005	0.034	1.709	1.255	1.260	1.265	1.294	1.294	1.304
0.000	0.005	-0.005	0.000	-0.005	0.015	0.029	1.772	1.245	1.260	1.265	1.289	1.294	1.304
-0.005	0.000	-0.005	0.000	-0.005	0.005	0.029	1.792	1.245	1.255	1.260	1.289	1.289	1.299
-0.005	-0.005	0.000	0.000	-0.005	-0.005	0.029	1.772	1.240	1.245	1.260	1.284	1.284	1.289
0.005	0.000	0.005	0.000	0.000	0.010	0.029	1.768	1.245	1.250	1.255	1.279	1.284	1.294
-0.005	0.000	0.000	-0.005	0.000	-0.005	0.029	1.797	1.245	1.250	1.255	1.279	1.279	1.284
-0.005	-0.010	0.000	-0.005	0.000	0.015	0.029	1.729	1.240	1.245	1.250	1.274	1.279	1.289
-0.005	-0.005	-0.005	0.000	-0.005	-0.005	0.029	1.729	1.235	1.245	1.245	1.279	1.279	1.284
-0.005	-0.015	0.000	0.000	0.000	0.005	0.029	1.738	1.226	1.235	1.245	1.270	1.279	1.284
-0.005	-0.005	-0.005	0.000	-0.005	0.005	0.029	1.802	1.240	1.240	1.245	1.270	1.270	1.279
0.000	-0.010	-0.005	0.000	0.000	-0.005	0.029	1.714	1.230	1.235	1.240	1.265	1.270	1.274
0.000	-0.005	0.000	0.000	0.000	-0.005	0.029	1.763	1.230	1.230	1.240	1.260	1.265	1.274
-0.005	-0.005	0.000	0.000	0.000	-0.005	0.029	1.772	1.226	1.235	1.240	1.260	1.265	1.270
-0.005	-0.005	0.000	0.005	-0.005	0.005	0.029	1.719	1.221	1.230	1.235	1.255	1.260	1.270
-0.015	-0.005	-0.005	-0.005	0.000	0.015	0.029	1.802	1.226	1.226	1.230	1.255	1.255	1.265
0.000	0.005	0.000	0.000	-0.005	-0.005	0.029	1.797	1.230	1.235	1.230	1.255	1.255	1.260
0.005	0.000	0.000	0.000	0.000	-0.010	0.034	1.729	1.221	1.230	1.230	1.250	1.255	1.260
0.000	0.005	0.005	0.000	-0.005	0.005	0.029	1.748	1.221	1.226	1.230	1.250	1.250	1.260
-0.005	-0.005	0.000	0.000	-0.005	0.000	0.029	1.748	1.216	1.221	1.226	1.245	1.250	1.255
0.000	-0.005	-0.005	-0.005	-0.005	0.005	0.029	1.792	1.216	1.221	1.221	1.245	1.245	1.255
0.005	-0.015	-0.005	0.000	-0.005	0.005	0.029	1.753	1.216	1.216	1.221	1.245	1.245	1.250
0.000	-0.010	-0.005	-0.005	-0.005	-0.010	0.029	1.802	1.216	1.216	1.221	1.245	1.245	1.245
0.000	0.010	-0.005	0.000	-0.005	-0.005	0.029	1.753	1.211	1.221	1.221	1.245	1.245	1.245
0.005	0.005	0.000	-0.005	0.000	-0.010	0.029	1.802	1.211	1.221	1.221	1.240	1.240	1.240
0.000	0.000	0.000	0.000	-0.005	0.000	0.029	1.743	1.211	1.216	1.216	1.240	1.240	1.245
0.010	0.005	-0.010	0.000	0.000	0.000	0.029	1.782	1.211	1.216	1.216	1.240	1.240	1.245
-0.010	0.000	-0.005	0.000	-0.005	0.000	0.029	1.782	1.211	1.211	1.211	1.240	1.235	1.245
-0.010	0.000	0.000	0.005	0.000	-0.005	0.029	1.777	1.206	1.211	1.216	1.235	1.235	1.235
0.005	0.000	-0.005	0.000	0.005	0.000	0.029	1.768	1.201	1.211	1.211	1.230	1.235	1.240
0.005	0.005	0.000	-0.005	-0.005	-0.005	0.029	1.753	1.206	1.206	1.211	1.230	1.230	1.235
0.010	0.000	-0.005	0.000	0.000	-0.005	0.029	1.758	1.201	1.206	1.206	1.230	1.230	1.235
0.015	-0.010	-0.005	-0.005	-0.005	0.000	0.029	1.758	1.201	1.201	1.206	1.230	1.226	1.230
0.010	-0.005	-0.005	-0.005	0.005	-0.005	0.029	1.802	1.201	1.201	1.201	1.230	1.230	1.226
0.005	0.000	0.005	0.000	-0.005	0.000	0.029	1.797	1.196	1.201	1.206	1.230	1.226	1.230
-0.010	0.000	0.000	0.000	0.005	-0.005	0.029	1.787	1.191	1.196	1.201	1.226	1.226	1.226
-0.005	0.010	0.000	0.005	0.000	0.005	0.029	1.787	1.191	1.196	1.201	1.226	1.226	1.230
-0.015	0.005	0.000	-0.005	-0.005	0.005	0.029	1.792	1.191	1.196	1.201	1.221	1.221	1.226
-0.010	-0.005	0.000	-0.005	-0.005	-0.024	0.029	1.772	1.191	1.191	1.196	1.221	1.216	1.216
-0.029	0.005	-0.005	-0.005	0.000	-0.005	0.029	1.797	1.187	1.191	1.196	1.216	1.221	1.216
-0.039	-0.010	0.000	0.000	0.005	0.005	0.029	1.787	1.182	1.187	1.191	1.216	1.221	1.221
-0.020	0.000	-0.005	-0.005	0.005	0.000	0.029	1.777	1.182	1.187	1.191	1.216	1.216	1.221
-0.020	0.000	0.000	0.000	0.000	0.005	0.029	1.782	1.191	1.191	1.191	1.211	1.211	1.221
-0.010	-0.005	0.000	0.000	-0.005	0.005	0.029	1.758	1.191	1.187	1.191	1.211	1.211	1.216
0.000	-0.005	-0.005	0.000	-0.005	0.000	0.029	1.753	1.187	1.187	1.187	1.211	1.211	1.211
0.005	-0.005	-0.005	0.000	-0.005	-0.015	0.029	1.802	1.191	1.187	1.187	1.211	1.206	1.206
0.010	-0.010	0.000	0.000	0.000	-0.005	0.029	1.792	1.187	1.187	1.187	1.206	1.206	1.211
-0.034	-0.005	-0.005	0.000	0.000	0.000	0.029	1.812	1.177	1.187	1.187	1.211	1.206	1.211
-0.029	0.000	0.000	0.000	-0.005	0.005	0.029	1.787	1.177	1.182	1.187	1.206	1.201	1.206
-0.005	0.005	-0.005	0.000	-0.005	-0.024	0.029	1.792	1.187	1.182	1.182	1.206	1.201	1.201
0.024	0.010	-0.005	0.000	0.005	-0.005	0.029	1.748	1.187	1.187	1.187	1.206	1.206	1.206
0.024	-0.005	-0.005	-0.005	0.000	0.000	0.029	1.782	1.187	1.182	1.182	1.206	1.201	1.206
0.039	0.005	0.000	-0.010	0.000	0.000	0.029	1.729	1.182	1.187	1.187	1.201	1.201	1.206
0.044	0.010	-0.005	-0.010	0.000	0.005	0.029	1.812	1.182	1.182	1.182	1.201	1.201	1.201
0.010	-0.005	0.000	-0.005	0.000	0.000	0.029	1.743	1.167	1.177	1.182	1.206	1.201	1.201
-0.005	-0.005	0.005	-0.005	-0.005	-0.005	0.029	1.709	1.162	1.172	1.182	1.201	1.196	1.201
-0.005	0.000	0.005	0.000	0.000	0.000	0.029	1.777	1.162	1.172	1.177	1.201	1.201	1.201
-0.010	-0.010	0.000	0.000	-0.005	-0.005	0.029	1.758	1.162	1.167	1.172	1.201	1.196	1.196
-0.010	0.005	-0.005	0.000	0.000	-0.015	0.029	1.802	1.167	1.167	1.172	1.196	1.196	1.191
-0.024	0.000	0.000	0.000	0.000	0.000	0.029	1.772	1.162	1.167	1.167	1.191	1.196	1.201
-0.029	0.000	0.000	0.000	0.000	0.005	0.029	1.758	1.162	1.162	1.167	1.191	1.191	1.201
-0.020	-0.010	0.000	0.000	0.000	0.005	0.029	1.816	1.172	1.162	1.167	1.191	1.191	1.196
-0.010	-0.010	0.000	0.000	0.000	0.000	0.034	1.753	1.167	1.162	1.162	1.187	1.187	1.191
-0.020	-0.015	-0.005	0.000	-0.005	-0.010	0.029	1.802	1.167	1.162	1.162	1.187	1.187	1.187
-0.015	-0.010	-0.005	0.000	-0.005	-0.005	0.029	1.763	1.167	1.167	1.162	1.182	1.182	1.187
-0.020	0.010	-0.005	-0.005	0.000	-0.005	0.029	1.797	1.162	1.167	1.162	1.182	1.182	1.182
-0.010	0.015	0.000	-0.005	0.000	-0.005	0.029	1.802	1.167	1.172	1.167	1.182	1.182	1.182
-0.010	0.000	-0.005	-0.005	0.000	-0.015	0.029	1.768	1.167	1.167	1.162	1.182	1.182	1.182
0.010	0.000	-0.005	0.005	0.000	0.000	0.029	1.772	1.167	1.162	1.162	1.182	1.182	1.187
0.015	0.005	-0.005	0.000	0.000	0.000	0.029	1.758	1.162	1.167	1.167	1.182	1.182	1.182
0.015	-0.005	0.000	0.000	0.000	-0.010	0.029	1.777	1.162	1.162	1.162	1.187	1.182	1.177
0.020	-0.005	0.005	0.000	0.000	0.000	0.029	1.753	1.162	1.162	1.162	1.182	1.182	1.182
0.020	0.005	0.000	0.000	0.000	0.005	0.029	1.792	1.162	1.167	1.167	1.182	1.182	1.187
0.005	0.005	0.000	0.000	-0.005	0.005	0.029	1.763	1.152	1.162	1.162	1.182	1.182	1.182
0.010	-0.005	-0.005	0.000	0.000	0.000	0.034	1.743	1.152	1.152	1.157	1.182	1.177	1.177
-0.010	0.005	0.000	0.000	0.000	-0.005	0.029	1.772	1.147	1.152	1.157	1.182	1.177	1.177
-0.010	0.000	0.000	0.000	0.000	-0.005	0.029	1.797	1.152	1.147	1.152	1.177	1.177	1.177
0.000	-0.010	0.000	0.005	0.000	0.000	0.029	1.753	1.152	1.147	1.152	1.177	1.177	1.177
0.000	0.000	-0.005	0.000	0.000	-0.005	0.029	1.802	1.157	1.152	1.152	1.172	1.172	1.177
-0.005	-0.010	-0.005	0.005	0.000	0.000	0.029	1.792	1.152	1.147	1.147	1.172	1.172	1.177
-0.005	-0.005	0.000	-0.005	0.000	0.000	0.029	1.797	1.152	1.152	1.147	1.172	1.172	1.172
0.005	-0.005	-0.005	0.000	0.000	-0.010	0.029	1.743	1.152	1.147	1.147	1.167	1.167	1.172
0.005	-0.005	0.000	-0.005	-0.005	0.005	0.029	1.797	1.152	1.147	1.147	1.167	1.167	1.172
0.010	-0.005	0.000	0.005	-0.005	0.000	0.029	1.714	1.147	1.147	1.152	1.172	1.167	1.167
0.005	0.005	0.000	0.000	-0.005	0.005	0.029	1.782	1.152	1.152	1.147	1.167	1.167	1.167
0.010	0.005	0.000	0.000	-0.010	0.000	0.029	1.704	1.143	1.152	1.147	1.167	1.167	1.162
0.000	0.005	0.005	0.005	0.005	0.000	0.029	1.792	1.143	1.147	1.152	1.172	1.167	1.167
0.000	0.015	0.000	0.000	0.005	-0.010	0.029	1.802	1.147	1.147	1.147	1.167	1.167	1.162
-0.005	0.005	-0.005	0.000	0.000	-0.005	0.029	1.777	1.143	1.143	1.143	1.167	1.162	1.162
-0.005	0.005	-0.005	0.000	0.000	-0.005	0.029	1.797	1.147	1.143	1.147	1.167	1.162	1.167
-0.005	0.000	0.000	-0.005	0.000	0.000	0.034	1.787	1.147	1.143	1.143	1.167	1.162	1.167
-0.020	0.000	0.005	0.000	0.000	0.000	0.029	1.758	1.143	1.143	1.147	1.167	1.162	1.167
0.000	-0.005	0.000	0.000	-0.005	-0.005	0.029	1.772	1.143	1.143	1.143	1.162	1.162	1.162
0.024	-0.010	-0.005	0.000	-0.005	0.010	0.029	1.724	1.143	1.143	1.143	1.162	1.162	1.167
0.034	-0.020	0.005	-0.005	-0.005	-0.015	0.029	1.733	1.143	1.138	1.143	1.157	1.162	1.162
0.024	-0.010	0.000	-0.005	0.000	0.005	0.029	1.797	1.147	1.143	1.143	1.157	1.157	1.162
0.059	-0.005	-0.005	-0.005	0.000	0.005	0.029	1.792	1.152	1.143	1.143	1.157	1.157	1.157
0.049	0.000	0.000	0.000	0.000	-0.005	0.029	1.768	1.152	1.147	1.143	1.162	1.157	1.157
0.054	0.005	0.000	-0.010	0.005	-0.015	0.029	1.787	1.147	1.147	1.143	1.157	1.157	1.152
0.044	0.000	0.000	-0.005	0.000	-0.005	0.029	1.763	1.143	1.147	1.143	1.157	1.157	1.157
-0.029	-0.005	0.000	-0.005	0.000	0.010	0.029	1.802	1.118	1.133	1.143	1.162	1.157	1.157
-0.073	0.000	0.000	0.000	0.000	0.010	0.029	1.758	1.113	1.128	1.138	1.162	1.157	1.157
-0.098	-0.005	-0.005	0.000	0.000	0.005	0.029	1.777	1.118	1.123	1.133	1.157	1.152	1.157
-0.103	0.000	-0.005	0.000	-0.005	-0.005	0.029	1.724	1.113	1.123	1.128	1.157	1.152	1.152
-0.098	0.010	0.000	0.005	0.000	-0.015	0.029	1.772	1.123	1.123	1.128	1.152	1.152	1.147
-0.078	0.000	0.005	0.000	-0.005	0.005	0.029	1.763	1.133	1.123	1.128	1.152	1.152	1.152
-0.063	0.005	0.000	0.000	0.000	-0.005	0.029	1.802	1.143	1.128	1.128	1.152	1.152	1.152
-0.034	0.000	0.000	0.005	-0.005	0.000	0.029	1.772	1.152	1.133	1.128	1.152	1.147	1.152
-0.029	-0.005	0.000	0.000	0.000	0.000	0.029	1.792	1.147	1.138	1.128	1.152	1.152	1.152
0.000	-0.020	-0.005	0.000	0.000	0.005	0.029	1.807	1.152	1.138	1.133	1.152	1.147	1.152
-0.005	-0.015	-0.005	0.000	-0.005	-0.005	0.029	1.748	1.147	1.138	1.133	1.147	1.147	1.147
0.015	-0.015	-0.005	-0.005	0.000	0.000	0.029	1.772	1.147	1.143	1.138	1.152	1.147	1.147
0.020	-0.010	0.000	-0.010	-0.005	-0.005	0.029	1.782	1.147	1.143	1.138	1.147	1.143	1.147
0.029	-0.015	-0.005	-0.005	0.000	-0.005	0.029	1.738	1.143	1.143	1.138	1.152	1.147	1.147
0.005	0.000	0.000	0.000	-0.005	-0.005	0.029	1.787	1.143	1.143	1.138	1.157	1.147	1.143
0.049	0.000	0.000	0.000	0.005	0.000	0.029	1.787	1.152	1.147	1.143	1.157	1.147	1.147
0.127	0.020	0.000	0.000	-0.005	0.010	0.029	1.797	1.172	1.157	1.147	1.162	1.152	1.152
0.161	0.005	0.000	-0.005	-0.010	0.000	0.029	1.724	1.162	1.157	1.147	1.162	1.152	1.147
0.142	0.000	-0.005	0.000	0.000	-0.005	0.029	1.772	1.147	1.152	1.152	1.162	1.152	1.147
0.093	0.005	-0.005	-0.005	0.000	-0.005	0.034	1.748	1.123	1.143	1.147	1.162	1.157	1.152
-0.024	0.000	0.000	-0.005	-0.005	-0.010	0.029	1.787	1.089	1.123	1.143	1.162	1.152	1.152
-0.103	0.005	0.000	-0.005	-0.005	0.000	0.034	1.743	1.074	1.108	1.133	1.162	1.157	1.152
-0.264	0.000	0.000	-0.005	-0.005	0.005	0.029	1.777	1.045	1.089	1.118	1.152	1.152	1.152
-0.220	0.000	0.000	-0.005	0.005	-0.005	0.029	1.768	1.089	1.089	1.113	1.147	1.152	1.152
-0.107	0.000	0.000	0.005	0.005	-0.005	0.029	1.787	1.133	1.099	1.108	1.147	1.152	1.152
-0.010	-0.010	0.000	0.005	0.000	0.005	0.029	1.792	1.167	1.118	1.108	1.143	1.147	1.152
0.073	0.000	0.000	0.000	0.000	-0.020	0.029	1.714	1.172	1.138	1.118	1.138	1.143	1.143
0.083	0.000	0.000	0.000	-0.005	0.005	0.029	1.763	1.162	1.147	1.123	1.138	1.138	1.147
0.088	-0.005	-0.005	0.000	0.000	-0.010	0.029	1.768	1.152	1.147	1.128	1.138	1.138	1.143
0.073	-0.005	0.000	-0.005	0.005	-0.005	0.029	1.807	1.138	1.138	1.133	1.143	1.138	1.143
0.039	-0.010	0.000	-0.005	0.000	0.005	0.029	1.772	1.128	1.138	1.133	1.143	1.138	1.143
0.005	-0.005	0.000	-0.005	0.000	0.000	0.029	1.787	1.118	1.128	1.133	1.143	1.138	1.138
-0.015	-0.005	0.005	0.000	-0.005	0.000	0.029	1.758	1.108	1.123	1.128	1.147	1.138	1.138
-0.029	-0.005	-0.005	0.000	-0.010	-0.005	0.029	1.748	1.108	1.118	1.123	1.147	1.138	1.138
-0.029	-0.005	-0.005	0.000	-0.005	-0.010	0.029	1.758	1.113	1.118	1.118	1.143	1.143	1.138
-0.034	0.000	0.000	0.005	-0.005	-0.010	0.029	1.753	1.113	1.118	1.123	1.143	1.143	1.138
-0.010	0.000	0.000	0.000	-0.005	0.005	0.034	1.763	1.123	1.118	1.123	1.143	1.143	1.143
0.005	-0.005	0.005	-0.005	-0.005	0.000	0.029	1.797	1.128	1.118	1.118	1.138	1.138	1.138
0.020	0.000	0.005	0.000	-0.005	-0.020	0.029	1.748	1.133	1.128	1.118	1.143	1.138	1.133
0.024	0.000	0.005	0.005	0.000	0.010	0.029	1.777	1.133	1.128	1.123	1.143	1.138	1.143
0.020	0.000	0.000	0.000	-0.010	0.000	0.029	1.733	1.123	1.123	1.123	1.143	1.138	1.138
-0.005	0.005	0.000	0.000	-0.010	0.010	0.029	1.763	1.113	1.123	1.123	1.143	1.138	1.143
-0.034	-0.005	0.000	0.000	-0.005	0.005	0.034	1.768	1.108	1.113	1.123	1.143	1.138	1.138
-0.029	-0.020	0.000	0.000	0.005	0.000	0.029	1.792	1.113	1.108	1.118	1.143	1.138	1.133
0.005	-0.010	0.000	0.000	0.015	0.010	0.029	1.807	1.133	1.118	1.118	1.138	1.143	1.138
0.029	0.000	0.000	0.000	0.005	0.010	0.029	1.782	1.133	1.128	1.118	1.138	1.138	1.138
0.020	-0.005	0.000	0.000	0.010	0.010	0.029	1.787	1.128	1.123	1.118	1.138	1.138	1.138
-0.020	0.000	-0.005	-0.005	0.010	0.000	0.029	1.782	1.113	1.123	1.118	1.133	1.133	1.133
-0.059	-0.005	-0.005	-0.005	0.005	0.010	0.029	1.763	1.108	1.113	1.118	1.133	1.133	1.138
-0.034	0.020	-0.005	-0.010	-0.005	0.005	0.029	1.763	1.118	1.123	1.118	1.133	1.128	1.133
-0.005	0.010	-0.005	-0.005	-0.005	0.005	0.029	1.797	1.128	1.123	1.118	1.138	1.128	1.128
0.029	0.010	-0.005	-0.015	-0.010	-0.024	0.029	1.797	1.138	1.128	1.118	1.133	1.128	1.123
0.054	0.010	-0.005	-0.010	-0.010	-0.024	0.029	1.743	1.138	1.133	1.123	1.138	1.128	1.123
0.059	0.005	-0.005	-0.005	-0.005	-0.010	0.029	1.768	1.133	1.128	1.128	1.143	1.133	1.128
0.054	0.000	0.000	-0.005	0.000	-0.010	0.029	1.748	1.123	1.123	1.128	1.143	1.138	1.133
0.039	0.005	-0.005	-0.005	0.020	-0.010	0.029	1.807	1.118	1.123	1.128	1.147	1.143	1.133
0.010	0.005	0.000	0.000	0.044	-0.010	0.029	1.738	1.108	1.123	1.123	1.147	1.152	1.138
0.005	0.000	0.000	0.000	0.029	-0.020	0.029	1.792	1.113	1.118	1.123	1.143	1.143	1.133
-0.010	0.005	-0.005	0.005	0.020	0.005	0.034	1.792	1.113	1.113	1.123	1.143	1.138	1.143
-0.020	-0.005	-0.005	0.005	0.005	0.005	0.029	1.787	1.118	1.113	1.118	1.143	1.133	1.138
-0.015	-0.005	0.000	0.005	-0.015	-0.005	0.029	1.787	1.118	1.113	1.113	1.138	1.128	1.138
-0.015	-0.005	-0.005	0.005	-0.029	-0.005	0.029	1.772	1.113	1.113	1.113	1.138	1.128	1.133
-0.020	-0.015	-0.005	0.005	-0.020	-0.005	0.029	1.782	1.113	1.108	1.113	1.138	1.128	1.133
-0.015	-0.010	0.000	0.005	-0.029	-0.010	0.029	1.768	1.118	1.113	1.113	1.133	1.128	1.128
0.000	-0.015	0.000	0.005	-0.029	0.010	0.029	1.748	1.118	1.113	1.113	1.133	1.128	1.133
0.010	-0.005	-0.005	0.000	-0.020	0.000	0.029	1.807	1.123	1.118	1.113	1.133	1.128	1.128
0.010	-0.010	-0.005	0.000	-0.015	0.010	0.029	1.738	1.118	1.118	1.113	1.128	1.128	1.133
0.010	-0.005	0.000	0.000	0.005	0.010	0.034	1.758	1.118	1.118	1.118	1.133	1.133	1.133
0.010	-0.005	-0.005	0.000	0.010	-0.005	0.029	1.816	1.123	1.118	1.118	1.133	1.133	1.133
0.005	0.005	0.000	-0.005	0.010	0.005	0.029	1.812	1.123	1.123	1.118	1.133	1.128	1.133
0.000	0.000	0.000	-0.005	0.005	-0.005	0.029	1.787	1.123	1.118	1.118	1.133	1.128	1.128
0.000	0.000	0.000	0.000	0.005	0.010	0.029	1.802	1.123	1.118	1.118	1.138	1.133	1.133
0.000	-0.005	0.000	0.000	0.005	0.000	0.029	1.758	1.113	1.118	1.118	1.138	1.133	1.133
0.000	-0.005	0.000	0.005	0.000	0.005	0.029	1.797	1.118	1.118	1.118	1.138	1.128	1.128
-0.010	0.005	0.000	0.000	-0.005	0.000	0.029	1.787	1.113	1.118	1.118	1.133	1.128	1.128
-0.010	-0.005	-0.005	-0.005	-0.015	0.005	0.029	1.807	1.123	1.113	1.113	1.133	1.123	1.128
-0.010	0.000	-0.005	-0.005	-0.020	0.000	0.029	1.733	1.113	1.118	1.113	1.133	1.128	1.123
-0.020	-0.005	0.000	-0.005	-0.020	0.000	0.029	1.802	1.113	1.108	1.113	1.133	1.128	1.128
-0.015	-0.005	-0.005	-0.010	0.005	-0.010	0.029	1.748	1.113	1.113	1.113	1.133	1.133	1.128
-0.015	-0.015	0.000	-0.010	0.015	0.010	0.029	1.792	1.123	1.108	1.113	1.133	1.133	1.133
-0.010	-0.020	0.000	-0.005	0.010	0.000	0.029	1.738	1.113	1.113	1.113	1.133	1.133	1.128
-0.010	-0.015	0.000	-0.005	0.005	-0.005	0.029	1.821	1.123	1.113	1.113	1.133	1.128	1.128
0.029	0.000	0.000	0.000	0.005	-0.015	0.029	1.782	1.133	1.123	1.113	1.133	1.133	1.128
0.044	0.005	0.000	0.005	0.015	-0.020	0.029	1.802	1.138	1.128	1.118	1.138	1.133	1.128
0.029	0.005	-0.005	0.000	0.034	-0.005	0.029	1.777	1.123	1.123	1.118	1.133	1.138	1.133
0.005	0.005	-0.005	0.005	0.034	-0.005	0.029	1.748	1.113	1.118	1.118	1.138	1.133	1.133
-0.015	0.005	-0.010	0.005	0.010	0.000	0.029	1.802	1.113	1.113	1.118	1.138	1.128	1.133
-0.029	0.005	-0.005	0.005	-0.005	-0.005	0.034	1.802	1.113	1.118	1.118	1.138	1.128	1.128
-0.039	0.015	-0.005	0.000	-0.015	0.005	0.029	1.763	1.108	1.118	1.118	1.133	1.123	1.128
-0.039	0.005	0.000	0.000	-0.010	-0.024	0.029	1.777	1.113	1.113	1.118	1.133	1.128	1.123
-0.029	0.005	0.000	0.005	-0.005	-0.015	0.029	1.729	1.108	1.108	1.113	1.138	1.133	1.128
-0.024	0.010	0.000	-0.005	-0.005	0.010	0.029	1.768	1.113	1.113	1.113	1.133	1.128	1.128
-0.015	0.010	-0.005	0.000	-0.029	-0.005	0.029	1.768	1.118	1.113	1.113	1.133	1.123	1.128
0.005	0.000	-0.005	-0.005	-0.039	0.010	0.029	1.772	1.123	1.113	1.113	1.128	1.118	1.128
0.005	-0.005	-0.005	-0.005	-0.039	-0.024	0.029	1.758	1.113	1.113	1.108	1.133	1.123	1.113
0.000	-0.010	-0.010	-0.005	-0.020	-0.005	0.029	1.772	1.113	1.108	1.108	1.128	1.128	1.123
0.000	-0.015	-0.005	-0.005	0.024	-0.005	0.029	1.758	1.108	1.108	1.113	1.128	1.143	1.133
0.000	-0.010	-0.005	-0.010	0.020	0.005	0.029	1.782	1.108	1.108	1.108	1.128	1.133	1.128
0.000	-0.005	-0.005	-0.010	0.010	0.010	0.029	1.797	1.118	1.113	1.108	1.128	1.128	1.133
0.010	-0.005	-0.005	-0.005	0.034	-0.020	0.029	1.802	1.123	1.113	1.108	1.128	1.128	1.128
0.005	0.010	-0.005	-0.005	0.010	0.005	0.029	1.787	1.123	1.123	1.113	1.133	1.123	1.133
0.005	0.005	-0.005	0.000	0.005	-0.015	0.029	1.807	1.123	1.118	1.113	1.133	1.123	1.123
0.000	0.005	-0.005	0.000	0.015	-0.010	0.029	1.763	1.118	1.118	1.113	1.128	1.128	1.128
0.005	0.000	0.000	0.000	0.010	0.005	0.029	1.792	1.118	1.113	1.118	1.133	1.128	1.128
0.005	0.015	0.000	0.000	0.000	0.020	0.029	1.802	1.123	1.123	1.118	1.133	1.123	1.133
0.000	0.015	-0.005	0.005	-0.005	0.010	0.029	1.719	1.108	1.123	1.118	1.133	1.128	1.123
0.000	0.005	0.000	0.005	0.000	-0.010	0.029	1.782	1.113	1.113	1.118	1.138	1.128	1.123
0.010	0.000	-0.005	0.005	0.000	0.005	0.029	1.768	1.118	1.113	1.118	1.133	1.128	1.128
0.010	0.010	-0.005	0.000	-0.010	0.000	0.029	1.797	1.118	1.118	1.113	1.133	1.128	1.128
-0.005	-0.015	0.000	0.005	-0.010	-0.015	0.029	1.738	1.113	1.108	1.113	1.133	1.128	1.118
0.000	-0.010	-0.005	0.005	-0.010	-0.005	0.029	1.768	1.113	1.108	1.108	1.133	1.128	1.128
0.000	-0.020	-0.005	-0.005	-0.020	0.000	0.029	1.797	1.118	1.108	1.108	1.128	1.123	1.123
0.000	-0.020	-0.005	-0.005	-0.029	0.000	0.029	1.802	1.118	1.108	1.108	1.128	1.123	1.123
0.000	-0.010	-0.005	0.000	-0.034	0.000	0.029	1.758	1.113	1.113	1.108	1.128	1.123	1.123
0.000	-0.010	-0.005	0.000	-0.015	0.000	0.029	1.807	1.118	1.113	1.113	1.128	1.128	1.128
0.005	-0.010	-0.005	0.000	-0.010	-0.005	0.029	1.787	1.118	1.113	1.108	1.128	1.128	1.123
-0.005	0.000	0.000	0.000	-0.020	0.005	0.029	1.802	1.113	1.113	1.113	1.128	1.128	1.123
-0.005	0.000	-0.005	0.005	-0.034	0.005	0.029	1.729	1.108	1.113	1.108	1.128	1.118	1.123
0.000	-0.005	-0.005	0.000	-0.029	0.005	0.029	1.792	1.118	1.113	1.108	1.128	1.123	1.123
0.000	0.010	0.000	0.005	0.024	0.000	0.029	1.787	1.118	1.118	1.113	1.133	1.143	1.128
-0.005	0.000	0.005	-0.005	0.063	-0.015	0.029	1.802	1.118	1.113	1.113	1.133	1.147	1.128
-0.010	-0.005	0.000	0.000	0.054	-0.015	0.034	1.733	1.113	1.113	1.113	1.133	1.138	1.133
0.005	-0.005	-0.005	-0.005	0.005	-0.010	0.029	1.753	1.118	1.113	1.113	1.133	1.123	1.128
0.000	-0.005	-0.005	-0.005	-0.029	0.000	0.029	1.772	1.118	1.113	1.113	1.128	1.113	1.128
0.000	0.000	0.000	-0.005	-0.024	0.005	0.029	1.792	1.113	1.113	1.113	1.133	1.118	1.128
0.005	0.020	0.000	0.000	-0.005	0.000	0.029	1.748	1.108	1.118	1.118	1.133	1.128	1.123
0.000	0.010	0.000	0.000	0.005	-0.005	0.029	1.792	1.113	1.113	1.113	1.133	1.133	1.123
0.000	0.005	-0.005	0.005	0.034	-0.005	0.029	1.758	1.108	1.108	1.113	1.133	1.138	1.128
-0.005	0.005	0.000	0.005	0.034	0.000	0.029	1.748	1.108	1.108	1.113	1.133	1.133	1.128
-0.005	0.000	0.000	0.000	0.005	-0.005	0.029	1.738	1.108	1.108	1.113	1.128	1.123	1.123
-0.010	0.000	-0.005	0.000	0.000	-0.015	0.029	1.802	1.108	1.104	1.108	1.128	1.123	1.123
-0.010	0.000	-0.005	-0.005	-0.005	-0.015	0.029	1.787	1.113	1.104	1.108	1.128	1.118	1.118
0.005	-0.005	0.000	-0.005	0.010	0.000	0.029	1.758	1.113	1.108	1.108	1.123	1.128	1.128
-0.005	-0.005	-0.005	0.000	0.039	0.000	0.029	1.792	1.113	1.108	1.108	1.128	1.133	1.128
-0.005	0.005	0.000	0.000	0.059	-0.020	0.029	1.787	1.118	1.113	1.108	1.133	1.138	1.128
-0.010	0.005	0.000	0.000	0.029	-0.010	0.029	1.758	1.118	1.113	1.108	1.128	1.123	1.128
-0.005	0.000	0.000	0.005	-0.010	0.015	0.029	1.768	1.118	1.113	1.113	1.128	1.113	1.128
0.005	0.000	-0.005	0.005	-0.039	0.010	0.029	1.733	1.108	1.113	1.108	1.128	1.108	1.123
0.000	-0.005	0.000	0.005	-0.044	-0.005	0.029	1.797	1.113	1.113	1.113	1.128	1.113	1.113
-0.005	0.000	0.005	0.010	-0.034	0.000	0.029	1.787	1.118	1.113	1.113	1.133	1.118	1.118
0.000	-0.005	0.000	0.005	-0.005	0.010	0.029	1.738	1.113	1.108	1.108	1.128	1.128	1.123
0.005	-0.005	0.000	-0.005	0.010	0.005	0.029	1.792	1.113	1.108	1.113	1.128	1.133	1.123
0.000	-0.005	0.000	-0.010	-0.005	0.000	0.029	1.772	1.113	1.113	1.108	1.128	1.123	1.123
-0.005	-0.005	0.000	-0.015	-0.020	0.010	0.029	1.709	1.104	1.108	1.108	1.123	1.123	1.123
-0.010	-0.005	0.005	-0.015	-0.024	0.000	0.029	1.807	1.108	1.108	1.108	1.123	1.118	1.118
0.000	0.000	0.000	-0.024	-0.010	0.000	0.029	1.714	1.104	1.108	1.108	1.123	1.123	1.118
-0.005	-0.015	0.000	-0.020	-0.005	0.000	0.029	1.763	1.104	1.104	1.104	1.123	1.123	1.123
-0.005	-0.020	0.000	-0.010	-0.010	0.010	0.029	1.782	1.108	1.104	1.104	1.123	1.123	1.123
-0.005	-0.010	0.000	-0.010	-0.010	0.010	0.029	1.802	1.118	1.108	1.104	1.128	1.123	1.123
-0.005	-0.005	0.000	0.005	0.000	-0.010	0.029	1.748	1.108	1.108	1.104	1.128	1.123	1.113
-0.005	-0.010	0.000	0.005	0.005	0.000	0.034	1.792	1.104	1.108	1.108	1.128	1.128	1.118
-0.005	-0.005	0.000	0.005	0.024	-0.005	0.029	1.807	1.108	1.104	1.108	1.128	1.128	1.123
-0.005	0.000	-0.005	0.015	0.010	-0.005	0.029	1.748	1.108	1.108	1.104	1.128	1.123	1.123
-0.005	0.005	0.000	0.010	-0.010	-0.005	0.029	1.807	1.113	1.108	1.108	1.128	1.118	1.123
0.000	0.010	0.000	0.015	-0.010	-0.005	0.029	1.772	1.118	1.113	1.108	1.128	1.118	1.123
-0.010	0.005	-0.005	0.010	0.000	0.000	0.029	1.797	1.113	1.113	1.108	1.128	1.123	1.123
-0.010	0.015	-0.005	0.010	0.029	-0.005	0.029	1.772	1.113	1.113	1.108	1.128	1.133	1.123
0.000	0.010	0.000	0.000	0.024	0.005	0.029	1.777	1.118	1.113	1.113	1.128	1.128	1.128
-0.005	0.000	0.005	0.000	0.020	0.005	0.029	1.792	1.118	1.113	1.113	1.128	1.128	1.128
0.000	0.000	-0.005	-0.005	0.020	0.005	0.029	1.763	1.118	1.113	1.108	1.128	1.123	1.128
-0.010	-0.005	-0.005	-0.005	0.000	0.005	0.029	1.797	1.113	1.108	1.108	1.123	1.118	1.123
-0.005	0.005	0.000	-0.005	-0.029	-0.005	0.029	1.753	1.118	1.118	1.108	1.128	1.108	1.113
0.000	0.005	0.000	-0.005	-0.039	0.005	0.029	1.772	1.118	1.118	1.113	1.128	1.113	1.118
-0.005	-0.005	0.000	-0.005	-0.029	0.000	0.029	1.753	1.108	1.113	1.113	1.128	1.118	1.113
-0.005	-0.015	0.000	0.000	-0.020	0.000	0.029	1.787	1.108	1.108	1.108	1.133	1.123	1.118
0.000	-0.024	0.000	0.000	-0.020	0.000	0.034	1.733	1.104	1.099	1.104	1.128	1.123	1.118
0.000	-0.015	0.000	0.005	-0.010	0.000	0.029	1.768	1.104	1.104	1.104	1.133	1.123	1.118
0.000	0.000	-0.005	0.005	-0.005	-0.005	0.029	1.772	1.108	1.108	1.104	1.128	1.128	1.118
0.010	0.005	-0.005	0.005	0.024	-0.005	0.029	1.758	1.108	1.113	1.108	1.128	1.133	1.118
0.005	0.015	0.005	-0.005	0.044	-0.024	0.029	1.768	1.108	1.113	1.108	1.128	1.133	1.123
0.000	0.010	0.000	0.000	0.029	0.005	0.029	1.787	1.108	1.108	1.108	1.128	1.128	1.128
0.000	0.015	0.000	-0.005	0.000	0.005	0.029	1.787	1.113	1.108	1.108	1.123	1.118	1.128
-0.005	0.015	0.000	-0.010	-0.005	0.005	0.029	1.782	1.108	1.108	1.108	1.123	1.118	1.128
-0.005	0.000	0.000	-0.005	-0.015	0.000	0.029	1.797	1.113	1.108	1.108	1.128	1.113	1.123
0.000	0.010	0.000	0.000	-0.005	-0.005	0.029	1.763	1.108	1.108	1.108	1.128	1.118	1.118
-0.005	-0.005	-0.005	0.000	0.020	0.005	0.029	1.758	1.108	1.104	1.108	1.128	1.128	1.123
0.000	0.000	-0.005	0.000	0.020	-0.020	0.029	1.772	1.108	1.108	1.108	1.128	1.128	1.118
0.005	-0.010	0.000	0.000	-0.015	-0.015	0.029	1.763	1.108	1.104	1.104	1.123	1.118	1.118
-0.005	0.000	0.000	0.005	-0.024	0.015	0.029	1.797	1.108	1.108	1.104	1.128	1.113	1.123
0.005	-0.010	0.000	0.005	-0.020	0.005	0.029	1.787	1.113	1.108	1.108	1.128	1.118	1.118
0.000	-0.010	0.000	0.005	-0.005	0.005	0.029	1.797	1.113	1.104	1.104	1.128	1.123	1.118
0.010	-0.005	-0.005	0.000	0.005	0.005	0.034	1.777	1.113	1.108	1.108	1.123	1.123	1.123
0.005	0.000	0.005	-0.005	0.010	0.000	0.029	1.763	1.108	1.108	1.108	1.123	1.118	1.118
-0.005	-0.010	-0.005	-0.005	-0.005	0.000	0.029	1.753	1.108	1.104	1.104	1.123	1.118	1.118
-0.005	-0.010	0.000	-0.005	-0.020	0.000	0.029	1.763	1.104	1.104	1.104	1.123	1.113	1.118
-0.005	-0.010	0.000	-0.010	-0.010	0.010	0.029	1.792	1.104	1.104	1.104	1.123	1.118	1.118
-0.010	0.005	0.000	0.000	-0.005	-0.010	0.029	1.797	1.108	1.108	1.104	1.123	1.118	1.113
-0.010	0.000	0.000	-0.005	-0.010	0.015	0.029	1.782	1.108	1.108	1.108	1.123	1.118	1.123
-0.005	0.000	0.000	-0.005	-0.020	0.010	0.029	1.768	1.108	1.108	1.108	1.123	1.113	1.118
-0.010	0.005	0.000	0.000	-0.034	-0.029	0.029	1.743	1.108	1.108	1.108	1.123	1.113	1.104
-0.005	0.010	0.000	-0.005	-0.015	-0.015	0.029	1.797	1.108	1.108	1.108	1.123	1.123	1.113
-0.010	0.000	0.000	-0.005	0.010	-0.034	0.029	1.738	1.104	1.104	1.104	1.123	1.128	1.113
0.000	-0.005	-0.005	0.000	0.034	-0.020	0.029	1.782	1.113	1.108	1.108	1.123	1.133	1.118
0.010	0.010	0.000	0.000	0.034	-0.005	0.029	1.748	1.108	1.108	1.108	1.128	1.128	1.128
0.015	-0.005	0.000	0.005	0.015	0.000	0.029	1.763	1.108	1.104	1.104	1.123	1.123	1.128
0.005	-0.010	-0.005	0.005	-0.020	0.010	0.029	1.748	1.108	1.104	1.104	1.123	1.113	1.123
0.000	0.000	0.000	0.000	-0.015	0.010	0.029	1.748	1.104	1.104	1.104	1.123	1.118	1.123
0.000	-0.010	0.000	0.010	0.010	0.000	0.029	1.787	1.104	1.104	1.104	1.123	1.123	1.118
0.000	0.000	-0.005	0.000	0.054	0.005	0.029	1.768	1.104	1.104	1.099	1.123	1.133	1.128
-0.005	-0.005	0.000	-0.005	0.059	0.000	0.029	1.782	1.104	1.099	1.099	1.118	1.133	1.123
-0.005	0.000	0.000	0.000	0.054	0.010	0.029	1.797	1.113	1.108	1.104	1.118	1.123	1.128
-0.010	0.005	0.000	0.000	0.039	-0.005	0.029	1.792	1.108	1.113	1.104	1.118	1.118	1.118
0.015	0.015	-0.005	0.000	0.020	0.000	0.029	1.714	1.113	1.113	1.108	1.123	1.113	1.118
0.005	0.015	0.000	0.005	0.005	0.000	0.029	1.777	1.113	1.108	1.108	1.123	1.113	1.118
0.000	0.005	-0.005	0.000	0.015	0.000	0.029	1.777	1.108	1.108	1.104	1.123	1.113	1.118
0.000	0.005	0.000	-0.005	-0.015	-0.020	0.029	1.777	1.108	1.108	1.108	1.123	1.104	1.108
-0.005	0.005	-0.005	0.000	-0.020	0.005	0.034	1.733	1.104	1.104	1.104	1.123	1.108	1.113
-0.005	-0.005	0.000	0.000	-0.020	-0.010	0.029	1.772	1.108	1.104	1.104	1.123	1.113	1.113
-0.010	-0.005	0.000	0.000	-0.020	0.000	0.029	1.797	1.108	1.104	1.104	1.123	1.113	1.113
0.000	0.010	0.000	-0.005	-0.020	-0.020	0.029	1.772	1.108	1.108	1.108	1.123	1.118	1.113
0.005	0.000	-0.005	0.000	-0.024	0.005	0.029	1.763	1.108	1.104	1.104	1.123	1.113	1.118
0.000	-0.010	-0.005	0.000	-0.005	0.000	0.029	1.719	1.104	1.104	1.104	1.123	1.123	1.113
0.000	-0.015	-0.005	0.000	-0.029	0.010	0.029	1.782	1.104	1.099	1.104	1.123	1.113	1.118
0.000	-0.015	0.000	0.000	-0.049	0.005	0.029	1.743	1.104	1.099	1.104	1.123	1.108	1.113
-0.005	-0.010	-0.005	0.000	-0.049	0.000	0.034	1.782	1.099	1.099	1.099	1.123	1.108	1.113
-0.005	-0.015	0.000	-0.005	-0.044	0.015	0.029	1.792	1.108	1.099	1.099	1.118	1.113	1.113
-0.005	-0.024	-0.005	0.000	-0.068	-0.024	0.029	1.792	1.108	1.099	1.099	1.118	1.108	1.104
-0.005	-0.015	-0.005	0.000	-0.103	-0.005	0.029	1.753	1.104	1.099	1.099	1.118	1.099	1.104
-0.005	-0.020	-0.005	0.000	-0.078	-0.020	0.029	1.782	1.104	1.099	1.099	1.118	1.108	1.104
-0.005	-0.005	-0.010	0.000	-0.029	0.000	0.029	1.763	1.108	1.104	1.099	1.118	1.123	1.118
-0.005	0.015	0.000	0.000	0.020	0.000	0.029	1.777	1.104	1.108	1.104	1.123	1.138	1.123
-0.005	0.005	0.000	0.000	0.137	0.015	0.029	1.797	1.104	1.104	1.108	1.128	1.172	1.143
0.000	0.000	0.000	0.000	0.190	-0.005	0.029	1.733	1.108	1.108	1.104	1.128	1.162	1.138
0.000	-0.005	0.000	0.000	0.127	-0.005	0.029	1.787	1.108	1.104	1.104	1.123	1.133	1.138
-0.005	-0.005	0.000	-0.005	0.049	0.005	0.029	1.797	1.113	1.108	1.104	1.118	1.108	1.133
-0.005	-0.005	-0.005	-0.005	0.010	-0.005	0.029	1.792	1.113	1.108	1.104	1.118	1.099	1.123
0.000	-0.005	-0.005	-0.015	-0.020	0.010	0.029	1.733	1.108	1.108	1.104	1.118	1.099	1.113
0.010	-0.005	-0.005	-0.015	0.005	0.005	0.029	1.782	1.113	1.113	1.108	1.118	1.108	1.113
0.000	-0.005	-0.005	-0.010	-0.005	0.005	0.029	1.768	1.113	1.108	1.108	1.123	1.108	1.108
0.000	0.000	-0.005	-0.005	-0.015	0.000	0.029	1.807	1.108	1.108	1.108	1.123	1.108	1.108
0.015	-0.010	-0.005	0.000	-0.015	-0.005	0.029	1.792	1.113	1.113	1.108	1.128	1.113	1.108
0.000	0.000	-0.005	0.010	-0.020	0.000	0.029	1.763	1.104	1.113	1.108	1.128	1.113	1.108
0.010	0.000	-0.005	0.005	-0.029	0.000	0.029	1.792	1.108	1.108	1.108	1.123	1.113	1.108
0.005	0.005	-0.005	0.000	-0.020	0.000	0.029	1.738	1.099	1.104	1.108	1.128	1.113	1.108
0.000	0.010	0.000	0.000	-0.020	-0.005	0.029	1.792	1.104	1.104	1.108	1.123	1.118	1.113
0.000	0.000	-0.005	0.005	-0.020	0.000	0.029	1.753	1.099	1.104	1.104	1.128	1.118	1.113
0.000	0.000	0.000	0.010	-0.010	0.000	0.029	1.802	1.104	1.104	1.108	1.128	1.123	1.118
-0.005	-0.005	-0.005	0.010	-0.015	0.000	0.029	1.753	1.099	1.099	1.104	1.123	1.123	1.113
0.010	0.000	0.000	0.010	-0.015	-0.020	0.029	1.797	1.104	1.104	1.104	1.128	1.123	1.113
0.005	0.000	-0.005	0.005	-0.010	-0.010	0.029	1.777	1.113	1.104	1.104	1.123	1.123	1.118
-0.005	0.000	0.000	-0.005	-0.010	0.000	0.029	1.763	1.104	1.104	1.104	1.118	1.123	1.123
-0.005	0.000	0.000	-0.015	0.000	0.010	0.029	1.802	1.104	1.104	1.104	1.118	1.123	1.123
-0.010	0.005	0.000	-0.010	0.000	0.000	0.029	1.772	1.113	1.108	1.104	1.118	1.123	1.118
-0.010	0.020	0.000	-0.010	-0.005	-0.015	0.029	1.787	1.108	1.113	1.104	1.118	1.118	1.118
0.000	0.010	0.000	-0.005	-0.005	-0.005	0.029	1.777	1.113	1.108	1.108	1.123	1.118	1.118
0.000	0.000	-0.005	-0.005	-0.005	0.005	0.029	1.768	1.108	1.104	1.104	1.123	1.118	1.118
-0.005	0.000	0.000	0.000	0.000	0.000	0.029	1.797	1.108	1.104	1.104	1.123	1.118	1.118
-0.010	-0.010	-0.005	0.010	-0.010	-0.005	0.029	1.777	1.104	1.099	1.104	1.123	1.118	1.118
-0.020	-0.010	0.000	0.000	-0.015	0.000	0.029	1.792	1.108	1.099	1.104	1.123	1.118	1.113
-0.010	-0.005	0.000	0.005	0.010	-0.005	0.029	1.802	1.108	1.104	1.104	1.123	1.123	1.118
-0.015	-0.010	-0.005	0.000	0.010	-0.005	0.029	1.792	1.108	1.099	1.099	1.123	1.123	1.113
-0.015	0.000	0.000	-0.005	0.005	-0.015	0.029	1.807	1.108	1.108	1.104	1.118	1.118	1.118
-0.010	0.010	0.000	0.000	0.000	-0.005	0.029	1.758	1.113	1.108	1.104	1.118	1.118	1.118
-0.015	0.015	0.000	-0.005	0.015	-0.010	0.034	1.729	1.099	1.108	1.108	1.123	1.123	1.118
0.000	-0.010	-0.005	0.000	0.010	-0.020	0.029	1.743	1.104	1.104	1.104	1.123	1.118	1.118
0.005	0.010	-0.005	0.000	0.005	0.010	0.029	1.763	1.108	1.108	1.104	1.123	1.118	1.123
0.005	0.010	0.000	0.000	0.010	0.010	0.029	1.782	1.113	1.108	1.108	1.123	1.118	1.123
0.005	-0.005	0.000	0.000	0.005	0.010	0.029	1.758	1.108	1.104	1.108	1.123	1.118	1.118
0.010	-0.015	0.000	0.005	0.000	0.010	0.029	1.763	1.104	1.104	1.104	1.123	1.118	1.118
-0.010	-0.015	0.000	-0.005	0.000	0.005	0.029	1.768	1.099	1.099	1.104	1.123	1.118	1.118
0.005	0.000	0.000	0.000	-0.010	0.000	0.029	1.797	1.108	1.108	1.108	1.123	1.118	1.113
0.000	-0.005	0.005	0.000	-0.010	-0.010	0.029	1.758	1.104	1.104	1.104	1.123	1.113	1.113
0.010	-0.020	-0.005	-0.005	0.000	-0.005	0.029	1.748	1.104	1.094	1.099	1.118	1.118	1.113
0.000	-0.015	-0.005	0.000	-0.010	0.000	0.029	1.738	1.099	1.099	1.099	1.118	1.113	1.118
0.005	-0.015	-0.005	0.000	-0.010	0.000	0.029	1.797	1.108	1.104	1.099	1.118	1.113	1.113
0.010	-0.010	-0.010	0.005	-0.005	0.005	0.029	1.787	1.108	1.104	1.099	1.118	1.118	1.118
0.000	-0.010	0.000	0.000	0.010	0.010	0.029	1.777	1.108	1.104	1.104	1.118	1.118	1.118
0.000	-0.005	0.000	0.005	0.000	0.000	0.029	1.768	1.084	1.099	1.104	1.118	1.118	1.118
-0.005	-0.010	-0.005	0.000	0.005	-0.010	0.029	1.763	1.094	1.099	1.099	1.118	1.118	1.108
0.005	0.005	0.000	0.000	-0.010	-0.010	0.029	1.797	1.099	1.104	1.099	1.118	1.113	1.113
-0.005	0.010	0.000	0.005	0.000	-0.029	0.034	1.753	1.094	1.099	1.099	1.123	1.113	1.104
0.000	0.000	0.000	0.000	0.000	-0.024	0.029	1.787	1.099	1.099	1.099	1.118	1.113	1.113
0.000	0.010	0.005	0.005	-0.005	-0.015	0.029	1.753	1.099	1.104	1.099	1.123	1.113	1.113
-0.005	0.000	0.005	0.000	-0.010	-0.010	0.029	1.807	1.104	1.099	1.104	1.118	1.113	1.113
-0.010	0.005	0.000	-0.005	-0.005	-0.005	0.029	1.777	1.104	1.099	1.099	1.118	1.113	1.113
-0.005	-0.010	0.000	0.000	-0.015	0.000	0.029	1.768	1.104	1.099	1.099	1.118	1.113	1.118
-0.005	-0.005	-0.005	-0.005	-0.034	0.005	0.029	1.787	1.108	1.099	1.099	1.113	1.108	1.113
-0.010	0.000	-0.005	-0.005	-0.020	0.000	0.029	1.787	1.104	1.104	1.099	1.118	1.113	1.113
-0.005	0.000	-0.005	-0.005	-0.015	0.010	0.029	1.782	1.104	1.104	1.099	1.113	1.108	1.118
0.005	0.005	-0.005	-0.005	-0.020	0.024	0.029	1.772	1.108	1.104	1.104	1.118	1.113	1.113
0.000	0.000	0.000	-0.005	0.010	0.020	0.029	1.748	1.104	1.104	1.099	1.118	1.123	1.118
0.005	0.015	-0.005	-0.005	0.054	0.015	0.029	1.772	1.108	1.108	1.104	1.118	1.128	1.118
0.000	0.039	-0.005	-0.005	0.044	0.005	0.029	1.807	1.104	1.113	1.108	1.123	1.123	1.118
-0.005	0.024	-0.005	0.000	0.015	0.005	0.029	1.768	1.104	1.104	1.104	1.123	1.113	1.113
-0.005	0.005	-0.005	-0.005	0.020	0.000	0.029	1.768	1.104	1.099	1.104	1.118	1.118	1.113
-0.015	0.010	-0.005	0.005	0.005	0.005	0.029	1.763	1.099	1.099	1.104	1.123	1.113	1.113
-0.005	0.005	0.000	0.000	0.005	0.000	0.029	1.797	1.104	1.099	1.099	1.118	1.113	1.113
0.005	0.005	0.000	0.000	-0.005	0.000	0.029	1.772	1.108	1.104	1.099	1.123	1.113	1.113
0.000	0.005	0.000	0.005	0.000	-0.005	0.029	1.758	1.104	1.104	1.104	1.123	1.113	1.108
-0.005	-0.029	0.005	0.000	-0.005	-0.010	0.029	1.812	1.108	1.094	1.099	1.118	1.113	1.108
0.000	-0.034	0.000	0.010	-0.005	0.000	0.029	1.797	1.108	1.094	1.099	1.118	1.113	1.118
0.000	-0.024	0.000	0.005	-0.005	-0.015	0.029	1.787	1.113	1.104	1.099	1.123	1.113	1.108
-0.010	-0.005	0.005	0.005	-0.005	-0.005	0.029	1.772	1.108	1.108	1.104	1.118	1.113	1.113
0.000	0.000	0.005	0.000	-0.010	0.000	0.029	1.797	1.113	1.108	1.104	1.118	1.113	1.113
0.005	0.005	0.000	0.005	-0.010	-0.010	0.029	1.768	1.108	1.113	1.108	1.118	1.113	1.113
0.005	-0.015	-0.005	0.005	-0.010	0.000	0.029	1.753	1.108	1.104	1.104	1.123	1.113	1.113
0.000	-0.024	-0.005	0.005	0.000	-0.010	0.029	1.797	1.108	1.099	1.104	1.123	1.118	1.113
0.005	-0.010	0.000	0.000	0.000	0.005	0.029	1.763	1.108	1.108	1.104	1.118	1.118	1.118
0.005	-0.005	-0.005	-0.005	0.015	-0.005	0.029	1.787	1.104	1.108	1.104	1.118	1.123	1.113
0.000	0.010	0.000	-0.010	0.024	-0.005	0.029	1.782	1.104	1.113	1.104	1.118	1.123	1.118
-0.015	-0.010	0.000	-0.015	0.039	0.000	0.029	1.753	1.094	1.104	1.104	1.118	1.123	1.118
-0.005	-0.005	0.000	-0.010	-0.005	-0.005	0.029	1.802	1.108	1.104	1.104	1.118	1.108	1.113
0.005	-0.005	0.005	-0.005	-0.034	-0.010	0.029	1.782	1.108	1.104	1.104	1.118	1.104	1.108
0.000	0.015	-0.005	-0.010	-0.034	-0.020	0.029	1.792	1.108	1.113	1.104	1.118	1.104	1.108
0.005	0.010	0.000	-0.005	-0.029	-0.029	0.029	1.797	1.108	1.108	1.108	1.123	1.108	1.104
0.005	0.010	0.000	-0.005	-0.039	-0.029	0.029	1.787	1.108	1.104	1.108	1.123	1.108	1.108
0.000	0.000	0.000	0.000	-0.034	-0.005	0.029	1.802	1.108	1.104	1.104	1.128	1.118	1.113
-0.005	-0.005	0.000	0.005	-0.020	0.000	0.029	1.748	1.104	1.104	1.104	1.128	1.123	1.118
0.000	-0.010	0.000	0.000	0.000	0.000	0.029	1.743	1.099	1.099	1.104	1.123	1.128	1.123
0.000	-0.005	0.000	0.005	0.015	0.034	0.029	1.719	1.094	1.099	1.104	1.123	1.128	1.133
0.000	-0.010	0.000	0.000	-0.005	0.029	0.029	1.777	1.099	1.099	1.099	1.123	1.123	1.123
-0.005	-0.010	0.000	0.005	0.044	0.015	0.029	1.709	1.094	1.099	1.099	1.123	1.133	1.128
-0.005	-0.005	0.000	0.000	0.054	-0.005	0.029	1.772	1.094	1.099	1.099	1.118	1.128	1.123
0.000	-0.005	-0.010	0.000	0.034	0.015	0.029	1.797	1.104	1.094	1.099	1.118	1.118	1.123
0.000	-0.005	0.000	-0.005	0.020	-0.005	0.029	1.777	1.104	1.099	1.094	1.113	1.113	1.118
0.000	-0.005	-0.005	-0.010	0.005	0.000	0.029	1.729	1.099	1.099	1.094	1.113	1.108	1.108
0.005	0.000	-0.005	-0.005	-0.005	-0.005	0.029	1.792	1.104	1.099	1.099	1.113	1.104	1.108
0.005	-0.005	-0.005	0.005	-0.010	0.000	0.029	1.782	1.104	1.099	1.099	1.118	1.104	1.108
0.000	0.000	0.000	0.005	-0.005	0.005	0.034	1.792	1.108	1.099	1.099	1.118	1.108	1.113
0.005	0.005	-0.005	0.015	-0.005	0.000	0.029	1.777	1.108	1.104	1.099	1.123	1.108	1.108
-0.005	0.000	-0.005	0.015	-0.005	-0.015	0.029	1.704	1.099	1.104	1.099	1.118	1.113	1.108
0.000	0.000	0.000	0.010	-0.005	-0.010	0.029	1.797	1.099	1.099	1.104	1.118	1.113	1.108
-0.005	-0.010	0.000	0.000	-0.010	-0.005	0.029	1.792	1.099	1.099	1.099	1.113	1.113	1.108
-0.010	0.015	-0.005	-0.005	-0.005	-0.005	0.029	1.763	1.108	1.104	1.099	1.118	1.113	1.113
-0.010	0.010	0.000	-0.005	0.000	0.015	0.029	1.797	1.108	1.104	1.104	1.118	1.113	1.118
0.000	0.015	0.000	-0.005	0.000	0.000	0.029	1.792	1.113	1.108	1.104	1.118	1.113	1.113
0.000	0.000	0.005	-0.005	0.005	0.000	0.029	1.787	1.108	1.104	1.104	1.118	1.118	1.113
-0.010	-0.005	0.000	-0.005	0.000	0.010	0.029	1.787	1.104	1.104	1.104	1.118	1.113	1.118
-0.010	-0.015	0.000	-0.005	-0.005	0.000	0.029	1.792	1.104	1.099	1.099	1.123	1.113	1.113
-0.005	-0.024	0.000	0.000	0.000	-0.010	0.029	1.748	1.104	1.099	1.099	1.123	1.113	1.108
-0.005	0.005	0.000	0.000	-0.005	-0.039	0.029	1.782	1.104	1.108	1.099	1.118	1.113	1.104
-0.005	-0.010	-0.005	-0.005	0.005	-0.010	0.029	1.758	1.099	1.099	1.099	1.118	1.118	1.108
-0.010	-0.015	0.000	0.000	-0.010	-0.029	0.029	1.768	1.099	1.099	1.099	1.118	1.113	1.108
0.000	-0.005	0.000	0.000	-0.015	-0.005	0.029	1.782	1.104	1.099	1.099	1.118	1.113	1.113
-0.005	-0.005	-0.005	0.005	0.000	0.000	0.029	1.792	1.099	1.099	1.099	1.118	1.118	1.118
0.000	0.020	0.000	0.000	-0.010	-0.005	0.029	1.802	1.104	1.108	1.104	1.118	1.113	1.113
0.000	0.010	0.000	0.005	-0.005	-0.010	0.029	1.753	1.108	1.108	1.099	1.118	1.118	1.113
0.000	0.015	0.000	0.015	-0.005	-0.015	0.029	1.797	1.113	1.108	1.104	1.123	1.118	1.108
0.020	0.015	-0.005	0.010	-0.005	0.000	0.029	1.724	1.108	1.108	1.104	1.118	1.118	1.118
0.010	0.015	-0.005	0.005	-0.005	0.005	0.029	1.782	1.104	1.108	1.104	1.123	1.118	1.118
0.005	0.039	-0.005	0.000	0.000	0.010	0.029	1.782	1.108	1.118	1.108	1.123	1.118	1.123
0.005	0.020	-0.005	-0.010	0.005	0.005	0.029	1.782	1.108	1.104	1.108	1.118	1.118	1.123
-0.005	-0.010	0.000	-0.015	0.005	0.010	0.029	1.748	1.104	1.094	1.104	1.118	1.118	1.118
-0.005	-0.024	-0.005	-0.015	0.000	-0.005	0.029	1.772	1.099	1.094	1.099	1.118	1.113	1.113
-0.010	-0.010	-0.005	-0.015	0.000	0.005	0.029	1.782	1.108	1.099	1.099	1.118	1.113	1.118
-0.005	-0.005	0.000	-0.015	0.000	0.000	0.029	1.797	1.104	1.104	1.099	1.118	1.113	1.113
0.005	-0.005	-0.005	-0.005	-0.005	0.005	0.029	1.768	1.104	1.099	1.099	1.118	1.113	1.113
0.005	-0.010	-0.005	0.000	0.005	0.010	0.029	1.787	1.104	1.104	1.099	1.118	1.118	1.113
0.000	-0.005	0.000	-0.005	0.015	0.005	0.029	1.733	1.104	1.099	1.104	1.123	1.118	1.113
0.005	-0.005	-0.005	-0.005	0.000	-0.024	0.029	1.763	1.104	1.099	1.099	1.118	1.113	1.108
0.000	-0.015	0.000	-0.005	-0.005	0.000	0.034	1.768	1.099	1.099	1.099	1.118	1.108	1.113
-0.005	0.000	-0.005	-0.005	-0.005	-0.015	0.029	1.782	1.104	1.104	1.099	1.118	1.108	1.108
0.000	-0.010	-0.005	0.000	0.000	0.005	0.029	1.787	1.108	1.099	1.099	1.118	1.113	1.118
0.000	-0.005	-0.005	0.000	-0.005	-0.010	0.029	1.787	1.108	1.104	1.099	1.123	1.113	1.113
-0.015	-0.005	0.000	0.005	-0.005	0.000	0.029	1.753	1.104	1.104	1.104	1.123	1.113	1.113
0.000	-0.010	0.000	0.010	-0.005	0.010	0.029	1.782	1.108	1.099	1.104	1.123	1.113	1.118
-0.005	-0.010	0.000	0.005	-0.005	0.000	0.029	1.743	1.104	1.104	1.099	1.118	1.118	1.113
-0.005	-0.010	0.000	0.005	-0.005	0.010	0.029	1.768	1.104	1.104	1.104	1.118	1.118	1.118
-0.029	0.010	-0.005	0.005	0.000	-0.010	0.029	1.782	1.099	1.104	1.104	1.118	1.118	1.113
-0.020	0.000	-0.005	0.010	0.005	0.005	0.029	1.724	1.094	1.099	1.104	1.118	1.118	1.118
-0.005	0.000	-0.005	0.005	0.000	0.005	0.029	1.782	1.104	1.099	1.099	1.118	1.113	1.113
0.034	0.000	-0.005	0.000	0.005	0.000	0.034	1.782	1.113	1.108	1.104	1.118	1.113	1.113
0.059	0.000	-0.005	-0.005	0.000	-0.010	0.029	1.748	1.118	1.108	1.104	1.118	1.113	1.113
0.044	0.010	-0.005	-0.005	-0.005	0.000	0.029	1.797	1.113	1.113	1.104	1.123	1.113	1.113
0.034	0.044	-0.005	-0.005	0.015	-0.024	0.029	1.763	1.113	1.118	1.108	1.123	1.118	1.108
0.024	0.015	-0.005	-0.005	0.005	-0.005	0.029	1.772	1.104	1.108	1.108	1.123	1.113	1.113
0.000	0.005	-0.005	0.000	0.000	0.010	0.029	1.802	1.099	1.099	1.104	1.123	1.113	1.118
-0.010	-0.010	-0.005	0.000	-0.010	0.005	0.029	1.797	1.099	1.094	1.099	1.123	1.113	1.113
-0.020	0.000	-0.005	0.000	-0.005	0.000	0.029	1.782	1.094	1.099	1.099	1.118	1.118	1.113
-0.020	-0.005	-0.005	0.000	0.005	-0.015	0.029	1.792	1.099	1.099	1.099	1.118	1.118	1.108
-0.020	-0.005	-0.005	0.000	0.000	0.005	0.029	1.733	1.104	1.099	1.099	1.118	1.118	1.118
-0.020	-0.005	-0.005	-0.005	0.000	-0.005	0.029	1.792	1.104	1.094	1.099	1.118	1.113	1.108
-0.015	-0.005	0.000	-0.005	0.005	0.000	0.029	1.812	1.108	1.099	1.099	1.118	1.118	1.118
-0.010	0.000	-0.005	-0.005	0.010	-0.010	0.029	1.714	1.094	1.104	1.099	1.118	1.113	1.113
-0.005	0.010	0.000	-0.005	-0.015	-0.005	0.029	1.777	1.099	1.104	1.104	1.118	1.108	1.113
-0.005	-0.020	-0.005	0.000	-0.005	0.005	0.029	1.792	1.099	1.094	1.099	1.118	1.113	1.113
-0.005	-0.034	0.000	0.000	-0.020	-0.015	0.029	1.758	1.099	1.094	1.094	1.118	1.108	1.108
-0.010	-0.029	0.000	0.000	-0.020	-0.020	0.029	1.812	1.104	1.094	1.094	1.113	1.108	1.104
0.000	-0.005	0.000	0.000	-0.029	-0.005	0.029	1.787	1.108	1.104	1.099	1.113	1.108	1.113
0.005	-0.010	0.000	0.000	-0.034	-0.005	0.029	1.743	1.104	1.104	1.099	1.113	1.108	1.108
0.000	0.010	0.000	0.000	-0.015	0.000	0.029	1.787	1.104	1.108	1.099	1.118	1.113	1.113
0.005	0.015	0.000	-0.005	-0.049	-0.010	0.034	1.797	1.108	1.108	1.104	1.118	1.104	1.108
0.000	0.000	-0.005	-0.005	-0.063	0.010	0.029	1.758	1.104	1.104	1.099	1.113	1.104	1.108
-0.005	-0.010	0.000	-0.005	-0.068	0.010	0.034	1.797	1.104	1.094	1.099	1.118	1.104	1.108
0.000	0.010	-0.005	0.000	-0.020	0.005	0.029	1.777	1.104	1.108	1.104	1.118	1.123	1.108
0.005	0.015	0.000	0.005	0.034	0.024	0.029	1.753	1.104	1.104	1.104	1.123	1.138	1.123
0.010	0.005	-0.005	0.010	0.049	0.010	0.029	1.729	1.104	1.104	1.104	1.123	1.133	1.128
0.005	0.000	0.005	0.005	0.083	0.005	0.029	1.758	1.104	1.104	1.104	1.123	1.143	1.128
0.005	-0.005	0.000	0.005	0.176	0.020	0.029	1.782	1.104	1.099	1.104	1.123	1.157	1.143
0.005	0.000	0.000	0.005	0.142	0.000	0.029	1.802	1.108	1.104	1.104	1.123	1.138	1.133
0.000	0.020	-0.005	0.000	0.093	0.000	0.029	1.768	1.108	1.108	1.104	1.123	1.118	1.128
0.005	0.015	0.000	-0.005	0.029	0.005	0.029	1.802	1.113	1.108	1.104	1.118	1.099	1.118
0.005	0.015	-0.005	-0.005	-0.020	0.000	0.029	1.787	1.113	1.108	1.104	1.118	1.094	1.108
0.000	0.000	0.005	0.000	-0.034	0.005	0.029	1.782	1.108	1.104	1.104	1.118	1.094	1.108
0.000	-0.005	-0.005	0.005	-0.039	0.005	0.029	1.758	1.104	1.104	1.104	1.118	1.099	1.104
-0.005	0.000	-0.005	-0.005	-0.073	0.010	0.029	1.797	1.104	1.104	1.104	1.118	1.094	1.104
-0.010	0.000	0.000	0.005	-0.088	0.000	0.029	1.748	1.099	1.099	1.099	1.123	1.094	1.094
-0.005	0.005	-0.005	0.005	-0.073	0.000	0.034	1.787	1.104	1.099	1.099	1.118	1.104	1.099
-0.005	-0.029	-0.005	0.005	-0.044	0.000	0.029	1.714	1.094	1.094	1.094	1.118	1.118	1.104
-0.010	-0.015	0.000	0.005	-0.005	0.010	0.029	1.753	1.094	1.099	1.099	1.118	1.128	1.113
-0.005	0.005	0.000	0.000	0.000	0.015	0.029	1.748	1.099	1.104	1.099	1.118	1.123	1.118
0.005	0.010	0.000	-0.005	0.005	0.010	0.029	1.792	1.108	1.104	1.099	1.113	1.118	1.113
-0.005	0.000	-0.005	0.000	-0.039	-0.015	0.034	1.792	1.104	1.099	1.099	1.118	1.104	1.104
0.000	0.000	0.005	0.000	-0.054	-0.024	0.029	1.792	1.104	1.104	1.099	1.118	1.104	1.099
0.000	0.005	0.005	0.005	-0.044	-0.005	0.029	1.787	1.104	1.104	1.104	1.118	1.108	1.108
-0.010	0.010	0.000	0.005	-0.044	-0.029	0.029	1.758	1.099	1.104	1.099	1.118	1.108	1.104
0.005	-0.005	0.000	-0.005	-0.029	-0.034	0.029	1.797	1.104	1.099	1.099	1.118	1.113	1.104
0.000	-0.010	0.000	-0.005	-0.039	-0.024	0.029	1.777	1.094	1.099	1.099	1.118	1.113	1.108
-0.005	-0.010	0.000	-0.005	-0.049	-0.010	0.029	1.777	1.104	1.099	1.099	1.118	1.108	1.113
0.000	0.010	0.005	-0.010	-0.020	-0.020	0.029	1.782	1.108	1.108	1.104	1.118	1.118	1.113
-0.005	-0.010	0.000	-0.010	0.000	-0.020	0.029	1.777	1.104	1.104	1.099	1.118	1.123	1.118
-0.005	-0.010	0.000	-0.010	0.000	-0.020	0.029	1.748	1.099	1.099	1.099	1.118	1.118	1.113
-0.005	0.000	-0.005	-0.005	0.020	-0.024	0.029	1.787	1.104	1.104	1.099	1.118	1.128	1.118
-0.010	-0.015	0.005	0.005	0.220	-0.010	0.029	1.792	1.108	1.099	1.104	1.128	1.177	1.143
0.000	-0.005	0.000	-0.010	0.225	0.000	0.029	1.777	1.108	1.104	1.099	1.123	1.157	1.147
0.000	-0.005	0.000	-0.005	0.122	0.005	0.029	1.797	1.108	1.104	1.099	1.118	1.118	1.138
-0.005	-0.005	0.000	-0.005	0.049	0.000	0.029	1.748	1.108	1.108	1.099	1.118	1.099	1.128
-0.054	0.000	-0.005	-0.005	0.015	0.000	0.029	1.802	1.094	1.099	1.099	1.113	1.094	1.113
-0.054	0.015	0.000	0.000	-0.005	-0.010	0.029	1.709	1.094	1.104	1.099	1.113	1.094	1.108
-0.054	0.015	0.000	-0.005	-0.029	0.010	0.029	1.777	1.094	1.099	1.099	1.118	1.094	1.104
-0.005	0.005	0.000	-0.005	-0.010	0.005	0.029	1.782	1.113	1.104	1.104	1.118	1.104	1.108
0.044	0.000	-0.005	0.005	0.005	-0.005	0.029	1.753	1.128	1.108	1.104	1.118	1.108	1.104
0.059	-0.005	-0.005	-0.005	0.000	0.010	0.029	1.763	1.123	1.108	1.104	1.118	1.108	1.108
0.073	-0.005	0.000	-0.005	-0.010	0.005	0.029	1.792	1.123	1.113	1.108	1.123	1.108	1.108
0.059	-0.010	-0.005	0.005	-0.005	-0.005	0.029	1.753	1.113	1.113	1.108	1.123	1.113	1.108
0.029	0.005	-0.005	0.005	-0.005	-0.005	0.029	1.782	1.104	1.113	1.108	1.123	1.113	1.108
-0.005	-0.010	0.000	0.000	0.000	0.000	0.029	1.782	1.094	1.104	1.108	1.123	1.118	1.113
-0.020	-0.010	-0.005	-0.005	0.000	0.005	0.029	1.772	1.094	1.099	1.104	1.123	1.118	1.113
-0.034	-0.010	0.000	-0.010	-0.005	-0.005	0.029	1.782	1.094	1.094	1.099	1.118	1.113	1.108
-0.034	-0.010	-0.005	0.000	-0.005	-0.015	0.029	1.763	1.089	1.094	1.099	1.123	1.118	1.113
-0.024	0.000	-0.005	-0.005	0.000	0.010	0.029	1.772	1.094	1.094	1.099	1.118	1.113	1.118
-0.029	0.000	0.000	-0.010	-0.005	0.000	0.029	1.777	1.099	1.094	1.099	1.118	1.113	1.113
-0.020	0.005	-0.005	0.000	-0.005	0.000	0.029	1.714	1.099	1.099	1.094	1.118	1.113	1.108
-0.015	-0.005	0.000	0.005	-0.010	0.000	0.029	1.758	1.104	1.094	1.094	1.118	1.113	1.113
-0.010	0.000	-0.005	0.005	-0.015	0.000	0.029	1.724	1.099	1.099	1.094	1.113	1.108	1.113
-0.005	0.000	0.000	0.000	-0.015	-0.005	0.029	1.792	1.104	1.099	1.099	1.113	1.108	1.113
-0.010	-0.010	0.000	0.005	-0.020	0.000	0.029	1.777	1.104	1.099	1.099	1.113	1.108	1.108
-0.005	-0.005	0.000	0.000	-0.015	0.000	0.029	1.792	1.108	1.099	1.099	1.113	1.108	1.108
0.000	-0.005	-0.005	0.000	-0.024	0.010	0.029	1.753	1.104	1.104	1.099	1.113	1.108	1.113
0.000	0.005	0.005	0.000	-0.020	0.010	0.029	1.758	1.104	1.108	1.104	1.118	1.113	1.113
-0.005	-0.005	0.005	0.000	-0.020	0.005	0.029	1.738	1.099	1.099	1.104	1.118	1.113	1.108
0.000	-0.010	0.005	-0.005	-0.020	-0.005	0.029	1.772	1.104	1.099	1.099	1.118	1.108	1.108
0.005	-0.010	-0.005	-0.005	-0.015	0.010	0.029	1.748	1.099	1.099	1.099	1.113	1.113	1.113
0.005	0.005	-0.005	-0.005	-0.024	0.010	0.029	1.753	1.099	1.104	1.099	1.113	1.108	1.113
0.015	0.000	-0.005	-0.005	-0.024	0.005	0.029	1.797	1.108	1.104	1.099	1.113	1.113	1.108
0.010	-0.005	-0.010	-0.005	-0.020	0.005	0.029	1.777	1.104	1.099	1.099	1.118	1.113	1.108
0.005	-0.010	-0.005	-0.005	-0.020	0.000	0.029	1.758	1.099	1.099	1.094	1.113	1.113	1.108
0.015	-0.015	-0.005	0.000	-0.020	0.000	0.029	1.709	1.089	1.099	1.094	1.113	1.113	1.108
0.010	-0.005	-0.005	0.000	-0.010	-0.005	0.029	1.753	1.094	1.099	1.099	1.113	1.113	1.108
-0.005	0.000	0.000	0.000	-0.015	0.000	0.029	1.777	1.099	1.094	1.099	1.118	1.113	1.113
0.005	0.005	0.000	0.000	-0.010	-0.005	0.029	1.758	1.094	1.099	1.099	1.118	1.113	1.108
0.005	0.000	-0.005	0.000	-0.015	0.000	0.029	1.802	1.104	1.094	1.094	1.118	1.113	1.108
-0.005	0.000	-0.005	0.000	-0.010	-0.005	0.029	1.797	1.104	1.099	1.094	1.113	1.113	1.108
0.000	0.020	-0.005	0.000	-0.005	-0.005	0.029	1.802	1.108	1.104	1.099	1.118	1.113	1.113
0.000	0.015	0.000	0.000	-0.005	0.010	0.029	1.792	1.108	1.104	1.099	1.118	1.113	1.118
-0.005	0.015	0.000	0.005	-0.005	0.005	0.029	1.768	1.104	1.104	1.099	1.118	1.118	1.113
-0.005	0.000	0.000	0.000	0.000	0.000	0.034	1.772	1.099	1.099	1.099	1.118	1.113	1.113
-0.010	0.000	0.000	0.000	0.000	0.000	0.029	1.733	1.099	1.099	1.099	1.118	1.113	1.113
0.005	0.000	0.000	0.000	0.000	0.005	0.029	1.797	1.104	1.099	1.099	1.118	1.118	1.118
-0.020	-0.005	-0.005	0.000	0.010	0.005	0.029	1.753	1.094	1.094	1.099	1.118	1.118	1.113
-0.010	-0.010	0.000	-0.005	0.000	-0.010	0.029	1.792	1.104	1.094	1.099	1.113	1.113	1.108
0.005	-0.020	-0.005	0.000	0.000	-0.010	0.029	1.797	1.108	1.094	1.094	1.113	1.113	1.108
-0.005	-0.010	-0.005	-0.005	0.015	0.005	0.029	1.787	1.108	1.099	1.094	1.113	1.113	1.113
0.005	-0.020	0.000	-0.005	0.005	-0.005	0.029	1.758	1.108	1.099	1.099	1.113	1.113	1.108
0.005	0.010	-0.005	-0.005	0.005	0.000	0.029	1.748	1.108	1.108	1.099	1.113	1.108	1.108
0.000	0.010	0.005	0.005	-0.005	-0.005	0.029	1.792	1.108	1.108	1.104	1.118	1.108	1.108
-0.005	0.005	0.000	0.000	0.000	-0.005	0.029	1.777	1.104	1.104	1.099	1.118	1.108	1.108
0.000	0.000	-0.005	0.000	0.005	-0.020	0.029	1.753	1.104	1.104	1.099	1.118	1.113	1.104
0.005	0.000	-0.010	0.000	0.010	-0.005	0.029	1.777	1.104	1.104	1.099	1.118	1.113	1.113
0.005	0.000	0.000	0.000	0.010	0.000	0.029	1.782	1.104	1.104	1.104	1.118	1.113	1.113
0.010	0.005	-0.005	0.005	0.000	0.010	0.029	1.787	1.108	1.104	1.104	1.123	1.113	1.113
0.010	0.005	-0.005	0.000	0.000	0.000	0.029	1.797	1.108	1.104	1.104	1.118	1.113	1.113
-0.044	0.000	-0.005	0.000	0.000	-0.020	0.029	1.792	1.094	1.099	1.104	1.118	1.113	1.108
-0.049	0.000	0.000	0.000	0.000	0.005	0.029	1.782	1.099	1.099	1.099	1.123	1.113	1.113
-0.063	0.005	-0.005	0.000	0.010	0.005	0.029	1.763	1.094	1.094	1.099	1.118	1.118	1.118
-0.034	-0.010	0.000	-0.005	0.005	0.005	0.029	1.797	1.104	1.094	1.099	1.118	1.113	1.118
0.020	-0.010	0.000	0.000	0.010	0.000	0.029	1.802	1.123	1.104	1.104	1.118	1.113	1.118
0.068	-0.005	-0.005	0.000	0.005	0.005	0.029	1.777	1.133	1.113	1.104	1.118	1.113	1.113
0.083	0.000	-0.005	-0.010	0.005	0.010	0.029	1.772	1.128	1.118	1.104	1.118	1.113	1.113
0.073	0.000	-0.005	0.000	0.005	-0.005	0.029	1.753	1.118	1.113	1.108	1.118	1.113	1.108
0.054	-0.010	0.005	-0.005	-0.015	0.005	0.029	1.704	1.099	1.108	1.108	1.123	1.108	1.113
0.024	0.000	0.005	-0.005	-0.010	0.005	0.029	1.802	1.099	1.108	1.108	1.123	1.113	1.113
0.000	0.005	0.000	-0.005	0.010	0.005	0.029	1.772	1.089	1.104	1.108	1.123	1.118	1.113
-0.015	0.000	0.000	0.000	0.020	-0.010	0.029	1.733	1.084	1.094	1.104	1.123	1.123	1.113
-0.034	0.005	0.005	0.015	0.005	0.000	0.029	1.797	1.089	1.094	1.104	1.128	1.118	1.113
-0.044	-0.010	0.000	0.015	-0.010	-0.005	0.029	1.768	1.094	1.089	1.094	1.123	1.118	1.113
-0.049	-0.010	-0.005	0.010	-0.010	-0.005	0.029	1.733	1.094	1.089	1.094	1.118	1.113	1.113
-0.044	-0.010	-0.005	0.005	-0.015	-0.020	0.029	1.792	1.099	1.094	1.094	1.113	1.113	1.108
-0.034	-0.010	0.000	0.005	-0.020	-0.005	0.029	1.768	1.108	1.099	1.094	1.113	1.113	1.113
-0.029	-0.020	-0.005	0.000	-0.020	-0.005	0.029	1.787	1.113	1.099	1.094	1.113	1.108	1.113
-0.020	-0.005	0.000	-0.005	-0.010	0.005	0.029	1.772	1.113	1.108	1.099	1.113	1.113	1.113
-0.020	0.005	0.000	-0.010	-0.005	-0.005	0.029	1.763	1.108	1.108	1.099	1.113	1.108	1.113
-0.015	-0.010	0.005	-0.010	0.005	0.005	0.029	1.782	1.113	1.099	1.099	1.118	1.113	1.113
0.005	-0.010	0.000	0.000	0.000	0.005	0.029	1.772	1.118	1.108	1.104	1.118	1.113	1.113
0.010	-0.010	-0.005	0.010	0.005	0.005	0.034	1.753	1.108	1.113	1.104	1.118	1.118	1.113
0.005	0.000	-0.005	0.000	0.024	-0.010	0.029	1.797	1.104	1.108	1.108	1.123	1.118	1.108
-0.005	-0.015	-0.005	-0.005	0.029	0.000	0.029	1.792	1.104	1.104	1.104	1.118	1.118	1.113
-0.005	-0.005	-0.005	-0.020	0.015	-0.005	0.029	1.782	1.108	1.104	1.104	1.113	1.113	1.113
0.015	0.010	-0.010	-0.029	0.010	0.020	0.029	1.733	1.104	1.113	1.104	1.113	1.113	1.118
0.015	0.020	0.000	-0.029	0.000	-0.010	0.029	1.777	1.104	1.113	1.108	1.118	1.108	1.108
0.015	0.015	0.000	-0.015	-0.010	0.015	0.029	1.763	1.104	1.108	1.108	1.123	1.108	1.113
0.005	0.010	-0.005	-0.005	-0.020	0.005	0.029	1.763	1.108	1.108	1.108	1.123	1.108	1.108
0.005	0.010	0.000	-0.005	-0.029	0.005	0.034	1.797	1.113	1.104	1.104	1.128	1.108	1.108
0.010	0.005	0.000	0.005	-0.029	0.000	0.029	1.792	1.108	1.104	1.108	1.128	1.113	1.108
0.010	0.015	0.000	0.010	-0.015	-0.010	0.029	1.792	1.113	1.108	1.108	1.128	1.118	1.108
0.015	0.015	-0.005	0.005	0.010	-0.015	0.029	1.797	1.113	1.104	1.104	1.128	1.128	1.113
0.010	-0.005	0.000	0.005	0.020	-0.010	0.029	1.758	1.108	1.104	1.104	1.128	1.128	1.118
0.015	-0.005	-0.005	0.005	0.020	-0.015	0.029	1.738	1.104	1.099	1.104	1.123	1.128	1.118
-0.005	0.000	0.000	0.000	0.024	0.000	0.029	1.787	1.104	1.104	1.104	1.123	1.128	1.123
-0.005	-0.005	0.005	0.005	0.024	-0.029	0.029	1.816	1.108	1.104	1.104	1.123	1.123	1.118
0.000	-0.015	0.000	0.000	0.015	-0.005	0.029	1.699	1.104	1.099	1.099	1.118	1.118	1.123
0.000	-0.005	-0.005	0.000	0.015	0.010	0.029	1.777	1.104	1.099	1.104	1.118	1.118	1.128
0.010	-0.010	-0.005	0.000	-0.010	0.005	0.029	1.797	1.104	1.099	1.099	1.118	1.108	1.118
-0.005	-0.005	0.000	0.000	-0.005	0.010	0.029	1.782	1.099	1.099	1.099	1.118	1.113	1.118
0.005	0.000	-0.005	0.005	-0.010	0.005	0.029	1.753	1.108	1.104	1.099	1.118	1.113	1.113
0.000	-0.005	-0.005	-0.005	0.000	-0.010	0.029	1.772	1.108	1.099	1.099	1.118	1.113	1.113
-0.005	-0.015	0.000	0.000	0.000	-0.024	0.029	1.748	1.099	1.099	1.099	1.118	1.113	1.104
-0.010	-0.005	0.000	0.000	0.020	-0.005	0.029	1.777	1.099	1.104	1.099	1.118	1.123	1.118
-0.005	-0.005	0.000	0.000	0.029	-0.015	0.029	1.768	1.104	1.104	1.099	1.118	1.118	1.118
0.000	0.000	0.000	0.005	0.015	-0.005	0.029	1.797	1.108	1.104	1.104	1.118	1.113	1.118
0.015	0.000	0.000	0.005	0.000	-0.005	0.029	1.753	1.113	1.104	1.104	1.123	1.113	1.113
0.005	0.005	0.000	-0.005	0.000	-0.005	0.029	1.758	1.108	1.108	1.104	1.118	1.113	1.113
0.015	-0.010	0.000	0.000	-0.015	-0.005	0.029	1.763	1.104	1.104	1.104	1.118	1.108	1.113
0.000	-0.005	-0.005	-0.005	-0.020	-0.015	0.029	1.782	1.104	1.104	1.104	1.118	1.108	1.108
0.000	0.005	-0.005	-0.005	-0.029	0.005	0.029	1.748	1.099	1.104	1.104	1.118	1.108	1.113
0.000	0.000	0.005	-0.005	0.000	0.010	0.029	1.802	1.104	1.104	1.104	1.118	1.118	1.118
-0.005	0.000	0.000	-0.005	-0.005	0.005	0.029	1.777	1.104	1.104	1.104	1.123	1.113	1.113
-0.015	0.000	0.000	0.000	-0.005	-0.010	0.029	1.782	1.099	1.099	1.099	1.118	1.113	1.113
-0.020	-0.010	-0.005	0.000	-0.015	0.020	0.029	1.782	1.099	1.099	1.099	1.118	1.113	1.118
-0.020	-0.015	-0.005	0.000	-0.010	-0.005	0.029	1.772	1.104	1.094	1.094	1.118	1.113	1.113
-0.015	-0.015	0.000	0.005	0.000	0.015	0.029	1.772	1.104	1.099	1.099	1.118	1.118	1.118
-0.010	-0.010	-0.005	0.000	0.005	0.005	0.029	1.777	1.104	1.099	1.099	1.118	1.118	1.113
-0.015	-0.010	0.000	0.010	0.005	0.000	0.029	1.802	1.108	1.104	1.099	1.118	1.113	1.113
-0.005	-0.015	0.000	0.005	0.000	-0.005	0.029	1.743	1.108	1.104	1.099	1.118	1.113	1.108
0.000	-0.005	0.000	0.000	-0.005	-0.010	0.034	1.758	1.108	1.108	1.104	1.113	1.113	1.108
0.010	-0.005	-0.005	-0.010	0.000	-0.015	0.029	1.772	1.108	1.108	1.104	1.118	1.113	1.108
0.005	0.000	-0.005	0.000	0.005	-0.024	0.034	1.763	1.104	1.108	1.104	1.118	1.113	1.108
0.000	0.000	0.000	-0.005	-0.005	-0.024	0.029	1.743	1.099	1.104	1.104	1.118	1.113	1.108
-0.005	0.000	0.000	-0.005	-0.005	0.010	0.029	1.797	1.108	1.108	1.104	1.118	1.113	1.118
-0.010	-0.005	0.000	-0.005	-0.010	0.010	0.029	1.797	1.104	1.104	1.104	1.123	1.113	1.118
0.005	-0.005	0.000	-0.005	0.000	0.005	0.029	1.738	1.104	1.104	1.104	1.123	1.118	1.113
0.000	-0.010	0.000	-0.005	0.010	0.005	0.029	1.772	1.104	1.104	1.104	1.123	1.123	1.118
-0.005	0.015	0.000	0.000	0.005	-0.005	0.029	1.797	1.108	1.108	1.104	1.123	1.118	1.113
-0.005	0.039	0.000	0.000	-0.005	0.005	0.029	1.816	1.108	1.118	1.108	1.128	1.118	1.118
0.005	0.015	-0.005	0.000	-0.010	0.000	0.029	1.777	1.113	1.104	1.104	1.123	1.113	1.113
0.000	-0.039	-0.005	-0.005	0.005	-0.005	0.029	1.753	1.108	1.094	1.099	1.123	1.118	1.113
0.015	-0.049	0.000	0.010	0.010	-0.010	0.029	1.777	1.108	1.094	1.099	1.123	1.118	1.113
-0.024	-0.015	0.000	0.000	-0.005	0.000	0.029	1.812	1.099	1.104	1.099	1.118	1.113	1.118
-0.015	-0.005	0.000	-0.005	-0.015	-0.020	0.029	1.763	1.099	1.104	1.099	1.118	1.108	1.108
-0.010	-0.005	0.005	-0.005	-0.005	0.005	0.029	1.748	1.104	1.104	1.104	1.118	1.118	1.118
0.015	-0.005	0.000	0.000	-0.010	-0.010	0.029	1.729	1.104	1.104	1.099	1.123	1.113	1.113
0.029	0.010	0.005	0.000	-0.010	0.000	0.029	1.724	1.099	1.104	1.104	1.118	1.113	1.113
0.024	0.015	-0.005	0.000	0.005	-0.015	0.029	1.782	1.099	1.104	1.099	1.118	1.118	1.113
0.024	0.020	-0.005	-0.005	0.005	-0.005	0.029	1.763	1.108	1.104	1.104	1.123	1.118	1.113
0.015	0.020	0.000	-0.005	0.015	0.010	0.029	1.812	1.108	1.108	1.104	1.123	1.123	1.118
0.010	0.015	-0.005	-0.005	0.020	0.010	0.029	1.729	1.104	1.104	1.104	1.123	1.123	1.123
0.000	0.010	-0.005	0.000	0.015	0.005	0.029	1.748	1.104	1.099	1.099	1.123	1.118	1.118
-0.005	-0.005	-0.005	0.000	0.010	-0.005	0.029	1.777	1.104	1.099	1.104	1.123	1.113	1.113
-0.020	-0.005	-0.005	0.000	0.005	-0.005	0.034	1.763	1.099	1.099	1.099	1.118	1.118	1.113
-0.024	0.000	-0.005	0.000	-0.010	0.000	0.029	1.812	1.099	1.099	1.099	1.118	1.113	1.113
-0.059	0.000	-0.005	-0.005	-0.015	-0.024	0.029	1.772	1.089	1.094	1.094	1.113	1.108	1.104
-0.088	0.010	0.000	0.000	-0.034	0.010	0.034	1.807	1.094	1.094	1.099	1.118	1.104	1.113
-0.059	0.000	0.000	-0.005	-0.024	0.005	0.034	1.802	1.104	1.094	1.094	1.118	1.108	1.108
-0.059	-0.015	0.000	0.000	-0.024	0.005	0.029	1.768	1.104	1.094	1.094	1.118	1.108	1.108
-0.015	0.000	0.000	0.005	-0.020	-0.015	0.029	1.758	1.113	1.104	1.094	1.118	1.113	1.104
0.049	0.000	-0.005	0.000	-0.005	-0.005	0.029	1.777	1.128	1.113	1.099	1.113	1.118	1.113
0.103	-0.005	-0.005	-0.005	-0.005	0.005	0.029	1.802	1.143	1.118	1.104	1.118	1.113	1.113
0.107	-0.005	-0.005	0.000	0.000	0.010	0.029	1.777	1.133	1.123	1.108	1.118	1.118	1.113
0.078	0.005	-0.005	0.000	0.000	-0.010	0.029	1.763	1.113	1.123	1.113	1.123	1.113	1.108
0.044	0.000	0.000	0.000	-0.029	-0.015	0.029	1.743	1.099	1.113	1.113	1.123	1.108	1.104
-0.020	0.005	-0.005	0.000	-0.088	-0.020	0.029	1.724	1.074	1.104	1.108	1.123	1.094	1.104
-0.049	0.005	0.000	-0.005	-0.059	0.000	0.029	1.797	1.079	1.094	1.104	1.123	1.108	1.108
-0.020	-0.005	-0.005	0.000	-0.039	-0.005	0.029	1.772	1.094	1.094	1.099	1.128	1.118	1.108
-0.015	-0.005	-0.005	0.000	-0.029	0.005	0.029	1.782	1.099	1.094	1.099	1.123	1.123	1.113
-0.020	0.000	0.000	-0.005	0.005	0.010	0.029	1.792	1.099	1.094	1.099	1.123	1.128	1.123
-0.073	-0.010	0.005	0.000	0.020	-0.005	0.029	1.797	1.094	1.094	1.099	1.118	1.128	1.118
0.010	-0.005	0.000	-0.005	0.029	-0.010	0.029	1.753	1.118	1.099	1.094	1.118	1.128	1.123
-0.034	-0.005	0.005	-0.010	0.020	0.010	0.029	1.738	1.099	1.099	1.099	1.118	1.123	1.128
-0.020	0.010	-0.005	-0.010	0.024	-0.015	0.029	1.812	1.113	1.104	1.099	1.113	1.118	1.118
0.015	-0.005	-0.005	0.000	0.044	0.005	0.029	1.812	1.123	1.104	1.099	1.118	1.123	1.123
0.107	-0.005	0.005	0.010	0.049	0.005	0.034	1.797	1.152	1.118	1.108	1.123	1.123	1.123
0.132	-0.010	0.000	0.010	0.034	0.000	0.029	1.772	1.143	1.123	1.113	1.123	1.118	1.118
0.127	-0.010	0.000	-0.005	0.049	0.000	0.029	1.797	1.133	1.128	1.113	1.123	1.123	1.118
0.122	-0.010	0.000	0.000	0.063	0.000	0.029	1.768	1.123	1.128	1.118	1.128	1.128	1.118
-0.073	-0.010	0.000	-0.005	0.073	0.000	0.029	1.753	1.050	1.099	1.113	1.128	1.128	1.123
-0.239	0.005	-0.005	-0.005	0.093	0.015	0.029	1.792	1.021	1.074	1.104	1.123	1.133	1.128
-0.244	0.005	-0.005	-0.005	0.098	0.010	0.029	1.758	1.045	1.064	1.094	1.118	1.128	1.128
-0.151	0.000	-0.005	-0.005	0.063	0.015	0.029	1.763	1.089	1.074	1.089	1.118	1.113	1.123
-0.049	0.005	-0.005	0.000	0.005	0.015	0.029	1.763	1.123	1.094	1.089	1.113	1.099	1.118
0.024	0.010	-0.005	0.005	-0.020	0.020	0.029	1.719	1.138	1.108	1.094	1.113	1.094	1.113
0.068	0.000	-0.005	0.005	-0.029	-0.005	0.029	1.753	1.143	1.113	1.099	1.113	1.099	1.099
0.068	0.010	0.000	0.010	-0.039	0.000	0.029	1.763	1.128	1.118	1.108	1.118	1.099	1.099
0.073	-0.005	0.000	0.005	-0.039	-0.005	0.029	1.729	1.118	1.113	1.108	1.118	1.104	1.099
0.068	-0.015	0.000	-0.005	-0.029	-0.015	0.029	1.758	1.089	1.108	1.108	1.118	1.113	1.099
0.122	-0.015	-0.005	-0.015	-0.034	-0.029	0.029	1.777	1.108	1.108	1.108	1.118	1.108	1.099
0.171	-0.020	-0.005	-0.010	-0.054	-0.029	0.029	1.812	1.118	1.113	1.104	1.123	1.104	1.099
0.063	0.000	-0.005	-0.020	-0.059	-0.029	0.029	1.802	1.084	1.104	1.104	1.118	1.104	1.099
-0.020	0.000	-0.005	-0.005	-0.044	-0.024	0.029	1.768	1.064	1.089	1.099	1.123	1.113	1.104
-0.083	-0.015	-0.005	0.015	-0.049	-0.024	0.029	1.782	1.060	1.079	1.099	1.123	1.113	1.108
-0.112	-0.005	-0.005	0.020	-0.044	0.000	0.029	1.782	1.055	1.069	1.089	1.123	1.118	1.113
-0.132	-0.010	-0.005	0.020	-0.029	0.015	0.029	1.748	1.055	1.064	1.084	1.113	1.118	1.118
-0.103	-0.005	-0.010	0.029	-0.024	0.034	0.029	1.738	1.069	1.069	1.079	1.113	1.118	1.123
-0.151	-0.010	-0.005	0.010	0.000	0.034	0.029	1.797	1.074	1.064	1.069	1.104	1.118	1.123
-0.215	-0.005	-0.015	0.005	0.015	0.015	0.029	1.763	1.060	1.064	1.069	1.094	1.113	1.118
-0.171	0.015	-0.010	0.015	0.010	0.039	0.029	1.748	1.089	1.079	1.074	1.099	1.108	1.118
-0.063	0.005	-0.005	0.015	0.000	0.024	0.029	1.763	1.128	1.094	1.079	1.094	1.104	1.108
0.029	0.005	-0.034	0.005	-0.005	0.005	0.029	1.777	1.152	1.108	1.079	1.094	1.094	1.099
0.142	0.010	-0.020	0.010	-0.005	-0.039	0.034	1.758	1.177	1.133	1.094	1.099	1.094	1.089
0.293	-0.015	-0.005	-0.005	0.005	-0.015	0.029	1.719	1.187	1.147	1.113	1.108	1.104	1.099
0.205	-0.010	0.015	0.000	-0.005	-0.029	0.029	1.738	1.133	1.138	1.123	1.113	1.104	1.094
-0.044	0.000	0.034	-0.010	-0.005	-0.020	0.029	1.758	1.055	1.113	1.123	1.118	1.104	1.099
-0.029	0.005	0.039	-0.034	-0.010	-0.015	0.029	1.748	1.074	1.104	1.118	1.118	1.108	1.104
0.005	-0.010	0.039	-0.054	-0.010	-0.005	0.029	1.729	1.094	1.099	1.113	1.118	1.108	1.104
0.078	0.000	0.029	-0.054	-0.015	-0.010	0.029	1.763	1.118	1.108	1.108	1.118	1.108	1.104
0.288	0.034	0.029	-0.049	-0.010	-0.005	0.034	1.787	1.182	1.143	1.118	1.123	1.113	1.108
0.244	0.049	0.020	-0.039	-0.005	-0.005	0.029	1.797	1.138	1.138	1.123	1.133	1.118	1.108
0.122	0.005	0.000	-0.010	-0.005	0.005	0.034	1.787	1.089	1.108	1.113	1.138	1.123	1.113
0.015	0.000	-0.020	0.005	0.005	0.010	0.029	1.768	1.060	1.089	1.104	1.138	1.128	1.123
-0.098	-0.020	-0.029	0.020	0.005	0.005	0.029	1.777	1.045	1.069	1.089	1.133	1.133	1.123
-0.161	-0.015	-0.024	0.024	0.005	0.005	0.029	1.738	1.035	1.060	1.084	1.123	1.128	1.123
-0.205	0.000	-0.020	0.020	0.000	0.000	0.029	1.792	1.045	1.060	1.079	1.118	1.123	1.123
-0.176	0.005	-0.010	0.005	0.010	0.005	0.029	1.792	1.074	1.064	1.074	1.108	1.118	1.123
-0.161	0.005	0.000	0.005	0.010	-0.015	0.029	1.763	1.089	1.069	1.074	1.104	1.113	1.113
-0.132	0.005	0.000	0.000	0.005	-0.005	0.034	1.763	1.104	1.079	1.079	1.099	1.108	1.118
-0.078	0.000	0.005	0.000	0.015	-0.010	0.029	1.787	1.123	1.089	1.084	1.099	1.104	1.113
-0.034	-0.010	0.000	0.000	0.000	-0.005	0.029	1.792	1.138	1.099	1.084	1.099	1.099	1.108
-0.005	-0.039	-0.005	0.010	0.005	0.015	0.029	1.777	1.133	1.104	1.089	1.104	1.104	1.113
-0.010	-0.044	-0.005	0.015	0.010	-0.005	0.029	1.772	1.123	1.104	1.094	1.108	1.104	1.104
-0.010	-0.044	-0.005	0.015	0.010	-0.005	0.029	1.792	1.118	1.108	1.094	1.108	1.104	1.104
0.015	-0.063	-0.015	0.015	0.010	-0.005	0.029	1.753	1.113	1.104	1.094	1.108	1.104	1.099
0.039	-0.029	-0.010	0.015	0.015	-0.005	0.029	1.782	1.118	1.118	1.104	1.113	1.104	1.104
0.063	-0.010	-0.005	0.010	0.005	-0.020	0.029	1.802	1.123	1.128	1.108	1.118	1.104	1.099
0.044	0.005	-0.005	0.010	0.005	0.000	0.034	1.768	1.108	1.123	1.113	1.118	1.108	1.104
0.029	0.015	-0.005	0.000	0.000	-0.005	0.029	1.782	1.104	1.123	1.118	1.123	1.108	1.108
0.029	0.044	-0.005	0.000	0.005	0.005	0.029	1.797	1.113	1.123	1.118	1.128	1.113	1.108
0.039	-0.024	0.000	0.005	0.000	0.000	0.029	1.763	1.104	1.104	1.113	1.128	1.113	1.108
0.049	0.005	0.000	0.005	0.000	-0.005	0.029	1.807	1.108	1.108	1.113	1.128	1.118	1.108
0.049	0.000	0.005	0.000	0.000	0.010	0.029	1.797	1.108	1.108	1.108	1.128	1.118	1.113
0.039	-0.015	0.005	-0.005	0.005	-0.020	0.029	1.777	1.108	1.104	1.108	1.128	1.123	1.108
0.039	0.039	-0.005	-0.005	0.000	0.000	0.029	1.802	1.108	1.123	1.113	1.128	1.123	1.118
0.024	0.034	0.000	-0.005	0.000	0.010	0.029	1.758	1.099	1.113	1.113	1.128	1.123	1.118
0.020	0.059	-0.010	-0.005	0.000	-0.010	0.034	1.802	1.104	1.118	1.113	1.128	1.123	1.118
0.015	0.049	-0.005	-0.005	0.005	0.015	0.029	1.797	1.108	1.104	1.108	1.128	1.123	1.123
0.015	-0.005	0.000	-0.005	0.000	0.010	0.029	1.807	1.108	1.094	1.108	1.128	1.123	1.123
0.000	-0.015	0.000	-0.005	0.000	0.000	0.029	1.787	1.118	1.094	1.104	1.123	1.123	1.123
0.010	-0.015	-0.005	-0.005	0.000	0.000	0.029	1.792	1.118	1.104	1.099	1.123	1.123	1.118
0.000	-0.010	0.000	-0.005	-0.005	-0.005	0.029	1.772	1.113	1.104	1.099	1.118	1.118	1.118
0.000	-0.010	-0.005	-0.005	0.005	-0.010	0.029	1.763	1.104	1.108	1.099	1.118	1.118	1.118
-0.010	0.000	0.000	-0.005	0.010	-0.005	0.029	1.816	1.104	1.108	1.104	1.123	1.118	1.118
-0.010	-0.010	0.000	-0.005	-0.005	-0.005	0.029	1.763	1.108	1.104	1.099	1.123	1.118	1.118
-0.010	-0.024	-0.005	0.000	0.000	0.000	0.029	1.743	1.104	1.099	1.099	1.123	1.118	1.118
-0.005	-0.015	0.000	-0.005	-0.005	0.000	0.029	1.758	1.104	1.104	1.104	1.123	1.113	1.118
0.000	0.073	0.000	-0.005	0.010	-0.005	0.029	1.797	1.108	1.128	1.108	1.123	1.118	1.113
-0.005	0.034	0.000	0.000	0.000	0.000	0.029	1.802	1.108	1.108	1.108	1.128	1.118	1.118
-0.005	0.005	0.000	-0.005	-0.005	0.005	0.024	1.772	1.108	1.104	1.104	1.123	1.118	1.118
-0.020	-0.010	0.000	-0.005	-0.005	-0.005	0.029	1.787	1.104	1.099	1.104	1.123	1.118	1.118
-0.020	-0.005	-0.005	0.000	0.005	0.000	0.029	1.797	1.104	1.099	1.104	1.123	1.118	1.118
-0.005	-0.020	-0.005	0.005	0.000	-0.005	0.029	1.772	1.108	1.099	1.099	1.128	1.123	1.118
-0.010	-0.029	0.000	0.000	0.000	-0.024	0.029	1.729	1.104	1.094	1.099	1.123	1.118	1.113
-0.005	-0.015	0.000	0.000	0.000	0.005	0.029	1.807	1.108	1.099	1.099	1.123	1.118	1.118
-0.024	-0.010	-0.005	0.000	0.005	-0.010	0.029	1.782	1.099	1.104	1.099	1.118	1.118	1.118
-0.020	-0.049	0.000	0.000	0.000	0.005	0.029	1.763	1.099	1.089	1.099	1.118	1.118	1.118
-0.005	-0.054	-0.005	0.005	-0.005	0.005	0.029	1.777	1.108	1.094	1.094	1.118	1.113	1.118
-0.005	-0.049	0.005	0.000	0.000	-0.015	0.029	1.787	1.108	1.099	1.094	1.113	1.113	1.108
-0.010	-0.068	0.005	-0.005	-0.005	0.005	0.029	1.733	1.099	1.094	1.094	1.113	1.113	1.118
0.005	-0.020	-0.005	-0.005	0.005	0.010	0.029	1.787	1.113	1.118	1.099	1.113	1.113	1.113
0.005	0.151	0.000	-0.005	0.000	-0.005	0.029	1.816	1.123	1.162	1.118	1.118	1.113	1.108
0.015	0.093	-0.010	-0.005	0.005	0.000	0.029	1.787	1.113	1.128	1.118	1.123	1.113	1.113
0.015	0.103	0.000	-0.005	0.000	0.005	0.029	1.792	1.118	1.133	1.123	1.128	1.118	1.113
-0.005	0.059	-0.005	0.000	0.000	0.000	0.029	1.777	1.108	1.108	1.118	1.133	1.118	1.118
-0.015	-0.044	0.000	0.000	-0.010	0.005	0.029	1.777	1.104	1.079	1.108	1.133	1.123	1.113
-0.005	-0.029	-0.005	0.000	0.000	0.000	0.029	1.768	1.104	1.094	1.104	1.128	1.123	1.118
-0.010	0.000	0.000	0.005	-0.005	-0.020	0.029	1.777	1.108	1.104	1.104	1.128	1.123	1.108
-0.015	-0.005	0.000	0.000	0.010	0.000	0.029	1.777	1.108	1.104	1.099	1.128	1.123	1.123
-0.010	-0.020	0.005	-0.005	-0.015	0.010	0.029	1.763	1.108	1.099	1.099	1.123	1.118	1.118
0.000	-0.010	0.000	0.000	-0.029	0.000	0.029	1.758	1.104	1.104	1.099	1.123	1.113	1.118
-0.005	0.044	0.000	-0.005	-0.029	-0.005	0.029	1.777	1.104	1.123	1.104	1.123	1.118	1.113
0.005	0.049	0.005	-0.005	-0.020	0.000	0.029	1.763	1.108	1.113	1.108	1.123	1.118	1.118
0.005	-0.059	0.005	-0.005	-0.015	-0.005	0.029	1.753	1.104	1.079	1.099	1.123	1.118	1.113
0.005	-0.073	0.005	-0.005	-0.020	0.000	0.029	1.768	1.104	1.084	1.094	1.118	1.113	1.113
0.010	0.005	0.000	0.000	-0.015	0.000	0.029	1.787	1.108	1.113	1.099	1.118	1.118	1.118
0.005	0.029	0.005	0.005	0.000	0.005	0.029	1.777	1.108	1.118	1.104	1.123	1.123	1.118
-0.005	0.024	-0.005	0.000	0.039	-0.015	0.029	1.763	1.104	1.108	1.104	1.123	1.128	1.118
-0.005	-0.010	-0.015	0.005	0.059	0.005	0.029	1.743	1.099	1.094	1.099	1.123	1.133	1.128
-0.010	-0.063	-0.005	0.010	0.054	0.005	0.029	1.763	1.123	1.089	1.099	1.118	1.128	1.128
-0.010	-0.049	-0.005	0.010	0.054	0.010	0.029	1.753	1.118	1.099	1.099	1.123	1.123	1.128
-0.010	-0.020	0.000	0.005	0.039	-0.005	0.029	1.768	1.118	1.113	1.099	1.118	1.118	1.123
-0.015	-0.005	0.000	0.000	0.020	0.000	0.029	1.772	1.113	1.118	1.108	1.113	1.108	1.118
-0.024	0.010	0.000	-0.005	0.005	0.005	0.029	1.797	1.113	1.118	1.108	1.123	1.108	1.113
-0.010	0.015	0.000	-0.005	-0.034	0.005	0.034	1.782	1.113	1.118	1.108	1.123	1.099	1.113
0.005	0.029	0.000	-0.005	-0.044	-0.020	0.029	1.797	1.118	1.123	1.113	1.123	1.099	1.099
0.005	0.059	0.000	-0.005	-0.054	-0.024	0.029	1.753	1.113	1.128	1.118	1.128	1.104	1.099
0.010	0.000	0.005	0.000	-0.049	0.000	0.029	1.797	1.108	1.104	1.113	1.128	1.113	1.113
-0.005	-0.039	-0.005	0.000	-0.039	0.005	0.029	1.797	1.108	1.094	1.108	1.128	1.118	1.118
-0.010	-0.020	0.000	0.005	-0.034	0.010	0.029	1.753	1.104	1.108	1.104	1.128	1.123	1.113
-0.005	0.010	0.010	0.005	-0.034	-0.024	0.029	1.748	1.104	1.113	1.108	1.128	1.118	1.108
-0.005	0.034	0.000	0.005	-0.024	0.005	0.029	1.777	1.104	1.118	1.108	1.128	1.128	1.123
-0.015	0.039	0.000	0.000	0.010	0.005	0.029	1.763	1.094	1.108	1.108	1.128	1.133	1.123
-0.010	0.015	0.000	-0.005	0.010	0.005	0.029	1.777	1.099	1.099	1.104	1.123	1.128	1.123
-0.005	0.010	0.000	0.010	0.000	-0.024	0.029	1.772	1.099	1.099	1.104	1.128	1.128	1.113
0.000	0.005	0.000	0.005	-0.024	-0.010	0.029	1.792	1.108	1.094	1.099	1.123	1.113	1.118
0.015	-0.020	0.005	0.000	-0.039	0.015	0.029	1.729	1.104	1.094	1.099	1.118	1.113	1.128
0.015	-0.020	0.000	-0.005	-0.039	0.005	0.029	1.802	1.108	1.099	1.094	1.113	1.113	1.118
0.010	-0.020	0.000	-0.005	-0.005	0.010	0.029	1.748	1.108	1.099	1.099	1.113	1.123	1.123
0.010	0.000	0.000	-0.010	0.039	-0.005	0.029	1.782	1.108	1.108	1.099	1.118	1.133	1.118
0.010	-0.010	-0.005	-0.010	0.034	0.005	0.029	1.768	1.108	1.104	1.104	1.118	1.123	1.123
0.005	0.000	-0.005	0.010	0.024	0.000	0.034	1.729	1.099	1.108	1.104	1.123	1.118	1.123
0.005	-0.005	0.005	0.005	-0.005	-0.010	0.029	1.792	1.108	1.104	1.104	1.123	1.108	1.113
0.010	-0.010	0.000	0.000	-0.020	0.005	0.029	1.758	1.099	1.104	1.104	1.118	1.108	1.118
-0.005	-0.005	-0.005	0.000	-0.005	0.020	0.029	1.797	1.099	1.099	1.099	1.123	1.113	1.118
0.005	-0.010	-0.005	0.015	0.029	0.000	0.029	1.787	1.104	1.099	1.104	1.123	1.128	1.118
0.000	0.000	0.000	0.010	0.063	0.010	0.029	1.772	1.104	1.104	1.104	1.123	1.133	1.123
0.005	-0.005	0.000	0.000	0.049	-0.005	0.034	1.743	1.099	1.099	1.099	1.118	1.123	1.118
-0.005	0.000	0.005	-0.010	0.010	-0.005	0.034	1.787	1.099	1.099	1.099	1.113	1.108	1.113
0.000	0.000	0.000	0.005	-0.010	-0.005	0.029	1.768	1.104	1.099	1.099	1.118	1.104	1.113
-0.034	-0.015	-0.005	0.000	-0.024	0.000	0.029	1.792	1.094	1.094	1.099	1.113	1.099	1.108
-0.059	-0.020	0.005	-0.005	0.000	-0.005	0.029	1.689	1.079	1.089	1.094	1.113	1.113	1.104
-0.088	-0.005	0.000	-0.015	0.044	0.005	0.029	1.792	1.084	1.089	1.094	1.113	1.123	1.113
-0.044	-0.010	-0.005	-0.020	0.122	-0.005	0.029	1.787	1.104	1.094	1.094	1.113	1.143	1.123
-0.005	0.005	0.000	-0.015	0.112	0.005	0.029	1.792	1.123	1.104	1.094	1.113	1.128	1.128
0.044	0.010	0.000	-0.015	0.078	0.005	0.029	1.787	1.133	1.118	1.099	1.118	1.113	1.118
0.093	0.020	0.000	-0.005	0.073	0.000	0.034	1.782	1.138	1.128	1.108	1.123	1.113	1.118
0.122	0.000	0.000	-0.005	0.044	-0.005	0.029	1.787	1.138	1.123	1.108	1.123	1.108	1.113
0.117	0.010	-0.005	-0.005	0.020	0.005	0.029	1.763	1.128	1.128	1.113	1.128	1.108	1.113
0.059	0.000	0.000	0.000	-0.020	-0.005	0.029	1.709	1.099	1.118	1.113	1.128	1.099	1.108
-0.020	-0.010	0.000	0.005	-0.044	0.000	0.029	1.738	1.069	1.094	1.108	1.128	1.099	1.104
-0.044	0.010	0.005	0.010	-0.059	0.005	0.029	1.782	1.079	1.099	1.104	1.133	1.104	1.104
-0.054	0.010	0.000	0.015	-0.063	-0.010	0.029	1.714	1.074	1.094	1.099	1.128	1.108	1.099
-0.039	0.000	0.000	0.015	-0.054	-0.005	0.029	1.758	1.084	1.084	1.094	1.123	1.113	1.104
-0.015	0.000	-0.005	0.015	-0.044	-0.015	0.029	1.812	1.099	1.089	1.094	1.123	1.118	1.104
0.010	-0.005	-0.005	0.015	-0.039	-0.020	0.029	1.772	1.099	1.094	1.094	1.113	1.118	1.108
0.034	-0.015	-0.005	0.010	-0.029	-0.020	0.029	1.816	1.113	1.094	1.094	1.113	1.118	1.104
0.044	-0.005	-0.005	0.005	-0.039	-0.034	0.029	1.782	1.108	1.099	1.094	1.113	1.113	1.108
0.024	-0.010	0.005	0.005	-0.034	-0.005	0.029	1.797	1.104	1.099	1.099	1.113	1.113	1.113
-0.010	-0.010	0.000	0.005	-0.024	-0.005	0.029	1.772	1.094	1.099	1.094	1.108	1.113	1.113
-0.039	-0.010	0.000	0.005	-0.024	-0.010	0.029	1.787	1.089	1.094	1.094	1.113	1.113	1.113
-0.049	-0.005	0.000	0.005	-0.024	-0.005	0.029	1.768	1.094	1.094	1.094	1.108	1.113	1.108
-0.039	0.005	0.005	0.000	-0.010	0.010	0.029	1.787	1.099	1.099	1.099	1.113	1.113	1.113
-0.024	-0.005	0.000	-0.005	-0.020	0.000	0.034	1.782	1.108	1.099	1.094	1.108	1.108	1.113
-0.020	0.005	-0.005	-0.005	-0.010	-0.005	0.029	1.812	1.113	1.104	1.094	1.113	1.113	1.113
0.024	0.005	-0.005	-0.010	-0.005	0.010	0.029	1.753	1.118	1.113	1.099	1.113	1.113	1.118
0.020	-0.010	0.005	-0.015	-0.005	0.029	0.029	1.792	1.118	1.108	1.104	1.113	1.113	1.118
0.024	0.005	-0.005	-0.024	0.005	0.029	0.029	1.797	1.118	1.113	1.104	1.113	1.113	1.123
-0.005	0.010	-0.010	-0.034	0.015	0.049	0.029	1.792	1.108	1.113	1.104	1.113	1.113	1.118
-0.034	0.005	-0.010	-0.034	0.015	0.044	0.029	1.787	1.099	1.108	1.104	1.118	1.113	1.118
-0.049	0.000	-0.005	-0.015	0.000	0.034	0.034	1.797	1.099	1.104	1.104	1.123	1.108	1.113
-0.098	-0.010	-0.005	0.010	0.000	0.020	0.029	1.748	1.079	1.094	1.099	1.128	1.113	1.108
-0.122	0.000	0.000	0.024	0.000	-0.005	0.029	1.772	1.079	1.089	1.099	1.133	1.113	1.104
-0.088	0.005	0.000	0.024	0.000	-0.039	0.029	1.777	1.099	1.094	1.094	1.128	1.118	1.094
-0.020	0.010	-0.005	0.020	0.005	-0.054	0.029	1.777	1.113	1.099	1.099	1.118	1.118	1.099
0.054	-0.005	0.005	0.029	0.005	-0.078	0.029	1.787	1.143	1.108	1.099	1.123	1.118	1.094
0.103	-0.015	0.000	0.039	0.000	-0.068	0.029	1.777	1.143	1.118	1.104	1.123	1.118	1.104
0.107	-0.020	0.005	0.029	0.005	-0.078	0.029	1.797	1.133	1.118	1.108	1.123	1.118	1.108
0.073	-0.005	0.005	0.020	0.000	-0.029	0.029	1.782	1.113	1.123	1.113	1.123	1.118	1.118
0.039	0.005	0.005	-0.015	-0.005	-0.029	0.029	1.743	1.099	1.113	1.113	1.113	1.118	1.123
0.015	0.000	-0.005	-0.034	0.005	0.000	0.029	1.753	1.094	1.108	1.108	1.113	1.118	1.128
0.010	-0.005	0.000	-0.049	0.000	0.000	0.029	1.797	1.099	1.104	1.108	1.113	1.113	1.118
-0.005	0.000	-0.005	-0.039	0.000	0.020	0.029	1.797	1.099	1.104	1.108	1.118	1.113	1.128
-0.029	0.000	0.005	-0.020	-0.005	0.015	0.029	1.772	1.094	1.104	1.108	1.123	1.113	1.118
-0.049	0.015	0.005	-0.015	-0.005	0.015	0.029	1.802	1.094	1.099	1.104	1.128	1.118	1.113
-0.039	0.044	-0.005	0.005	-0.005	0.015	0.029	1.753	1.094	1.108	1.104	1.133	1.123	1.118
-0.034	0.034	-0.005	0.015	-0.005	0.024	0.029	1.812	1.099	1.099	1.104	1.133	1.123	1.118
-0.020	0.015	-0.005	0.015	0.005	0.005	0.029	1.787	1.108	1.099	1.099	1.128	1.123	1.118
-0.020	-0.005	-0.005	0.015	-0.005	0.024	0.029	1.768	1.108	1.094	1.099	1.123	1.118	1.123
-0.005	-0.005	0.000	0.010	-0.005	0.015	0.029	1.802	1.113	1.099	1.099	1.123	1.118	1.123
-0.005	-0.005	0.000	0.000	-0.010	0.020	0.029	1.758	1.104	1.099	1.099	1.118	1.118	1.118
-0.005	-0.020	-0.005	-0.010	0.000	0.010	0.029	1.782	1.104	1.094	1.094	1.113	1.113	1.118
0.010	-0.024	0.000	-0.015	0.005	0.010	0.029	1.748	1.108	1.099	1.099	1.108	1.113	1.113
0.024	-0.049	-0.005	-0.020	0.005	0.000	0.029	1.763	1.104	1.089	1.094	1.108	1.113	1.113
0.034	-0.049	0.000	-0.015	0.010	-0.010	0.029	1.792	1.113	1.104	1.099	1.113	1.108	1.108
0.024	-0.015	-0.005	-0.010	0.000	0.010	0.029	1.763	1.108	1.108	1.099	1.118	1.108	1.113
0.015	-0.010	0.000	0.010	-0.005	0.000	0.029	1.782	1.104	1.108	1.104	1.123	1.113	1.108
0.020	0.078	0.005	0.010	0.000	-0.005	0.029	1.763	1.118	1.138	1.113	1.128	1.113	1.113
0.010	0.049	0.000	0.015	0.010	0.000	0.034	1.724	1.104	1.118	1.118	1.128	1.118	1.113
0.010	0.010	0.000	0.024	0.015	0.010	0.029	1.787	1.104	1.099	1.113	1.133	1.123	1.118
0.005	-0.029	-0.005	0.015	0.015	0.005	0.029	1.802	1.108	1.094	1.104	1.128	1.123	1.118
0.005	0.020	0.005	0.015	0.020	-0.010	0.029	1.792	1.108	1.108	1.108	1.128	1.123	1.118
-0.005	0.010	0.005	0.000	0.024	-0.005	0.029	1.792	1.104	1.099	1.104	1.123	1.123	1.118
-0.015	-0.005	0.000	-0.020	0.010	0.000	0.029	1.797	1.104	1.099	1.099	1.113	1.113	1.118
-0.029	-0.015	0.005	-0.020	0.000	0.005	0.029	1.748	1.099	1.094	1.099	1.113	1.113	1.118
-0.020	-0.020	0.005	-0.015	-0.024	0.000	0.029	1.787	1.099	1.094	1.099	1.113	1.104	1.113
-0.005	-0.039	0.000	-0.010	-0.063	0.010	0.029	1.802	1.108	1.089	1.094	1.113	1.094	1.108
0.000	-0.015	0.005	0.000	-0.107	-0.020	0.029	1.743	1.108	1.108	1.099	1.118	1.089	1.094
0.005	0.039	0.000	0.010	-0.117	0.020	0.034	1.763	1.104	1.123	1.104	1.118	1.094	1.104
0.005	0.049	0.000	0.000	-0.088	-0.010	0.029	1.777	1.104	1.113	1.108	1.118	1.108	1.099
0.005	0.020	0.005	-0.005	-0.063	0.015	0.029	1.792	1.104	1.104	1.108	1.123	1.118	1.108
-0.015	0.039	0.000	0.015	-0.039	-0.010	0.029	1.763	1.099	1.108	1.108	1.128	1.128	1.108
-0.005	-0.015	-0.005	0.010	0.005	-0.005	0.029	1.792	1.108	1.089	1.099	1.123	1.138	1.118
0.005	-0.054	-0.005	0.000	0.024	-0.029	0.029	1.807	1.108	1.084	1.094	1.118	1.138	1.118
0.005	-0.024	-0.015	-0.005	0.049	-0.020	0.029	1.743	1.104	1.099	1.094	1.113	1.138	1.123
-0.005	-0.010	-0.010	-0.005	0.083	-0.029	0.029	1.738	1.099	1.104	1.099	1.118	1.138	1.128
-0.005	-0.005	0.000	-0.015	0.107	-0.024	0.029	1.787	1.104	1.104	1.104	1.113	1.138	1.133
0.000	-0.010	0.000	-0.015	0.137	-0.015	0.029	1.797	1.108	1.104	1.099	1.118	1.138	1.133
0.010	-0.015	-0.005	-0.010	0.122	-0.005	0.029	1.758	1.108	1.108	1.104	1.118	1.128	1.138
0.010	-0.015	-0.010	-0.010	0.093	-0.020	0.029	1.787	1.108	1.104	1.099	1.118	1.118	1.128
0.000	-0.024	-0.005	-0.005	0.068	0.000	0.029	1.733	1.108	1.104	1.099	1.118	1.113	1.123
-0.005	-0.024	0.000	0.005	0.063	-0.005	0.029	1.777	1.099	1.099	1.104	1.123	1.108	1.123
-0.010	-0.015	0.000	0.010	0.078	0.015	0.029	1.768	1.104	1.108	1.104	1.123	1.118	1.123
-0.005	0.015	0.000	0.005	0.054	0.010	0.029	1.787	1.104	1.108	1.108	1.118	1.108	1.118
-0.005	0.063	0.005	0.005	0.063	0.015	0.029	1.733	1.104	1.128	1.113	1.123	1.118	1.118
-0.005	0.068	0.010	0.005	0.083	0.015	0.029	1.816	1.108	1.118	1.113	1.128	1.123	1.118
-0.010	-0.015	0.000	0.005	0.098	0.015	0.029	1.816	1.104	1.089	1.104	1.128	1.128	1.123
0.000	-0.024	0.000	0.000	0.029	0.020	0.029	1.782	1.108	1.094	1.099	1.118	1.104	1.113
-0.020	-0.005	0.000	-0.005	-0.039	0.000	0.029	1.807	1.108	1.104	1.099	1.118	1.089	1.104
-0.010	-0.015	0.005	-0.010	-0.093	0.015	0.029	1.782	1.113	1.104	1.099	1.113	1.079	1.099
-0.005	0.005	0.010	-0.005	-0.107	0.005	0.029	1.782	1.113	1.108	1.104	1.118	1.089	1.094
0.005	0.000	0.005	-0.005	-0.098	0.000	0.029	1.748	1.108	1.108	1.104	1.118	1.099	1.094
0.005	-0.010	0.005	-0.010	-0.093	0.005	0.029	1.777	1.104	1.104	1.104	1.118	1.104	1.099
0.015	0.000	0.005	-0.005	-0.088	0.005	0.029	1.772	1.108	1.108	1.104	1.123	1.108	1.099
0.015	-0.005	0.000	-0.005	-0.083	0.010	0.029	1.772	1.108	1.104	1.104	1.123	1.113	1.104
0.005	0.000	-0.010	0.000	-0.078	-0.005	0.029	1.782	1.104	1.108	1.099	1.123	1.113	1.104
0.000	0.029	-0.005	0.000	-0.063	-0.005	0.029	1.763	1.099	1.108	1.104	1.123	1.118	1.108
-0.020	0.039	0.010	-0.005	-0.054	-0.005	0.034	1.748	1.094	1.108	1.108	1.123	1.123	1.108
-0.010	0.015	0.005	-0.005	-0.039	-0.034	0.034	1.763	1.089	1.094	1.104	1.123	1.123	1.108
0.005	0.005	-0.005	0.005	-0.034	0.000	0.029	1.802	1.099	1.094	1.099	1.123	1.123	1.118
0.000	0.010	-0.015	0.010	-0.024	0.000	0.029	1.768	1.099	1.094	1.094	1.123	1.123	1.118
-0.015	0.015	-0.020	0.010	-0.020	-0.015	0.029	1.753	1.094	1.094	1.094	1.118	1.123	1.113
-0.010	0.005	-0.005	0.005	-0.010	-0.024	0.029	1.738	1.094	1.094	1.094	1.113	1.123	1.113
-0.020	-0.005	-0.010	0.000	-0.005	-0.015	0.029	1.797	1.099	1.089	1.094	1.113	1.123	1.123
-0.015	-0.010	0.005	-0.005	-0.020	-0.005	0.029	1.792	1.104	1.089	1.094	1.113	1.113	1.118
-0.015	-0.010	0.000	0.000	-0.010	0.000	0.029	1.763	1.094	1.094	1.094	1.113	1.113	1.118
-0.039	-0.005	-0.010	-0.005	-0.010	-0.020	0.029	1.787	1.094	1.094	1.089	1.108	1.108	1.113
-0.054	0.005	-0.020	-0.005	0.000	-0.020	0.029	1.772	1.094	1.094	1.089	1.108	1.113	1.108
-0.063	0.010	-0.015	0.005	-0.005	0.005	0.034	1.733	1.094	1.094	1.094	1.113	1.113	1.118
-0.034	0.010	-0.010	0.020	-0.005	0.010	0.029	1.763	1.104	1.099	1.094	1.118	1.113	1.118
0.029	-0.005	0.000	0.010	0.010	-0.020	0.029	1.772	1.123	1.104	1.099	1.113	1.113	1.108
0.063	0.000	0.010	-0.015	0.005	0.000	0.029	1.797	1.128	1.104	1.104	1.108	1.113	1.113
0.015	-0.063	0.010	-0.024	0.000	0.000	0.029	1.797	1.113	1.094	1.094	1.108	1.108	1.108
0.059	-0.063	0.005	-0.020	0.005	0.010	0.029	1.797	1.123	1.099	1.099	1.108	1.108	1.113
0.112	-0.054	0.015	-0.020	0.000	0.015	0.029	1.787	1.138	1.113	1.104	1.113	1.108	1.108
0.132	-0.044	0.005	-0.005	0.010	0.005	0.029	1.777	1.128	1.118	1.108	1.118	1.113	1.108
0.117	-0.044	0.005	0.005	0.024	-0.024	0.029	1.724	1.108	1.118	1.108	1.123	1.118	1.108
0.063	0.029	-0.005	0.010	0.015	0.015	0.029	1.768	1.094	1.128	1.113	1.128	1.118	1.118
0.039	0.063	-0.010	0.015	0.015	-0.015	0.029	1.792	1.099	1.123	1.113	1.133	1.118	1.108
0.000	0.029	-0.015	0.020	0.020	0.015	0.029	1.733	1.079	1.104	1.113	1.133	1.123	1.118
-0.029	0.010	-0.005	0.015	0.029	-0.005	0.029	1.792	1.084	1.089	1.108	1.128	1.123	1.118
-0.059	0.005	0.005	0.005	0.029	0.010	0.029	1.787	1.084	1.089	1.104	1.123	1.123	1.123
-0.049	-0.005	0.010	-0.005	0.020	0.010	0.029	1.768	1.089	1.084	1.099	1.118	1.123	1.118
-0.049	0.005	0.010	-0.015	0.024	0.000	0.029	1.792	1.094	1.089	1.094	1.113	1.118	1.118
-0.068	0.005	0.010	-0.020	0.024	0.005	0.029	1.782	1.099	1.094	1.094	1.113	1.118	1.118
-0.044	0.020	0.005	-0.020	0.005	0.005	0.029	1.802	1.128	1.104	1.094	1.113	1.108	1.118
-0.024	0.005	-0.005	-0.015	0.010	0.005	0.029	1.777	1.123	1.104	1.094	1.113	1.113	1.113
-0.020	-0.015	-0.005	0.005	0.015	-0.005	0.029	1.777	1.147	1.108	1.099	1.123	1.113	1.108
-0.034	-0.024	-0.005	0.015	0.015	0.000	0.029	1.802	1.133	1.108	1.104	1.123	1.113	1.113
-0.063	-0.034	-0.005	0.020	0.029	-0.029	0.034	1.772	1.113	1.108	1.104	1.123	1.118	1.108
-0.049	-0.015	0.000	0.015	0.034	0.005	0.029	1.787	1.113	1.118	1.108	1.123	1.123	1.123
-0.029	-0.034	0.000	0.000	0.034	0.005	0.029	1.753	1.118	1.108	1.108	1.118	1.118	1.118
-0.005	-0.039	0.000	0.000	0.024	-0.010	0.029	1.787	1.123	1.108	1.108	1.123	1.118	1.113
0.005	0.024	-0.005	0.005	0.020	0.005	0.029	1.777	1.123	1.133	1.113	1.128	1.118	1.118
0.034	0.020	-0.005	-0.015	0.015	0.000	0.029	1.802	1.128	1.128	1.118	1.123	1.113	1.113
0.049	0.034	-0.005	-0.015	0.000	-0.015	0.029	1.802	1.123	1.133	1.123	1.128	1.113	1.108
0.054	0.063	-0.005	-0.005	0.000	0.005	0.029	1.729	1.123	1.138	1.128	1.133	1.118	1.118
-0.020	0.024	-0.005	-0.010	-0.005	0.005	0.029	1.772	1.089	1.108	1.123	1.133	1.118	1.118
-0.122	-0.005	0.000	0.015	-0.010	0.000	0.029	1.777	1.060	1.084	1.108	1.138	1.123	1.118
-0.166	0.034	-0.010	0.010	-0.015	0.000	0.029	1.733	1.055	1.089	1.104	1.133	1.123	1.113
-0.127	0.039	-0.005	-0.005	-0.010	-0.010	0.029	1.792	1.084	1.094	1.099	1.123	1.123	1.123
-0.073	-0.024	0.005	0.005	-0.015	0.010	0.029	1.768	1.108	1.074	1.094	1.128	1.123	1.123
0.029	-0.024	0.000	0.005	-0.024	0.000	0.029	1.807	1.138	1.094	1.094	1.123	1.118	1.118
0.142	-0.020	0.005	-0.015	-0.029	-0.005	0.029	1.797	1.167	1.118	1.099	1.113	1.113	1.118
0.244	-0.039	0.005	-0.029	-0.015	0.005	0.029	1.724	1.177	1.133	1.108	1.113	1.118	1.118
0.264	-0.005	0.000	-0.044	-0.015	0.005	0.029	1.782	1.162	1.147	1.118	1.118	1.113	1.118
0.254	-0.005	-0.005	-0.029	-0.015	0.005	0.029	1.738	1.138	1.147	1.123	1.128	1.118	1.118
0.186	-0.005	-0.005	-0.024	-0.015	0.010	0.029	1.797	1.108	1.133	1.128	1.133	1.118	1.118
0.093	0.010	-0.005	-0.010	-0.020	0.005	0.029	1.797	1.084	1.118	1.123	1.143	1.123	1.118
-0.010	-0.015	-0.005	0.020	-0.020	-0.015	0.029	1.777	1.060	1.094	1.118	1.143	1.128	1.113
-0.098	-0.020	0.000	0.029	-0.015	0.000	0.029	1.802	1.050	1.079	1.104	1.143	1.133	1.123
-0.127	0.000	-0.005	0.039	-0.005	0.015	0.029	1.777	1.055	1.074	1.099	1.138	1.133	1.133
-0.112	0.024	0.005	0.039	-0.010	0.005	0.029	1.768	1.079	1.084	1.094	1.133	1.133	1.128
-0.122	0.049	0.005	0.020	-0.015	-0.005	0.029	1.753	1.084	1.094	1.094	1.123	1.123	1.123
-0.137	0.059	0.000	0.010	-0.015	0.005	0.029	1.792	1.089	1.089	1.089	1.113	1.123	1.128
-0.151	0.068	0.005	0.000	-0.010	0.005	0.029	1.748	1.084	1.094	1.094	1.108	1.118	1.128
-0.127	0.015	-0.005	-0.005	-0.010	0.005	0.029	1.763	1.099	1.074	1.084	1.108	1.113	1.123
-0.054	-0.078	-0.005	-0.010	-0.010	0.010	0.029	1.758	1.118	1.064	1.074	1.104	1.108	1.118
-0.010	-0.068	-0.005	-0.015	-0.005	-0.005	0.029	1.777	1.128	1.089	1.079	1.099	1.104	1.113
0.005	-0.020	-0.005	-0.010	-0.010	-0.005	0.029	1.758	1.123	1.108	1.089	1.099	1.104	1.108
0.010	-0.010	0.000	-0.015	-0.010	-0.005	0.029	1.748	1.118	1.113	1.099	1.104	1.104	1.108
0.010	0.005	0.000	-0.005	-0.010	0.005	0.029	1.802	1.118	1.118	1.104	1.113	1.104	1.108
0.005	0.020	0.000	0.000	-0.010	0.005	0.029	1.787	1.113	1.123	1.108	1.118	1.108	1.108
0.005	-0.010	0.000	0.000	-0.015	0.005	0.029	1.797	1.108	1.104	1.108	1.118	1.108	1.108
0.020	-0.029	-0.010	0.010	-0.010	0.000	0.029	1.777	1.113	1.104	1.104	1.123	1.108	1.104
0.015	-0.015	-0.010	0.000	-0.020	0.005	0.029	1.782	1.128	1.113	1.108	1.118	1.108	1.108
0.015	-0.005	-0.005	0.005	-0.029	0.005	0.029	1.768	1.118	1.113	1.108	1.123	1.113	1.108
0.015	0.010	0.000	0.005	-0.029	-0.005	0.029	1.797	1.113	1.118	1.113	1.128	1.108	1.104
0.005	0.020	0.000	0.005	-0.029	-0.020	0.029	1.797	1.113	1.118	1.118	1.128	1.113	1.104
-0.005	0.000	0.010	0.010	-0.020	0.005	0.029	1.772	1.104	1.108	1.113	1.133	1.123	1.113
0.000	-0.015	0.000	0.015	-0.005	-0.005	0.029	1.787	1.108	1.099	1.108	1.133	1.128	1.118
0.005	-0.073	-0.010	0.000	0.010	0.005	0.029	1.777	1.113	1.089	1.099	1.123	1.133	1.123
0.024	-0.063	-0.010	-0.020	0.000	0.005	0.029	1.772	1.118	1.104	1.099	1.118	1.123	1.123
0.029	-0.020	-0.005	-0.034	0.015	0.005	0.029	1.821	1.138	1.118	1.104	1.118	1.123	1.123
0.044	-0.005	0.000	-0.034	0.034	0.010	0.029	1.816	1.138	1.133	1.113	1.123	1.128	1.128
0.063	0.005	0.005	-0.029	0.049	0.005	0.029	1.738	1.123	1.133	1.123	1.128	1.128	1.128
0.034	-0.020	0.005	-0.015	0.039	0.010	0.029	1.782	1.113	1.118	1.123	1.133	1.128	1.128
0.005	-0.005	0.005	-0.010	0.020	0.015	0.029	1.777	1.118	1.123	1.118	1.138	1.123	1.128
-0.029	0.000	0.005	-0.010	0.005	-0.005	0.029	1.802	1.108	1.118	1.118	1.133	1.118	1.123
-0.039	0.054	0.000	0.020	-0.010	-0.010	0.029	1.797	1.108	1.128	1.123	1.147	1.123	1.113
-0.024	0.083	0.000	0.029	-0.020	0.000	0.029	1.802	1.113	1.128	1.123	1.147	1.123	1.118
-0.063	0.068	-0.005	0.034	-0.020	0.005	0.029	1.797	1.094	1.118	1.118	1.143	1.128	1.123
-0.049	0.044	-0.005	0.010	-0.015	-0.010	0.029	1.797	1.108	1.108	1.113	1.138	1.128	1.118
-0.034	0.034	0.005	0.005	-0.015	0.010	0.029	1.738	1.104	1.104	1.113	1.133	1.133	1.128
-0.020	0.020	0.000	0.000	-0.010	0.000	0.029	1.777	1.113	1.099	1.108	1.128	1.128	1.128
0.000	-0.005	0.000	0.000	0.000	-0.010	0.029	1.777	1.118	1.099	1.104	1.128	1.133	1.128
0.020	-0.024	0.000	0.000	0.005	0.010	0.029	1.763	1.118	1.099	1.099	1.123	1.128	1.128
0.010	-0.044	0.000	-0.005	0.005	0.015	0.029	1.802	1.113	1.094	1.099	1.123	1.128	1.133
0.000	-0.039	-0.005	-0.005	0.000	0.005	0.029	1.768	1.108	1.099	1.099	1.118	1.123	1.128
-0.005	-0.039	-0.005	-0.005	0.010	-0.005	0.029	1.807	1.118	1.104	1.099	1.123	1.123	1.123
-0.005	-0.039	-0.005	-0.005	0.000	0.000	0.034	1.782	1.113	1.108	1.099	1.118	1.118	1.123
-0.010	-0.005	0.000	-0.005	0.000	-0.005	0.029	1.777	1.104	1.118	1.108	1.123	1.118	1.118
-0.010	0.020	0.000	0.005	0.015	-0.010	0.029	1.738	1.108	1.118	1.113	1.128	1.123	1.118
-0.010	0.024	0.010	0.010	0.029	-0.010	0.029	1.782	1.099	1.113	1.118	1.133	1.128	1.123
-0.020	0.024	0.020	0.000	0.029	-0.029	0.029	1.797	1.108	1.113	1.118	1.128	1.123	1.118
0.000	0.010	0.015	0.000	-0.005	-0.010	0.029	1.782	1.108	1.104	1.113	1.128	1.118	1.118
0.024	-0.015	0.000	-0.010	-0.024	-0.005	0.029	1.772	1.118	1.108	1.104	1.123	1.113	1.118
0.039	0.039	-0.005	-0.005	-0.034	-0.015	0.029	1.787	1.123	1.118	1.108	1.123	1.113	1.118
0.029	-0.059	-0.010	-0.010	-0.029	-0.010	0.029	1.777	1.108	1.089	1.099	1.123	1.113	1.113
0.015	-0.073	-0.005	0.000	-0.015	-0.020	0.029	1.802	1.108	1.089	1.099	1.123	1.118	1.118
0.015	-0.059	0.000	0.000	0.010	0.005	0.029	1.782	1.113	1.104	1.099	1.123	1.123	1.123
0.010	-0.015	0.000	0.010	0.010	-0.010	0.029	1.758	1.108	1.113	1.104	1.128	1.123	1.118
-0.015	0.039	0.005	0.005	0.000	0.005	0.029	1.802	1.108	1.128	1.113	1.128	1.123	1.123
-0.015	0.020	-0.005	0.015	0.020	0.015	0.029	1.792	1.108	1.113	1.108	1.128	1.128	1.128
-0.024	0.010	-0.015	0.024	0.024	0.010	0.029	1.768	1.108	1.108	1.108	1.133	1.128	1.128
-0.020	-0.015	-0.010	0.005	0.039	0.010	0.029	1.812	1.113	1.104	1.104	1.123	1.128	1.128
0.015	0.049	-0.005	-0.005	0.059	0.010	0.029	1.724	1.118	1.128	1.113	1.123	1.133	1.128
0.024	0.049	0.000	-0.024	0.073	-0.005	0.029	1.807	1.123	1.123	1.118	1.118	1.133	1.123
0.029	0.029	-0.005	-0.034	0.078	-0.005	0.029	1.748	1.118	1.118	1.118	1.123	1.128	1.128
0.034	0.000	-0.005	-0.029	0.059	0.020	0.029	1.782	1.118	1.108	1.113	1.128	1.123	1.133
0.024	0.000	0.000	-0.029	0.039	0.015	0.029	1.797	1.113	1.108	1.113	1.128	1.113	1.128
0.015	-0.005	0.005	-0.010	0.024	0.000	0.029	1.719	1.108	1.108	1.113	1.133	1.118	1.118
0.015	-0.010	0.000	0.015	0.005	-0.005	0.029	1.787	1.108	1.108	1.113	1.138	1.118	1.118
0.005	-0.020	0.000	0.020	0.000	-0.005	0.029	1.777	1.099	1.099	1.108	1.133	1.123	1.118
-0.005	0.024	0.005	0.015	-0.005	0.000	0.029	1.797	1.104	1.113	1.108	1.133	1.123	1.118
-0.005	0.020	-0.005	0.024	-0.015	-0.010	0.029	1.748	1.104	1.108	1.108	1.133	1.118	1.118
-0.005	-0.010	0.000	0.015	-0.020	-0.029	0.029	1.797	1.108	1.099	1.104	1.128	1.118	1.113
0.005	-0.024	0.000	0.010	-0.010	-0.005	0.029	1.772	1.108	1.094	1.099	1.123	1.123	1.118
-0.015	-0.020	0.000	0.000	-0.010	0.000	0.029	1.797	1.099	1.099	1.099	1.118	1.123	1.123
-0.039	0.024	0.000	-0.005	-0.005	-0.029	0.029	1.787	1.099	1.108	1.104	1.118	1.118	1.113
-0.024	0.073	0.000	-0.005	-0.010	-0.024	0.029	1.787	1.108	1.123	1.108	1.118	1.118	1.113
-0.015	0.024	0.000	-0.010	-0.005	0.010	0.029	1.733	1.104	1.099	1.104	1.118	1.118	1.123
0.000	-0.020	0.000	-0.020	-0.005	0.010	0.029	1.758	1.104	1.094	1.099	1.118	1.118	1.123
0.000	-0.034	0.000	-0.005	-0.010	-0.005	0.029	1.782	1.104	1.094	1.099	1.118	1.118	1.113
-0.044	-0.010	0.005	-0.005	-0.010	-0.005	0.029	1.797	1.094	1.099	1.099	1.123	1.118	1.118
-0.054	0.000	0.000	0.000	-0.005	-0.020	0.029	1.782	1.099	1.099	1.099	1.118	1.118	1.108
-0.034	-0.015	0.000	-0.005	-0.005	0.000	0.029	1.802	1.108	1.094	1.094	1.118	1.118	1.118
-0.049	-0.020	0.000	-0.005	-0.024	0.010	0.034	1.689	1.094	1.094	1.094	1.118	1.108	1.118
-0.063	-0.015	-0.005	0.000	-0.034	0.010	0.029	1.738	1.089	1.089	1.094	1.118	1.108	1.118
-0.044	-0.015	0.000	0.005	-0.005	0.010	0.034	1.748	1.104	1.094	1.094	1.118	1.118	1.118
-0.005	-0.010	0.000	0.010	0.010	-0.005	0.029	1.787	1.118	1.104	1.099	1.118	1.118	1.113
0.044	0.010	-0.005	0.005	0.015	-0.005	0.029	1.797	1.138	1.118	1.104	1.118	1.123	1.113
0.103	0.000	0.000	0.000	0.010	-0.015	0.029	1.768	1.143	1.118	1.104	1.118	1.118	1.108
0.098	-0.005	-0.005	0.010	0.015	-0.034	0.029	1.719	1.123	1.123	1.108	1.118	1.118	1.108
0.093	0.000	0.000	0.005	0.000	-0.010	0.029	1.792	1.123	1.118	1.113	1.123	1.113	1.113
0.088	0.020	0.000	0.005	-0.010	0.000	0.029	1.709	1.104	1.123	1.113	1.123	1.113	1.118
0.059	0.015	-0.005	0.010	-0.010	-0.010	0.029	1.792	1.099	1.113	1.113	1.128	1.113	1.113
0.020	0.000	0.000	0.024	-0.010	-0.010	0.029	1.807	1.094	1.104	1.108	1.133	1.118	1.113
-0.010	-0.024	0.000	0.020	-0.010	-0.010	0.029	1.748	1.084	1.089	1.104	1.128	1.118	1.118
-0.024	-0.024	-0.005	0.000	-0.015	-0.005	0.029	1.797	1.089	1.089	1.099	1.118	1.113	1.118
-0.044	-0.054	0.000	-0.005	-0.015	0.020	0.029	1.733	1.079	1.079	1.094	1.118	1.123	1.123
-0.054	-0.049	-0.005	-0.005	0.005	0.029	0.029	1.787	1.094	1.084	1.089	1.113	1.123	1.123
-0.049	0.044	0.000	-0.020	0.005	0.034	0.029	1.763	1.099	1.113	1.099	1.108	1.118	1.128
-0.078	0.024	-0.005	-0.024	0.010	0.039	0.029	1.797	1.094	1.099	1.099	1.108	1.113	1.128
-0.078	0.005	-0.005	-0.015	0.005	0.034	0.029	1.772	1.094	1.094	1.094	1.113	1.108	1.123
-0.093	-0.005	0.000	0.000	-0.020	0.029	0.029	1.758	1.113	1.094	1.094	1.118	1.108	1.113
-0.068	-0.005	0.000	0.005	-0.015	0.005	0.029	1.777	1.113	1.099	1.094	1.118	1.108	1.104
-0.063	0.010	-0.005	0.005	-0.010	-0.015	0.029	1.792	1.108	1.108	1.099	1.118	1.108	1.099
-0.063	0.029	-0.005	0.010	-0.010	-0.029	0.029	1.768	1.113	1.113	1.104	1.118	1.108	1.099
-0.024	0.034	-0.005	0.010	-0.005	-0.049	0.029	1.763	1.123	1.118	1.108	1.118	1.113	1.099
0.020	0.010	-0.005	-0.005	0.000	-0.063	0.029	1.787	1.128	1.113	1.108	1.118	1.113	1.099
0.083	-0.005	0.005	-0.010	-0.005	-0.049	0.029	1.763	1.133	1.118	1.108	1.118	1.113	1.104
0.151	-0.010	0.000	-0.010	0.000	-0.024	0.029	1.768	1.143	1.123	1.113	1.123	1.113	1.108
0.195	-0.015	-0.005	-0.020	0.000	-0.029	0.029	1.738	1.147	1.128	1.113	1.123	1.118	1.113
0.176	-0.005	0.000	-0.020	-0.005	0.000	0.029	1.782	1.128	1.133	1.118	1.128	1.118	1.123
0.132	0.010	-0.005	-0.005	-0.005	0.005	0.029	1.743	1.104	1.128	1.123	1.133	1.123	1.123
0.083	0.000	0.000	0.010	0.000	0.000	0.029	1.763	1.084	1.113	1.123	1.138	1.128	1.123
0.020	-0.005	0.000	0.000	-0.005	0.010	0.029	1.738	1.074	1.099	1.113	1.133	1.128	1.123
-0.049	-0.015	0.000	-0.024	0.000	0.005	0.029	1.797	1.064	1.084	1.104	1.128	1.123	1.123
-0.083	-0.015	0.005	0.029	-0.005	0.000	0.029	1.748	1.064	1.084	1.099	1.138	1.128	1.123
-0.098	0.005	0.000	0.029	-0.010	0.015	0.029	1.772	1.069	1.084	1.094	1.128	1.128	1.128
-0.088	-0.010	0.000	0.000	-0.005	0.010	0.029	1.768	1.084	1.079	1.089	1.113	1.123	1.128
-0.073	-0.010	-0.005	-0.024	-0.010	0.020	0.029	1.797	1.099	1.079	1.084	1.104	1.113	1.123
-0.098	-0.024	-0.005	-0.049	-0.010	0.015	0.029	1.802	1.094	1.079	1.079	1.094	1.108	1.118
-0.107	-0.015	-0.005	-0.024	-0.005	0.015	0.029	1.782	1.094	1.084	1.084	1.104	1.108	1.113
-0.093	-0.005	0.000	0.000	-0.005	-0.005	0.029	1.797	1.108	1.094	1.089	1.113	1.108	1.104
-0.063	-0.010	0.005	0.024	-0.015	0.010	0.029	1.802	1.118	1.104	1.089	1.118	1.108	1.108
-0.073	0.010	0.000	0.020	-0.005	0.005	0.029	1.738	1.104	1.108	1.094	1.113	1.108	1.108
-0.054	0.015	-0.005	0.029	-0.010	-0.005	0.029	1.777	1.108	1.108	1.099	1.118	1.108	1.104
-0.005	0.005	-0.005	0.010	-0.005	0.015	0.029	1.792	1.123	1.108	1.099	1.113	1.113	1.113
0.039	-0.010	0.000	-0.005	0.005	0.005	0.029	1.772	1.128	1.113	1.104	1.108	1.108	1.113
0.088	-0.015	0.000	-0.015	-0.005	0.010	0.029	1.787	1.133	1.118	1.104	1.108	1.108	1.108
0.127	0.010	0.000	-0.015	-0.005	0.020	0.029	1.797	1.143	1.128	1.113	1.118	1.108	1.108
0.156	0.000	0.000	-0.020	-0.005	0.010	0.029	1.782	1.147	1.133	1.118	1.118	1.113	1.108
0.132	-0.005	0.000	-0.020	0.000	-0.010	0.029	1.787	1.128	1.128	1.123	1.123	1.113	1.104
0.063	0.020	0.000	-0.010	0.000	-0.015	0.029	1.802	1.104	1.128	1.123	1.133	1.118	1.108
0.020	0.039	0.005	-0.015	0.000	-0.005	0.034	1.743	1.089	1.123	1.123	1.133	1.123	1.113
-0.039	0.059	-0.005	0.005	-0.005	-0.005	0.034	1.709	1.064	1.113	1.123	1.143	1.128	1.118
-0.039	0.039	0.000	0.034	0.000	0.005	0.029	1.768	1.079	1.094	1.113	1.147	1.133	1.123
-0.049	0.029	0.000	0.029	0.000	-0.005	0.029	1.797	1.084	1.089	1.108	1.143	1.133	1.123
-0.073	0.015	0.000	0.024	-0.005	-0.010	0.029	1.772	1.079	1.079	1.099	1.133	1.133	1.123
-0.063	-0.010	0.000	0.020	-0.005	-0.024	0.029	1.797	1.094	1.074	1.094	1.123	1.123	1.118
-0.044	-0.024	0.000	0.015	-0.005	-0.015	0.029	1.768	1.108	1.079	1.089	1.118	1.123	1.118
-0.029	-0.024	-0.005	0.010	-0.005	-0.020	0.029	1.792	1.108	1.089	1.089	1.108	1.118	1.123
-0.029	-0.044	-0.005	-0.005	-0.005	-0.020	0.029	1.748	1.104	1.084	1.084	1.104	1.113	1.113
-0.010	-0.054	-0.005	-0.005	-0.005	-0.015	0.029	1.797	1.113	1.094	1.084	1.104	1.108	1.118
0.005	-0.010	0.000	0.005	0.000	-0.015	0.029	1.777	1.123	1.113	1.094	1.108	1.108	1.108
-0.005	-0.010	0.000	-0.005	0.000	-0.015	0.029	1.777	1.113	1.113	1.099	1.108	1.108	1.113
-0.015	0.000	0.000	-0.010	0.000	-0.015	0.029	1.807	1.118	1.113	1.104	1.108	1.104	1.108
-0.010	0.000	0.000	-0.015	-0.005	0.005	0.029	1.802	1.118	1.113	1.108	1.113	1.108	1.113
-0.020	-0.005	-0.010	-0.010	-0.005	0.005	0.029	1.782	1.118	1.118	1.108	1.118	1.108	1.113
-0.024	0.010	-0.005	-0.020	0.000	0.015	0.029	1.797	1.113	1.118	1.113	1.118	1.108	1.118
-0.034	0.029	0.000	-0.015	0.000	0.010	0.029	1.777	1.108	1.123	1.118	1.128	1.113	1.113
0.015	0.005	-0.005	-0.005	0.005	0.015	0.029	1.763	1.123	1.118	1.113	1.128	1.118	1.113
0.034	-0.020	-0.005	-0.015	0.005	0.005	0.029	1.802	1.123	1.108	1.113	1.128	1.118	1.113
0.034	-0.015	0.000	0.000	-0.005	0.005	0.029	1.724	1.113	1.113	1.113	1.133	1.118	1.113
0.044	0.005	-0.005	0.015	-0.005	0.010	0.029	1.812	1.113	1.118	1.113	1.138	1.123	1.113
0.005	0.010	-0.005	0.020	-0.005	0.005	0.029	1.743	1.089	1.108	1.113	1.133	1.123	1.118
-0.010	0.015	0.000	0.024	-0.005	-0.005	0.029	1.821	1.094	1.108	1.113	1.133	1.128	1.118
-0.063	0.005	0.000	0.005	-0.010	0.000	0.029	1.782	1.074	1.094	1.104	1.123	1.123	1.123
-0.049	-0.010	0.000	0.010	-0.005	0.005	0.029	1.777	1.089	1.089	1.099	1.123	1.123	1.118
-0.005	-0.010	0.000	0.020	-0.005	-0.005	0.029	1.748	1.104	1.094	1.099	1.123	1.123	1.118
0.024	-0.005	0.000	-0.005	-0.010	0.005	0.029	1.782	1.118	1.099	1.099	1.113	1.113	1.123
0.078	-0.005	0.005	-0.015	-0.015	0.000	0.029	1.758	1.123	1.108	1.099	1.113	1.113	1.118
0.093	-0.015	0.000	-0.015	-0.020	0.010	0.029	1.792	1.123	1.108	1.104	1.113	1.113	1.118
0.088	-0.010	0.000	-0.005	-0.020	0.010	0.029	1.772	1.118	1.113	1.104	1.123	1.113	1.113
0.068	-0.010	0.000	0.010	-0.020	0.005	0.029	1.748	1.108	1.113	1.108	1.128	1.118	1.113
0.029	-0.005	0.000	-0.005	-0.010	0.005	0.029	1.792	1.094	1.104	1.108	1.123	1.118	1.113
-0.010	0.000	-0.005	-0.015	-0.010	0.005	0.029	1.772	1.089	1.104	1.104	1.123	1.118	1.118
-0.049	-0.020	-0.005	-0.020	-0.010	0.000	0.029	1.777	1.084	1.089	1.099	1.118	1.118	1.113
-0.078	-0.020	0.000	-0.010	0.005	-0.005	0.029	1.772	1.074	1.084	1.094	1.118	1.123	1.113
-0.073	-0.005	-0.010	0.005	0.005	-0.005	0.029	1.807	1.089	1.089	1.094	1.123	1.118	1.118
-0.059	0.000	-0.005	0.005	0.005	-0.029	0.029	1.802	1.104	1.094	1.094	1.118	1.118	1.108
-0.039	0.000	0.000	-0.005	0.005	-0.005	0.029	1.743	1.104	1.094	1.094	1.113	1.118	1.118
-0.024	0.015	0.000	-0.005	0.005	0.000	0.029	1.772	1.108	1.104	1.099	1.113	1.113	1.118
-0.010	0.015	0.005	0.005	0.005	0.005	0.029	1.777	1.113	1.108	1.104	1.118	1.113	1.113
0.000	0.024	0.000	0.015	0.000	0.000	0.029	1.748	1.108	1.108	1.104	1.118	1.113	1.113
0.000	0.029	0.010	0.024	0.005	0.005	0.029	1.797	1.113	1.113	1.108	1.128	1.118	1.118
0.000	0.015	0.010	0.063	-0.005	-0.010	0.029	1.797	1.113	1.108	1.108	1.143	1.118	1.113
-0.005	0.020	0.000	0.068	-0.010	-0.005	0.029	1.753	1.104	1.108	1.104	1.133	1.123	1.118
0.005	0.015	-0.005	0.015	-0.010	-0.020	0.029	1.738	1.099	1.104	1.104	1.113	1.118	1.108
0.010	-0.015	0.000	-0.029	0.005	0.000	0.029	1.758	1.104	1.094	1.099	1.104	1.113	1.118
0.015	-0.039	0.010	-0.049	0.000	0.005	0.029	1.743	1.099	1.089	1.099	1.104	1.108	1.118
0.020	-0.049	0.020	-0.054	0.005	-0.005	0.029	1.768	1.099	1.089	1.099	1.104	1.108	1.113
-0.024	-0.029	0.005	-0.049	0.010	-0.005	0.029	1.768	1.089	1.094	1.094	1.108	1.108	1.108
-0.054	0.020	0.000	-0.054	0.005	-0.005	0.029	1.753	1.089	1.104	1.094	1.108	1.108	1.108
-0.049	0.054	-0.010	-0.029	0.010	0.000	0.029	1.733	1.089	1.108	1.099	1.118	1.108	1.108
-0.063	0.054	-0.010	-0.015	0.010	0.000	0.029	1.748	1.089	1.099	1.099	1.123	1.113	1.108
-0.054	0.024	-0.015	-0.015	0.005	-0.010	0.029	1.792	1.094	1.089	1.094	1.118	1.108	1.108
-0.005	0.000	-0.010	-0.010	0.000	0.000	0.029	1.763	1.108	1.094	1.094	1.118	1.113	1.113
0.034	-0.024	-0.005	-0.005	0.000	-0.015	0.029	1.768	1.118	1.094	1.094	1.118	1.108	1.108
0.063	-0.029	-0.005	-0.005	-0.005	0.000	0.029	1.772	1.138	1.104	1.094	1.113	1.108	1.108
0.088	-0.034	-0.010	-0.020	0.000	-0.005	0.029	1.768	1.128	1.108	1.099	1.108	1.108	1.108
0.063	-0.024	-0.005	-0.015	0.005	0.000	0.029	1.802	1.118	1.113	1.104	1.118	1.108	1.108
0.000	-0.015	-0.005	0.015	0.005	0.000	0.029	1.753	1.099	1.108	1.104	1.128	1.113	1.108
0.010	0.000	-0.005	0.024	0.000	-0.005	0.029	1.777	1.104	1.108	1.104	1.128	1.113	1.113
0.020	0.024	-0.005	0.034	-0.010	-0.020	0.029	1.729	1.104	1.118	1.108	1.133	1.118	1.104
0.005	0.044	-0.005	0.039	0.000	-0.005	0.029	1.782	1.079	1.108	1.113	1.133	1.123	1.113
0.015	0.039	-0.005	0.029	0.010	0.000	0.029	1.787	1.094	1.104	1.108	1.128	1.128	1.118
0.039	0.034	0.000	0.034	0.010	0.000	0.029	1.748	1.099	1.104	1.108	1.128	1.128	1.123
0.049	0.005	0.005	0.020	0.005	-0.005	0.029	1.802	1.104	1.094	1.104	1.123	1.123	1.118
0.044	-0.010	0.005	0.015	0.005	0.000	0.029	1.802	1.108	1.094	1.099	1.123	1.123	1.123
0.024	-0.020	0.000	0.029	0.000	0.005	0.029	1.797	1.108	1.094	1.094	1.123	1.123	1.123
0.029	-0.024	0.005	0.024	0.000	-0.015	0.029	1.772	1.104	1.094	1.094	1.118	1.118	1.113
0.010	-0.024	0.000	0.010	0.000	-0.010	0.029	1.782	1.099	1.094	1.094	1.113	1.113	1.118
-0.020	-0.010	-0.005	-0.005	0.000	-0.015	0.029	1.782	1.094	1.099	1.094	1.108	1.113	1.113
-0.054	-0.024	-0.005	-0.010	-0.010	-0.015	0.029	1.777	1.089	1.094	1.094	1.104	1.108	1.108
-0.073	-0.015	-0.005	-0.015	-0.010	0.015	0.029	1.763	1.089	1.089	1.089	1.108	1.104	1.118
-0.063	-0.024	0.000	-0.024	-0.005	-0.010	0.029	1.787	1.094	1.089	1.089	1.104	1.104	1.108
-0.063	-0.015	-0.005	-0.029	-0.005	0.010	0.029	1.802	1.104	1.099	1.089	1.104	1.104	1.113
-0.039	-0.010	0.000	-0.015	-0.010	0.005	0.029	1.753	1.108	1.099	1.094	1.108	1.104	1.104
-0.039	0.005	-0.005	-0.005	-0.005	-0.010	0.034	1.772	1.104	1.104	1.099	1.113	1.104	1.104
-0.020	0.005	0.000	0.000	-0.015	0.005	0.029	1.719	1.104	1.108	1.099	1.118	1.108	1.104
-0.005	0.010	-0.005	0.010	-0.005	0.000	0.029	1.792	1.108	1.108	1.099	1.118	1.108	1.108
0.015	-0.015	0.000	0.010	0.005	0.005	0.029	1.782	1.123	1.104	1.104	1.118	1.113	1.108
0.005	-0.015	0.000	0.015	0.000	0.005	0.029	1.797	1.118	1.108	1.104	1.123	1.113	1.108
0.024	-0.024	-0.005	0.010	0.000	-0.005	0.029	1.782	1.113	1.108	1.104	1.118	1.113	1.108
0.015	-0.015	-0.005	0.000	0.010	0.005	0.029	1.807	1.108	1.108	1.104	1.118	1.118	1.113
0.015	0.015	-0.005	-0.010	0.005	-0.005	0.029	1.758	1.108	1.118	1.108	1.118	1.118	1.108
-0.005	0.039	-0.005	-0.010	0.005	0.005	0.034	1.792	1.104	1.123	1.108	1.118	1.118	1.113
0.000	0.024	-0.005	-0.010	0.010	0.005	0.029	1.797	1.104	1.108	1.113	1.123	1.118	1.113
0.005	0.000	0.000	-0.015	0.010	0.000	0.029	1.807	1.108	1.104	1.108	1.123	1.118	1.113
0.015	-0.010	-0.005	-0.005	0.000	-0.015	0.029	1.758	1.108	1.104	1.104	1.123	1.118	1.108
0.020	-0.010	-0.005	-0.010	-0.005	0.005	0.029	1.787	1.108	1.104	1.104	1.123	1.118	1.113
0.010	0.010	0.000	-0.015	0.000	0.010	0.029	1.753	1.104	1.108	1.108	1.123	1.118	1.118
0.005	0.000	-0.005	-0.005	0.000	-0.005	0.029	1.772	1.113	1.104	1.104	1.128	1.118	1.118
-0.005	-0.005	-0.005	0.015	0.005	-0.010	0.034	1.772	1.108	1.104	1.108	1.133	1.123	1.113
0.000	0.005	0.000	0.020	0.005	-0.005	0.029	1.802	1.118	1.113	1.108	1.128	1.123	1.118
-0.005	0.005	0.000	0.010	0.005	0.005	0.029	1.807	1.113	1.108	1.108	1.128	1.123	1.123
-0.010	0.010	-0.010	0.005	0.015	-0.005	0.034	1.797	1.108	1.108	1.108	1.123	1.123	1.118
-0.015	0.020	-0.005	0.000	0.015	0.000	0.029	1.782	1.113	1.113	1.108	1.123	1.123	1.123
0.000	0.010	0.000	-0.005	0.020	0.000	0.029	1.768	1.113	1.113	1.108	1.123	1.123	1.123
0.020	0.010	0.000	-0.015	0.024	-0.005	0.029	1.763	1.118	1.113	1.108	1.123	1.123	1.118
0.029	-0.005	0.005	0.000	0.010	-0.005	0.029	1.802	1.118	1.108	1.113	1.128	1.118	1.118
0.020	-0.005	0.000	0.015	0.015	-0.005	0.029	1.743	1.113	1.108	1.108	1.133	1.128	1.118
0.015	-0.005	-0.005	0.005	0.015	-0.010	0.029	1.792	1.108	1.108	1.108	1.128	1.123	1.123
-0.015	0.005	0.000	-0.015	0.020	-0.020	0.029	1.792	1.108	1.108	1.108	1.123	1.118	1.118
-0.010	0.005	-0.005	-0.020	0.005	-0.015	0.029	1.758	1.108	1.108	1.104	1.123	1.113	1.118
-0.005	-0.010	-0.005	-0.020	0.010	-0.029	0.029	1.763	1.108	1.104	1.104	1.123	1.118	1.113
-0.005	-0.010	0.000	-0.015	0.005	-0.015	0.029	1.807	1.113	1.108	1.104	1.128	1.118	1.113
-0.029	-0.005	0.000	0.005	0.005	-0.024	0.029	1.763	1.099	1.108	1.108	1.133	1.123	1.118
-0.034	-0.015	-0.005	0.029	0.010	0.000	0.029	1.733	1.094	1.099	1.104	1.133	1.123	1.123
-0.020	0.005	0.000	0.015	0.020	0.005	0.029	1.792	1.108	1.108	1.108	1.128	1.123	1.128
-0.010	0.020	-0.005	0.000	0.020	-0.015	0.034	1.787	1.108	1.113	1.104	1.123	1.123	1.118
0.000	0.020	-0.005	-0.015	0.010	0.005	0.029	1.787	1.113	1.108	1.104	1.118	1.118	1.128
0.005	-0.005	0.005	-0.020	0.000	0.005	0.029	1.768	1.108	1.099	1.104	1.118	1.113	1.118
0.020	-0.039	-0.005	-0.020	-0.010	0.010	0.029	1.797	1.113	1.094	1.104	1.118	1.113	1.118
0.015	-0.049	-0.005	-0.005	-0.005	0.010	0.029	1.802	1.113	1.094	1.099	1.123	1.113	1.118
0.020	-0.039	-0.005	0.034	-0.010	0.000	0.029	1.797	1.113	1.104	1.104	1.133	1.113	1.113
0.015	-0.015	-0.005	0.010	-0.010	0.010	0.029	1.748	1.108	1.113	1.104	1.123	1.118	1.118
0.000	0.000	-0.005	-0.005	-0.005	-0.005	0.029	1.777	1.104	1.113	1.108	1.118	1.118	1.113
0.005	0.063	0.000	-0.024	-0.005	0.010	0.029	1.787	1.113	1.133	1.113	1.118	1.118	1.113
0.010	0.044	0.000	-0.024	-0.010	0.000	0.029	1.733	1.104	1.118	1.113	1.118	1.118	1.113
0.005	0.024	0.000	-0.024	-0.015	0.005	0.029	1.797	1.108	1.108	1.113	1.123	1.113	1.113
0.005	-0.024	-0.005	-0.010	-0.010	-0.005	0.029	1.743	1.104	1.094	1.108	1.128	1.118	1.108
0.005	-0.020	0.000	-0.005	-0.015	0.005	0.029	1.772	1.108	1.094	1.104	1.128	1.123	1.118
0.015	-0.015	0.005	0.000	-0.015	0.005	0.029	1.758	1.104	1.104	1.104	1.128	1.123	1.118
0.015	-0.005	0.000	0.010	-0.010	-0.005	0.029	1.807	1.108	1.104	1.104	1.128	1.123	1.113
-0.005	0.015	-0.005	0.020	-0.020	0.010	0.029	1.768	1.099	1.108	1.104	1.128	1.118	1.118
-0.020	0.059	-0.005	0.024	-0.005	0.010	0.029	1.787	1.094	1.118	1.108	1.128	1.128	1.123
-0.054	0.029	0.000	0.029	-0.010	-0.005	0.029	1.699	1.084	1.099	1.104	1.128	1.123	1.118
-0.049	0.024	-0.005	0.015	-0.005	-0.005	0.029	1.807	1.094	1.094	1.104	1.123	1.123	1.123
-0.020	-0.005	-0.005	0.000	-0.005	0.000	0.029	1.719	1.099	1.089	1.094	1.113	1.123	1.123
0.010	-0.029	-0.010	0.005	0.005	0.005	0.029	1.782	1.108	1.089	1.094	1.113	1.123	1.118
0.024	-0.029	-0.005	-0.005	-0.005	0.010	0.029	1.763	1.108	1.094	1.094	1.108	1.113	1.118
0.029	-0.015	-0.005	-0.015	-0.015	-0.005	0.029	1.758	1.113	1.104	1.094	1.108	1.108	1.113
0.020	-0.010	0.000	-0.015	-0.020	0.000	0.029	1.724	1.108	1.104	1.099	1.108	1.108	1.113
-0.024	0.010	0.000	-0.024	-0.015	-0.015	0.029	1.807	1.099	1.108	1.099	1.108	1.108	1.108
-0.034	0.029	0.000	-0.010	-0.010	0.010	0.029	1.772	1.099	1.108	1.104	1.118	1.113	1.113
-0.029	0.000	-0.005	0.005	0.000	0.010	0.029	1.772	1.104	1.099	1.099	1.123	1.118	1.118
-0.015	-0.010	-0.005	0.015	-0.005	0.005	0.029	1.792	1.113	1.099	1.099	1.123	1.113	1.113
-0.010	-0.005	0.000	0.029	-0.005	0.005	0.029	1.797	1.108	1.099	1.104	1.128	1.118	1.118
-0.005	0.000	0.000	0.005	-0.010	-0.015	0.029	1.807	1.113	1.104	1.099	1.118	1.113	1.108
0.005	-0.015	-0.005	-0.015	-0.010	0.005	0.029	1.738	1.108	1.104	1.099	1.113	1.113	1.113
-0.005	-0.005	0.000	-0.015	0.000	0.010	0.029	1.763	1.108	1.108	1.104	1.118	1.113	1.113
0.005	0.000	-0.005	-0.005	0.000	0.000	0.029	1.753	1.104	1.104	1.104	1.118	1.113	1.108
0.010	-0.024	-0.005	0.000	0.010	0.000	0.029	1.782	1.108	1.094	1.099	1.123	1.118	1.113
0.020	-0.049	0.000	0.005	0.005	0.005	0.029	1.758	1.108	1.094	1.099	1.118	1.118	1.113
0.015	-0.020	0.005	0.015	0.005	0.000	0.029	1.729	1.099	1.104	1.104	1.123	1.118	1.113
0.000	-0.005	0.005	0.015	0.005	-0.010	0.034	1.787	1.104	1.104	1.104	1.123	1.113	1.108
0.005	-0.015	0.000	0.015	0.005	-0.010	0.029	1.807	1.104	1.099	1.104	1.123	1.118	1.108
-0.005	-0.015	0.000	0.000	0.010	-0.005	0.029	1.763	1.099	1.104	1.099	1.118	1.118	1.113
-0.005	0.010	0.000	-0.005	0.005	-0.005	0.029	1.777	1.104	1.108	1.104	1.118	1.113	1.113
-0.005	0.029	0.000	-0.010	0.005	0.000	0.029	1.763	1.104	1.113	1.104	1.113	1.113	1.118
-0.024	0.020	0.000	-0.024	0.000	0.000	0.029	1.792	1.099	1.104	1.104	1.113	1.113	1.113
-0.020	0.005	-0.005	0.000	-0.005	-0.005	0.029	1.792	1.104	1.099	1.104	1.123	1.113	1.113
0.005	0.015	0.000	0.015	0.000	0.005	0.029	1.812	1.118	1.108	1.108	1.128	1.118	1.113
0.010	0.010	0.000	0.015	-0.005	0.000	0.029	1.763	1.108	1.108	1.108	1.128	1.118	1.113
0.015	0.010	-0.005	0.029	0.000	0.005	0.029	1.782	1.113	1.104	1.104	1.133	1.118	1.118
-0.005	-0.005	-0.005	0.024	0.000	0.005	0.029	1.724	1.094	1.099	1.104	1.123	1.123	1.118
-0.020	0.000	-0.005	-0.005	0.000	0.005	0.029	1.816	1.099	1.099	1.099	1.113	1.118	1.113
-0.029	-0.010	0.005	-0.015	0.000	-0.005	0.029	1.787	1.099	1.094	1.099	1.113	1.113	1.113
-0.024	-0.005	0.000	-0.015	-0.005	-0.005	0.029	1.797	1.099	1.094	1.099	1.113	1.113	1.113
-0.015	-0.010	0.000	0.015	-0.005	-0.005	0.034	1.787	1.104	1.099	1.099	1.123	1.113	1.108
0.010	0.005	0.005	0.015	-0.010	-0.010	0.029	1.753	1.113	1.108	1.099	1.123	1.113	1.108
0.034	0.000	0.000	0.010	-0.010	-0.020	0.029	1.787	1.118	1.108	1.104	1.118	1.113	1.108
0.049	0.010	-0.005	-0.010	0.005	0.010	0.029	1.802	1.118	1.113	1.104	1.113	1.118	1.118
0.039	0.015	-0.005	0.010	0.000	-0.005	0.029	1.787	1.113	1.118	1.108	1.123	1.118	1.113
0.039	0.010	0.005	0.000	0.000	-0.010	0.029	1.743	1.108	1.113	1.108	1.118	1.118	1.113
0.039	0.010	0.000	-0.010	0.000	-0.015	0.029	1.763	1.108	1.108	1.108	1.118	1.113	1.108
0.020	0.000	0.000	-0.020	-0.005	0.000	0.029	1.792	1.099	1.104	1.108	1.118	1.113	1.118
0.000	0.000	0.000	-0.024	0.000	0.010	0.029	1.777	1.094	1.099	1.104	1.118	1.118	1.118
-0.015	-0.010	0.005	-0.024	0.000	0.010	0.029	1.729	1.089	1.094	1.099	1.118	1.113	1.113
-0.024	-0.005	-0.005	-0.024	0.000	-0.015	0.029	1.763	1.089	1.094	1.099	1.118	1.113	1.108
-0.020	-0.020	-0.005	-0.020	0.000	0.010	0.029	1.782	1.094	1.089	1.094	1.118	1.113	1.118
-0.010	-0.054	-0.005	-0.010	0.000	0.000	0.029	1.787	1.118	1.084	1.094	1.118	1.113	1.108
-0.020	-0.054	0.000	-0.010	0.000	0.000	0.029	1.797	1.118	1.089	1.094	1.118	1.113	1.113
-0.020	0.005	0.005	-0.005	-0.005	-0.005	0.029	1.729	1.138	1.123	1.099	1.118	1.113	1.113
-0.005	-0.005	-0.005	-0.010	-0.005	-0.005	0.029	1.758	1.123	1.118	1.104	1.113	1.113	1.104
-0.005	-0.020	0.000	-0.015	0.010	0.010	0.029	1.812	1.118	1.113	1.104	1.113	1.113	1.113
0.005	0.010	-0.005	-0.015	0.000	0.005	0.029	1.758	1.118	1.128	1.108	1.123	1.113	1.113
0.015	0.039	-0.005	0.010	0.000	-0.010	0.029	1.782	1.108	1.128	1.118	1.133	1.118	1.113
0.020	0.015	0.000	0.024	0.000	-0.005	0.029	1.777	1.104	1.113	1.118	1.138	1.123	1.118
0.005	0.024	-0.005	0.024	0.005	0.005	0.029	1.777	1.104	1.113	1.113	1.138	1.123	1.118
-0.034	0.029	-0.005	0.010	0.015	0.000	0.029	1.753	1.089	1.108	1.113	1.128	1.128	1.118
-0.039	0.010	-0.005	0.015	0.005	-0.024	0.029	1.802	1.099	1.099	1.108	1.128	1.123	1.113
