0.000	0.029	0.000	0.000	0.000	0.005	0.034	2.686	2.300	2.026	1.963	1.899	1.890	1.895
0.005	0.015	0.000	0.000	0.005	0.000	0.029	2.681	2.192	2.070	1.987	1.929	1.899	1.899
0.000	-0.015	0.005	0.000	-0.005	0.005	0.029	2.661	2.109	2.075	2.012	1.953	1.909	1.899
-0.005	0.000	0.000	0.005	-0.005	0.005	0.029	2.676	2.051	2.080	2.026	1.982	1.929	1.909
-0.010	-0.005	-0.005	0.000	-0.010	0.000	0.029	2.686	2.017	2.056	2.036	2.002	1.943	1.914
0.000	-0.005	-0.005	0.000	-0.005	-0.005	0.029	2.710	1.992	2.041	2.036	2.017	1.963	1.929
0.005	-0.010	0.000	0.005	-0.005	0.000	0.029	2.686	1.973	2.021	2.031	2.026	1.978	1.938
0.005	-0.005	0.000	0.005	0.000	0.005	0.029	2.676	1.953	2.007	2.026	2.031	1.997	1.958
0.010	0.005	0.000	0.000	0.000	-0.010	0.029	2.661	1.948	1.992	2.017	2.031	2.002	1.963
0.005	0.010	0.005	0.000	-0.005	0.010	0.029	2.681	1.943	1.978	2.002	2.031	2.007	1.982
0.005	-0.005	0.005	-0.005	0.000	0.005	0.029	2.690	1.938	1.963	1.992	2.026	2.012	1.987
0.000	-0.005	0.005	0.000	-0.005	0.015	0.034	2.695	1.934	1.953	1.982	2.021	2.012	1.997
-0.005	0.005	-0.005	0.000	-0.005	0.015	0.029	2.676	1.934	1.948	1.973	2.012	2.012	2.002
-0.010	-0.005	0.005	0.000	0.000	0.000	0.029	2.715	1.938	1.948	1.968	2.007	2.012	2.002
0.010	-0.005	0.000	0.000	0.005	0.005	0.029	2.671	1.943	1.948	1.958	1.997	2.007	2.007
0.005	0.010	0.005	0.005	-0.005	-0.010	0.029	2.676	1.943	1.948	1.958	1.992	2.002	1.997
0.000	-0.005	-0.005	0.000	0.000	0.005	0.029	2.686	1.943	1.943	1.948	1.987	1.997	2.002
-0.005	-0.010	0.000	0.000	0.005	-0.010	0.029	2.681	1.938	1.938	1.948	1.978	1.992	2.002
0.000	-0.005	0.005	0.000	0.000	0.015	0.029	2.671	1.938	1.938	1.948	1.978	1.982	1.997
-0.005	-0.020	0.000	0.000	0.005	0.000	0.034	2.686	1.938	1.934	1.938	1.973	1.982	1.987
0.000	-0.024	0.000	0.000	0.010	-0.010	0.034	2.681	1.938	1.934	1.938	1.968	1.973	1.982
0.005	-0.010	0.000	0.000	0.005	0.010	0.029	2.705	1.948	1.938	1.938	1.968	1.968	1.987
-0.005	-0.005	0.000	0.005	0.005	0.005	0.029	2.666	1.938	1.943	1.938	1.963	1.968	1.982
0.005	0.000	-0.005	0.000	0.000	0.010	0.029	2.676	1.938	1.938	1.938	1.958	1.963	1.973
0.000	0.010	0.000	0.005	0.000	-0.010	0.029	2.666	1.934	1.943	1.938	1.958	1.958	1.968
-0.005	0.020	0.000	0.000	-0.005	0.005	0.029	2.690	1.938	1.943	1.938	1.958	1.958	1.963
0.005	0.015	0.000	0.000	0.005	-0.005	0.029	2.690	1.938	1.943	1.938	1.958	1.953	1.958
-0.005	0.020	0.000	0.000	0.000	0.005	0.029	2.681	1.934	1.938	1.938	1.958	1.953	1.963
0.000	0.010	0.005	0.000	0.000	-0.005	0.029	2.671	1.938	1.934	1.938	1.958	1.958	1.958
-0.005	0.010	0.000	0.000	0.000	0.005	0.029	2.705	1.934	1.934	1.934	1.958	1.953	1.963
0.010	0.010	0.000	0.000	-0.005	0.000	0.029	2.681	1.938	1.938	1.938	1.953	1.953	1.958
0.005	0.005	0.000	0.000	0.005	0.010	0.029	2.681	1.934	1.934	1.938	1.953	1.958	1.958
0.000	0.010	0.005	0.005	-0.005	0.000	0.029	2.686	1.934	1.934	1.934	1.958	1.953	1.953
0.005	-0.010	0.005	0.000	0.000	-0.005	0.029	2.686	1.934	1.929	1.934	1.953	1.953	1.953
0.000	-0.010	0.000	0.005	0.000	0.000	0.034	2.671	1.929	1.929	1.929	1.953	1.948	1.953
0.005	-0.015	0.005	0.000	-0.005	-0.005	0.034	2.666	1.929	1.929	1.929	1.948	1.948	1.948
0.000	-0.015	0.005	0.000	0.005	-0.005	0.029	2.681	1.924	1.924	1.929	1.953	1.948	1.953
0.010	-0.005	0.000	0.005	0.010	0.005	0.034	2.695	1.934	1.929	1.924	1.948	1.948	1.953
0.005	-0.005	0.000	0.000	0.010	0.005	0.029	2.671	1.929	1.929	1.929	1.948	1.948	1.953
0.005	-0.010	0.000	0.000	0.005	0.005	0.029	2.676	1.924	1.929	1.924	1.943	1.948	1.948
0.010	0.000	0.000	0.000	0.005	0.000	0.034	2.686	1.929	1.929	1.929	1.948	1.943	1.948
0.005	0.005	-0.005	0.000	0.005	0.000	0.034	2.681	1.924	1.924	1.929	1.943	1.943	1.943
0.000	0.024	0.005	0.000	0.005	0.010	0.029	2.681	1.929	1.934	1.929	1.948	1.943	1.943
0.000	0.020	0.005	0.005	0.000	0.005	0.029	2.676	1.924	1.929	1.924	1.948	1.943	1.943
-0.005	0.015	0.000	0.005	0.000	-0.010	0.029	2.671	1.924	1.929	1.929	1.943	1.943	1.938
0.005	0.010	0.000	0.005	0.000	0.005	0.029	2.656	1.924	1.924	1.924	1.943	1.943	1.943
-0.010	0.015	0.000	-0.005	0.000	0.005	0.029	2.690	1.924	1.924	1.924	1.943	1.943	1.943
0.000	0.005	0.000	0.000	0.000	-0.010	0.029	2.690	1.924	1.919	1.924	1.943	1.938	1.934
-0.005	0.005	0.000	0.000	0.005	0.000	0.029	2.690	1.924	1.924	1.924	1.943	1.943	1.938
0.000	0.000	0.000	0.000	0.005	0.005	0.029	2.676	1.919	1.919	1.919	1.943	1.943	1.943
0.000	-0.015	0.000	-0.005	0.000	0.005	0.034	2.681	1.919	1.914	1.914	1.938	1.938	1.943
-0.010	-0.010	0.005	0.000	0.000	0.005	0.029	2.681	1.919	1.914	1.919	1.938	1.938	1.938
-0.010	-0.010	0.000	0.000	0.005	-0.015	0.029	2.690	1.919	1.914	1.914	1.938	1.938	1.934
-0.005	-0.005	0.005	0.000	0.000	0.000	0.029	2.715	1.929	1.919	1.919	1.938	1.934	1.938
0.000	0.005	-0.005	0.000	0.000	0.015	0.034	2.686	1.924	1.924	1.914	1.938	1.934	1.938
0.010	-0.005	0.000	0.000	0.005	-0.005	0.029	2.666	1.919	1.919	1.914	1.934	1.934	1.934
0.000	-0.010	0.000	0.005	-0.005	0.005	0.029	2.666	1.914	1.919	1.914	1.934	1.929	1.934
0.000	-0.005	0.000	0.000	0.005	0.000	0.029	2.681	1.914	1.919	1.919	1.938	1.934	1.929
0.000	0.000	0.005	0.000	-0.005	0.000	0.029	2.686	1.914	1.914	1.914	1.934	1.929	1.929
0.005	0.000	0.000	0.005	-0.005	-0.005	0.029	2.681	1.914	1.914	1.914	1.934	1.929	1.929
0.005	-0.005	0.000	0.000	0.000	-0.015	0.029	2.681	1.914	1.914	1.914	1.934	1.929	1.929
-0.005	0.010	0.005	-0.005	0.000	0.010	0.029	2.710	1.919	1.919	1.919	1.934	1.934	1.934
0.000	-0.010	0.005	0.000	0.000	0.005	0.029	2.686	1.914	1.909	1.914	1.934	1.934	1.934
0.000	0.000	0.005	0.005	0.005	0.010	0.029	2.676	1.914	1.914	1.914	1.934	1.934	1.934
0.010	0.015	0.000	0.000	0.000	0.015	0.029	2.686	1.919	1.919	1.914	1.934	1.929	1.934
-0.005	0.010	0.000	0.000	0.000	-0.005	0.029	2.676	1.914	1.919	1.914	1.934	1.929	1.929
0.000	0.010	0.000	0.000	0.000	0.010	0.034	2.686	1.914	1.914	1.914	1.934	1.929	1.934
0.000	0.005	0.000	0.005	0.000	-0.005	0.029	2.671	1.909	1.914	1.914	1.934	1.929	1.924
-0.005	-0.005	0.005	0.000	-0.005	0.010	0.029	2.681	1.909	1.909	1.909	1.934	1.929	1.934
0.000	-0.010	-0.005	0.005	0.000	0.000	0.034	2.666	1.914	1.909	1.909	1.929	1.929	1.929
0.005	-0.010	0.000	0.005	0.000	-0.005	0.029	2.681	1.914	1.909	1.909	1.929	1.929	1.924
0.000	-0.010	0.000	0.005	-0.005	0.010	0.029	2.671	1.909	1.909	1.904	1.929	1.929	1.929
0.010	0.005	0.000	0.005	0.000	-0.005	0.029	2.661	1.909	1.909	1.909	1.924	1.924	1.919
0.000	0.000	0.005	0.005	0.005	0.000	0.029	2.690	1.909	1.909	1.909	1.929	1.929	1.924
-0.010	-0.015	0.005	0.005	0.000	-0.005	0.029	2.681	1.904	1.904	1.904	1.924	1.924	1.919
0.000	-0.005	-0.005	0.000	0.005	-0.005	0.029	2.676	1.909	1.904	1.904	1.929	1.924	1.924
0.000	0.000	0.010	0.005	0.005	0.000	0.029	2.700	1.909	1.909	1.909	1.924	1.924	1.929
-0.005	0.010	0.005	0.000	0.005	-0.020	0.029	2.686	1.909	1.909	1.909	1.924	1.924	1.919
0.005	0.010	0.005	0.005	0.000	0.005	0.029	2.676	1.909	1.909	1.909	1.924	1.919	1.924
0.005	0.000	0.000	0.000	0.000	0.005	0.029	2.690	1.909	1.909	1.904	1.924	1.924	1.924
0.000	-0.005	0.000	-0.005	0.000	0.005	0.029	2.666	1.904	1.904	1.904	1.924	1.919	1.924
0.005	0.005	0.000	-0.005	-0.005	0.005	0.029	2.676	1.909	1.904	1.904	1.924	1.919	1.919
-0.005	0.005	0.000	-0.005	0.000	0.005	0.034	2.686	1.904	1.904	1.904	1.924	1.919	1.924
0.000	0.000	0.005	-0.005	0.000	0.000	0.034	2.681	1.904	1.904	1.904	1.924	1.919	1.919
-0.005	0.005	0.000	0.000	0.000	-0.005	0.029	2.715	1.909	1.909	1.904	1.924	1.919	1.919
0.000	0.005	0.000	-0.005	0.005	-0.029	0.029	2.686	1.909	1.904	1.904	1.924	1.919	1.914
0.010	0.005	0.005	0.000	0.000	0.005	0.034	2.656	1.904	1.909	1.904	1.924	1.919	1.924
0.005	-0.005	0.005	0.000	0.000	0.005	0.029	2.686	1.904	1.899	1.904	1.924	1.919	1.924
0.005	-0.010	0.005	0.010	0.000	0.005	0.029	2.681	1.899	1.899	1.904	1.924	1.919	1.919
0.005	0.000	-0.005	0.005	0.000	-0.005	0.029	2.676	1.904	1.904	1.899	1.919	1.919	1.919
0.005	-0.005	0.000	0.000	0.005	0.005	0.029	2.681	1.899	1.899	1.899	1.919	1.919	1.919
0.005	0.000	0.000	0.005	0.005	-0.010	0.029	2.666	1.899	1.899	1.899	1.919	1.919	1.914
0.005	0.000	0.000	0.000	0.010	-0.010	0.029	2.676	1.904	1.899	1.899	1.919	1.919	1.919
-0.005	0.005	0.000	0.000	0.005	-0.010	0.029	2.666	1.904	1.904	1.899	1.914	1.914	1.914
-0.005	0.010	0.000	-0.005	0.005	0.010	0.029	2.681	1.899	1.899	1.899	1.919	1.914	1.919
-0.005	-0.005	0.005	-0.005	0.005	0.010	0.029	2.671	1.899	1.899	1.899	1.919	1.914	1.919
-0.005	0.000	0.005	0.000	0.005	0.000	0.029	2.690	1.904	1.899	1.899	1.919	1.914	1.909
0.000	0.000	0.005	0.000	-0.005	0.000	0.029	2.676	1.904	1.899	1.899	1.919	1.914	1.914
0.000	0.005	0.000	0.000	0.000	0.005	0.029	2.686	1.904	1.899	1.899	1.919	1.914	1.914
0.005	0.015	0.010	0.010	0.000	0.010	0.029	2.690	1.904	1.904	1.899	1.919	1.914	1.914
-0.005	0.000	0.000	0.005	0.000	-0.010	0.034	2.666	1.899	1.899	1.899	1.919	1.919	1.914
0.000	0.000	-0.005	0.005	0.005	0.010	0.029	2.681	1.909	1.899	1.899	1.919	1.914	1.914
0.005	-0.015	0.005	0.005	0.000	-0.015	0.029	2.661	1.899	1.895	1.899	1.914	1.914	1.909
0.000	-0.015	0.000	0.000	0.005	0.000	0.029	2.681	1.895	1.895	1.895	1.914	1.914	1.909
0.010	-0.010	-0.005	0.000	0.000	0.015	0.029	2.676	1.899	1.895	1.895	1.914	1.914	1.919
0.005	-0.010	0.000	0.005	0.000	0.000	0.029	2.671	1.899	1.899	1.895	1.914	1.914	1.909
0.005	-0.005	-0.005	0.005	-0.005	0.015	0.029	2.676	1.899	1.895	1.895	1.914	1.909	1.914
0.005	-0.005	0.000	0.005	-0.010	0.000	0.029	2.681	1.895	1.895	1.895	1.914	1.909	1.909
0.010	0.005	0.000	0.005	0.000	-0.005	0.029	2.676	1.899	1.899	1.895	1.914	1.909	1.904
0.000	0.010	-0.005	0.005	-0.005	0.000	0.029	2.676	1.895	1.899	1.895	1.914	1.909	1.909
0.000	0.010	0.000	-0.005	0.000	0.005	0.029	2.676	1.899	1.895	1.895	1.909	1.909	1.909
0.000	0.015	0.000	-0.010	-0.005	0.005	0.029	2.681	1.899	1.899	1.899	1.909	1.909	1.909
-0.005	0.020	-0.005	0.000	-0.005	-0.010	0.029	2.671	1.895	1.899	1.895	1.914	1.904	1.904
-0.005	0.010	0.000	0.000	-0.005	0.010	0.029	2.681	1.895	1.890	1.895	1.914	1.909	1.909
-0.005	0.000	0.000	0.000	-0.005	0.010	0.029	2.676	1.895	1.895	1.890	1.914	1.909	1.909
0.000	0.010	0.000	0.000	-0.005	-0.005	0.029	2.690	1.899	1.895	1.895	1.914	1.909	1.904
-0.005	0.024	0.005	0.005	-0.010	0.005	0.029	2.676	1.899	1.899	1.899	1.914	1.909	1.914
-0.005	0.010	0.005	0.015	-0.005	0.005	0.034	2.666	1.895	1.895	1.895	1.914	1.909	1.909
-0.010	0.005	0.000	0.005	-0.005	-0.005	0.029	2.671	1.895	1.890	1.890	1.914	1.909	1.904
0.000	0.005	0.000	0.005	-0.005	0.010	0.029	2.681	1.895	1.890	1.890	1.914	1.909	1.914
0.005	-0.005	0.000	0.000	-0.005	-0.005	0.029	2.666	1.895	1.890	1.890	1.909	1.909	1.904
0.000	-0.005	0.000	0.000	-0.005	0.000	0.029	2.681	1.895	1.890	1.890	1.909	1.909	1.909
0.005	0.000	0.000	-0.005	0.000	-0.010	0.029	2.671	1.895	1.890	1.890	1.904	1.904	1.904
0.005	0.000	0.005	-0.005	0.000	0.010	0.029	2.676	1.895	1.890	1.890	1.904	1.904	1.909
0.010	-0.005	-0.005	-0.005	0.000	0.005	0.029	2.686	1.890	1.890	1.890	1.909	1.904	1.909
0.005	0.000	0.000	-0.005	0.000	0.015	0.034	2.686	1.895	1.895	1.890	1.909	1.904	1.909
0.010	0.000	0.000	0.000	0.000	0.000	0.029	2.681	1.895	1.895	1.890	1.909	1.904	1.904
0.000	-0.005	0.000	0.000	0.010	0.000	0.029	2.686	1.895	1.890	1.890	1.909	1.904	1.904
0.005	0.005	0.000	0.005	0.000	0.005	0.034	2.681	1.899	1.895	1.890	1.909	1.904	1.904
0.005	0.005	0.000	0.010	0.005	-0.010	0.034	2.671	1.895	1.895	1.895	1.909	1.904	1.899
0.010	0.000	0.005	0.005	0.000	0.005	0.034	2.681	1.899	1.895	1.895	1.909	1.909	1.904
-0.005	-0.005	0.005	0.000	0.010	0.000	0.029	2.681	1.890	1.890	1.890	1.909	1.909	1.904
0.000	-0.005	0.005	0.000	0.015	0.000	0.029	2.686	1.895	1.890	1.890	1.909	1.909	1.904
0.000	0.000	0.005	-0.005	0.024	0.000	0.034	2.666	1.895	1.895	1.890	1.909	1.909	1.909
-0.005	-0.015	0.005	0.000	0.024	-0.005	0.034	2.666	1.890	1.890	1.890	1.909	1.909	1.904
-0.005	-0.005	0.000	0.000	0.015	-0.005	0.029	2.666	1.890	1.890	1.885	1.909	1.904	1.904
-0.005	-0.015	0.000	0.000	0.020	-0.015	0.029	2.681	1.895	1.890	1.890	1.909	1.904	1.904
-0.010	-0.005	0.000	-0.005	0.020	-0.010	0.029	2.681	1.890	1.890	1.890	1.909	1.904	1.904
0.000	0.000	0.000	0.005	0.024	0.000	0.034	2.666	1.890	1.890	1.890	1.909	1.909	1.904
0.015	-0.010	0.005	0.005	0.024	-0.010	0.034	2.681	1.895	1.890	1.890	1.904	1.904	1.904
0.010	0.000	0.005	0.005	0.029	-0.010	0.029	2.690	1.895	1.895	1.890	1.909	1.904	1.904
0.000	-0.005	0.005	0.005	0.029	-0.010	0.029	2.676	1.890	1.890	1.890	1.904	1.904	1.904
0.005	0.000	0.000	0.005	0.034	-0.005	0.034	2.676	1.895	1.890	1.890	1.904	1.904	1.904
0.010	0.000	0.000	0.000	0.029	-0.020	0.034	2.671	1.895	1.890	1.890	1.904	1.904	1.899
0.015	0.000	0.005	0.000	0.024	-0.010	0.029	2.676	1.890	1.890	1.890	1.904	1.899	1.904
0.005	0.010	0.005	0.005	0.020	-0.005	0.029	2.681	1.890	1.895	1.890	1.909	1.904	1.904
-0.005	0.005	0.005	0.010	0.024	0.000	0.029	2.681	1.890	1.890	1.890	1.909	1.904	1.904
-0.010	0.000	0.000	0.010	0.015	0.000	0.029	2.686	1.885	1.885	1.885	1.909	1.904	1.904
-0.015	0.010	0.000	0.010	0.010	-0.015	0.029	2.676	1.885	1.890	1.885	1.909	1.899	1.899
-0.015	0.010	0.000	0.010	0.010	-0.015	0.029	2.686	1.890	1.890	1.890	1.904	1.899	1.904
-0.010	0.000	0.000	-0.005	0.000	0.000	0.034	2.686	1.895	1.890	1.885	1.904	1.899	1.904
-0.005	-0.005	-0.005	-0.005	0.000	0.000	0.029	2.681	1.890	1.885	1.885	1.899	1.899	1.899
-0.005	-0.005	0.000	-0.005	-0.005	0.005	0.029	2.661	1.885	1.890	1.885	1.899	1.899	1.899
-0.005	-0.010	0.005	-0.005	-0.010	0.000	0.034	2.686	1.885	1.885	1.885	1.904	1.895	1.899
-0.005	0.005	-0.005	-0.010	-0.010	0.000	0.034	2.671	1.890	1.885	1.885	1.899	1.895	1.890
0.000	-0.010	-0.005	-0.010	-0.010	-0.010	0.034	2.676	1.885	1.885	1.885	1.899	1.895	1.895
0.000	0.000	0.000	-0.005	-0.020	0.015	0.034	2.666	1.885	1.890	1.885	1.899	1.895	1.899
0.000	-0.005	0.000	-0.005	-0.015	0.015	0.029	2.686	1.885	1.880	1.885	1.904	1.895	1.895
0.000	-0.005	0.000	0.005	-0.020	0.015	0.029	2.681	1.890	1.885	1.885	1.904	1.895	1.899
0.005	-0.005	0.000	0.005	-0.020	-0.005	0.029	2.686	1.885	1.885	1.885	1.904	1.895	1.890
0.005	0.015	0.000	0.005	-0.024	0.000	0.029	2.671	1.890	1.890	1.885	1.904	1.895	1.895
0.005	0.010	0.005	0.005	-0.020	0.020	0.029	2.676	1.890	1.890	1.890	1.904	1.899	1.899
0.010	0.005	0.000	0.005	-0.024	0.020	0.029	2.690	1.890	1.885	1.885	1.904	1.899	1.899
0.015	-0.005	0.000	0.000	-0.024	0.020	0.034	2.690	1.890	1.885	1.885	1.899	1.899	1.899
-0.005	0.005	0.005	0.000	-0.020	0.000	0.029	2.676	1.885	1.885	1.885	1.904	1.899	1.895
-0.005	0.010	-0.005	0.000	-0.020	0.005	0.029	2.681	1.885	1.890	1.885	1.904	1.899	1.895
0.000	0.005	0.000	-0.005	-0.020	0.000	0.034	2.676	1.890	1.885	1.885	1.899	1.899	1.895
0.015	0.005	0.000	0.000	-0.015	0.015	0.034	2.686	1.890	1.885	1.885	1.904	1.899	1.904
0.000	0.005	0.005	0.000	-0.010	-0.005	0.029	2.681	1.885	1.885	1.885	1.904	1.904	1.895
-0.005	0.000	0.000	0.005	-0.010	0.020	0.029	2.686	1.885	1.885	1.885	1.904	1.904	1.904
0.000	-0.005	0.000	0.005	-0.005	0.010	0.034	2.686	1.890	1.880	1.885	1.904	1.904	1.899
0.000	0.005	0.000	0.005	0.000	0.015	0.029	2.681	1.890	1.890	1.885	1.904	1.904	1.904
0.005	-0.005	-0.005	0.000	-0.005	0.015	0.029	2.676	1.885	1.885	1.880	1.899	1.899	1.899
0.005	-0.005	0.000	-0.005	-0.005	0.000	0.029	2.676	1.885	1.885	1.880	1.899	1.899	1.895
0.000	0.005	0.000	0.000	-0.005	0.005	0.029	2.681	1.890	1.885	1.880	1.899	1.899	1.899
0.000	-0.005	-0.005	0.000	0.000	0.010	0.029	2.681	1.885	1.885	1.880	1.899	1.895	1.899
0.000	0.010	-0.005	0.000	0.005	0.015	0.029	2.671	1.885	1.885	1.880	1.904	1.899	1.899
0.000	0.005	0.005	0.005	0.000	0.005	0.034	2.700	1.890	1.890	1.885	1.904	1.899	1.895
0.000	0.005	0.000	0.010	0.005	0.005	0.034	2.676	1.890	1.885	1.885	1.904	1.899	1.899
0.000	0.010	0.000	0.005	0.005	-0.005	0.034	2.681	1.890	1.885	1.885	1.904	1.899	1.895
0.000	0.000	0.005	0.000	0.005	-0.005	0.029	2.671	1.885	1.885	1.885	1.904	1.899	1.895
-0.005	0.005	0.005	-0.005	0.005	0.010	0.034	2.686	1.885	1.885	1.885	1.899	1.899	1.899
0.000	0.005	0.000	-0.005	0.010	0.015	0.034	2.676	1.890	1.885	1.885	1.904	1.899	1.899
0.000	-0.005	0.005	-0.005	0.000	0.010	0.029	2.690	1.895	1.885	1.885	1.904	1.895	1.899
0.000	0.000	0.005	0.000	0.005	-0.015	0.029	2.690	1.895	1.890	1.885	1.904	1.895	1.890
0.005	0.005	0.005	0.000	0.010	-0.015	0.029	2.686	1.890	1.890	1.885	1.904	1.899	1.895
0.005	0.000	0.005	0.000	0.010	0.005	0.029	2.671	1.890	1.890	1.885	1.899	1.899	1.899
0.005	0.000	-0.005	0.005	0.005	0.010	0.029	2.676	1.890	1.885	1.885	1.904	1.899	1.899
0.010	0.000	0.000	0.010	0.005	0.000	0.034	2.666	1.885	1.890	1.885	1.904	1.899	1.899
0.005	-0.005	0.000	0.005	0.010	0.005	0.029	2.686	1.885	1.880	1.880	1.904	1.899	1.895
0.000	-0.010	0.000	0.010	0.005	0.005	0.034	2.681	1.885	1.880	1.880	1.899	1.899	1.895
-0.005	0.000	0.000	0.000	0.000	0.005	0.034	2.690	1.890	1.885	1.880	1.899	1.895	1.895
0.010	0.000	0.005	-0.005	0.000	0.000	0.034	2.695	1.890	1.880	1.880	1.899	1.895	1.895
0.010	0.005	0.000	0.000	0.000	-0.005	0.029	2.681	1.885	1.890	1.885	1.899	1.899	1.890
0.015	0.005	0.005	0.010	0.000	0.005	0.034	2.686	1.890	1.885	1.885	1.904	1.895	1.899
0.005	0.005	0.000	0.005	0.000	-0.024	0.029	2.681	1.885	1.885	1.885	1.899	1.895	1.890
0.000	0.005	0.000	0.000	0.005	0.005	0.029	2.686	1.885	1.885	1.885	1.899	1.899	1.899
-0.005	-0.005	0.000	0.005	0.005	0.010	0.029	2.686	1.885	1.880	1.880	1.899	1.899	1.899
0.000	-0.005	0.000	0.005	0.005	0.000	0.034	2.681	1.890	1.880	1.880	1.899	1.895	1.899
-0.005	0.005	0.000	0.000	0.000	0.005	0.029	2.686	1.890	1.885	1.885	1.899	1.895	1.899
0.005	0.000	0.005	0.010	0.000	0.000	0.029	2.690	1.890	1.885	1.885	1.904	1.895	1.895
-0.005	0.000	0.010	0.010	0.000	0.000	0.029	2.681	1.885	1.885	1.885	1.904	1.899	1.899
0.000	0.000	0.000	0.010	0.000	0.005	0.029	2.690	1.890	1.885	1.880	1.904	1.899	1.899
-0.005	-0.005	0.000	0.005	0.000	0.005	0.029	2.681	1.885	1.885	1.880	1.899	1.899	1.899
0.000	-0.005	0.005	-0.005	0.000	-0.010	0.034	2.686	1.885	1.885	1.880	1.899	1.895	1.895
0.005	0.000	0.005	-0.005	0.000	-0.005	0.029	2.676	1.885	1.885	1.880	1.899	1.895	1.895
0.000	0.005	0.005	-0.005	0.005	-0.005	0.034	2.695	1.885	1.885	1.880	1.899	1.895	1.895
0.000	-0.005	0.000	-0.005	0.005	0.010	0.029	2.681	1.885	1.885	1.880	1.899	1.895	1.895
0.005	0.020	0.000	-0.005	0.010	-0.005	0.034	2.676	1.885	1.890	1.885	1.899	1.895	1.899
0.000	0.010	-0.005	0.000	0.000	0.010	0.034	2.676	1.885	1.885	1.880	1.899	1.895	1.895
0.005	0.005	-0.005	0.000	0.000	-0.005	0.034	2.681	1.890	1.885	1.885	1.899	1.895	1.890
0.000	0.000	0.000	0.005	0.000	0.005	0.029	2.676	1.885	1.880	1.885	1.904	1.895	1.895
-0.005	0.010	0.005	0.010	0.000	-0.005	0.034	2.671	1.885	1.885	1.880	1.904	1.895	1.890
-0.010	-0.005	0.000	0.005	0.000	0.005	0.034	2.671	1.880	1.880	1.880	1.904	1.899	1.895
-0.005	0.000	0.000	0.010	0.005	-0.020	0.034	2.681	1.885	1.880	1.880	1.899	1.899	1.890
-0.010	0.005	0.000	0.005	-0.005	0.005	0.029	2.686	1.885	1.885	1.880	1.904	1.895	1.895
-0.005	0.005	0.000	0.010	-0.005	0.015	0.034	2.676	1.885	1.885	1.880	1.899	1.895	1.899
-0.005	0.005	0.000	0.000	0.010	-0.020	0.029	2.681	1.885	1.885	1.885	1.899	1.895	1.890
-0.005	0.010	0.005	-0.005	0.005	0.010	0.029	2.686	1.890	1.885	1.885	1.899	1.895	1.899
-0.005	0.010	0.005	0.000	0.005	-0.010	0.029	2.676	1.885	1.885	1.880	1.899	1.895	1.890
0.005	0.010	0.000	-0.005	0.000	-0.005	0.029	2.681	1.885	1.885	1.880	1.899	1.895	1.895
0.005	0.005	0.005	-0.005	0.005	-0.005	0.034	2.676	1.885	1.885	1.885	1.899	1.895	1.895
0.005	-0.005	0.005	0.000	0.005	0.005	0.029	2.690	1.885	1.880	1.880	1.899	1.895	1.899
-0.005	0.005	0.005	0.000	0.000	-0.020	0.034	2.681	1.885	1.880	1.880	1.899	1.895	1.895
0.000	0.000	0.000	0.000	-0.005	0.000	0.034	2.681	1.885	1.880	1.880	1.899	1.895	1.895
0.005	-0.005	0.000	0.000	-0.005	-0.005	0.029	2.661	1.885	1.880	1.880	1.899	1.895	1.895
0.005	0.000	0.005	0.000	-0.005	-0.010	0.029	2.690	1.885	1.880	1.880	1.899	1.895	1.890
0.010	0.005	0.005	-0.005	0.005	0.000	0.029	2.686	1.885	1.885	1.880	1.899	1.895	1.895
0.015	0.000	0.000	-0.005	0.005	0.010	0.029	2.676	1.890	1.885	1.880	1.895	1.895	1.895
0.000	0.015	0.005	-0.005	0.000	0.015	0.034	2.681	1.885	1.885	1.885	1.899	1.895	1.899
0.005	0.005	0.000	0.000	0.000	0.005	0.029	2.656	1.885	1.880	1.880	1.899	1.895	1.895
0.000	-0.005	0.000	0.005	0.000	0.005	0.029	2.646	1.880	1.880	1.880	1.899	1.895	1.895
0.000	0.005	0.000	0.000	0.000	0.005	0.034	2.646	1.880	1.880	1.880	1.899	1.895	1.895
0.000	-0.020	0.005	0.010	0.005	-0.005	0.029	2.676	1.875	1.875	1.880	1.899	1.899	1.890
0.000	-0.020	0.000	0.010	0.010	0.010	0.029	2.671	1.880	1.875	1.875	1.899	1.899	1.895
-0.005	-0.010	0.005	0.015	0.000	0.000	0.029	2.671	1.880	1.875	1.875	1.899	1.895	1.895
0.005	-0.010	-0.005	0.010	0.000	-0.010	0.034	2.651	1.880	1.880	1.875	1.895	1.895	1.890
0.005	-0.010	0.000	0.005	0.005	0.005	0.029	2.671	1.880	1.880	1.875	1.895	1.895	1.895
0.000	0.005	0.000	0.000	0.000	0.010	0.029	2.656	1.880	1.880	1.875	1.895	1.890	1.895
-0.005	-0.005	0.005	0.000	0.005	0.005	0.034	2.637	1.870	1.875	1.875	1.890	1.890	1.890
0.005	-0.005	0.000	-0.010	0.000	0.010	0.034	2.651	1.875	1.875	1.875	1.890	1.890	1.895
0.000	0.005	0.000	-0.010	0.005	0.000	0.034	2.769	1.890	1.880	1.875	1.890	1.885	1.890
0.000	0.010	0.000	-0.015	0.000	0.000	0.029	2.646	1.880	1.880	1.875	1.890	1.885	1.890
-0.015	0.024	0.000	-0.015	0.000	0.005	0.034	2.622	1.875	1.880	1.875	1.890	1.885	1.885
-0.010	0.015	0.000	-0.010	-0.005	-0.010	0.034	2.676	1.875	1.875	1.875	1.895	1.885	1.885
-0.010	0.015	0.005	-0.005	-0.005	0.000	0.029	2.676	1.880	1.875	1.875	1.895	1.890	1.885
-0.010	0.005	0.005	0.005	0.000	0.000	0.029	2.676	1.880	1.875	1.875	1.899	1.895	1.890
-0.010	0.015	0.010	0.005	0.005	0.005	0.029	2.690	1.885	1.880	1.880	1.899	1.895	1.890
-0.005	0.010	0.000	0.005	0.000	0.005	0.029	2.681	1.885	1.880	1.875	1.899	1.895	1.890
-0.005	0.005	0.000	0.010	0.000	-0.029	0.029	2.676	1.880	1.875	1.875	1.899	1.890	1.880
-0.005	0.000	0.000	0.010	0.005	0.010	0.029	2.661	1.880	1.875	1.875	1.895	1.895	1.895
0.000	0.000	-0.005	0.010	0.010	0.000	0.034	2.656	1.880	1.875	1.875	1.895	1.895	1.895
0.000	-0.005	0.000	0.005	0.005	0.005	0.034	2.656	1.880	1.875	1.875	1.895	1.890	1.895
0.010	-0.010	0.000	0.005	0.005	0.010	0.034	2.651	1.875	1.875	1.875	1.890	1.890	1.895
0.015	-0.020	0.000	0.005	0.005	0.000	0.029	2.651	1.880	1.870	1.875	1.890	1.890	1.890
0.000	-0.010	-0.005	0.010	0.010	0.000	0.034	2.749	1.885	1.875	1.870	1.890	1.890	1.890
0.005	-0.005	-0.005	0.005	0.005	-0.005	0.034	2.651	1.880	1.880	1.875	1.890	1.890	1.885
0.010	-0.005	-0.005	0.000	-0.010	-0.005	0.029	2.773	1.880	1.875	1.870	1.890	1.880	1.885
0.005	-0.005	0.000	0.000	-0.010	-0.020	0.029	2.715	1.880	1.875	1.875	1.890	1.880	1.880
0.005	0.015	0.000	-0.005	-0.005	-0.010	0.034	2.671	1.875	1.880	1.875	1.890	1.885	1.885
0.000	-0.005	0.005	-0.005	0.000	0.005	0.029	2.681	1.875	1.875	1.875	1.890	1.890	1.890
0.000	0.010	-0.005	0.005	-0.005	-0.010	0.029	2.676	1.875	1.880	1.875	1.895	1.890	1.885
0.010	0.000	-0.005	0.000	0.000	0.005	0.029	2.671	1.875	1.875	1.875	1.890	1.890	1.890
-0.005	0.000	0.005	0.000	0.005	0.005	0.029	2.686	1.880	1.875	1.875	1.895	1.890	1.890
0.000	0.000	0.000	0.000	0.015	0.015	0.029	2.651	1.875	1.875	1.875	1.895	1.895	1.890
0.010	0.000	0.005	0.010	0.015	0.010	0.029	2.671	1.880	1.875	1.875	1.899	1.895	1.890
0.000	0.000	0.000	0.010	0.010	-0.024	0.034	2.651	1.875	1.875	1.875	1.895	1.890	1.880
0.005	-0.005	0.000	0.000	0.010	0.010	0.034	2.651	1.875	1.875	1.875	1.890	1.890	1.895
0.000	-0.010	0.000	0.000	0.005	0.005	0.029	2.646	1.875	1.870	1.875	1.890	1.890	1.890
0.000	-0.020	0.000	0.000	-0.005	0.000	0.029	2.710	1.880	1.870	1.870	1.890	1.885	1.885
0.005	-0.005	0.005	-0.005	-0.010	0.005	0.034	2.632	1.870	1.875	1.875	1.890	1.880	1.885
-0.005	-0.010	0.000	-0.005	0.000	0.005	0.034	2.642	1.875	1.870	1.870	1.890	1.890	1.890
0.005	0.000	0.000	0.000	-0.005	0.010	0.029	2.832	1.890	1.880	1.870	1.890	1.885	1.885
0.005	0.000	0.000	0.000	-0.005	0.000	0.029	2.681	1.890	1.880	1.875	1.890	1.885	1.880
0.000	0.010	0.000	0.000	0.000	0.010	0.029	2.681	1.885	1.885	1.875	1.890	1.885	1.890
0.000	0.000	0.000	0.000	0.005	0.015	0.034	2.666	1.880	1.880	1.875	1.890	1.885	1.890
0.000	0.005	0.000	0.000	0.005	0.010	0.029	2.676	1.880	1.880	1.875	1.890	1.885	1.885
0.000	0.000	0.000	0.000	0.000	0.005	0.029	2.656	1.880	1.880	1.880	1.890	1.885	1.885
0.000	0.010	0.005	0.000	0.000	0.005	0.029	2.681	1.880	1.880	1.880	1.895	1.885	1.885
-0.005	0.005	0.005	0.000	0.000	0.005	0.029	2.676	1.880	1.880	1.880	1.895	1.890	1.885
0.000	0.005	0.005	0.000	0.005	-0.010	0.029	2.656	1.880	1.875	1.880	1.895	1.890	1.885
0.005	0.020	0.000	-0.005	0.005	0.000	0.029	2.646	1.875	1.885	1.880	1.895	1.890	1.890
0.000	0.024	0.000	0.000	0.005	-0.005	0.029	2.651	1.875	1.880	1.880	1.899	1.890	1.885
0.000	0.020	0.005	0.000	0.000	0.010	0.029	2.710	1.880	1.875	1.880	1.899	1.890	1.890
0.000	0.005	0.000	0.005	0.000	0.005	0.029	2.656	1.875	1.875	1.875	1.895	1.890	1.890
0.005	0.000	0.000	0.005	-0.005	-0.005	0.034	2.637	1.870	1.875	1.875	1.899	1.890	1.885
-0.005	-0.015	0.000	0.000	0.000	-0.005	0.034	2.822	1.885	1.870	1.870	1.890	1.890	1.890
0.000	-0.015	-0.005	0.000	0.005	-0.010	0.029	2.676	1.885	1.875	1.870	1.890	1.890	1.885
-0.005	-0.020	0.000	0.005	-0.005	-0.005	0.029	2.686	1.885	1.875	1.870	1.890	1.890	1.885
0.000	-0.015	-0.005	0.000	0.005	0.000	0.029	2.666	1.880	1.880	1.875	1.890	1.890	1.890
-0.005	0.000	0.000	0.005	0.005	0.010	0.029	2.671	1.880	1.880	1.875	1.890	1.890	1.890
0.000	-0.005	0.000	0.010	0.005	0.010	0.034	2.676	1.880	1.880	1.875	1.895	1.890	1.890
-0.010	-0.010	0.000	0.005	-0.005	0.005	0.029	2.666	1.875	1.875	1.875	1.890	1.885	1.885
-0.005	0.005	0.000	0.010	-0.005	0.005	0.029	2.656	1.875	1.880	1.875	1.895	1.885	1.885
0.005	0.015	0.000	0.015	0.005	-0.005	0.034	2.656	1.880	1.880	1.880	1.895	1.890	1.885
-0.005	0.015	0.000	0.005	-0.005	-0.005	0.029	2.656	1.875	1.880	1.880	1.895	1.890	1.885
-0.005	0.005	0.005	-0.005	-0.005	-0.010	0.029	2.651	1.875	1.875	1.875	1.890	1.890	1.885
0.005	0.020	0.010	0.000	-0.010	-0.020	0.029	2.695	1.880	1.880	1.880	1.895	1.885	1.885
-0.005	0.000	0.000	-0.005	-0.005	-0.005	0.029	2.822	1.875	1.875	1.875	1.895	1.890	1.890
0.000	-0.005	0.005	-0.005	0.000	0.015	0.029	2.642	1.875	1.875	1.875	1.895	1.890	1.890
0.000	0.005	0.005	-0.005	0.005	0.005	0.029	2.832	1.899	1.880	1.875	1.895	1.890	1.890
0.005	0.000	0.005	-0.005	0.015	0.015	0.029	2.681	1.890	1.885	1.880	1.890	1.895	1.890
0.005	0.000	0.005	-0.005	0.005	0.000	0.029	2.671	1.890	1.885	1.875	1.895	1.890	1.890
-0.005	-0.010	0.005	0.000	-0.005	0.010	0.034	2.666	1.880	1.880	1.875	1.895	1.885	1.890
0.000	0.000	0.000	0.000	-0.005	0.005	0.029	2.676	1.880	1.880	1.875	1.895	1.885	1.890
0.005	0.015	0.000	0.000	-0.010	0.010	0.029	2.671	1.880	1.885	1.880	1.895	1.890	1.890
0.005	0.015	0.000	0.005	0.010	0.005	0.034	2.666	1.880	1.885	1.880	1.895	1.890	1.885
0.000	0.010	0.005	0.000	0.010	0.005	0.034	2.671	1.880	1.880	1.880	1.899	1.890	1.890
-0.005	0.010	0.000	0.000	0.010	0.015	0.029	2.661	1.875	1.875	1.875	1.895	1.895	1.895
0.010	0.010	0.000	0.005	0.000	0.015	0.034	2.661	1.875	1.875	1.875	1.895	1.890	1.890
0.000	0.010	-0.005	0.005	0.005	-0.005	0.034	2.651	1.875	1.875	1.875	1.895	1.890	1.885
0.000	0.005	0.000	0.005	0.000	0.015	0.029	2.686	1.880	1.875	1.875	1.895	1.890	1.895
0.000	0.000	0.005	0.005	-0.005	0.010	0.029	2.651	1.875	1.875	1.875	1.895	1.890	1.890
0.000	-0.005	0.000	0.005	0.000	-0.005	0.034	2.651	1.875	1.870	1.875	1.895	1.890	1.890
0.005	0.000	-0.005	0.000	0.005	-0.010	0.029	2.822	1.895	1.875	1.870	1.890	1.890	1.885
0.010	0.000	0.000	-0.005	-0.005	0.005	0.029	2.676	1.890	1.880	1.875	1.890	1.885	1.890
0.000	0.000	0.000	-0.010	-0.005	-0.010	0.029	2.686	1.890	1.885	1.875	1.890	1.885	1.885
0.005	0.005	0.000	-0.010	0.005	0.005	0.034	2.671	1.885	1.885	1.880	1.890	1.890	1.890
0.000	-0.005	-0.005	-0.010	0.010	0.005	0.034	2.676	1.880	1.880	1.875	1.890	1.890	1.890
0.000	-0.010	0.000	0.005	0.010	-0.020	0.034	2.671	1.885	1.880	1.875	1.899	1.890	1.885
-0.005	-0.010	0.000	0.000	0.010	0.010	0.029	2.671	1.880	1.880	1.875	1.895	1.890	1.890
0.000	-0.020	0.000	0.000	0.005	0.010	0.029	2.661	1.880	1.875	1.875	1.895	1.890	1.890
0.010	-0.010	-0.005	0.000	-0.005	-0.005	0.029	2.651	1.880	1.880	1.875	1.895	1.885	1.885
0.005	0.000	0.000	0.005	-0.005	0.000	0.029	2.656	1.875	1.880	1.875	1.895	1.890	1.890
0.015	0.000	0.000	0.015	-0.005	-0.005	0.029	2.637	1.875	1.880	1.880	1.899	1.890	1.885
0.015	0.000	-0.005	0.015	0.015	-0.005	0.029	2.671	1.870	1.875	1.875	1.895	1.895	1.890
0.010	0.000	0.000	0.015	0.010	0.000	0.029	2.646	1.870	1.875	1.875	1.895	1.890	1.890
0.005	0.010	0.005	0.010	0.005	0.005	0.029	2.642	1.870	1.875	1.875	1.895	1.890	1.890
0.000	0.005	0.005	0.010	-0.005	0.000	0.029	2.837	1.890	1.875	1.875	1.895	1.890	1.890
-0.005	0.000	0.000	0.010	-0.020	-0.005	0.029	2.661	1.880	1.875	1.875	1.890	1.885	1.890
-0.020	0.005	0.010	0.000	-0.005	0.010	0.029	2.646	1.875	1.875	1.875	1.890	1.890	1.890
0.000	0.000	0.005	-0.005	0.005	0.010	0.029	2.661	1.880	1.875	1.875	1.890	1.890	1.890
-0.010	0.000	0.000	-0.015	0.000	0.005	0.029	2.646	1.875	1.875	1.875	1.885	1.890	1.885
-0.005	0.000	0.005	-0.015	0.000	-0.005	0.029	2.744	1.885	1.875	1.875	1.890	1.885	1.885
0.000	0.000	0.000	-0.010	-0.005	0.005	0.029	2.632	1.875	1.875	1.875	1.890	1.885	1.885
-0.010	0.000	0.000	-0.005	0.000	-0.005	0.029	2.661	1.875	1.875	1.870	1.890	1.885	1.880
-0.010	0.000	0.005	-0.005	0.000	-0.005	0.034	2.666	1.880	1.875	1.875	1.895	1.890	1.885
-0.005	0.005	0.000	0.000	0.010	-0.010	0.029	2.671	1.875	1.875	1.870	1.895	1.890	1.885
-0.005	-0.010	0.005	0.000	0.015	0.005	0.029	2.651	1.870	1.870	1.875	1.895	1.890	1.895
0.000	-0.010	0.000	0.005	0.010	-0.005	0.029	2.642	1.875	1.870	1.870	1.890	1.890	1.890
-0.010	0.000	0.000	0.005	-0.005	-0.005	0.034	2.666	1.875	1.870	1.870	1.890	1.885	1.885
0.005	-0.005	0.000	0.005	-0.010	0.010	0.034	2.793	1.890	1.875	1.870	1.890	1.880	1.890
-0.024	0.005	0.000	0.000	-0.010	0.010	0.029	2.808	1.895	1.880	1.875	1.890	1.880	1.885
0.000	0.005	0.000	0.005	-0.015	-0.020	0.029	2.661	1.895	1.885	1.875	1.890	1.880	1.880
0.015	0.005	0.005	0.000	0.000	0.000	0.029	2.676	1.895	1.885	1.880	1.890	1.890	1.885
0.024	0.005	0.005	-0.005	0.010	0.005	0.029	2.671	1.890	1.890	1.880	1.895	1.890	1.890
0.024	0.000	0.000	0.000	0.015	0.010	0.029	2.656	1.885	1.885	1.880	1.895	1.895	1.890
0.024	-0.005	0.005	0.000	0.010	0.015	0.029	2.656	1.880	1.885	1.880	1.899	1.890	1.890
0.015	-0.005	0.000	0.000	0.005	0.005	0.029	2.725	1.885	1.880	1.880	1.895	1.890	1.890
0.010	-0.005	0.000	0.000	0.005	-0.010	0.029	2.627	1.895	1.885	1.880	1.895	1.890	1.880
0.015	-0.005	0.000	0.005	0.000	0.000	0.029	2.642	1.885	1.885	1.880	1.899	1.895	1.890
0.000	0.015	0.000	0.010	-0.005	-0.005	0.029	2.847	1.899	1.890	1.885	1.899	1.890	1.885
0.000	0.010	-0.005	0.010	0.015	0.005	0.029	2.671	1.890	1.890	1.885	1.904	1.895	1.895
-0.010	0.010	0.000	0.000	0.005	-0.005	0.034	2.676	1.885	1.885	1.885	1.899	1.895	1.895
-0.024	0.010	0.000	0.000	0.010	0.005	0.029	2.671	1.880	1.880	1.880	1.899	1.895	1.895
-0.005	-0.010	0.000	0.010	0.000	-0.005	0.034	2.642	1.880	1.875	1.880	1.899	1.890	1.890
-0.005	-0.005	0.000	0.005	-0.010	-0.005	0.029	2.632	1.875	1.880	1.880	1.899	1.890	1.885
-0.010	0.000	0.000	0.005	0.000	0.005	0.029	2.642	1.870	1.875	1.875	1.899	1.895	1.895
0.005	-0.005	0.000	0.000	0.000	-0.020	0.029	2.676	1.895	1.880	1.875	1.895	1.895	1.890
-0.005	-0.005	0.000	0.000	0.010	0.000	0.029	2.666	1.885	1.875	1.880	1.895	1.895	1.895
-0.010	-0.010	0.000	0.005	0.020	0.000	0.034	2.651	1.880	1.875	1.880	1.899	1.895	1.895
0.000	-0.005	0.000	0.005	0.024	0.010	0.029	2.642	1.875	1.880	1.875	1.895	1.899	1.899
-0.005	-0.010	0.005	0.000	0.005	0.005	0.029	2.646	1.875	1.875	1.880	1.895	1.890	1.895
-0.005	-0.005	0.000	0.005	-0.034	0.015	0.029	2.720	1.880	1.880	1.875	1.895	1.880	1.890
-0.005	0.020	0.005	0.000	-0.034	0.015	0.029	2.651	1.880	1.880	1.880	1.895	1.885	1.890
0.015	0.015	0.000	0.005	-0.005	0.015	0.029	2.642	1.885	1.885	1.880	1.899	1.895	1.895
0.024	0.005	0.000	0.010	0.024	0.029	0.029	2.842	1.904	1.885	1.880	1.899	1.904	1.899
0.020	0.000	0.005	0.005	0.034	-0.005	0.029	2.690	1.895	1.885	1.880	1.899	1.899	1.890
0.005	-0.005	0.005	0.005	-0.010	-0.010	0.029	2.642	1.880	1.885	1.880	1.895	1.890	1.885
0.010	0.005	0.000	0.000	-0.020	-0.044	0.029	2.637	1.875	1.885	1.880	1.895	1.885	1.875
-0.005	0.000	0.000	-0.005	-0.044	-0.068	0.029	2.656	1.870	1.875	1.880	1.895	1.880	1.870
-0.005	-0.005	0.005	-0.010	-0.059	-0.034	0.029	2.651	1.870	1.875	1.875	1.895	1.880	1.880
-0.010	0.000	0.000	-0.010	-0.054	-0.005	0.029	2.651	1.870	1.870	1.875	1.890	1.885	1.890
-0.005	0.005	-0.005	-0.020	-0.010	0.005	0.029	2.661	1.870	1.870	1.875	1.890	1.895	1.890
0.005	0.010	0.000	-0.010	0.010	-0.010	0.034	2.690	1.875	1.875	1.875	1.895	1.899	1.895
0.005	0.015	0.000	-0.005	0.010	0.024	0.034	2.651	1.875	1.875	1.875	1.895	1.895	1.899
0.005	0.029	0.000	0.000	0.015	0.029	0.029	2.686	1.880	1.880	1.875	1.899	1.899	1.904
-0.005	0.010	0.000	0.005	0.034	0.029	0.029	2.700	1.880	1.875	1.875	1.895	1.904	1.899
0.005	0.010	0.005	0.010	0.034	0.015	0.034	2.686	1.880	1.880	1.875	1.895	1.899	1.899
0.000	0.015	0.005	0.005	0.015	0.015	0.029	2.710	1.890	1.880	1.880	1.899	1.890	1.895
-0.010	0.005	0.000	0.010	0.000	0.005	0.029	2.676	1.885	1.880	1.875	1.895	1.890	1.890
0.000	0.010	0.000	0.010	-0.005	0.010	0.029	2.681	1.890	1.885	1.875	1.895	1.890	1.890
0.000	0.015	0.005	0.000	-0.010	-0.005	0.029	2.681	1.885	1.885	1.880	1.895	1.885	1.885
0.000	0.000	0.000	0.000	0.000	-0.005	0.029	2.681	1.885	1.875	1.880	1.895	1.890	1.885
0.005	-0.010	0.000	0.005	0.005	0.000	0.029	2.676	1.885	1.880	1.875	1.895	1.895	1.890
0.005	-0.005	0.005	0.005	0.010	-0.005	0.029	2.666	1.880	1.880	1.875	1.895	1.890	1.890
0.005	-0.010	0.000	0.000	0.000	0.000	0.029	2.676	1.885	1.875	1.875	1.895	1.890	1.890
0.020	-0.015	-0.005	0.005	0.000	0.000	0.029	2.671	1.885	1.875	1.875	1.895	1.890	1.890
0.010	-0.005	0.000	0.005	0.010	0.005	0.029	2.690	1.885	1.880	1.875	1.895	1.895	1.890
0.005	-0.010	0.005	0.000	0.005	0.005	0.029	2.695	1.885	1.880	1.875	1.895	1.890	1.890
0.015	-0.005	0.000	0.010	0.000	0.005	0.029	2.676	1.885	1.880	1.875	1.895	1.890	1.890
0.015	-0.015	0.000	0.010	0.000	0.010	0.029	2.681	1.885	1.880	1.875	1.895	1.890	1.890
0.000	-0.010	0.005	0.005	-0.015	0.015	0.034	2.671	1.880	1.880	1.875	1.895	1.885	1.890
-0.010	0.000	0.000	0.000	-0.005	-0.005	0.034	2.661	1.875	1.880	1.880	1.895	1.890	1.885
-0.010	0.005	0.000	-0.005	0.010	-0.005	0.029	2.710	1.880	1.880	1.875	1.895	1.890	1.885
-0.068	0.000	0.000	-0.005	-0.005	-0.015	0.029	2.646	1.860	1.875	1.875	1.890	1.885	1.885
-0.093	0.005	0.000	0.000	0.005	-0.005	0.034	2.690	1.865	1.870	1.870	1.895	1.890	1.885
-0.049	0.005	-0.005	-0.005	0.024	-0.024	0.034	2.690	1.880	1.875	1.875	1.890	1.895	1.885
0.005	0.005	0.005	-0.005	0.020	0.010	0.029	2.676	1.895	1.880	1.875	1.895	1.895	1.895
0.049	0.010	0.000	0.000	0.015	0.010	0.034	2.676	1.904	1.890	1.875	1.895	1.895	1.895
0.063	0.000	0.000	0.005	0.020	0.005	0.029	2.681	1.904	1.890	1.880	1.899	1.895	1.895
0.059	0.000	0.005	0.010	0.005	-0.005	0.029	2.690	1.899	1.890	1.885	1.899	1.890	1.890
0.054	-0.005	0.000	0.005	0.000	0.010	0.029	2.671	1.890	1.890	1.885	1.899	1.890	1.890
0.034	-0.010	-0.005	0.005	0.000	0.000	0.029	2.681	1.880	1.885	1.885	1.895	1.890	1.890
0.020	-0.005	0.000	0.000	0.000	0.005	0.029	2.681	1.880	1.880	1.880	1.899	1.890	1.890
0.005	-0.005	-0.005	0.000	0.005	-0.010	0.029	2.656	1.870	1.875	1.880	1.899	1.895	1.885
0.000	-0.010	-0.005	-0.005	0.000	0.010	0.029	2.681	1.870	1.870	1.875	1.899	1.890	1.895
0.000	0.000	0.000	0.010	0.005	0.010	0.029	2.686	1.875	1.875	1.875	1.899	1.895	1.890
-0.005	0.005	-0.005	-0.005	0.005	0.000	0.029	2.686	1.875	1.875	1.875	1.895	1.890	1.890
-0.020	0.005	0.000	-0.005	0.005	0.000	0.034	2.676	1.875	1.875	1.875	1.895	1.890	1.890
-0.015	0.010	0.000	-0.005	0.010	0.000	0.034	2.700	1.875	1.875	1.875	1.890	1.895	1.890
-0.015	0.015	0.000	-0.010	0.000	0.000	0.029	2.666	1.880	1.880	1.875	1.890	1.890	1.890
-0.005	0.020	0.000	-0.005	-0.005	-0.010	0.029	2.690	1.885	1.880	1.880	1.895	1.890	1.885
-0.005	0.010	0.000	0.005	0.000	0.005	0.029	2.690	1.885	1.880	1.880	1.899	1.890	1.890
-0.005	0.010	0.000	-0.005	0.000	-0.005	0.029	2.681	1.880	1.880	1.875	1.895	1.890	1.890
-0.015	0.005	0.000	-0.005	-0.005	-0.005	0.029	2.690	1.880	1.880	1.875	1.895	1.890	1.890
-0.015	0.005	0.000	-0.005	0.015	0.005	0.029	2.681	1.880	1.880	1.875	1.895	1.895	1.895
-0.024	-0.010	0.010	0.000	0.024	0.010	0.029	2.681	1.880	1.875	1.880	1.895	1.899	1.895
0.000	0.000	0.000	-0.015	0.010	0.005	0.029	2.710	1.890	1.880	1.875	1.895	1.890	1.890
0.005	0.000	0.000	0.000	-0.005	0.005	0.029	2.671	1.885	1.885	1.875	1.895	1.885	1.890
0.015	-0.010	0.000	0.005	-0.015	-0.020	0.029	2.676	1.885	1.880	1.875	1.895	1.885	1.880
0.010	-0.020	0.000	0.005	-0.015	0.000	0.029	2.671	1.885	1.880	1.875	1.899	1.890	1.890
0.005	-0.005	0.000	0.005	-0.010	0.015	0.029	2.671	1.880	1.880	1.875	1.899	1.890	1.890
0.005	0.005	0.005	0.010	-0.005	-0.005	0.029	2.671	1.880	1.880	1.880	1.899	1.890	1.890
0.005	-0.010	0.005	0.010	0.010	0.005	0.034	2.671	1.880	1.880	1.875	1.895	1.899	1.890
-0.005	-0.005	0.000	0.015	0.010	0.015	0.034	2.676	1.875	1.875	1.875	1.895	1.895	1.895
-0.015	-0.010	0.000	0.010	0.005	0.005	0.034	2.676	1.875	1.875	1.875	1.895	1.895	1.890
-0.020	0.010	0.005	0.010	0.015	0.010	0.029	2.681	1.875	1.875	1.880	1.895	1.895	1.895
-0.024	0.005	0.000	0.005	0.015	0.005	0.034	2.686	1.875	1.875	1.875	1.895	1.890	1.895
-0.029	-0.010	0.000	0.000	0.010	0.010	0.029	2.686	1.880	1.870	1.875	1.890	1.890	1.895
-0.020	0.005	0.005	0.000	-0.005	0.010	0.029	2.686	1.885	1.880	1.875	1.890	1.885	1.890
-0.005	-0.010	0.005	0.000	-0.005	0.005	0.029	2.661	1.885	1.880	1.875	1.890	1.885	1.890
0.000	0.000	0.005	0.000	-0.015	0.005	0.029	2.681	1.890	1.885	1.875	1.895	1.885	1.885
0.015	0.005	-0.005	0.000	0.000	0.005	0.029	2.686	1.890	1.885	1.880	1.895	1.885	1.890
0.015	0.000	0.000	0.000	0.000	0.000	0.029	2.715	1.890	1.885	1.880	1.895	1.890	1.885
0.024	0.010	-0.005	0.000	-0.005	0.005	0.029	2.651	1.885	1.890	1.880	1.895	1.890	1.885
0.010	-0.005	0.005	0.000	-0.005	-0.010	0.034	2.671	1.880	1.885	1.880	1.895	1.890	1.885
0.005	-0.005	0.005	0.000	-0.024	0.000	0.034	2.681	1.880	1.875	1.880	1.899	1.885	1.890
0.015	-0.005	0.000	0.000	-0.020	0.005	0.029	2.676	1.880	1.880	1.875	1.895	1.890	1.890
0.010	0.000	0.000	0.000	0.015	-0.024	0.034	2.676	1.875	1.875	1.880	1.895	1.899	1.885
0.010	0.000	0.000	0.000	0.005	0.010	0.029	2.676	1.875	1.875	1.875	1.895	1.895	1.895
0.015	0.010	0.000	0.000	-0.039	-0.020	0.029	2.686	1.885	1.880	1.875	1.895	1.880	1.880
0.010	0.015	0.000	0.000	-0.054	0.005	0.029	2.671	1.875	1.880	1.875	1.895	1.880	1.890
-0.005	0.005	0.000	0.005	-0.063	-0.015	0.029	2.661	1.875	1.870	1.875	1.895	1.880	1.880
0.005	0.005	-0.005	0.005	-0.039	0.015	0.029	2.676	1.875	1.875	1.875	1.895	1.890	1.890
0.005	0.000	0.000	0.000	0.005	0.010	0.029	2.690	1.880	1.875	1.875	1.895	1.899	1.895
-0.005	0.005	0.000	0.005	0.034	0.000	0.029	2.686	1.880	1.875	1.875	1.895	1.909	1.895
0.005	0.000	0.010	0.005	0.039	-0.005	0.034	2.715	1.885	1.880	1.875	1.899	1.904	1.895
0.000	0.005	0.000	0.005	0.068	-0.005	0.034	2.676	1.885	1.880	1.875	1.899	1.909	1.899
-0.005	0.005	0.000	0.005	0.093	0.010	0.029	2.686	1.885	1.880	1.880	1.899	1.909	1.909
0.005	0.000	0.000	0.010	0.093	0.015	0.029	2.656	1.885	1.880	1.875	1.899	1.904	1.909
0.005	-0.005	-0.005	0.005	0.103	0.015	0.034	2.681	1.885	1.875	1.875	1.895	1.904	1.909
-0.005	0.000	0.005	0.000	0.054	0.015	0.029	2.681	1.885	1.880	1.880	1.895	1.885	1.899
-0.005	0.005	-0.005	0.000	0.000	0.010	0.029	2.676	1.885	1.880	1.875	1.890	1.875	1.890
0.010	-0.015	0.000	-0.005	-0.049	0.000	0.029	2.676	1.885	1.875	1.875	1.890	1.865	1.880
0.000	-0.020	0.005	-0.005	-0.049	0.005	0.029	2.676	1.880	1.875	1.875	1.890	1.870	1.875
0.000	-0.015	0.005	0.000	-0.024	-0.015	0.029	2.686	1.880	1.875	1.875	1.895	1.880	1.875
0.000	-0.015	0.005	0.000	-0.020	0.005	0.029	2.676	1.880	1.880	1.875	1.895	1.885	1.880
0.010	0.000	0.000	0.005	-0.010	0.005	0.029	2.720	1.885	1.885	1.875	1.895	1.890	1.885
0.010	0.000	0.000	0.000	-0.015	0.005	0.029	2.671	1.885	1.880	1.875	1.895	1.885	1.885
0.000	0.000	0.005	-0.005	-0.020	0.000	0.034	2.681	1.880	1.880	1.880	1.890	1.885	1.885
-0.005	0.005	0.000	-0.005	-0.020	-0.015	0.034	2.681	1.880	1.880	1.875	1.895	1.885	1.880
-0.005	0.015	0.005	-0.005	-0.020	-0.015	0.029	2.686	1.880	1.880	1.880	1.895	1.885	1.885
0.010	0.015	-0.005	-0.005	-0.015	-0.005	0.029	2.686	1.880	1.885	1.880	1.895	1.890	1.885
0.000	0.024	0.005	0.000	-0.039	0.010	0.034	2.686	1.880	1.885	1.880	1.899	1.885	1.890
-0.010	0.020	0.005	0.000	-0.034	-0.005	0.029	2.686	1.880	1.880	1.880	1.899	1.890	1.885
-0.005	0.010	0.005	0.000	-0.005	0.005	0.029	2.681	1.880	1.880	1.880	1.899	1.899	1.890
-0.005	0.015	-0.005	0.000	0.000	0.000	0.029	2.681	1.880	1.875	1.875	1.899	1.899	1.890
-0.005	0.020	0.000	0.000	0.000	0.000	0.034	2.676	1.875	1.880	1.875	1.895	1.895	1.895
0.000	-0.005	0.000	0.000	-0.005	0.000	0.029	2.666	1.880	1.875	1.875	1.895	1.895	1.890
-0.005	-0.010	-0.005	-0.005	0.005	-0.005	0.029	2.681	1.880	1.870	1.875	1.895	1.895	1.895
0.000	-0.005	0.000	-0.005	0.000	0.010	0.029	2.651	1.875	1.875	1.875	1.895	1.895	1.895
0.000	-0.005	0.005	-0.005	0.020	-0.005	0.029	2.686	1.875	1.875	1.875	1.895	1.895	1.890
0.000	-0.005	0.000	0.005	0.020	-0.010	0.029	2.676	1.880	1.875	1.875	1.895	1.895	1.890
0.000	-0.010	0.005	0.005	0.015	-0.005	0.029	2.710	1.885	1.875	1.870	1.895	1.890	1.890
0.005	0.010	0.000	0.010	-0.005	0.000	0.029	2.646	1.880	1.880	1.875	1.890	1.885	1.895
-0.005	0.010	0.000	0.005	0.005	0.000	0.034	2.681	1.880	1.880	1.875	1.895	1.890	1.890
0.000	-0.005	0.010	0.000	0.000	0.000	0.029	2.686	1.885	1.875	1.875	1.890	1.890	1.890
0.000	0.000	0.005	0.000	-0.005	0.000	0.029	2.690	1.880	1.875	1.875	1.890	1.885	1.890
0.000	-0.005	0.000	0.000	-0.005	0.005	0.029	2.686	1.880	1.875	1.875	1.890	1.885	1.890
-0.044	-0.005	0.000	-0.005	0.000	0.000	0.029	2.686	1.870	1.870	1.875	1.890	1.890	1.890
-0.034	0.000	0.000	0.005	0.000	0.005	0.034	2.661	1.875	1.880	1.875	1.890	1.890	1.890
-0.005	0.005	0.005	0.005	0.000	-0.005	0.029	2.651	1.885	1.880	1.875	1.895	1.890	1.885
0.034	0.000	0.000	0.005	-0.015	0.000	0.029	2.681	1.895	1.880	1.880	1.895	1.885	1.885
0.054	0.005	0.000	0.000	-0.034	-0.005	0.029	2.686	1.895	1.885	1.880	1.890	1.875	1.885
0.054	-0.005	-0.005	0.010	-0.020	0.000	0.029	2.671	1.890	1.885	1.880	1.895	1.885	1.885
0.044	-0.010	0.000	0.005	0.005	0.000	0.029	2.686	1.890	1.885	1.880	1.895	1.895	1.885
0.029	-0.005	0.005	0.005	0.015	0.005	0.029	2.788	1.890	1.885	1.880	1.899	1.899	1.890
0.000	0.000	0.000	0.000	0.010	0.000	0.034	2.681	1.880	1.880	1.880	1.899	1.895	1.890
-0.020	-0.010	0.005	0.005	0.000	0.000	0.029	2.690	1.875	1.875	1.880	1.895	1.890	1.890
-0.029	-0.015	0.000	0.005	0.005	-0.005	0.029	2.715	1.875	1.875	1.875	1.895	1.890	1.890
-0.020	0.005	-0.005	0.005	0.005	0.000	0.034	2.676	1.880	1.880	1.875	1.895	1.890	1.890
-0.015	0.000	0.000	0.010	0.010	-0.015	0.029	2.686	1.880	1.880	1.880	1.895	1.890	1.890
-0.015	0.005	0.000	0.015	0.010	0.010	0.029	2.676	1.885	1.880	1.875	1.899	1.895	1.895
0.000	0.010	0.000	0.020	0.000	-0.005	0.029	2.671	1.890	1.885	1.880	1.899	1.890	1.890
0.010	0.020	0.005	0.015	0.000	0.010	0.029	2.690	1.890	1.890	1.880	1.899	1.890	1.895
0.005	0.015	0.005	0.010	0.000	0.005	0.029	2.686	1.885	1.885	1.885	1.895	1.895	1.890
0.005	0.010	0.005	-0.005	0.005	0.015	0.029	2.676	1.890	1.885	1.880	1.895	1.895	1.895
0.000	0.000	-0.005	-0.024	0.015	0.015	0.029	2.725	1.890	1.880	1.880	1.890	1.890	1.895
0.010	-0.010	0.000	-0.024	0.015	0.010	0.029	2.656	1.885	1.880	1.880	1.890	1.890	1.895
0.010	-0.015	0.000	-0.024	0.010	0.005	0.029	2.676	1.880	1.880	1.875	1.895	1.890	1.890
0.020	-0.005	0.000	-0.020	0.005	-0.020	0.034	2.681	1.890	1.880	1.880	1.895	1.885	1.885
0.015	-0.020	0.000	-0.005	0.000	0.005	0.029	2.676	1.885	1.880	1.880	1.899	1.890	1.890
-0.010	-0.015	0.000	0.005	-0.005	0.000	0.034	2.681	1.875	1.875	1.880	1.899	1.890	1.890
0.005	-0.010	0.000	0.015	0.000	-0.005	0.034	2.661	1.880	1.880	1.880	1.899	1.895	1.890
0.015	-0.005	0.000	0.015	0.000	0.005	0.029	2.681	1.885	1.880	1.880	1.899	1.890	1.890
0.010	-0.005	0.000	0.010	0.000	-0.020	0.029	2.676	1.880	1.880	1.880	1.899	1.895	1.890
-0.005	0.000	0.000	0.000	0.005	-0.024	0.029	2.690	1.875	1.875	1.875	1.895	1.895	1.890
-0.010	0.005	0.005	-0.005	0.010	0.000	0.029	2.690	1.875	1.875	1.875	1.895	1.895	1.890
-0.034	0.005	0.005	-0.005	0.000	0.005	0.029	2.681	1.870	1.875	1.875	1.895	1.890	1.895
-0.029	0.010	0.000	-0.005	0.000	-0.005	0.029	2.695	1.875	1.875	1.875	1.895	1.890	1.890
-0.015	0.015	0.005	-0.005	0.000	-0.005	0.029	2.661	1.880	1.880	1.875	1.895	1.890	1.890
-0.005	0.005	0.000	0.000	0.000	0.005	0.029	2.676	1.880	1.875	1.875	1.895	1.890	1.895
-0.015	0.015	0.000	0.005	0.000	0.005	0.029	2.681	1.880	1.880	1.880	1.895	1.890	1.890
-0.010	0.010	-0.005	0.005	0.010	0.005	0.029	2.676	1.885	1.880	1.875	1.899	1.895	1.890
-0.010	0.000	0.000	0.005	0.020	0.010	0.029	2.651	1.880	1.875	1.875	1.899	1.899	1.895
0.005	-0.005	0.000	0.010	0.005	-0.005	0.029	2.681	1.885	1.875	1.875	1.895	1.890	1.890
0.005	0.000	0.005	0.020	0.000	0.000	0.029	2.690	1.890	1.880	1.880	1.899	1.890	1.890
-0.005	-0.005	-0.005	0.010	-0.005	0.005	0.029	2.676	1.880	1.880	1.880	1.895	1.890	1.890
0.010	-0.005	0.005	0.005	-0.005	0.000	0.029	2.676	1.885	1.880	1.875	1.895	1.890	1.890
0.015	0.010	-0.005	0.005	-0.005	0.005	0.029	2.681	1.885	1.885	1.875	1.895	1.890	1.890
0.034	0.000	0.000	0.000	-0.005	-0.010	0.029	2.676	1.890	1.885	1.880	1.895	1.890	1.885
0.059	0.005	-0.005	-0.005	0.005	0.005	0.029	2.681	1.895	1.885	1.880	1.895	1.890	1.890
0.063	-0.010	0.000	-0.005	-0.005	0.000	0.029	2.695	1.890	1.880	1.880	1.895	1.885	1.890
0.039	-0.020	0.000	0.000	0.005	0.005	0.029	2.690	1.880	1.880	1.880	1.895	1.895	1.890
-0.005	-0.005	-0.005	0.005	0.010	0.010	0.029	2.686	1.870	1.880	1.880	1.899	1.895	1.890
-0.049	0.005	0.005	0.000	0.010	-0.010	0.029	2.686	1.865	1.875	1.880	1.895	1.890	1.885
-0.059	0.000	0.010	-0.005	0.005	-0.005	0.029	2.666	1.865	1.870	1.875	1.895	1.890	1.885
-0.034	0.005	0.005	-0.010	-0.005	0.010	0.029	2.681	1.870	1.870	1.875	1.895	1.885	1.890
-0.034	0.024	0.005	-0.005	-0.005	0.010	0.029	2.676	1.880	1.880	1.875	1.895	1.890	1.890
-0.015	0.020	0.005	-0.005	-0.005	0.015	0.034	2.710	1.890	1.880	1.875	1.895	1.890	1.890
0.010	0.020	0.000	0.000	-0.015	-0.005	0.029	2.681	1.895	1.880	1.875	1.895	1.885	1.885
0.005	0.005	0.000	0.005	-0.010	-0.010	0.029	2.681	1.890	1.880	1.875	1.899	1.890	1.885
0.010	0.005	0.000	0.010	-0.029	-0.015	0.034	2.695	1.890	1.885	1.875	1.895	1.885	1.885
-0.010	0.000	0.000	0.010	-0.039	-0.020	0.034	2.656	1.875	1.880	1.875	1.895	1.885	1.880
-0.010	0.000	-0.005	0.010	0.005	-0.005	0.029	2.666	1.875	1.875	1.880	1.895	1.899	1.890
-0.020	-0.010	0.005	0.005	0.010	-0.020	0.029	2.671	1.870	1.875	1.875	1.895	1.895	1.890
-0.015	-0.015	0.000	-0.010	0.015	0.000	0.029	2.671	1.875	1.870	1.875	1.890	1.895	1.895
-0.020	-0.010	0.005	-0.015	0.020	0.020	0.029	2.676	1.875	1.875	1.875	1.890	1.895	1.899
-0.010	-0.020	0.000	-0.010	0.020	0.010	0.029	2.671	1.875	1.870	1.870	1.890	1.890	1.895
-0.039	-0.005	0.000	0.000	0.059	0.015	0.029	2.676	1.870	1.875	1.870	1.890	1.904	1.899
-0.029	-0.005	0.005	0.000	0.059	0.015	0.029	2.681	1.880	1.875	1.875	1.895	1.895	1.895
0.005	-0.020	0.000	0.010	0.005	0.000	0.029	2.681	1.890	1.875	1.870	1.895	1.880	1.890
0.029	-0.010	0.000	0.005	-0.020	0.000	0.029	2.690	1.895	1.885	1.875	1.890	1.875	1.885
0.034	0.000	0.005	0.010	-0.010	0.034	0.029	2.681	1.890	1.890	1.880	1.895	1.885	1.895
0.049	-0.005	0.000	0.020	0.000	0.029	0.029	2.690	1.899	1.890	1.880	1.899	1.890	1.890
0.039	0.020	0.005	0.015	0.005	0.029	0.034	2.681	1.895	1.895	1.885	1.899	1.890	1.890
0.029	0.000	0.005	0.005	-0.020	0.000	0.034	2.686	1.885	1.890	1.885	1.895	1.885	1.880
0.029	0.005	-0.005	0.000	-0.015	-0.010	0.029	2.690	1.880	1.885	1.885	1.895	1.885	1.880
0.000	0.005	0.000	-0.010	-0.024	-0.034	0.029	2.676	1.875	1.880	1.885	1.895	1.885	1.875
0.000	0.015	-0.005	-0.010	-0.020	-0.029	0.034	2.676	1.875	1.880	1.880	1.895	1.890	1.880
-0.005	-0.005	0.000	-0.005	0.005	-0.010	0.029	2.686	1.870	1.875	1.880	1.899	1.895	1.890
-0.010	0.005	0.000	0.000	-0.005	0.005	0.029	2.671	1.870	1.875	1.875	1.899	1.895	1.895
0.000	0.005	0.000	0.010	-0.039	0.005	0.034	2.710	1.880	1.875	1.875	1.899	1.885	1.890
0.000	-0.005	0.000	0.005	-0.034	0.034	0.029	2.671	1.880	1.875	1.875	1.895	1.890	1.899
0.000	-0.005	0.000	0.005	-0.020	0.034	0.029	2.681	1.880	1.875	1.875	1.895	1.895	1.895
0.015	0.000	0.000	0.005	0.000	0.020	0.029	2.661	1.880	1.875	1.875	1.895	1.899	1.895
0.005	-0.005	0.000	-0.005	0.034	0.000	0.029	2.686	1.880	1.875	1.875	1.890	1.904	1.890
0.000	-0.005	0.000	-0.005	0.034	-0.049	0.029	2.681	1.880	1.875	1.875	1.890	1.895	1.880
0.005	-0.010	0.000	-0.005	0.024	-0.083	0.029	2.681	1.875	1.875	1.875	1.890	1.890	1.875
0.015	0.005	0.000	0.000	0.015	-0.078	0.029	2.671	1.875	1.880	1.875	1.890	1.885	1.875
0.000	-0.005	0.005	-0.005	0.049	-0.073	0.029	2.681	1.875	1.875	1.875	1.890	1.899	1.885
0.000	0.020	0.000	-0.005	0.083	-0.059	0.029	2.690	1.880	1.880	1.875	1.895	1.904	1.895
0.000	0.010	0.000	0.000	0.117	-0.034	0.034	2.666	1.885	1.880	1.875	1.895	1.909	1.904
0.005	0.000	0.005	0.000	0.107	-0.024	0.029	2.681	1.885	1.880	1.875	1.895	1.899	1.909
-0.010	0.010	0.000	0.005	0.088	0.020	0.029	2.676	1.885	1.880	1.880	1.895	1.899	1.914
-0.020	0.015	0.000	0.005	0.088	0.034	0.029	2.666	1.880	1.885	1.880	1.895	1.895	1.914
-0.015	0.015	0.005	0.010	0.044	0.034	0.034	2.676	1.885	1.880	1.880	1.895	1.880	1.904
0.000	0.015	0.000	0.010	-0.029	0.029	0.029	2.676	1.885	1.880	1.880	1.895	1.865	1.890
0.000	0.000	0.000	0.005	-0.068	0.020	0.029	2.710	1.890	1.880	1.880	1.890	1.860	1.875
-0.005	-0.020	-0.005	0.000	-0.068	0.024	0.029	2.681	1.885	1.875	1.875	1.890	1.870	1.875
0.000	-0.020	0.000	0.000	-0.068	0.024	0.029	2.671	1.880	1.880	1.875	1.895	1.875	1.875
0.000	-0.005	-0.005	0.005	-0.054	0.024	0.029	2.676	1.880	1.880	1.875	1.895	1.880	1.875
0.005	-0.005	0.000	0.010	-0.044	-0.005	0.029	2.671	1.880	1.880	1.875	1.895	1.885	1.875
0.005	-0.010	-0.005	0.010	-0.039	0.015	0.029	2.676	1.880	1.875	1.875	1.895	1.890	1.880
0.005	0.000	-0.005	0.015	-0.034	0.015	0.029	2.681	1.875	1.880	1.875	1.895	1.890	1.885
0.015	0.005	0.000	0.005	-0.029	0.005	0.029	2.681	1.885	1.880	1.875	1.895	1.890	1.880
0.000	0.000	0.005	0.000	-0.024	0.024	0.034	2.705	1.885	1.880	1.880	1.895	1.895	1.890
-0.005	0.010	0.005	-0.005	-0.015	-0.005	0.034	2.671	1.890	1.885	1.875	1.895	1.890	1.885
0.005	0.005	0.005	-0.005	-0.024	0.020	0.034	2.666	1.885	1.880	1.880	1.895	1.890	1.890
0.000	0.015	0.000	-0.005	-0.015	0.005	0.034	2.681	1.885	1.885	1.880	1.895	1.895	1.890
0.005	0.005	0.005	-0.005	-0.015	-0.005	0.034	2.695	1.885	1.880	1.880	1.899	1.895	1.890
0.005	0.000	0.000	-0.005	-0.010	0.010	0.029	2.671	1.880	1.880	1.880	1.895	1.895	1.895
-0.005	0.005	0.000	-0.005	-0.005	0.005	0.029	2.686	1.880	1.880	1.880	1.899	1.895	1.895
-0.005	0.005	0.000	0.005	-0.005	0.005	0.029	2.671	1.880	1.880	1.880	1.899	1.895	1.895
0.010	-0.005	0.000	0.005	-0.005	0.005	0.029	2.676	1.885	1.875	1.875	1.899	1.895	1.890
-0.005	-0.005	0.000	0.000	-0.010	0.005	0.029	2.686	1.880	1.875	1.875	1.895	1.895	1.895
-0.010	-0.005	0.005	0.000	-0.010	0.005	0.029	2.681	1.875	1.875	1.875	1.895	1.890	1.890
-0.005	-0.005	0.000	0.000	-0.010	0.005	0.034	2.676	1.880	1.875	1.875	1.895	1.890	1.890
0.000	-0.010	0.000	-0.005	0.000	0.000	0.034	2.681	1.880	1.875	1.875	1.895	1.890	1.890
0.000	-0.010	0.000	0.000	0.005	0.005	0.034	2.686	1.880	1.875	1.875	1.895	1.895	1.890
0.000	-0.005	0.000	0.005	0.000	-0.005	0.034	2.681	1.885	1.880	1.875	1.895	1.890	1.890
0.005	-0.005	0.000	0.015	0.005	-0.010	0.034	2.681	1.880	1.880	1.875	1.895	1.890	1.890
0.010	0.005	0.005	0.015	0.000	-0.010	0.029	2.690	1.885	1.885	1.880	1.895	1.890	1.890
0.005	0.005	0.000	0.005	0.015	-0.010	0.029	2.656	1.880	1.880	1.880	1.895	1.895	1.890
0.000	0.010	0.000	0.000	0.010	-0.010	0.034	2.676	1.880	1.880	1.875	1.895	1.895	1.890
0.000	0.000	0.000	0.000	0.000	0.015	0.029	2.671	1.880	1.880	1.875	1.895	1.890	1.899
-0.005	0.024	0.000	0.005	0.000	0.005	0.029	2.686	1.875	1.885	1.880	1.895	1.890	1.895
0.000	-0.010	0.005	0.005	0.000	0.015	0.029	2.681	1.880	1.875	1.875	1.899	1.890	1.895
0.000	-0.015	0.000	0.005	0.000	0.005	0.029	2.681	1.880	1.875	1.875	1.895	1.890	1.890
0.000	-0.010	0.000	0.000	0.005	0.015	0.029	2.690	1.885	1.875	1.875	1.895	1.890	1.890
-0.005	0.005	-0.005	0.000	0.000	0.015	0.034	2.671	1.880	1.880	1.875	1.895	1.890	1.890
0.000	0.010	0.000	-0.010	0.010	0.010	0.034	2.681	1.890	1.885	1.875	1.895	1.890	1.890
0.005	0.000	0.000	-0.010	0.005	-0.005	0.034	2.661	1.880	1.880	1.880	1.890	1.885	1.885
0.000	-0.005	0.005	-0.020	0.005	0.005	0.029	2.681	1.875	1.875	1.875	1.890	1.890	1.890
0.005	-0.005	0.000	-0.015	0.000	0.010	0.029	2.681	1.880	1.875	1.875	1.895	1.885	1.890
0.015	0.005	-0.005	-0.010	-0.005	-0.005	0.029	2.676	1.880	1.880	1.875	1.890	1.885	1.885
0.005	0.000	0.000	-0.005	0.000	0.005	0.029	2.671	1.875	1.875	1.875	1.895	1.890	1.885
0.010	0.010	0.005	0.000	0.005	-0.005	0.029	2.681	1.875	1.880	1.875	1.895	1.895	1.885
0.000	0.005	-0.005	0.000	0.010	-0.010	0.029	2.715	1.875	1.875	1.875	1.895	1.890	1.885
0.000	-0.010	0.000	0.000	0.005	-0.010	0.029	2.686	1.885	1.875	1.875	1.899	1.890	1.890
-0.005	-0.010	0.005	0.010	0.005	-0.005	0.029	2.686	1.880	1.875	1.875	1.899	1.895	1.890
0.005	0.000	0.005	0.010	0.000	0.010	0.029	2.676	1.880	1.880	1.875	1.895	1.890	1.895
0.000	0.000	0.000	0.005	0.000	0.005	0.034	2.681	1.880	1.880	1.875	1.895	1.890	1.895
-0.020	0.005	0.005	0.000	0.000	-0.010	0.034	2.686	1.880	1.880	1.880	1.895	1.890	1.890
-0.010	0.010	0.000	-0.005	0.000	0.005	0.034	2.690	1.885	1.885	1.875	1.895	1.890	1.890
0.000	0.010	0.005	0.000	0.000	0.005	0.034	2.676	1.885	1.880	1.880	1.895	1.890	1.890
0.000	0.000	0.005	0.005	-0.005	0.000	0.029	2.671	1.880	1.875	1.880	1.899	1.890	1.890
0.000	0.005	0.000	0.010	-0.005	0.005	0.029	2.666	1.880	1.880	1.880	1.899	1.890	1.890
0.000	0.015	0.000	0.015	-0.015	-0.020	0.029	2.671	1.875	1.880	1.875	1.895	1.885	1.880
0.000	0.000	0.000	0.010	-0.078	-0.024	0.029	2.671	1.875	1.875	1.875	1.890	1.870	1.875
0.000	-0.005	0.005	0.000	-0.103	-0.020	0.029	2.695	1.880	1.875	1.875	1.890	1.870	1.875
-0.010	0.000	0.000	0.000	-0.127	-0.015	0.029	2.681	1.875	1.875	1.875	1.890	1.870	1.870
0.000	-0.010	0.000	0.005	-0.107	-0.010	0.029	2.671	1.875	1.870	1.870	1.890	1.880	1.880
0.005	-0.010	0.000	0.000	-0.078	-0.005	0.029	2.681	1.880	1.875	1.870	1.895	1.890	1.880
-0.010	-0.010	0.000	0.010	-0.059	-0.024	0.034	2.686	1.870	1.875	1.870	1.890	1.890	1.880
-0.005	-0.005	0.000	0.005	-0.034	-0.024	0.029	2.690	1.875	1.875	1.875	1.890	1.899	1.885
-0.005	-0.005	0.000	0.000	0.039	0.005	0.029	2.686	1.875	1.875	1.870	1.890	1.919	1.904
0.010	0.005	0.005	0.005	0.132	0.010	0.029	2.681	1.885	1.880	1.875	1.895	1.934	1.914
0.005	0.005	0.000	0.000	0.220	0.020	0.029	2.686	1.885	1.885	1.875	1.895	1.948	1.929
-0.010	0.034	0.005	0.000	0.249	0.044	0.034	2.690	1.890	1.890	1.880	1.899	1.943	1.938
0.000	0.029	0.000	0.000	0.273	0.054	0.034	2.681	1.890	1.890	1.885	1.899	1.934	1.943
0.005	0.020	0.000	0.000	0.303	0.054	0.034	2.690	1.895	1.885	1.885	1.899	1.929	1.938
0.000	-0.005	0.000	-0.005	0.215	0.044	0.029	2.681	1.895	1.880	1.880	1.895	1.895	1.919
0.000	-0.010	0.005	0.005	0.054	0.015	0.029	2.646	1.890	1.880	1.880	1.895	1.851	1.890
0.005	-0.020	0.000	-0.005	-0.020	0.005	0.029	2.695	1.890	1.880	1.880	1.895	1.846	1.870
0.005	-0.005	0.000	-0.005	-0.049	-0.015	0.029	2.676	1.885	1.880	1.880	1.890	1.846	1.860
0.000	-0.010	0.000	0.005	-0.078	-0.010	0.029	2.666	1.875	1.880	1.875	1.895	1.855	1.860
-0.005	-0.015	0.000	0.000	-0.083	-0.005	0.029	2.671	1.875	1.880	1.875	1.890	1.860	1.860
0.000	-0.005	0.000	0.000	-0.083	-0.005	0.029	2.690	1.875	1.875	1.875	1.895	1.870	1.860
0.010	-0.010	0.000	0.000	-0.088	0.000	0.029	2.686	1.880	1.875	1.875	1.895	1.875	1.865
-0.024	0.005	0.000	0.005	-0.078	-0.010	0.029	2.681	1.865	1.875	1.875	1.895	1.880	1.870
-0.015	0.005	0.000	0.000	-0.073	0.000	0.034	2.695	1.875	1.875	1.875	1.895	1.885	1.875
0.000	0.029	0.005	0.000	-0.063	0.005	0.029	2.690	1.880	1.880	1.875	1.895	1.890	1.880
0.029	0.015	0.000	0.005	-0.044	0.000	0.029	2.681	1.885	1.880	1.875	1.895	1.895	1.880
0.034	0.010	0.000	0.005	-0.034	-0.020	0.034	2.686	1.890	1.880	1.875	1.899	1.895	1.880
0.039	0.015	0.000	0.005	-0.039	-0.010	0.029	2.690	1.890	1.885	1.875	1.899	1.895	1.885
0.020	0.024	0.000	0.005	-0.054	-0.020	0.029	2.671	1.880	1.880	1.880	1.895	1.890	1.885
0.015	-0.010	0.000	0.005	-0.024	-0.005	0.029	2.686	1.875	1.870	1.875	1.895	1.899	1.895
-0.005	0.000	0.000	0.005	-0.005	-0.005	0.029	2.710	1.875	1.875	1.875	1.895	1.899	1.899
-0.015	0.010	0.005	0.000	-0.005	0.000	0.029	2.681	1.880	1.875	1.875	1.895	1.899	1.899
-0.020	-0.005	0.000	0.000	0.000	0.005	0.034	2.676	1.875	1.870	1.875	1.895	1.899	1.899
-0.015	-0.020	-0.005	0.000	-0.024	-0.005	0.029	2.681	1.880	1.870	1.870	1.890	1.885	1.890
-0.010	-0.005	0.005	0.000	-0.034	0.005	0.029	2.686	1.880	1.875	1.870	1.890	1.885	1.890
-0.015	-0.020	0.000	0.005	-0.044	-0.005	0.029	2.686	1.880	1.875	1.870	1.890	1.880	1.890
-0.005	-0.015	-0.005	0.000	-0.034	0.015	0.029	2.676	1.880	1.875	1.870	1.890	1.885	1.895
-0.005	-0.010	0.005	0.000	-0.020	0.010	0.029	2.666	1.880	1.880	1.875	1.890	1.890	1.890
0.000	-0.029	0.000	0.000	0.034	0.000	0.029	2.666	1.875	1.875	1.870	1.890	1.904	1.890
-0.010	0.005	-0.005	0.000	0.044	-0.020	0.029	2.627	1.870	1.880	1.875	1.890	1.899	1.890
-0.005	0.010	-0.005	0.005	0.039	-0.063	0.029	2.783	1.890	1.885	1.875	1.890	1.890	1.875
-0.020	0.000	-0.005	0.000	0.024	-0.054	0.029	2.646	1.875	1.875	1.875	1.890	1.890	1.885
-0.005	-0.015	0.005	0.000	-0.005	-0.049	0.029	2.651	1.880	1.875	1.875	1.890	1.880	1.885
-0.005	0.010	0.005	0.005	-0.010	-0.024	0.029	2.793	1.895	1.885	1.875	1.895	1.885	1.890
0.015	0.024	0.000	0.000	-0.015	0.005	0.029	2.656	1.890	1.890	1.880	1.895	1.885	1.895
0.015	0.010	0.005	0.000	-0.034	0.024	0.029	2.646	1.890	1.885	1.880	1.895	1.880	1.895
-0.005	0.000	0.010	-0.005	-0.039	0.015	0.029	2.729	1.890	1.885	1.880	1.895	1.885	1.890
0.000	0.000	0.005	0.000	-0.015	0.029	0.029	2.734	1.895	1.885	1.880	1.899	1.895	1.895
0.005	0.005	0.005	0.000	0.020	0.024	0.029	2.642	1.890	1.890	1.885	1.904	1.904	1.895
0.010	0.000	0.000	0.000	0.034	0.010	0.029	2.725	1.895	1.885	1.880	1.899	1.904	1.899
0.005	0.000	-0.005	0.000	0.049	0.010	0.029	2.715	1.890	1.885	1.880	1.899	1.909	1.899
0.005	0.015	0.000	0.005	0.044	0.005	0.029	2.617	1.880	1.895	1.885	1.899	1.899	1.895
0.005	0.000	0.000	0.005	0.039	-0.010	0.034	2.627	1.895	1.885	1.885	1.899	1.899	1.895
0.005	-0.005	0.005	0.005	0.039	0.020	0.029	2.739	1.899	1.885	1.885	1.899	1.899	1.899
-0.005	-0.005	-0.005	0.005	0.034	0.015	0.029	2.666	1.890	1.880	1.885	1.899	1.899	1.899
0.005	0.000	-0.005	0.000	0.034	0.020	0.029	2.773	1.899	1.890	1.885	1.899	1.895	1.899
-0.005	0.005	-0.005	0.005	0.010	0.000	0.029	2.632	1.890	1.895	1.885	1.899	1.890	1.890
-0.005	0.010	0.000	0.005	-0.005	0.000	0.029	2.651	1.885	1.890	1.885	1.904	1.890	1.890
0.000	0.000	-0.005	0.005	0.000	0.000	0.029	2.788	1.890	1.885	1.885	1.899	1.890	1.890
0.000	0.005	0.000	0.000	-0.005	0.010	0.034	2.651	1.890	1.890	1.885	1.904	1.895	1.895
-0.005	0.010	0.005	0.000	0.000	0.010	0.029	2.671	1.885	1.890	1.885	1.904	1.895	1.895
0.005	0.000	0.000	0.000	-0.005	0.000	0.029	2.695	1.880	1.880	1.885	1.904	1.895	1.890
0.010	-0.010	0.005	-0.005	-0.005	0.010	0.029	2.739	1.890	1.880	1.885	1.899	1.895	1.895
0.000	0.010	0.005	-0.005	-0.010	0.010	0.029	2.656	1.885	1.885	1.885	1.904	1.895	1.895
-0.005	0.010	0.005	0.000	-0.005	0.000	0.029	2.617	1.875	1.885	1.885	1.904	1.899	1.895
0.015	0.000	0.000	0.005	-0.005	-0.010	0.029	2.710	1.885	1.880	1.880	1.904	1.899	1.895
0.010	0.015	0.000	0.005	-0.005	-0.005	0.029	2.744	1.890	1.885	1.885	1.904	1.899	1.890
0.015	0.015	0.005	0.005	0.000	0.015	0.029	2.646	1.885	1.885	1.880	1.904	1.899	1.899
0.000	0.010	0.005	-0.005	0.000	0.000	0.029	2.651	1.875	1.880	1.880	1.899	1.895	1.895
0.015	0.005	0.000	0.000	0.000	-0.005	0.029	2.690	1.885	1.875	1.880	1.899	1.895	1.895
0.000	-0.005	0.000	0.000	0.000	-0.005	0.029	2.617	1.870	1.875	1.875	1.899	1.895	1.895
-0.005	0.000	0.000	0.000	0.000	0.010	0.029	2.676	1.875	1.875	1.875	1.899	1.895	1.899
-0.020	0.000	0.000	0.005	0.005	0.010	0.029	2.690	1.875	1.875	1.875	1.899	1.895	1.899
-0.010	0.015	-0.005	0.005	0.000	0.015	0.029	2.686	1.880	1.880	1.875	1.895	1.890	1.899
0.005	0.020	0.000	0.005	-0.010	0.010	0.029	2.700	1.890	1.885	1.880	1.895	1.890	1.895
0.015	-0.010	0.000	0.000	-0.010	0.000	0.029	2.690	1.890	1.880	1.875	1.895	1.890	1.890
0.015	-0.010	0.000	-0.005	-0.005	0.000	0.029	2.661	1.885	1.880	1.880	1.895	1.890	1.890
0.000	0.000	0.000	-0.005	-0.005	0.000	0.029	2.690	1.885	1.885	1.880	1.895	1.890	1.895
-0.005	-0.005	-0.005	0.000	-0.005	0.010	0.029	2.695	1.885	1.880	1.880	1.895	1.890	1.890
-0.005	0.010	0.000	0.000	-0.005	0.000	0.034	2.695	1.885	1.885	1.880	1.895	1.890	1.885
-0.010	0.020	0.005	0.010	-0.005	0.005	0.029	2.671	1.885	1.890	1.885	1.899	1.890	1.890
-0.005	0.000	0.000	0.005	-0.005	0.005	0.029	2.666	1.880	1.880	1.885	1.899	1.895	1.890
-0.010	-0.005	0.005	0.000	-0.010	0.015	0.029	2.666	1.875	1.880	1.880	1.899	1.895	1.895
-0.020	0.015	0.005	0.005	-0.005	0.020	0.029	2.690	1.880	1.885	1.885	1.899	1.895	1.895
-0.010	0.005	0.000	0.000	-0.005	0.020	0.029	2.695	1.885	1.880	1.880	1.899	1.895	1.895
-0.005	0.010	0.000	0.000	0.015	0.005	0.029	2.666	1.880	1.880	1.880	1.895	1.899	1.890
-0.010	-0.024	0.000	-0.005	0.020	0.000	0.034	2.700	1.880	1.870	1.875	1.895	1.895	1.890
-0.005	-0.034	0.000	0.005	0.020	-0.015	0.029	2.705	1.885	1.870	1.870	1.895	1.895	1.890
0.000	0.015	-0.005	0.010	0.010	-0.029	0.029	2.690	1.890	1.890	1.880	1.895	1.890	1.885
0.015	-0.005	-0.005	0.005	0.005	-0.029	0.034	2.676	1.890	1.880	1.880	1.895	1.890	1.885
0.020	-0.010	0.000	0.000	0.015	-0.039	0.029	2.671	1.885	1.880	1.880	1.895	1.890	1.885
0.020	-0.029	0.005	0.005	0.010	-0.024	0.029	2.695	1.885	1.880	1.880	1.895	1.890	1.890
-0.005	0.010	0.000	0.000	0.015	0.000	0.029	2.676	1.885	1.890	1.880	1.899	1.895	1.899
0.000	-0.005	0.000	0.000	0.005	0.000	0.029	2.686	1.885	1.885	1.880	1.899	1.890	1.895
0.020	0.029	0.000	0.000	-0.005	0.020	0.029	2.666	1.890	1.895	1.885	1.899	1.890	1.899
0.010	0.010	0.000	-0.005	-0.015	0.005	0.029	2.788	1.895	1.890	1.885	1.899	1.885	1.890
0.020	-0.010	0.000	-0.005	-0.024	0.034	0.029	2.642	1.890	1.885	1.885	1.899	1.890	1.899
0.005	0.020	0.000	-0.005	-0.010	0.015	0.029	2.651	1.880	1.895	1.885	1.899	1.895	1.890
0.005	0.034	0.000	0.000	-0.015	0.015	0.029	2.783	1.895	1.895	1.890	1.904	1.895	1.895
-0.010	0.015	0.000	0.000	-0.024	0.005	0.029	2.739	1.885	1.890	1.885	1.904	1.895	1.890
0.005	0.005	0.000	0.005	0.005	0.015	0.029	2.788	1.885	1.885	1.885	1.904	1.904	1.895
0.000	0.000	0.005	0.005	0.020	-0.015	0.029	2.749	1.890	1.885	1.885	1.904	1.904	1.890
0.005	0.005	0.005	0.000	0.029	-0.024	0.029	2.739	1.890	1.880	1.885	1.904	1.904	1.890
0.005	0.010	0.000	0.005	0.049	-0.039	0.029	2.734	1.899	1.890	1.885	1.904	1.909	1.890
0.000	-0.020	0.000	0.000	0.068	-0.044	0.029	2.715	1.895	1.885	1.880	1.904	1.909	1.899
0.000	-0.015	0.000	0.000	0.068	0.000	0.029	2.725	1.895	1.885	1.885	1.904	1.909	1.909
0.005	-0.005	-0.005	0.000	0.059	-0.010	0.029	2.622	1.885	1.890	1.880	1.904	1.904	1.909
-0.005	0.000	0.000	0.005	0.034	0.005	0.029	2.676	1.885	1.890	1.885	1.899	1.895	1.904
-0.005	0.005	-0.005	0.000	-0.024	0.000	0.029	2.627	1.880	1.885	1.885	1.899	1.880	1.895
0.005	0.000	0.000	0.005	-0.068	-0.015	0.029	2.695	1.880	1.885	1.885	1.899	1.875	1.885
-0.005	-0.024	0.000	0.005	-0.073	0.029	0.029	2.642	1.875	1.875	1.880	1.899	1.880	1.895
-0.005	-0.020	0.005	0.005	-0.059	0.039	0.029	2.710	1.880	1.880	1.880	1.899	1.890	1.890
-0.005	-0.005	0.010	0.005	-0.034	0.049	0.029	2.676	1.880	1.885	1.885	1.899	1.899	1.899
0.000	-0.005	0.005	0.005	-0.024	0.044	0.029	2.681	1.880	1.880	1.880	1.899	1.899	1.895
-0.005	0.000	0.000	0.005	-0.005	0.024	0.029	2.681	1.880	1.880	1.880	1.904	1.904	1.895
0.000	-0.010	0.000	0.010	-0.015	0.000	0.034	2.690	1.885	1.880	1.880	1.899	1.899	1.890
0.005	-0.005	-0.005	0.005	0.020	0.020	0.029	2.695	1.890	1.885	1.880	1.899	1.904	1.899
0.010	-0.005	0.005	0.005	0.015	0.020	0.029	2.690	1.890	1.885	1.880	1.899	1.904	1.899
0.010	-0.010	-0.005	0.010	0.010	0.010	0.029	2.681	1.890	1.885	1.880	1.899	1.899	1.895
0.005	0.000	-0.005	0.000	0.005	-0.020	0.029	2.700	1.890	1.885	1.880	1.899	1.890	1.885
0.010	0.000	0.000	0.000	-0.015	-0.029	0.034	2.671	1.890	1.890	1.885	1.895	1.890	1.885
0.000	0.015	0.000	0.000	-0.010	-0.044	0.029	2.695	1.880	1.890	1.885	1.895	1.890	1.885
-0.005	0.029	0.005	-0.005	-0.005	-0.015	0.029	2.676	1.880	1.885	1.885	1.899	1.890	1.890
-0.020	0.024	0.000	-0.010	-0.020	-0.005	0.029	2.700	1.880	1.885	1.885	1.899	1.890	1.895
-0.015	0.029	0.000	-0.005	-0.020	-0.015	0.029	2.676	1.885	1.885	1.885	1.899	1.895	1.890
-0.005	0.005	0.010	0.010	-0.005	-0.010	0.029	2.690	1.885	1.880	1.885	1.904	1.899	1.895
0.010	-0.005	0.005	0.000	-0.005	-0.005	0.034	2.705	1.890	1.875	1.880	1.899	1.899	1.895
0.000	0.000	0.000	0.005	-0.010	-0.005	0.029	2.695	1.890	1.880	1.880	1.899	1.895	1.895
0.000	0.005	0.000	0.005	0.010	0.015	0.029	2.710	1.890	1.885	1.880	1.904	1.904	1.904
0.005	-0.005	0.005	0.005	-0.005	0.024	0.029	2.690	1.895	1.885	1.885	1.899	1.899	1.904
0.010	0.000	0.000	0.005	-0.005	0.044	0.029	2.695	1.895	1.885	1.880	1.899	1.899	1.909
-0.005	-0.005	0.000	0.000	0.039	0.063	0.029	2.700	1.895	1.885	1.885	1.899	1.909	1.914
-0.005	-0.005	0.000	0.000	0.068	0.063	0.029	2.695	1.890	1.890	1.885	1.899	1.914	1.914
0.005	0.000	0.005	-0.005	0.063	0.044	0.029	2.690	1.895	1.890	1.885	1.904	1.909	1.904
-0.005	-0.005	0.000	-0.005	0.049	0.005	0.029	2.642	1.885	1.885	1.885	1.904	1.895	1.895
-0.005	0.005	0.000	0.000	0.029	0.000	0.029	2.788	1.895	1.890	1.885	1.904	1.895	1.890
0.000	-0.005	-0.005	0.000	0.020	-0.039	0.029	2.632	1.885	1.885	1.885	1.899	1.890	1.880
0.005	-0.010	0.000	0.000	0.005	-0.039	0.029	2.651	1.880	1.880	1.880	1.899	1.885	1.880
0.000	-0.005	-0.005	-0.010	0.000	-0.010	0.029	2.661	1.875	1.885	1.880	1.899	1.890	1.890
0.005	0.000	-0.005	0.000	0.015	-0.029	0.029	2.729	1.885	1.880	1.885	1.899	1.895	1.890
0.000	0.005	-0.005	0.000	0.010	-0.039	0.029	2.788	1.899	1.890	1.885	1.899	1.895	1.885
0.005	0.005	0.000	0.000	0.000	-0.054	0.029	2.656	1.890	1.885	1.885	1.899	1.890	1.880
0.005	0.000	0.000	0.000	-0.044	-0.059	0.029	2.720	1.890	1.890	1.885	1.899	1.880	1.880
0.000	-0.005	0.005	0.000	-0.073	-0.039	0.029	2.642	1.880	1.880	1.885	1.904	1.880	1.880
-0.005	0.010	0.000	0.005	-0.063	-0.010	0.034	2.637	1.875	1.885	1.885	1.904	1.890	1.890
0.005	0.005	0.000	0.005	-0.024	-0.005	0.029	2.734	1.880	1.880	1.880	1.904	1.904	1.899
0.000	0.000	0.005	0.000	0.044	0.000	0.029	2.725	1.890	1.885	1.880	1.909	1.924	1.904
-0.010	0.010	0.010	0.005	0.088	-0.010	0.029	2.651	1.885	1.885	1.885	1.909	1.929	1.909
-0.005	0.000	0.000	0.005	0.103	-0.015	0.034	2.627	1.880	1.880	1.880	1.904	1.924	1.914
0.005	0.015	0.000	0.005	0.112	-0.015	0.029	2.666	1.885	1.885	1.880	1.904	1.919	1.914
0.000	0.015	0.000	0.000	0.068	-0.015	0.029	2.744	1.890	1.880	1.880	1.899	1.899	1.909
0.000	0.005	0.000	0.000	0.044	0.005	0.029	2.671	1.890	1.880	1.880	1.899	1.895	1.909
0.000	0.000	0.000	0.000	0.010	0.000	0.029	2.700	1.885	1.880	1.880	1.895	1.885	1.899
-0.005	-0.005	0.000	0.000	0.024	0.010	0.029	2.676	1.885	1.880	1.880	1.899	1.890	1.899
0.000	0.000	0.000	0.000	0.054	0.005	0.029	2.676	1.885	1.880	1.880	1.899	1.899	1.899
0.000	0.020	0.000	0.000	0.044	0.000	0.029	2.700	1.885	1.890	1.880	1.899	1.895	1.895
0.000	0.020	-0.005	0.010	0.034	0.000	0.029	2.651	1.885	1.885	1.880	1.904	1.895	1.895
0.000	0.010	0.000	0.005	0.020	0.015	0.029	2.690	1.885	1.880	1.880	1.899	1.890	1.895
0.000	0.005	0.005	0.000	0.010	0.024	0.029	2.700	1.890	1.880	1.880	1.899	1.890	1.895
0.015	0.010	0.000	0.000	-0.034	0.029	0.034	2.676	1.890	1.885	1.880	1.899	1.880	1.890
0.010	0.000	0.000	0.000	-0.044	0.020	0.029	2.695	1.880	1.880	1.880	1.899	1.875	1.885
0.005	0.000	0.010	0.000	-0.068	0.029	0.029	2.715	1.885	1.880	1.880	1.895	1.880	1.885
0.005	-0.005	0.005	0.005	-0.088	0.010	0.029	2.656	1.880	1.880	1.880	1.895	1.875	1.875
0.010	0.000	0.000	-0.005	-0.083	0.034	0.029	2.700	1.885	1.885	1.880	1.899	1.880	1.885
0.000	0.000	0.000	0.000	-0.063	0.039	0.029	2.681	1.885	1.885	1.880	1.899	1.890	1.885
0.005	-0.015	0.000	0.000	-0.063	0.020	0.034	2.676	1.885	1.880	1.880	1.899	1.890	1.885
0.005	-0.034	0.000	0.000	-0.039	0.020	0.029	2.705	1.885	1.875	1.875	1.899	1.895	1.885
-0.010	-0.015	0.005	0.005	-0.034	0.005	0.034	2.695	1.885	1.880	1.880	1.899	1.899	1.890
0.000	-0.015	0.000	0.000	-0.029	0.020	0.029	2.695	1.890	1.880	1.880	1.895	1.899	1.895
0.000	0.010	0.000	0.000	-0.020	0.034	0.029	2.676	1.885	1.885	1.880	1.899	1.899	1.899
-0.005	0.010	0.000	0.000	0.000	0.049	0.029	2.705	1.890	1.890	1.885	1.899	1.904	1.904
0.005	0.005	0.005	0.000	0.005	0.107	0.029	2.686	1.885	1.885	1.885	1.899	1.904	1.919
0.005	0.010	0.000	-0.005	-0.015	0.073	0.029	2.700	1.895	1.885	1.880	1.895	1.890	1.904
0.005	0.010	-0.005	0.000	-0.034	0.049	0.034	2.671	1.890	1.890	1.885	1.899	1.885	1.890
0.015	0.000	0.000	0.005	-0.078	0.000	0.029	2.627	1.885	1.885	1.885	1.899	1.875	1.875
0.000	0.000	0.000	0.015	-0.117	-0.020	0.029	2.788	1.890	1.885	1.885	1.899	1.870	1.870
0.000	0.000	0.000	0.015	-0.186	-0.039	0.029	2.651	1.880	1.885	1.885	1.899	1.860	1.860
-0.010	0.005	0.005	0.020	-0.225	-0.068	0.029	2.651	1.875	1.880	1.885	1.899	1.860	1.851
-0.015	0.024	0.005	0.010	-0.210	-0.103	0.029	2.651	1.870	1.885	1.880	1.899	1.875	1.846
-0.005	0.029	0.000	0.010	-0.127	-0.117	0.029	2.729	1.875	1.880	1.880	1.899	1.899	1.860
-0.005	0.024	0.000	0.000	-0.044	-0.156	0.029	2.798	1.890	1.880	1.880	1.899	1.919	1.870
-0.015	0.010	0.005	0.000	0.039	-0.132	0.029	2.661	1.880	1.875	1.880	1.899	1.938	1.895
-0.005	-0.005	0.000	0.000	0.098	-0.093	0.029	2.749	1.890	1.875	1.875	1.899	1.943	1.919
0.005	-0.015	0.000	0.000	0.137	-0.039	0.029	2.642	1.890	1.875	1.875	1.899	1.943	1.938
0.005	0.005	-0.005	-0.005	0.220	-0.020	0.029	2.734	1.895	1.885	1.880	1.899	1.953	1.948
0.010	-0.005	0.000	-0.005	0.308	0.005	0.029	2.705	1.904	1.890	1.885	1.899	1.963	1.963
0.024	-0.039	-0.005	0.000	0.352	0.068	0.029	2.632	1.899	1.880	1.880	1.904	1.958	1.978
0.020	-0.044	0.005	0.000	0.317	0.059	0.034	2.681	1.899	1.885	1.880	1.899	1.934	1.963
0.015	-0.024	0.000	0.000	0.278	0.088	0.029	2.627	1.895	1.890	1.885	1.899	1.909	1.958
0.005	0.015	0.005	-0.005	0.225	0.083	0.029	2.656	1.895	1.909	1.890	1.899	1.890	1.938
0.005	0.039	0.005	-0.010	0.190	0.078	0.029	2.725	1.899	1.909	1.895	1.899	1.880	1.919
0.005	0.005	0.005	-0.010	0.112	0.044	0.029	2.710	1.899	1.895	1.890	1.904	1.865	1.895
0.005	-0.005	0.005	0.000	0.005	0.049	0.029	2.661	1.895	1.895	1.890	1.899	1.851	1.880
0.005	0.005	0.000	0.000	-0.078	0.020	0.029	2.695	1.895	1.895	1.890	1.904	1.836	1.860
0.000	0.015	0.000	0.005	-0.122	0.024	0.029	2.681	1.890	1.895	1.890	1.904	1.846	1.855
-0.010	0.015	0.000	0.005	-0.132	0.020	0.029	2.676	1.880	1.890	1.890	1.909	1.860	1.855
-0.005	0.000	0.000	0.005	-0.156	0.029	0.034	2.666	1.880	1.880	1.885	1.904	1.865	1.855
-0.010	0.000	0.005	0.000	-0.161	0.029	0.029	2.705	1.880	1.880	1.885	1.904	1.875	1.865
0.000	-0.005	0.000	0.005	-0.117	0.024	0.029	2.700	1.885	1.875	1.885	1.909	1.895	1.870
0.000	-0.005	0.000	0.000	-0.098	0.049	0.029	2.705	1.885	1.875	1.880	1.904	1.899	1.885
0.000	0.000	0.005	0.005	-0.127	0.029	0.034	2.676	1.885	1.880	1.880	1.904	1.890	1.880
0.005	0.000	0.000	0.000	-0.146	-0.010	0.034	2.690	1.885	1.880	1.875	1.899	1.885	1.870
0.005	0.005	0.000	0.000	-0.117	-0.029	0.029	2.676	1.880	1.880	1.880	1.899	1.895	1.875
-0.005	-0.010	-0.005	0.005	-0.068	-0.015	0.029	2.695	1.880	1.875	1.875	1.899	1.909	1.885
0.000	-0.010	0.005	0.005	-0.034	-0.044	0.034	2.676	1.880	1.875	1.875	1.899	1.909	1.890
-0.005	0.005	0.000	0.000	-0.054	-0.073	0.029	2.666	1.875	1.880	1.875	1.895	1.899	1.880
-0.010	0.015	0.000	-0.005	-0.068	-0.093	0.029	2.705	1.880	1.880	1.875	1.895	1.890	1.880
0.005	0.005	-0.005	-0.005	-0.083	-0.112	0.029	2.671	1.875	1.880	1.875	1.895	1.890	1.875
-0.005	-0.010	0.000	-0.005	-0.073	-0.083	0.029	2.705	1.880	1.870	1.875	1.895	1.890	1.890
-0.010	-0.010	0.005	-0.005	-0.078	-0.020	0.034	2.671	1.880	1.875	1.875	1.890	1.890	1.904
0.000	-0.005	-0.005	0.000	-0.073	-0.020	0.029	2.700	1.885	1.875	1.875	1.895	1.890	1.904
0.010	-0.010	0.000	0.000	-0.073	0.034	0.034	2.671	1.885	1.875	1.875	1.895	1.895	1.914
0.010	-0.024	-0.005	0.010	0.024	0.015	0.029	2.695	1.890	1.875	1.875	1.899	1.924	1.914
0.010	-0.005	-0.005	0.000	0.127	0.024	0.029	2.690	1.895	1.885	1.880	1.899	1.943	1.929
0.010	0.039	0.005	0.005	0.269	0.024	0.029	2.646	1.895	1.899	1.890	1.904	1.968	1.938
0.000	0.044	0.005	0.005	0.361	0.005	0.029	2.793	1.899	1.899	1.890	1.909	1.978	1.948
-0.010	0.010	0.010	0.000	0.220	0.034	0.029	2.627	1.890	1.890	1.890	1.904	1.914	1.943
-0.005	-0.024	0.005	0.005	0.117	0.044	0.029	2.651	1.890	1.880	1.880	1.899	1.885	1.924
0.005	-0.039	0.000	0.000	0.034	0.044	0.034	2.783	1.890	1.880	1.880	1.895	1.865	1.904
-0.005	-0.005	-0.005	0.000	-0.049	0.005	0.029	2.734	1.895	1.890	1.880	1.895	1.851	1.880
0.015	-0.010	-0.005	-0.005	-0.098	0.029	0.029	2.656	1.895	1.885	1.880	1.895	1.851	1.875
0.010	-0.020	0.000	0.000	-0.083	0.020	0.029	2.705	1.890	1.885	1.880	1.895	1.865	1.870
0.005	0.024	0.000	0.005	-0.073	0.024	0.029	2.627	1.880	1.899	1.885	1.899	1.875	1.875
0.010	0.044	-0.005	-0.005	-0.078	0.034	0.029	2.754	1.890	1.895	1.890	1.899	1.880	1.875
0.010	-0.024	0.005	0.000	-0.034	0.024	0.029	2.622	1.890	1.875	1.885	1.904	1.895	1.880
0.005	0.063	-0.005	0.005	0.000	0.000	0.034	2.744	1.899	1.904	1.890	1.904	1.904	1.885
0.000	0.010	0.005	0.005	0.010	0.010	0.029	2.754	1.899	1.885	1.890	1.909	1.904	1.890
-0.010	0.000	0.010	0.005	-0.010	-0.010	0.029	2.671	1.885	1.880	1.890	1.904	1.899	1.890
0.005	-0.005	0.010	0.005	-0.020	-0.010	0.034	2.739	1.895	1.885	1.885	1.904	1.899	1.890
-0.005	0.005	0.005	0.000	-0.024	-0.005	0.034	2.686	1.890	1.890	1.885	1.904	1.895	1.890
0.000	-0.010	0.005	0.000	-0.029	-0.005	0.029	2.651	1.895	1.880	1.885	1.904	1.895	1.895
-0.010	-0.039	0.000	0.000	-0.024	-0.024	0.029	2.705	1.885	1.875	1.880	1.904	1.899	1.890
-0.015	0.000	0.000	0.005	-0.029	0.000	0.029	2.686	1.890	1.890	1.880	1.899	1.899	1.895
-0.020	-0.005	0.000	0.000	-0.034	-0.015	0.029	2.705	1.885	1.885	1.880	1.899	1.895	1.895
-0.015	-0.024	0.010	0.000	-0.029	0.000	0.029	2.676	1.885	1.880	1.885	1.899	1.895	1.899
-0.010	-0.015	0.005	-0.005	-0.020	-0.005	0.029	2.700	1.890	1.885	1.880	1.899	1.899	1.895
0.005	-0.015	0.005	-0.005	-0.015	-0.005	0.029	2.705	1.895	1.885	1.880	1.899	1.899	1.899
0.005	0.005	0.010	-0.005	-0.015	-0.020	0.029	2.700	1.890	1.899	1.890	1.904	1.899	1.895
0.015	0.137	0.005	0.000	0.000	0.005	0.029	2.695	1.899	1.934	1.899	1.909	1.904	1.904
0.005	0.088	0.005	0.000	-0.005	0.005	0.034	2.676	1.885	1.899	1.899	1.909	1.904	1.904
0.010	-0.005	0.005	0.005	0.010	-0.015	0.034	2.676	1.885	1.875	1.890	1.909	1.904	1.899
-0.015	0.015	0.005	0.000	-0.005	0.010	0.029	2.681	1.880	1.880	1.885	1.909	1.904	1.904
0.005	0.000	0.005	0.005	0.000	0.010	0.029	2.695	1.885	1.880	1.885	1.909	1.904	1.909
0.015	-0.039	0.000	0.010	0.005	0.010	0.034	2.705	1.885	1.870	1.875	1.904	1.904	1.904
0.024	-0.059	-0.005	0.010	0.010	0.005	0.029	2.671	1.890	1.870	1.875	1.904	1.904	1.904
0.024	-0.034	-0.005	0.005	0.015	0.015	0.029	2.681	1.890	1.880	1.875	1.899	1.904	1.904
0.015	-0.029	-0.005	0.010	0.010	0.000	0.029	2.676	1.890	1.885	1.875	1.899	1.899	1.899
0.010	-0.024	-0.005	0.005	0.020	0.010	0.029	2.671	1.885	1.885	1.875	1.895	1.899	1.904
0.005	-0.015	0.005	0.000	0.029	-0.005	0.029	2.700	1.890	1.890	1.880	1.895	1.899	1.899
-0.010	0.005	0.005	0.005	0.020	0.000	0.029	2.695	1.885	1.890	1.885	1.899	1.895	1.899
-0.010	0.010	0.000	0.010	0.005	-0.010	0.029	2.690	1.890	1.890	1.885	1.899	1.890	1.895
-0.010	0.029	-0.010	0.010	0.005	0.000	0.029	2.666	1.885	1.895	1.885	1.899	1.895	1.895
-0.020	0.039	-0.010	-0.005	0.024	-0.010	0.029	2.695	1.880	1.890	1.890	1.899	1.895	1.895
0.000	0.000	0.000	-0.010	0.024	-0.015	0.029	2.686	1.885	1.880	1.885	1.899	1.895	1.895
0.000	-0.039	-0.010	-0.010	0.024	-0.005	0.034	2.632	1.880	1.870	1.875	1.895	1.895	1.895
0.010	-0.024	-0.005	-0.010	0.020	0.000	0.029	2.783	1.895	1.875	1.875	1.895	1.890	1.895
0.000	0.000	-0.005	-0.005	0.010	0.005	0.029	2.642	1.890	1.890	1.880	1.899	1.890	1.895
0.000	0.044	0.000	0.000	0.010	0.005	0.029	2.646	1.890	1.899	1.890	1.899	1.895	1.895
0.010	0.029	0.005	0.010	0.015	0.015	0.029	2.646	1.885	1.890	1.890	1.904	1.895	1.895
0.015	-0.049	0.010	0.015	0.015	0.015	0.034	2.729	1.890	1.870	1.885	1.904	1.899	1.899
0.020	-0.015	0.010	0.015	0.020	0.054	0.029	2.646	1.885	1.890	1.885	1.909	1.904	1.914
0.000	0.059	0.015	0.015	0.024	0.059	0.029	2.744	1.899	1.909	1.895	1.909	1.904	1.909
-0.005	0.093	0.010	0.015	0.024	0.039	0.029	2.720	1.899	1.909	1.895	1.909	1.904	1.904
-0.005	0.000	0.000	0.010	0.015	0.010	0.029	2.646	1.890	1.880	1.885	1.904	1.899	1.890
0.010	-0.005	0.010	-0.005	0.010	0.010	0.029	2.759	1.904	1.885	1.885	1.904	1.899	1.895
0.000	0.005	0.005	-0.005	0.005	-0.024	0.029	2.695	1.899	1.890	1.885	1.904	1.895	1.885
-0.005	-0.015	0.000	-0.010	0.005	-0.029	0.034	2.661	1.890	1.885	1.880	1.899	1.895	1.890
0.000	0.000	0.000	-0.010	0.010	-0.039	0.034	2.661	1.885	1.890	1.885	1.899	1.895	1.890
-0.005	0.020	-0.005	-0.010	0.024	-0.039	0.029	2.690	1.880	1.890	1.885	1.904	1.899	1.890
-0.010	0.015	0.005	-0.005	0.020	-0.044	0.029	2.651	1.875	1.885	1.885	1.904	1.899	1.890
-0.015	-0.010	0.005	-0.005	0.015	-0.034	0.029	2.744	1.885	1.875	1.880	1.904	1.895	1.895
-0.005	-0.034	-0.005	0.000	0.015	-0.015	0.029	2.671	1.885	1.875	1.875	1.904	1.899	1.899
-0.005	0.000	-0.010	0.000	0.005	-0.020	0.029	2.681	1.890	1.885	1.875	1.899	1.895	1.895
-0.010	0.005	-0.015	0.010	0.000	0.005	0.029	2.710	1.890	1.885	1.875	1.904	1.895	1.899
-0.005	-0.015	-0.010	0.005	0.000	0.015	0.029	2.681	1.890	1.880	1.875	1.899	1.895	1.899
0.000	-0.029	0.000	0.015	0.000	-0.005	0.029	2.705	1.890	1.880	1.880	1.904	1.895	1.895
0.000	0.010	0.010	0.020	-0.005	0.039	0.029	2.686	1.890	1.895	1.890	1.904	1.899	1.909
-0.005	0.034	0.010	0.020	-0.005	0.029	0.029	2.695	1.895	1.899	1.890	1.904	1.899	1.904
0.005	0.010	0.005	-0.010	0.000	0.039	0.034	2.705	1.899	1.890	1.885	1.899	1.899	1.904
0.020	-0.059	0.005	-0.015	0.010	0.059	0.029	2.710	1.899	1.875	1.880	1.899	1.899	1.909
0.005	-0.034	0.010	-0.010	0.015	0.063	0.029	2.686	1.895	1.885	1.885	1.899	1.899	1.909
0.010	-0.010	0.005	-0.010	0.015	0.049	0.029	2.666	1.895	1.895	1.885	1.899	1.899	1.895
0.015	-0.005	-0.005	-0.020	0.010	-0.005	0.029	2.666	1.890	1.895	1.885	1.899	1.895	1.885
0.000	0.000	0.005	0.005	0.000	-0.039	0.034	2.695	1.885	1.890	1.890	1.909	1.895	1.875
0.000	0.010	0.005	0.024	-0.010	-0.059	0.029	2.671	1.880	1.890	1.890	1.909	1.895	1.875
0.024	0.005	-0.005	0.020	-0.010	-0.083	0.029	2.661	1.885	1.890	1.885	1.909	1.895	1.875
0.000	-0.005	-0.010	0.010	0.000	-0.063	0.029	2.690	1.875	1.880	1.885	1.904	1.899	1.885
-0.039	-0.005	-0.005	0.010	-0.010	-0.068	0.029	2.671	1.865	1.875	1.880	1.904	1.895	1.890
-0.024	-0.005	0.000	0.020	-0.039	-0.078	0.029	2.700	1.875	1.875	1.880	1.899	1.890	1.890
-0.024	-0.005	0.000	0.000	-0.059	-0.024	0.034	2.686	1.880	1.875	1.875	1.895	1.885	1.899
0.005	0.000	0.005	-0.010	-0.068	0.054	0.029	2.700	1.890	1.880	1.875	1.890	1.885	1.919
0.015	0.010	-0.005	-0.005	-0.078	0.068	0.034	2.681	1.895	1.885	1.880	1.895	1.885	1.909
0.024	0.020	-0.010	0.005	-0.068	0.083	0.029	2.676	1.895	1.890	1.880	1.899	1.890	1.909
0.029	0.020	-0.015	0.000	-0.020	0.059	0.034	2.690	1.899	1.895	1.880	1.899	1.904	1.899
0.020	0.015	0.005	-0.010	0.044	0.044	0.034	2.642	1.890	1.890	1.890	1.899	1.919	1.904
0.015	-0.005	0.010	-0.015	0.073	0.024	0.034	2.783	1.895	1.885	1.890	1.904	1.919	1.904
0.000	0.005	0.005	-0.015	0.078	-0.010	0.034	2.656	1.890	1.890	1.890	1.904	1.914	1.895
-0.010	0.010	0.005	-0.010	0.059	-0.054	0.029	2.651	1.880	1.885	1.885	1.904	1.904	1.890
-0.005	0.005	0.005	-0.010	0.024	-0.034	0.029	2.642	1.875	1.885	1.885	1.904	1.895	1.895
-0.015	0.015	0.005	-0.005	0.005	-0.005	0.029	2.720	1.875	1.885	1.885	1.899	1.890	1.899
-0.020	0.010	0.005	0.000	-0.024	0.015	0.034	2.773	1.895	1.885	1.880	1.904	1.885	1.899
-0.015	-0.015	0.010	0.000	-0.024	0.015	0.034	2.646	1.890	1.875	1.880	1.904	1.890	1.895
-0.010	-0.015	0.000	0.010	-0.024	0.005	0.029	2.729	1.895	1.880	1.880	1.899	1.890	1.890
-0.005	0.000	0.005	0.005	-0.044	0.044	0.029	2.651	1.890	1.890	1.880	1.899	1.885	1.899
-0.005	0.000	0.010	0.000	-0.010	0.049	0.029	2.744	1.899	1.890	1.880	1.899	1.899	1.899
0.005	-0.005	0.000	0.005	0.000	0.024	0.029	2.725	1.899	1.890	1.885	1.899	1.899	1.895
0.010	-0.015	-0.005	0.000	-0.010	0.005	0.029	2.749	1.904	1.890	1.885	1.899	1.895	1.890
0.020	-0.015	0.005	0.005	0.005	-0.020	0.029	2.676	1.899	1.890	1.885	1.904	1.899	1.890
0.015	-0.005	0.005	0.010	0.044	-0.020	0.034	2.651	1.890	1.895	1.890	1.904	1.914	1.895
0.005	0.015	0.005	0.005	0.068	-0.029	0.029	2.686	1.890	1.899	1.890	1.909	1.914	1.895
0.015	0.024	0.000	0.005	0.039	-0.029	0.029	2.720	1.895	1.899	1.895	1.909	1.904	1.899
0.010	0.029	-0.005	0.005	0.049	-0.015	0.029	2.681	1.890	1.895	1.890	1.909	1.909	1.904
0.005	0.015	0.000	0.005	0.000	-0.020	0.029	2.705	1.890	1.890	1.895	1.909	1.895	1.899
0.000	0.024	0.005	0.005	-0.020	0.005	0.029	2.676	1.885	1.890	1.895	1.909	1.890	1.904
-0.005	0.020	0.000	0.000	-0.059	0.000	0.029	2.676	1.885	1.885	1.890	1.904	1.880	1.895
0.000	0.005	-0.005	0.000	-0.063	-0.015	0.029	2.671	1.885	1.880	1.885	1.904	1.890	1.895
-0.005	0.005	-0.005	0.005	-0.034	0.005	0.029	2.695	1.885	1.880	1.885	1.909	1.899	1.899
-0.005	-0.010	0.000	0.005	0.015	0.015	0.029	2.695	1.890	1.880	1.880	1.909	1.914	1.909
-0.010	-0.015	0.000	0.005	0.054	0.024	0.029	2.690	1.885	1.875	1.880	1.904	1.919	1.914
-0.005	-0.015	0.000	0.005	0.083	0.010	0.029	2.695	1.890	1.880	1.880	1.904	1.924	1.914
0.000	-0.034	0.000	0.005	0.073	-0.020	0.029	2.690	1.890	1.875	1.880	1.904	1.914	1.904
-0.005	-0.054	0.005	0.005	0.078	-0.010	0.029	2.686	1.890	1.875	1.880	1.899	1.909	1.904
0.005	-0.054	0.000	-0.005	0.073	-0.020	0.029	2.676	1.890	1.875	1.875	1.899	1.904	1.904
0.000	-0.068	0.000	0.005	0.068	0.015	0.029	2.695	1.890	1.880	1.875	1.899	1.899	1.914
0.015	0.005	0.000	0.005	0.059	0.010	0.029	2.676	1.895	1.904	1.885	1.899	1.895	1.904
0.005	0.034	0.005	0.000	0.063	0.015	0.029	2.700	1.895	1.909	1.890	1.904	1.899	1.904
0.005	0.098	0.000	0.000	0.098	0.049	0.029	2.700	1.895	1.924	1.899	1.904	1.909	1.914
0.005	0.117	0.000	0.005	0.098	0.034	0.029	2.681	1.899	1.919	1.904	1.914	1.909	1.909
0.015	0.024	0.000	0.000	0.073	0.020	0.029	2.695	1.895	1.890	1.895	1.909	1.899	1.904
0.000	-0.005	0.000	-0.005	0.010	0.039	0.029	2.681	1.890	1.880	1.890	1.909	1.885	1.899
0.000	-0.005	0.010	-0.010	-0.029	0.044	0.029	2.700	1.890	1.880	1.890	1.909	1.880	1.895
0.005	-0.015	0.005	-0.005	-0.039	0.039	0.029	2.666	1.890	1.880	1.885	1.904	1.885	1.895
-0.005	-0.015	0.000	-0.005	-0.034	0.059	0.029	2.681	1.885	1.880	1.885	1.904	1.890	1.895
0.000	-0.005	0.000	-0.010	-0.054	0.015	0.034	2.690	1.885	1.885	1.880	1.899	1.885	1.880
-0.005	0.000	0.000	-0.005	-0.054	0.010	0.029	2.671	1.880	1.885	1.880	1.899	1.890	1.880
0.000	-0.005	0.000	0.000	-0.044	0.024	0.034	2.773	1.890	1.880	1.885	1.899	1.890	1.890
-0.024	-0.005	-0.005	0.000	-0.068	-0.015	0.034	2.651	1.880	1.880	1.880	1.904	1.885	1.875
-0.029	-0.015	-0.005	0.010	-0.068	-0.049	0.034	2.642	1.875	1.875	1.875	1.904	1.890	1.870
-0.015	0.000	-0.005	0.034	-0.044	-0.024	0.034	2.637	1.890	1.885	1.880	1.909	1.899	1.885
0.000	-0.005	0.000	0.049	-0.098	-0.005	0.034	2.725	1.895	1.885	1.880	1.909	1.885	1.890
0.010	0.000	0.005	0.039	-0.161	0.005	0.034	2.642	1.890	1.890	1.885	1.899	1.870	1.890
0.024	-0.005	0.005	0.010	-0.166	-0.029	0.034	2.754	1.904	1.885	1.880	1.890	1.875	1.875
0.029	-0.005	0.000	-0.024	-0.098	-0.103	0.034	2.729	1.890	1.890	1.885	1.885	1.895	1.860
0.029	-0.005	0.005	-0.029	-0.005	-0.142	0.034	2.646	1.880	1.885	1.885	1.890	1.914	1.870
0.015	0.000	0.005	-0.044	0.039	-0.127	0.034	2.739	1.885	1.885	1.885	1.890	1.919	1.885
-0.049	-0.005	0.005	-0.044	0.059	-0.137	0.034	2.729	1.875	1.880	1.880	1.895	1.914	1.890
-0.039	0.005	0.000	-0.034	0.073	-0.117	0.034	2.646	1.875	1.880	1.880	1.899	1.914	1.904
-0.029	0.015	0.000	0.000	0.068	-0.093	0.029	2.646	1.875	1.880	1.880	1.904	1.914	1.914
-0.005	0.010	0.005	0.015	0.039	-0.010	0.029	2.627	1.880	1.880	1.880	1.909	1.904	1.929
0.015	0.005	0.005	0.024	-0.010	0.073	0.034	2.695	1.895	1.880	1.880	1.909	1.890	1.943
0.034	-0.005	0.005	0.039	-0.073	0.122	0.029	2.739	1.909	1.885	1.880	1.909	1.885	1.938
0.044	-0.005	0.000	0.039	-0.049	0.122	0.034	2.661	1.904	1.890	1.880	1.909	1.895	1.924
0.039	-0.015	0.000	0.034	-0.010	0.112	0.034	2.676	1.899	1.885	1.880	1.904	1.909	1.919
0.039	-0.010	0.000	0.020	0.068	0.098	0.034	2.695	1.899	1.895	1.880	1.899	1.929	1.919
0.015	0.000	-0.010	0.000	0.161	0.083	0.034	2.695	1.895	1.895	1.885	1.899	1.938	1.919
0.010	0.005	-0.005	-0.010	0.151	0.059	0.034	2.676	1.890	1.895	1.885	1.895	1.919	1.914
-0.005	0.005	-0.005	-0.015	0.176	0.044	0.034	2.695	1.890	1.890	1.890	1.899	1.919	1.914
-0.015	0.000	0.000	-0.015	0.166	0.044	0.029	2.671	1.890	1.890	1.890	1.899	1.909	1.909
-0.015	0.024	0.000	-0.010	0.088	0.020	0.034	2.686	1.890	1.895	1.890	1.899	1.885	1.895
-0.010	-0.005	0.010	-0.010	0.000	0.015	0.029	2.710	1.895	1.885	1.885	1.899	1.870	1.880
-0.015	0.015	0.005	0.000	-0.063	0.000	0.034	2.690	1.890	1.890	1.885	1.904	1.860	1.875
-0.010	0.015	0.005	-0.005	-0.078	0.000	0.029	2.676	1.890	1.890	1.890	1.904	1.865	1.870
-0.020	0.034	0.000	-0.005	-0.088	0.000	0.034	2.676	1.885	1.890	1.890	1.904	1.870	1.870
-0.005	0.000	0.005	0.010	-0.093	-0.010	0.034	2.676	1.885	1.875	1.885	1.909	1.880	1.870
-0.015	-0.029	0.005	0.000	-0.088	-0.015	0.034	2.690	1.880	1.870	1.880	1.904	1.890	1.875
-0.020	0.000	0.000	0.005	-0.078	-0.039	0.029	2.700	1.880	1.885	1.880	1.904	1.890	1.870
-0.010	0.020	0.005	0.010	-0.063	0.000	0.034	2.700	1.885	1.885	1.880	1.904	1.899	1.890
-0.005	-0.015	0.005	0.005	-0.044	-0.005	0.034	2.676	1.885	1.875	1.880	1.904	1.904	1.890
0.000	-0.029	0.005	0.005	-0.039	0.010	0.029	2.705	1.885	1.875	1.875	1.899	1.904	1.899
-0.005	0.005	0.000	0.000	-0.024	0.005	0.029	2.671	1.885	1.890	1.880	1.899	1.904	1.899
0.015	0.044	0.000	0.005	-0.020	-0.024	0.034	2.676	1.895	1.895	1.885	1.899	1.904	1.890
0.039	0.005	0.000	0.005	-0.015	0.000	0.029	2.666	1.890	1.885	1.885	1.899	1.899	1.904
0.010	-0.020	0.005	0.020	-0.010	-0.010	0.029	2.700	1.880	1.875	1.880	1.904	1.899	1.899
-0.029	-0.020	0.000	0.029	-0.020	-0.005	0.029	2.690	1.875	1.875	1.875	1.904	1.899	1.899
-0.093	0.010	0.005	0.029	-0.015	-0.005	0.029	2.637	1.855	1.875	1.875	1.899	1.899	1.899
-0.093	0.010	0.000	-0.020	-0.020	-0.020	0.029	2.778	1.875	1.875	1.875	1.885	1.895	1.895
-0.073	0.000	0.000	-0.054	-0.015	-0.010	0.029	2.646	1.875	1.875	1.870	1.875	1.890	1.895
-0.010	-0.005	0.000	-0.059	-0.015	0.010	0.029	2.646	1.895	1.875	1.875	1.880	1.885	1.899
0.044	0.000	-0.005	-0.044	-0.005	0.015	0.029	2.651	1.904	1.890	1.875	1.890	1.885	1.899
0.098	0.005	0.000	-0.020	0.000	0.010	0.029	2.729	1.919	1.899	1.885	1.899	1.895	1.895
0.122	-0.005	0.005	0.015	0.005	-0.020	0.029	2.808	1.934	1.904	1.890	1.914	1.899	1.890
0.146	-0.005	0.000	0.044	0.010	0.000	0.029	2.676	1.934	1.914	1.895	1.919	1.904	1.895
0.117	-0.010	0.005	0.039	0.015	-0.015	0.029	2.744	1.919	1.914	1.899	1.919	1.909	1.895
0.083	-0.010	0.000	0.049	0.010	-0.010	0.029	2.739	1.904	1.909	1.899	1.924	1.909	1.899
0.044	-0.010	0.005	0.039	0.005	-0.010	0.029	2.749	1.895	1.899	1.899	1.919	1.909	1.899
-0.005	-0.005	0.000	0.020	0.010	-0.020	0.029	2.710	1.880	1.895	1.899	1.909	1.909	1.899
-0.039	-0.005	0.005	-0.005	0.005	-0.010	0.029	2.710	1.875	1.890	1.895	1.904	1.904	1.904
-0.054	-0.010	0.005	-0.015	0.000	-0.010	0.029	2.676	1.870	1.880	1.890	1.904	1.899	1.899
-0.078	0.005	0.005	-0.020	0.000	0.024	0.029	2.632	1.865	1.875	1.885	1.904	1.899	1.914
-0.137	0.010	0.000	-0.010	0.000	0.024	0.029	2.661	1.855	1.870	1.880	1.904	1.899	1.909
-0.142	0.010	0.005	-0.010	0.000	0.029	0.029	2.725	1.865	1.870	1.875	1.899	1.899	1.904
-0.146	0.020	0.005	0.005	0.000	0.020	0.029	2.671	1.870	1.870	1.875	1.899	1.899	1.904
-0.112	0.024	0.000	0.020	0.005	0.010	0.029	2.686	1.880	1.875	1.875	1.904	1.899	1.904
-0.073	0.000	0.005	0.024	0.010	0.020	0.029	2.676	1.895	1.875	1.875	1.904	1.904	1.904
-0.005	-0.010	0.000	0.034	0.020	0.024	0.029	2.710	1.924	1.890	1.875	1.904	1.904	1.904
0.103	-0.005	-0.005	0.000	0.015	0.015	0.029	2.676	1.943	1.904	1.880	1.895	1.899	1.899
0.166	-0.015	-0.005	-0.034	0.015	0.005	0.029	2.705	1.948	1.914	1.890	1.890	1.895	1.895
0.195	-0.005	-0.010	-0.015	-0.010	0.005	0.034	2.700	1.943	1.924	1.899	1.899	1.890	1.895
0.181	-0.005	-0.005	-0.010	-0.029	0.000	0.029	2.695	1.924	1.924	1.909	1.909	1.885	1.885
0.127	0.000	0.000	-0.010	-0.024	-0.020	0.029	2.710	1.895	1.914	1.909	1.914	1.895	1.885
0.073	0.015	-0.005	0.005	-0.024	-0.015	0.029	2.671	1.875	1.904	1.909	1.919	1.899	1.890
0.020	0.010	-0.005	-0.005	-0.015	-0.015	0.029	2.695	1.870	1.890	1.904	1.919	1.904	1.895
-0.039	-0.005	0.005	-0.005	-0.010	-0.024	0.029	2.676	1.851	1.875	1.895	1.919	1.909	1.895
-0.088	-0.015	0.000	-0.005	-0.024	-0.005	0.029	2.695	1.846	1.860	1.885	1.914	1.904	1.899
-0.146	-0.005	0.005	0.005	-0.015	0.000	0.029	2.676	1.841	1.855	1.875	1.909	1.909	1.904
-0.142	0.000	0.005	0.005	-0.010	0.005	0.029	2.700	1.860	1.860	1.870	1.904	1.909	1.909
-0.103	0.015	0.010	-0.005	0.005	0.000	0.029	2.705	1.880	1.870	1.870	1.899	1.909	1.904
-0.068	0.015	0.015	-0.005	0.005	0.010	0.029	2.666	1.890	1.875	1.870	1.895	1.904	1.904
-0.039	-0.005	0.010	-0.010	0.020	0.015	0.029	2.705	1.904	1.880	1.870	1.895	1.904	1.904
0.000	-0.010	0.010	-0.010	0.020	0.005	0.029	2.695	1.914	1.890	1.875	1.895	1.899	1.904
0.029	0.005	0.010	-0.010	0.020	0.000	0.029	2.695	1.919	1.899	1.880	1.895	1.895	1.899
0.049	0.010	0.000	0.000	0.024	0.015	0.029	2.676	1.914	1.904	1.890	1.904	1.899	1.904
0.054	0.015	0.015	0.000	0.015	0.000	0.029	2.676	1.909	1.909	1.895	1.904	1.899	1.899
0.034	0.034	0.015	0.005	0.015	-0.005	0.029	2.671	1.895	1.909	1.899	1.904	1.895	1.899
0.029	0.024	0.020	-0.005	0.015	-0.010	0.029	2.637	1.885	1.899	1.899	1.909	1.899	1.895
0.015	0.005	0.020	0.010	0.020	0.005	0.029	2.783	1.895	1.890	1.899	1.914	1.904	1.899
0.000	-0.005	0.024	0.010	0.020	0.010	0.029	2.646	1.880	1.885	1.895	1.914	1.904	1.904
-0.005	-0.020	0.024	0.005	0.020	-0.005	0.029	2.646	1.880	1.880	1.890	1.914	1.904	1.899
0.000	-0.015	0.020	0.010	0.024	0.005	0.029	2.646	1.899	1.885	1.885	1.909	1.904	1.904
0.010	-0.034	0.000	0.010	0.024	-0.010	0.029	2.734	1.899	1.885	1.875	1.904	1.904	1.904
0.005	-0.005	-0.029	0.000	0.010	0.005	0.029	2.651	1.895	1.895	1.875	1.899	1.895	1.899
0.000	0.010	-0.049	-0.010	0.010	0.010	0.029	2.729	1.899	1.899	1.875	1.890	1.895	1.899
0.000	0.093	-0.049	-0.020	0.000	0.005	0.029	2.734	1.904	1.919	1.890	1.895	1.890	1.895
0.000	0.024	-0.029	-0.024	0.005	0.010	0.029	2.642	1.895	1.895	1.895	1.899	1.895	1.899
0.005	0.024	-0.010	-0.020	0.015	0.010	0.029	2.729	1.895	1.895	1.895	1.904	1.895	1.895
-0.005	0.010	-0.005	-0.010	0.000	-0.010	0.029	2.729	1.899	1.890	1.899	1.909	1.895	1.890
0.010	0.034	-0.005	0.015	0.000	0.000	0.029	2.754	1.904	1.904	1.899	1.924	1.904	1.899
0.024	-0.005	0.000	0.024	0.015	-0.020	0.029	2.651	1.899	1.890	1.895	1.924	1.909	1.895
0.020	-0.083	0.005	0.020	0.000	-0.015	0.029	2.632	1.880	1.870	1.890	1.914	1.904	1.899
0.000	-0.034	0.010	0.024	0.000	-0.020	0.029	2.676	1.880	1.885	1.890	1.914	1.909	1.899
0.005	-0.034	0.005	0.020	-0.005	0.000	0.029	2.632	1.880	1.880	1.885	1.909	1.904	1.904
0.020	-0.020	0.000	0.049	-0.010	0.000	0.029	2.695	1.890	1.890	1.885	1.914	1.909	1.909
0.005	0.015	0.005	0.039	-0.005	0.015	0.029	2.681	1.885	1.895	1.890	1.909	1.909	1.909
-0.015	0.024	0.005	0.024	0.000	0.015	0.029	2.695	1.885	1.890	1.890	1.909	1.909	1.909
-0.010	0.020	0.000	0.054	0.010	-0.005	0.029	2.705	1.885	1.890	1.890	1.919	1.914	1.904
0.005	0.000	0.000	0.088	0.005	0.000	0.029	2.676	1.890	1.885	1.885	1.919	1.909	1.904
0.000	0.005	0.000	0.044	-0.005	0.020	0.029	2.705	1.895	1.890	1.885	1.899	1.904	1.909
-0.010	-0.010	0.005	-0.005	0.000	0.020	0.029	2.676	1.890	1.880	1.880	1.885	1.899	1.909
-0.044	-0.020	0.005	-0.044	0.000	0.010	0.029	2.705	1.880	1.875	1.880	1.880	1.890	1.899
-0.078	-0.015	0.000	-0.049	0.000	0.000	0.029	2.700	1.870	1.875	1.875	1.880	1.890	1.895
-0.078	-0.005	0.000	-0.034	0.005	-0.029	0.029	2.686	1.880	1.880	1.875	1.890	1.890	1.885
-0.039	0.000	0.005	-0.005	0.005	0.020	0.029	2.671	1.890	1.885	1.880	1.899	1.890	1.899
0.015	0.015	0.005	-0.010	0.015	0.024	0.029	2.661	1.904	1.895	1.885	1.899	1.895	1.904
0.044	0.039	0.005	-0.015	0.005	0.020	0.029	2.671	1.909	1.904	1.890	1.899	1.895	1.895
0.068	0.024	0.005	-0.005	0.000	0.010	0.029	2.661	1.904	1.904	1.890	1.904	1.895	1.895
0.088	0.034	0.000	-0.015	-0.005	0.010	0.029	2.700	1.914	1.904	1.895	1.904	1.895	1.890
0.073	0.005	0.000	-0.015	-0.015	0.000	0.029	2.705	1.899	1.895	1.895	1.904	1.890	1.890
0.059	0.005	0.000	-0.010	-0.010	-0.010	0.029	2.671	1.890	1.895	1.895	1.909	1.899	1.890
0.034	-0.005	0.005	-0.015	-0.005	-0.015	0.029	2.690	1.885	1.890	1.895	1.904	1.899	1.890
0.005	-0.005	0.005	-0.020	0.000	-0.049	0.029	2.690	1.875	1.885	1.890	1.909	1.899	1.885
-0.010	-0.005	0.005	-0.029	0.005	-0.039	0.029	2.690	1.875	1.880	1.885	1.904	1.899	1.890
-0.020	-0.010	0.010	-0.029	0.010	-0.044	0.029	2.671	1.870	1.870	1.885	1.904	1.904	1.895
-0.029	-0.020	0.005	-0.024	0.005	-0.020	0.029	2.676	1.870	1.870	1.875	1.904	1.899	1.899
-0.034	-0.015	0.005	-0.015	0.000	-0.005	0.029	2.686	1.880	1.875	1.875	1.904	1.899	1.904
-0.024	-0.005	0.000	-0.015	-0.005	-0.039	0.029	2.642	1.880	1.875	1.870	1.899	1.895	1.895
-0.015	0.000	-0.005	-0.005	0.000	-0.010	0.029	2.773	1.895	1.880	1.875	1.904	1.899	1.899
-0.005	0.015	0.005	-0.005	0.015	0.000	0.029	2.651	1.890	1.885	1.875	1.899	1.904	1.904
-0.010	0.024	0.000	0.005	0.020	0.024	0.029	2.651	1.890	1.890	1.880	1.904	1.904	1.909
-0.015	0.010	-0.010	0.000	0.010	0.044	0.029	2.783	1.899	1.885	1.880	1.899	1.899	1.914
-0.015	-0.010	-0.005	0.005	0.015	0.034	0.029	2.720	1.899	1.885	1.880	1.899	1.899	1.904
-0.020	-0.029	-0.010	0.010	0.000	0.044	0.029	2.671	1.895	1.885	1.880	1.899	1.895	1.904
-0.010	0.015	-0.005	0.020	-0.010	0.034	0.029	2.725	1.904	1.899	1.885	1.904	1.890	1.899
0.000	-0.015	-0.005	0.015	-0.034	0.024	0.029	2.632	1.899	1.890	1.885	1.904	1.890	1.890
0.015	0.020	-0.005	0.024	-0.029	0.010	0.029	2.739	1.904	1.904	1.890	1.909	1.895	1.890
0.005	0.024	-0.005	0.015	-0.024	0.000	0.029	2.627	1.890	1.899	1.890	1.904	1.899	1.890
0.000	0.000	-0.010	0.015	-0.044	-0.024	0.029	2.651	1.880	1.885	1.890	1.904	1.890	1.885
-0.005	-0.005	0.000	0.010	-0.049	-0.039	0.029	2.617	1.885	1.885	1.890	1.904	1.895	1.880
0.010	0.020	-0.005	0.010	-0.024	-0.068	0.029	2.671	1.885	1.895	1.890	1.904	1.899	1.880
0.010	-0.020	0.000	0.010	0.000	-0.015	0.029	2.651	1.880	1.875	1.885	1.904	1.909	1.899
0.000	-0.049	0.005	0.010	0.024	-0.005	0.029	2.676	1.875	1.870	1.880	1.904	1.914	1.909
0.005	-0.005	0.010	0.005	0.039	-0.005	0.029	2.632	1.890	1.890	1.880	1.904	1.914	1.909
0.010	-0.015	0.005	0.005	0.049	0.010	0.029	2.666	1.890	1.880	1.880	1.904	1.909	1.914
0.005	-0.020	0.005	-0.005	0.073	0.000	0.029	2.700	1.890	1.880	1.880	1.899	1.914	1.909
0.000	-0.015	0.005	-0.005	0.083	-0.034	0.029	2.681	1.890	1.885	1.880	1.899	1.909	1.899
0.005	0.005	0.010	0.000	0.068	-0.020	0.029	2.700	1.895	1.890	1.885	1.899	1.899	1.904
0.000	-0.044	0.015	0.000	0.029	0.024	0.029	2.671	1.890	1.875	1.880	1.899	1.890	1.909
0.000	-0.039	0.010	-0.005	0.010	0.044	0.034	2.700	1.890	1.880	1.880	1.899	1.885	1.909
0.005	-0.054	0.005	-0.005	0.010	0.049	0.029	2.676	1.895	1.880	1.875	1.899	1.890	1.904
0.000	-0.063	-0.005	-0.005	0.000	0.049	0.029	2.695	1.895	1.880	1.875	1.895	1.890	1.899
0.010	-0.039	-0.005	0.005	-0.010	0.024	0.029	2.681	1.895	1.890	1.880	1.899	1.885	1.890
0.015	0.020	0.000	0.020	-0.010	-0.015	0.029	2.671	1.895	1.914	1.890	1.904	1.890	1.880
0.010	0.107	0.010	0.015	-0.015	-0.010	0.029	2.666	1.895	1.929	1.904	1.904	1.895	1.885
0.000	0.044	0.000	0.010	-0.005	-0.015	0.029	2.686	1.885	1.899	1.899	1.909	1.895	1.885
0.000	0.083	0.010	0.005	-0.015	0.000	0.029	2.690	1.890	1.909	1.904	1.909	1.899	1.895
0.000	0.137	0.010	0.005	0.010	0.015	0.029	2.661	1.885	1.914	1.904	1.919	1.909	1.899
-0.010	0.107	0.005	0.005	0.015	0.044	0.029	2.666	1.880	1.895	1.899	1.914	1.914	1.914
-0.005	0.015	-0.005	0.010	-0.005	0.039	0.029	2.671	1.880	1.865	1.885	1.914	1.904	1.909
0.010	-0.059	0.000	0.015	-0.024	0.010	0.029	2.690	1.885	1.851	1.875	1.909	1.899	1.899
0.024	-0.063	-0.005	0.005	-0.029	0.034	0.029	2.695	1.885	1.860	1.870	1.899	1.895	1.904
0.010	-0.054	-0.005	0.005	0.000	0.020	0.029	2.676	1.880	1.865	1.870	1.899	1.904	1.899
-0.015	-0.020	0.000	0.000	0.015	0.010	0.029	2.700	1.880	1.880	1.875	1.895	1.904	1.899
-0.005	-0.005	0.005	0.000	0.024	0.010	0.029	2.705	1.890	1.885	1.875	1.895	1.899	1.899
-0.015	0.020	0.005	-0.005	0.034	-0.005	0.029	2.705	1.890	1.895	1.880	1.895	1.899	1.895
-0.020	0.088	0.005	0.000	0.029	-0.005	0.029	2.695	1.890	1.914	1.890	1.899	1.895	1.895
-0.015	0.107	0.005	0.005	0.015	0.000	0.029	2.632	1.885	1.909	1.895	1.904	1.895	1.895
0.005	-0.039	0.005	0.005	-0.005	-0.024	0.029	2.783	1.899	1.865	1.885	1.899	1.890	1.885
0.000	-0.103	0.005	0.000	-0.005	0.005	0.029	2.642	1.885	1.851	1.875	1.899	1.890	1.899
0.000	-0.161	0.010	-0.005	-0.005	-0.010	0.029	2.651	1.880	1.846	1.865	1.890	1.890	1.890
0.020	-0.044	0.000	0.010	0.000	-0.005	0.029	2.646	1.890	1.895	1.875	1.895	1.890	1.895
0.000	0.112	0.000	0.005	0.000	0.000	0.029	2.729	1.895	1.934	1.890	1.899	1.890	1.895
0.020	0.068	0.005	0.000	-0.024	-0.005	0.029	2.759	1.904	1.909	1.895	1.899	1.885	1.890
0.020	-0.020	0.005	0.000	-0.029	-0.005	0.029	2.739	1.899	1.880	1.890	1.904	1.890	1.885
0.000	0.005	0.000	0.000	-0.024	-0.034	0.029	2.627	1.885	1.890	1.890	1.899	1.890	1.885
0.005	-0.020	0.000	0.000	-0.020	0.010	0.029	2.734	1.890	1.885	1.885	1.904	1.899	1.895
-0.005	-0.005	-0.005	0.000	-0.015	0.005	0.029	2.734	1.890	1.885	1.885	1.904	1.899	1.899
0.000	-0.005	0.000	0.000	-0.005	0.005	0.029	2.749	1.890	1.885	1.885	1.904	1.899	1.895
0.005	0.010	-0.005	0.000	0.000	-0.015	0.029	2.715	1.895	1.895	1.885	1.904	1.899	1.895
0.005	0.005	0.005	-0.005	0.000	-0.005	0.029	2.651	1.890	1.890	1.890	1.904	1.904	1.895
0.015	-0.010	0.005	-0.005	-0.005	-0.020	0.029	2.632	1.880	1.880	1.890	1.899	1.899	1.895
0.000	-0.020	0.005	-0.005	0.010	0.000	0.029	2.676	1.880	1.880	1.885	1.904	1.904	1.899
-0.010	0.005	0.010	-0.005	0.015	-0.020	0.029	2.656	1.875	1.885	1.885	1.904	1.904	1.895
-0.005	0.015	0.005	0.000	0.005	0.000	0.029	2.695	1.880	1.890	1.885	1.904	1.904	1.899
-0.015	0.010	0.000	0.000	0.015	0.005	0.029	2.700	1.885	1.880	1.880	1.904	1.904	1.904
-0.024	0.015	-0.005	-0.005	0.005	-0.010	0.029	2.700	1.885	1.885	1.880	1.904	1.895	1.899
-0.034	0.024	-0.005	0.005	0.000	0.020	0.029	2.671	1.880	1.885	1.880	1.904	1.899	1.909
-0.010	0.000	-0.005	0.015	-0.015	0.005	0.034	2.666	1.885	1.880	1.880	1.904	1.890	1.899
0.000	-0.005	0.005	0.010	-0.020	0.005	0.029	2.681	1.885	1.875	1.880	1.904	1.895	1.895
0.000	-0.005	0.000	0.010	-0.005	0.010	0.029	2.671	1.890	1.885	1.880	1.899	1.904	1.899
0.000	-0.024	0.000	0.005	0.010	-0.005	0.029	2.695	1.890	1.875	1.875	1.899	1.899	1.895
0.000	0.000	0.005	0.000	0.010	0.010	0.029	2.681	1.890	1.885	1.880	1.895	1.899	1.899
0.005	-0.015	0.005	0.005	0.029	0.000	0.029	2.661	1.885	1.880	1.880	1.899	1.899	1.899
0.000	-0.010	0.010	0.010	0.034	-0.005	0.029	2.705	1.890	1.880	1.880	1.899	1.904	1.895
0.000	-0.010	0.005	0.000	0.039	-0.005	0.029	2.671	1.885	1.885	1.880	1.895	1.899	1.899
-0.005	-0.029	-0.005	-0.005	0.029	-0.015	0.029	2.671	1.880	1.875	1.875	1.895	1.895	1.890
0.000	-0.029	-0.010	-0.005	0.015	0.005	0.029	2.681	1.880	1.875	1.875	1.895	1.890	1.895
0.005	-0.063	-0.005	-0.005	0.010	-0.005	0.029	2.705	1.885	1.870	1.875	1.890	1.890	1.895
-0.005	-0.063	0.005	-0.010	0.000	-0.005	0.029	2.710	1.885	1.870	1.875	1.890	1.885	1.890
0.000	-0.063	0.015	-0.005	0.000	0.005	0.029	2.705	1.895	1.875	1.875	1.895	1.885	1.895
0.020	-0.020	0.005	0.005	-0.005	0.010	0.029	2.700	1.899	1.895	1.880	1.899	1.885	1.890
0.015	0.039	-0.005	0.010	-0.015	0.005	0.029	2.690	1.895	1.914	1.890	1.904	1.890	1.890
0.020	0.049	-0.010	0.005	0.000	0.015	0.029	2.671	1.899	1.904	1.890	1.904	1.895	1.895
0.034	0.098	-0.010	0.024	0.010	0.015	0.029	2.681	1.899	1.934	1.904	1.914	1.899	1.895
0.029	0.200	-0.015	0.020	-0.010	-0.020	0.029	2.671	1.895	1.934	1.914	1.919	1.895	1.885
0.029	0.059	-0.015	0.020	-0.015	0.015	0.029	2.681	1.885	1.885	1.899	1.919	1.899	1.899
0.005	-0.005	-0.015	0.034	-0.015	0.015	0.029	2.642	1.875	1.860	1.890	1.914	1.904	1.899
-0.005	-0.024	-0.005	0.010	-0.005	0.005	0.029	2.773	1.880	1.865	1.885	1.904	1.904	1.899
-0.059	0.000	0.000	-0.020	0.000	0.005	0.029	2.642	1.865	1.870	1.880	1.895	1.899	1.899
-0.234	0.039	0.010	-0.039	0.005	0.005	0.029	2.651	1.807	1.860	1.875	1.890	1.899	1.899
-0.386	0.020	0.015	-0.024	0.015	0.005	0.029	2.642	1.797	1.836	1.865	1.895	1.899	1.899
-0.308	0.010	0.000	-0.010	0.020	-0.005	0.029	2.739	1.855	1.836	1.855	1.890	1.895	1.890
-0.137	-0.010	0.005	-0.010	0.015	0.010	0.029	2.788	1.929	1.855	1.855	1.885	1.890	1.895
0.029	0.000	0.010	-0.005	0.000	0.000	0.029	2.739	1.963	1.895	1.865	1.885	1.885	1.890
0.239	0.024	-0.005	-0.005	-0.005	-0.005	0.029	2.651	2.002	1.934	1.880	1.885	1.880	1.890
0.420	0.000	-0.015	0.000	0.000	-0.010	0.029	2.651	2.017	1.953	1.899	1.895	1.885	1.885
0.503	-0.015	-0.005	0.034	0.015	0.000	0.029	2.739	2.012	1.968	1.924	1.919	1.899	1.890
0.493	-0.015	0.005	0.024	0.005	-0.005	0.029	2.705	1.963	1.968	1.938	1.924	1.899	1.895
0.381	-0.010	0.015	0.010	0.000	-0.010	0.029	2.646	1.909	1.948	1.938	1.934	1.909	1.895
0.239	0.010	0.010	0.000	0.000	0.005	0.029	2.686	1.860	1.924	1.934	1.934	1.909	1.904
0.073	-0.005	-0.005	-0.015	0.010	0.000	0.029	2.632	1.812	1.880	1.914	1.929	1.919	1.904
-0.093	-0.015	0.005	-0.039	0.020	-0.005	0.029	2.666	1.777	1.851	1.899	1.919	1.919	1.909
-0.244	-0.029	0.010	-0.039	0.024	0.005	0.029	2.705	1.772	1.816	1.875	1.914	1.919	1.909
-0.312	-0.024	0.015	-0.034	0.020	0.000	0.029	2.681	1.792	1.812	1.860	1.904	1.914	1.909
-0.288	-0.020	0.015	-0.020	0.015	0.024	0.029	2.695	1.826	1.816	1.851	1.895	1.904	1.919
-0.254	-0.024	0.020	-0.005	0.005	0.020	0.029	2.700	1.855	1.826	1.841	1.890	1.899	1.909
-0.190	-0.034	0.015	0.015	0.010	0.010	0.029	2.686	1.885	1.841	1.841	1.885	1.895	1.904
-0.146	-0.024	0.020	0.024	0.010	0.000	0.029	2.700	1.899	1.860	1.846	1.885	1.890	1.895
-0.088	-0.010	0.020	0.029	0.005	0.005	0.029	2.690	1.914	1.880	1.855	1.880	1.885	1.895
-0.020	-0.010	0.020	0.020	0.000	0.005	0.029	2.695	1.929	1.895	1.865	1.875	1.880	1.890
0.024	0.000	0.015	0.000	-0.005	0.020	0.029	2.700	1.938	1.909	1.875	1.875	1.875	1.890
0.049	0.000	0.005	0.000	0.010	0.015	0.029	2.686	1.929	1.914	1.880	1.880	1.880	1.885
0.029	0.015	0.000	0.015	0.010	-0.015	0.029	2.686	1.909	1.914	1.890	1.895	1.880	1.875
0.010	0.010	0.000	0.015	0.015	-0.063	0.029	2.681	1.895	1.909	1.895	1.899	1.885	1.870
-0.005	0.005	-0.005	0.005	0.029	-0.039	0.029	2.681	1.890	1.899	1.895	1.899	1.895	1.880
0.015	0.005	-0.015	-0.010	0.010	-0.068	0.029	2.671	1.890	1.895	1.895	1.899	1.880	1.875
0.020	0.010	-0.020	0.005	-0.098	-0.054	0.029	2.666	1.885	1.895	1.890	1.904	1.865	1.870
0.020	0.015	-0.005	0.000	-0.161	-0.034	0.029	2.681	1.880	1.890	1.890	1.904	1.855	1.870
0.029	0.005	0.000	0.000	-0.190	-0.044	0.029	2.705	1.890	1.885	1.890	1.904	1.860	1.865
0.024	0.000	-0.010	0.005	-0.171	-0.005	0.029	2.690	1.880	1.885	1.885	1.904	1.880	1.875
-0.068	0.010	-0.029	0.010	-0.146	0.034	0.029	2.690	1.855	1.875	1.880	1.904	1.890	1.895
-0.088	0.015	-0.029	0.005	-0.093	0.024	0.029	2.695	1.865	1.870	1.875	1.904	1.909	1.890
-0.044	-0.005	-0.034	0.010	0.005	-0.039	0.034	2.676	1.875	1.870	1.875	1.904	1.929	1.890
-0.020	-0.010	-0.010	0.010	0.063	-0.005	0.029	2.676	1.885	1.870	1.875	1.904	1.938	1.909
-0.059	-0.005	0.005	0.024	0.059	0.015	0.029	2.690	1.870	1.870	1.880	1.904	1.924	1.924
-0.093	-0.010	0.005	0.034	0.059	0.044	0.029	2.686	1.870	1.870	1.875	1.904	1.924	1.929
-0.029	-0.010	-0.020	-0.005	0.054	0.063	0.034	2.681	1.895	1.875	1.870	1.885	1.904	1.929
0.059	0.000	-0.005	-0.029	0.054	0.068	0.029	2.798	1.938	1.895	1.880	1.885	1.899	1.919
0.122	0.010	-0.005	-0.029	0.068	0.059	0.029	2.642	1.938	1.914	1.885	1.890	1.899	1.914
0.161	0.029	-0.005	-0.039	0.098	0.063	0.029	2.651	1.938	1.929	1.895	1.895	1.904	1.914
0.210	0.059	-0.010	0.000	0.137	0.073	0.029	2.646	1.948	1.943	1.914	1.914	1.919	1.919
0.112	0.039	-0.024	0.015	0.234	0.088	0.029	2.734	1.909	1.924	1.914	1.924	1.948	1.934
0.063	0.039	-0.015	0.015	0.303	0.083	0.029	2.808	1.909	1.914	1.914	1.929	1.958	1.934
-0.166	0.034	0.015	0.005	0.234	0.024	0.029	2.749	1.812	1.880	1.914	1.924	1.929	1.919
-0.439	0.005	0.015	0.020	0.142	0.020	0.029	2.646	1.758	1.836	1.890	1.919	1.895	1.909
-0.381	0.000	0.000	0.029	0.005	0.005	0.029	2.744	1.816	1.826	1.870	1.909	1.865	1.890
-0.142	0.000	-0.029	0.015	-0.049	-0.024	0.034	2.729	1.909	1.855	1.855	1.895	1.860	1.875
0.122	-0.005	-0.034	0.000	-0.098	0.015	0.029	2.646	1.978	1.890	1.865	1.885	1.855	1.875
0.430	-0.020	0.000	-0.010	-0.127	-0.020	0.029	2.646	2.041	1.938	1.890	1.890	1.855	1.860
0.693	-0.029	0.034	-0.010	-0.161	-0.015	0.029	2.646	2.070	1.978	1.919	1.904	1.855	1.860
0.752	-0.020	0.044	-0.020	-0.186	0.000	0.029	2.744	2.026	1.992	1.943	1.914	1.865	1.865
0.630	-0.005	0.039	-0.015	-0.259	-0.015	0.029	2.676	1.938	1.982	1.953	1.929	1.860	1.855
0.352	0.000	0.029	-0.015	-0.327	-0.039	0.029	2.710	1.846	1.934	1.943	1.938	1.860	1.846
0.015	-0.015	0.010	0.020	-0.312	-0.107	0.029	2.695	1.748	1.870	1.919	1.948	1.885	1.836
-0.269	-0.020	0.000	0.024	-0.312	-0.161	0.029	2.671	1.694	1.812	1.885	1.934	1.895	1.841
-0.449	-0.015	-0.034	0.020	-0.220	-0.176	0.029	2.666	1.689	1.772	1.851	1.919	1.929	1.870
-0.493	-0.010	-0.010	0.015	-0.093	-0.054	0.029	2.686	1.729	1.763	1.831	1.904	1.958	1.929
-0.439	-0.005	0.005	-0.005	0.054	0.039	0.029	2.705	1.797	1.772	1.821	1.885	1.978	1.968
-0.352	-0.010	0.054	-0.020	0.190	-0.034	0.029	2.671	1.851	1.797	1.826	1.870	1.982	1.953
-0.264	-0.015	0.083	-0.024	0.366	-0.054	0.034	2.695	1.890	1.826	1.831	1.870	2.007	1.968
-0.156	-0.005	0.059	-0.024	0.542	-0.024	0.029	2.695	1.934	1.860	1.836	1.870	2.012	1.992
-0.107	-0.029	0.039	-0.015	0.493	-0.020	0.029	2.676	1.943	1.875	1.841	1.870	1.953	1.978
-0.068	-0.024	0.024	-0.010	0.352	-0.015	0.029	2.676	1.943	1.895	1.851	1.865	1.885	1.948
-0.049	-0.015	0.000	-0.015	0.166	0.073	0.029	2.666	1.934	1.909	1.855	1.860	1.831	1.938
-0.020	-0.005	-0.073	0.005	0.049	0.205	0.029	2.676	1.934	1.914	1.855	1.865	1.816	1.938
-0.020	0.015	-0.112	0.010	-0.024	0.254	0.029	2.681	1.924	1.924	1.865	1.865	1.812	1.909
-0.059	0.010	-0.107	-0.005	0.044	0.215	0.029	2.676	1.899	1.914	1.875	1.870	1.841	1.880
-0.103	0.039	-0.093	-0.024	0.015	0.176	0.029	2.700	1.890	1.914	1.890	1.875	1.841	1.860
-0.093	0.024	-0.049	-0.039	0.103	0.146	0.029	2.695	1.890	1.904	1.904	1.885	1.875	1.855
-0.054	0.020	0.005	0.000	0.088	0.103	0.029	2.676	1.899	1.904	1.924	1.914	1.870	1.855
0.029	0.005	0.083	0.059	-0.078	0.059	0.029	1.577	1.797	1.880	1.929	1.934	1.846	1.831
0.117	0.000	0.107	0.044	-0.171	0.005	0.029	1.895	1.748	1.855	1.909	1.924	1.836	1.812
0.112	0.005	0.063	0.000	-0.327	-0.063	0.029	1.372	1.641	1.797	1.870	1.899	1.807	1.787
0.132	-0.005	-0.024	0.010	-0.283	-0.107	0.029	1.230	1.548	1.733	1.812	1.885	1.846	1.792
0.137	0.000	-0.010	0.034	-0.098	-0.137	0.029	1.201	1.479	1.670	1.787	1.875	1.899	1.821
-0.020	-0.005	0.029	0.073	-0.029	-0.112	0.029	1.167	1.377	1.592	1.743	1.860	1.904	1.855
-0.039	-0.005	0.020	0.034	-0.010	-0.117	0.029	1.123	1.362	1.533	1.685	1.807	1.880	1.860
0.068	0.005	0.024	0.000	-0.098	-0.088	0.039	1.265	1.401	1.504	1.636	1.753	1.826	1.855
0.088	0.000	0.059	-0.005	0.054	-0.083	0.034	1.113	1.377	1.475	1.602	1.719	1.846	1.860
0.083	0.005	0.039	-0.054	0.220	-0.039	0.034	1.123	1.362	1.445	1.553	1.670	1.836	1.870
0.190	0.010	0.005	-0.073	0.112	0.005	0.039	1.123	1.411	1.440	1.514	1.626	1.748	1.846
0.361	0.029	-0.024	-0.044	-0.112	-0.005	0.039	1.201	1.455	1.460	1.484	1.597	1.636	1.777
0.488	0.054	-0.024	-0.005	-0.249	-0.142	0.039	1.274	1.465	1.470	1.484	1.577	1.587	1.689
0.400	0.068	-0.044	0.005	-0.146	-0.220	0.039	1.143	1.401	1.455	1.475	1.558	1.606	1.650
0.156	0.044	-0.029	0.029	0.034	-0.122	0.039	1.099	1.284	1.401	1.455	1.548	1.636	1.675
-0.132	0.020	-0.132	0.054	0.000	-0.034	0.034	1.221	1.201	1.333	1.396	1.514	1.592	1.675
-0.288	0.010	-0.205	0.059	-0.103	0.024	0.029	1.196	1.187	1.284	1.348	1.470	1.528	1.646
-0.312	0.010	-0.117	0.034	-0.181	0.029	0.029	1.099	1.206	1.265	1.353	1.440	1.489	1.602
-0.293	-0.010	-0.005	0.010	-0.088	0.073	0.029	1.211	1.245	1.265	1.353	1.416	1.499	1.592
-0.400	0.000	0.151	-0.010	-0.039	0.127	0.029	1.147	1.216	1.260	1.372	1.411	1.489	1.577
-0.366	-0.005	0.205	-0.005	0.117	0.132	0.029	2.012	1.348	1.279	1.357	1.411	1.514	1.567
-0.264	-0.010	0.166	0.000	0.205	0.186	0.029	2.671	1.514	1.333	1.338	1.396	1.504	1.567
-0.200	-0.010	0.117	-0.015	0.205	0.132	0.029	2.710	1.655	1.416	1.348	1.387	1.465	1.523
0.015	-0.024	0.117	0.029	0.190	0.059	0.034	2.676	1.753	1.509	1.392	1.401	1.440	1.484
0.137	-0.034	0.083	0.015	0.146	-0.005	0.034	2.671	1.807	1.582	1.426	1.406	1.416	1.445
0.273	-0.020	0.024	-0.024	0.308	-0.020	0.034	2.676	1.841	1.655	1.475	1.421	1.460	1.450
0.356	-0.029	0.049	-0.049	0.405	-0.005	0.034	2.671	1.841	1.699	1.543	1.450	1.479	1.460
0.435	-0.059	0.059	-0.039	0.347	-0.010	0.034	2.676	1.846	1.729	1.597	1.499	1.470	1.465
0.200	-0.049	0.078	-0.029	0.435	0.088	0.029	2.671	1.729	1.724	1.636	1.543	1.514	1.504
-0.083	-0.044	0.020	-0.005	0.298	0.146	0.034	2.681	1.650	1.694	1.636	1.577	1.489	1.504
-0.098	-0.034	-0.059	-0.005	0.132	0.142	0.034	2.705	1.680	1.689	1.626	1.587	1.470	1.494
-0.049	-0.005	-0.073	-0.044	-0.054	0.068	0.034	2.681	1.699	1.699	1.641	1.587	1.450	1.450
0.000	0.010	-0.049	-0.083	-0.127	-0.010	0.029	3.960	1.865	1.738	1.670	1.606	1.475	1.445
0.073	0.039	-0.239	0.020	-0.342	-0.103	0.029	3.989	1.982	1.797	1.650	1.646	1.455	1.416
0.156	0.098	-0.303	0.059	-0.542	-0.161	0.034	3.970	2.046	1.875	1.699	1.670	1.455	1.406
-0.034	0.093	-0.254	0.029	-0.703	-0.229	0.034	3.984	2.017	1.899	1.763	1.685	1.475	1.401
-0.366	0.063	-0.137	0.005	-0.635	-0.293	0.034	3.965	1.929	1.890	1.826	1.724	1.562	1.436
-0.674	0.010	0.024	-0.005	-0.415	-0.244	0.034	3.965	1.899	1.870	1.880	1.782	1.680	1.523
-0.552	-0.039	0.151	-0.005	-0.127	-0.137	0.034	3.994	2.012	1.895	1.919	1.836	1.807	1.636
-0.205	-0.073	0.234	0.015	0.176	-0.034	0.034	3.965	2.163	1.963	1.953	1.885	1.909	1.738
0.151	-0.078	0.205	0.068	0.190	0.020	0.034	3.989	2.275	2.051	1.973	1.929	1.909	1.802
0.527	-0.059	0.200	0.068	0.088	0.063	0.034	3.970	2.368	2.148	2.021	1.953	1.899	1.836
0.864	-0.039	0.156	0.034	0.029	0.103	0.034	3.965	2.422	2.231	2.056	1.973	1.899	1.865
0.972	0.015	-0.083	-0.024	-0.122	0.078	0.034	3.965	2.393	2.280	2.051	1.973	1.875	1.855
0.884	0.063	-0.137	-0.059	-0.244	0.024	0.034	3.999	2.310	2.295	2.100	2.002	1.875	1.841
0.547	0.107	-0.176	-0.073	-0.352	-0.015	0.034	3.989	2.178	2.256	2.139	2.031	1.875	1.841
0.137	0.063	-0.078	-0.044	-0.483	0.000	0.034	3.916	2.046	2.178	2.173	2.085	1.904	1.865
-0.269	0.044	0.034	-0.015	-0.371	0.020	0.034	4.082	1.982	2.109	2.187	2.129	1.992	1.904
-0.552	0.029	0.132	-0.010	-0.239	0.015	0.034	3.945	1.958	2.051	2.173	2.153	2.075	1.948
-0.601	-0.010	-0.034	0.000	-0.010	-0.005	0.034	3.950	2.021	2.021	2.080	2.144	2.158	2.002
-0.400	-0.044	-0.166	0.005	0.234	-0.078	0.039	3.945	2.153	2.041	2.041	2.129	2.212	2.046
-0.352	-0.044	-0.249	0.020	0.308	-0.010	0.044	2.705	2.046	2.051	2.026	2.109	2.192	2.100
-0.332	-0.049	-0.122	0.034	0.186	0.059	0.044	2.095	1.919	2.026	2.056	2.104	2.139	2.124
-0.508	-0.034	-0.005	0.039	0.156	0.117	0.029	2.070	1.743	1.958	2.065	2.100	2.119	2.144
-0.488	-0.020	0.195	0.049	0.239	0.200	0.034	1.953	1.714	1.914	2.080	2.109	2.153	2.168
-0.317	0.005	0.288	0.044	0.352	0.259	0.039	1.987	1.729	1.880	2.046	2.100	2.163	2.187
-0.205	0.010	0.298	0.034	0.293	0.264	0.039	2.046	1.733	1.851	2.002	2.075	2.124	2.168
-0.098	0.000	0.327	0.024	0.410	0.220	0.039	1.958	1.738	1.831	1.958	2.051	2.134	2.148
0.059	0.010	0.239	0.024	0.444	0.093	0.044	1.943	1.753	1.816	1.895	2.012	2.104	2.104
0.210	-0.005	0.186	0.015	0.410	-0.054	0.044	1.987	1.768	1.802	1.855	1.968	2.051	2.046
0.303	-0.029	0.010	0.015	0.186	-0.166	0.044	1.948	1.753	1.777	1.777	1.914	1.943	1.982
0.327	-0.034	-0.195	0.020	-0.015	-0.239	0.044	2.002	1.729	1.763	1.729	1.860	1.870	1.929
0.283	-0.039	-0.225	0.015	-0.156	-0.229	0.044	2.065	1.694	1.738	1.724	1.821	1.816	1.899
0.210	-0.020	-0.186	-0.010	-0.278	-0.098	0.044	2.017	1.660	1.724	1.733	1.797	1.787	1.904
0.117	-0.024	-0.112	-0.020	-0.239	0.034	0.044	2.036	1.636	1.699	1.743	1.787	1.802	1.909
0.078	-0.024	-0.044	-0.029	-0.132	0.156	0.039	2.026	1.631	1.685	1.743	1.782	1.831	1.924
0.073	-0.010	-0.049	-0.020	-0.034	0.210	0.039	2.021	1.641	1.675	1.724	1.777	1.841	1.914
-0.029	0.000	-0.078	0.000	0.049	0.166	0.039	2.026	1.616	1.660	1.699	1.768	1.836	1.880
-0.142	0.015	-0.088	-0.005	0.015	0.034	0.171	2.017	1.606	1.650	1.685	1.748	1.792	1.826
-0.088	0.068	-0.059	0.000	-0.054	-0.151	0.181	2.026	1.636	1.665	1.685	1.733	1.753	1.753
-0.029	0.117	-0.024	0.005	-0.054	-0.225	0.215	2.041	1.655	1.680	1.694	1.733	1.743	1.733
-0.039	0.156	-0.054	0.010	-0.044	-0.293	0.044	2.046	1.655	1.680	1.680	1.724	1.738	1.714
-0.088	0.132	-0.200	0.024	-0.103	-0.269	0.039	2.075	1.631	1.655	1.631	1.704	1.714	1.719
-0.063	0.063	-0.200	0.039	-0.098	-0.161	0.049	2.080	1.641	1.631	1.636	1.699	1.714	1.748
-0.015	0.000	-0.166	0.044	-0.122	-0.078	0.044	2.041	1.650	1.621	1.641	1.689	1.699	1.753
0.034	-0.020	-0.122	0.020	-0.205	-0.015	0.049	2.031	1.660	1.631	1.646	1.670	1.670	1.748
0.093	-0.034	-0.005	0.005	-0.332	0.024	0.044	2.031	1.670	1.646	1.670	1.675	1.636	1.724
0.103	0.005	0.117	0.000	-0.444	-0.044	0.073	2.026	1.655	1.660	1.699	1.685	1.611	1.675
0.098	0.005	0.166	-0.010	-0.415	-0.068	0.176	2.046	1.641	1.660	1.699	1.694	1.646	1.665
0.068	-0.020	0.171	-0.010	-0.273	-0.117	0.317	2.021	1.616	1.641	1.685	1.699	1.694	1.665
-0.034	-0.024	0.146	-0.015	-0.259	-0.137	0.210	2.046	1.577	1.616	1.660	1.689	1.685	1.660
-0.127	-0.029	0.024	0.010	-0.327	-0.112	0.190	2.031	1.558	1.592	1.602	1.675	1.670	1.670
-0.132	-0.039	-0.171	0.020	-0.244	0.049	0.430	2.012	1.567	1.577	1.553	1.650	1.689	1.733
-0.103	-0.024	-0.396	-0.015	-0.210	0.200	0.381	2.041	1.592	1.577	1.499	1.602	1.680	1.753
-0.034	-0.020	-0.391	-0.034	-0.083	0.288	0.381	2.007	1.621	1.597	1.538	1.587	1.689	1.763
0.034	-0.034	-0.142	-0.054	-0.044	0.317	0.376	2.026	1.646	1.616	1.626	1.602	1.675	1.748
0.098	-0.029	0.195	-0.034	0.093	0.283	0.547	1.973	1.655	1.641	1.719	1.655	1.709	1.738
0.117	-0.034	0.391	-0.010	0.415	0.308	0.562	2.124	1.670	1.655	1.753	1.699	1.802	1.768
0.098	-0.034	0.464	-0.005	0.908	0.317	0.488	1.987	1.646	1.655	1.748	1.738	1.919	1.821
-0.005	-0.049	0.439	0.020	1.519	0.312	0.547	1.997	1.611	1.636	1.719	1.758	2.041	1.890
-0.073	-0.020	0.347	0.029	1.558	0.283	0.552	2.134	1.621	1.636	1.670	1.738	1.948	1.895
-0.054	-0.005	0.244	0.063	1.099	0.200	0.532	1.987	1.641	1.641	1.631	1.704	1.753	1.821
0.020	0.010	0.127	0.054	0.522	0.161	0.518	1.987	1.660	1.646	1.597	1.660	1.567	1.729
0.127	0.015	0.044	0.015	0.068	0.039	0.474	1.978	1.670	1.650	1.587	1.621	1.465	1.611
0.112	0.015	-0.054	0.029	-0.190	-0.098	0.571	1.997	1.626	1.641	1.572	1.611	1.426	1.523
0.146	0.005	-0.083	0.029	-0.352	-0.254	0.571	2.007	1.616	1.631	1.582	1.602	1.426	1.445
0.015	0.005	-0.122	0.005	-0.430	-0.410	0.562	1.997	1.538	1.602	1.572	1.592	1.440	1.401
-0.098	0.020	-0.137	-0.029	-0.527	-0.508	0.552	2.080	1.509	1.572	1.567	1.577	1.450	1.392
-0.049	0.024	-0.151	-0.054	-0.518	-0.396	0.581	2.061	1.519	1.558	1.562	1.572	1.489	1.445
-0.010	0.024	-0.161	-0.044	-0.444	-0.342	0.508	2.026	1.528	1.553	1.558	1.577	1.533	1.484
-0.181	0.029	-0.137	-0.034	-0.371	-0.229	0.469	1.997	1.465	1.523	1.558	1.582	1.567	1.543
-0.171	0.024	-0.122	-0.044	-0.288	-0.151	0.483	2.026	1.484	1.514	1.548	1.582	1.597	1.577
-0.088	0.029	-0.200	-0.029	-0.195	-0.103	0.425	2.090	1.533	1.519	1.519	1.572	1.616	1.597
0.073	0.034	-0.176	-0.024	-0.078	-0.137	0.278	2.017	1.582	1.548	1.538	1.572	1.631	1.597
0.269	0.044	-0.098	0.000	-0.088	-0.088	0.273	2.041	1.621	1.572	1.567	1.587	1.616	1.616
0.200	0.029	-0.117	0.015	-0.215	-0.068	0.249	2.041	1.567	1.562	1.553	1.582	1.567	1.602
0.093	0.015	-0.483	0.024	-0.469	-0.044	0.283	2.036	1.519	1.533	1.440	1.538	1.484	1.572
-0.005	0.010	-1.104	0.015	-0.635	0.044	0.283	2.041	1.489	1.499	1.294	1.460	1.440	1.558
-0.010	0.015	-0.879	0.000	-0.474	0.239	0.405	2.021	1.484	1.509	1.431	1.460	1.509	1.606
0.029	-0.005	-0.176	-0.005	-0.181	0.376	0.327	2.026	1.509	1.528	1.650	1.538	1.592	1.650
0.044	-0.034	0.532	-0.005	-0.215	0.464	0.430	2.036	1.523	1.548	1.802	1.626	1.592	1.660
-0.044	-0.020	1.011	0.005	-0.151	0.464	0.581	2.036	1.499	1.548	1.855	1.709	1.641	1.660
-0.112	-0.015	1.216	0.005	0.112	0.347	0.576	2.017	1.494	1.538	1.816	1.753	1.743	1.655
0.015	-0.015	1.133	0.015	0.337	0.156	0.581	2.031	1.538	1.538	1.719	1.753	1.787	1.641
-0.024	-0.015	0.913	0.010	0.371	-0.068	0.571	2.017	1.519	1.519	1.602	1.714	1.772	1.616
-0.078	-0.010	0.581	0.005	0.508	-0.229	0.566	2.046	1.509	1.509	1.489	1.650	1.768	1.616
-0.005	0.000	0.234	0.005	0.615	-0.308	0.562	2.012	1.528	1.509	1.406	1.582	1.748	1.631
0.083	0.029	-0.020	0.000	0.752	-0.312	0.547	2.021	1.553	1.519	1.377	1.533	1.724	1.660
0.068	0.024	-0.176	-0.005	0.811	-0.186	0.591	2.026	1.548	1.523	1.372	1.489	1.680	1.699
-0.020	-0.005	-0.278	0.005	0.703	-0.044	0.640	2.007	1.509	1.509	1.387	1.460	1.597	1.709
-0.312	-0.029	-0.303	0.010	0.664	0.044	0.659	2.041	1.436	1.470	1.401	1.450	1.553	1.685
-0.308	-0.024	-0.303	0.010	0.537	0.122	0.669	2.017	1.470	1.475	1.421	1.440	1.484	1.646
-0.220	-0.015	-0.273	0.010	0.308	0.151	0.664	2.046	1.519	1.489	1.445	1.445	1.406	1.582
-0.493	0.000	-0.220	0.049	0.122	0.190	0.669	2.051	1.426	1.475	1.465	1.465	1.377	1.533
-0.430	-0.005	-0.181	0.049	-0.132	0.186	0.674	2.041	1.475	1.479	1.479	1.465	1.323	1.470
-0.483	0.010	-0.146	0.015	-0.469	0.156	0.684	2.026	1.455	1.470	1.479	1.455	1.270	1.396
-0.303	0.005	-0.146	-0.020	-0.605	0.107	0.679	1.978	1.499	1.479	1.475	1.455	1.279	1.348
0.015	0.005	-0.151	-0.024	-0.679	-0.010	0.684	2.119	1.587	1.519	1.484	1.470	1.304	1.304
0.278	0.005	-0.127	0.005	-0.635	-0.171	0.684	1.978	1.616	1.553	1.514	1.489	1.362	1.279
0.679	0.000	-0.122	0.000	-0.557	-0.244	0.688	1.997	1.680	1.592	1.533	1.509	1.421	1.304
1.113	-0.015	-0.171	-0.029	-0.503	-0.298	0.693	1.987	1.724	1.631	1.548	1.519	1.460	1.328
1.226	-0.005	-0.171	0.005	-0.400	-0.259	0.698	2.070	1.655	1.641	1.577	1.553	1.514	1.396
0.420	0.015	-0.112	0.015	-0.273	-0.220	0.703	2.002	1.353	1.553	1.587	1.572	1.562	1.455
-0.171	0.015	-0.029	0.005	-0.220	-0.176	0.703	2.080	1.221	1.450	1.567	1.572	1.577	1.499
-0.181	0.020	-0.269	-0.005	-0.210	-0.093	0.708	1.992	1.284	1.396	1.455	1.548	1.572	1.543
0.107	0.024	-0.317	-0.005	-0.122	-0.073	0.713	2.002	1.421	1.406	1.440	1.528	1.587	1.558
0.601	0.010	-0.132	0.010	-0.044	-0.039	0.718	1.978	1.587	1.470	1.499	1.533	1.592	1.582
0.542	0.000	0.107	0.083	0.010	0.039	0.713	2.090	1.533	1.494	1.558	1.567	1.606	1.616
0.176	-0.005	0.288	0.039	0.078	0.161	0.723	1.973	1.401	1.465	1.577	1.567	1.616	1.650
-0.088	-0.010	0.371	-0.010	0.117	0.249	0.718	2.017	1.353	1.426	1.558	1.558	1.611	1.665
-0.220	0.000	0.322	-0.063	0.127	0.259	0.728	1.978	1.343	1.401	1.494	1.533	1.587	1.641
-0.264	-0.005	0.205	-0.078	0.117	0.220	0.723	2.017	1.372	1.392	1.436	1.504	1.562	1.606
-0.200	-0.005	0.083	-0.063	0.161	0.186	0.732	1.987	1.411	1.396	1.392	1.479	1.548	1.582
-0.278	0.005	-0.005	-0.044	0.112	0.107	0.732	2.031	1.406	1.392	1.367	1.460	1.509	1.538
-0.513	0.015	-0.044	-0.010	0.151	-0.059	0.742	2.017	1.343	1.377	1.362	1.445	1.499	1.484
-0.581	0.010	-0.059	-0.020	0.244	-0.068	0.742	1.997	1.357	1.367	1.362	1.421	1.504	1.489
-0.381	-0.024	-0.073	-0.020	0.273	-0.103	0.747	2.021	1.436	1.382	1.362	1.411	1.479	1.475
-0.273	-0.073	-0.127	-0.010	0.259	-0.059	0.757	2.002	1.465	1.392	1.348	1.401	1.455	1.489
-0.190	-0.098	-0.186	0.005	0.195	0.063	0.757	1.992	1.479	1.406	1.357	1.396	1.426	1.499
-0.171	-0.078	-0.093	0.015	0.132	0.122	0.762	2.007	1.475	1.440	1.401	1.401	1.401	1.484
-0.156	-0.044	0.029	0.015	-0.068	0.083	0.762	2.026	1.470	1.460	1.450	1.421	1.348	1.436
