0.000	0.000	0.000	0.000	0.020	0.000	0.034	1.768	5.342	2.847	2.598	2.061	2.241	2.031
0.000	-0.005	0.000	0.000	0.010	-0.015	0.029	1.753	4.404	3.306	2.778	2.256	2.231	2.090
0.000	-0.015	-0.005	-0.005	0.000	-0.024	0.034	1.782	3.726	3.437	2.959	2.446	2.280	2.134
-0.005	-0.005	0.000	0.005	0.000	-0.005	0.034	1.797	3.237	3.408	3.086	2.627	2.373	2.202
0.005	-0.010	0.000	-0.005	0.005	-0.020	0.034	1.729	2.876	3.271	3.145	2.773	2.480	2.271
-0.010	-0.020	-0.005	-0.005	0.005	0.005	0.029	1.753	2.617	3.101	3.140	2.876	2.588	2.358
-0.005	-0.010	0.000	0.000	0.010	0.010	0.029	1.763	2.446	2.930	3.091	2.944	2.686	2.451
-0.005	-0.010	0.000	0.000	-0.005	-0.005	0.034	1.758	2.324	2.773	3.008	2.969	2.759	2.524
0.000	0.000	-0.005	0.000	0.015	-0.010	0.034	1.763	2.246	2.637	2.910	2.964	2.817	2.607
-0.005	0.005	0.000	-0.005	0.015	-0.020	0.034	1.748	2.192	2.520	2.808	2.925	2.847	2.666
0.000	-0.005	0.000	-0.005	0.015	-0.005	0.034	1.787	2.163	2.427	2.705	2.871	2.861	2.725
-0.005	0.000	0.000	0.000	0.024	0.000	0.034	1.753	2.139	2.354	2.612	2.808	2.852	2.764
-0.010	0.010	0.000	-0.005	0.029	0.000	0.034	1.812	2.134	2.300	2.524	2.739	2.817	2.778
0.000	0.000	0.000	-0.005	0.024	-0.005	0.029	1.753	2.129	2.256	2.451	2.666	2.778	2.778
0.000	0.000	0.005	0.000	0.010	0.005	0.034	1.777	2.124	2.222	2.388	2.598	2.729	2.773
-0.005	-0.010	-0.005	-0.005	0.034	0.000	0.029	1.738	2.119	2.197	2.334	2.529	2.681	2.744
-0.005	-0.020	0.000	-0.005	0.039	-0.005	0.034	1.768	2.119	2.178	2.290	2.471	2.622	2.710
-0.010	-0.015	0.000	0.000	0.015	-0.015	0.034	1.782	2.109	2.168	2.256	2.417	2.559	2.666
0.000	-0.005	0.000	0.000	0.010	-0.010	0.034	1.787	2.109	2.153	2.227	2.368	2.505	2.627
-0.005	-0.010	-0.005	-0.005	0.024	-0.010	0.034	1.758	2.100	2.144	2.202	2.329	2.461	2.578
-0.010	-0.005	0.000	-0.005	0.015	-0.010	0.034	1.812	2.095	2.139	2.187	2.290	2.412	2.534
-0.010	-0.010	0.000	0.000	0.000	0.000	0.034	1.792	2.085	2.124	2.168	2.266	2.363	2.490
0.000	0.020	0.000	0.000	-0.005	0.005	0.029	1.748	2.070	2.124	2.158	2.236	2.329	2.446
0.005	0.020	0.000	0.000	-0.010	0.005	0.034	1.807	2.065	2.109	2.144	2.217	2.295	2.407
0.000	0.005	0.000	0.000	-0.024	0.005	0.029	1.802	2.051	2.095	2.129	2.197	2.261	2.363
-0.005	0.000	0.005	0.000	-0.020	-0.015	0.034	1.792	2.036	2.080	2.114	2.183	2.241	2.324
-0.005	0.000	-0.005	0.000	-0.029	0.005	0.029	1.821	2.026	2.070	2.104	2.163	2.212	2.300
0.000	0.015	0.000	0.005	-0.020	0.000	0.034	1.758	2.012	2.061	2.090	2.148	2.202	2.271
-0.005	0.010	0.000	0.000	0.020	0.010	0.034	1.787	1.997	2.046	2.080	2.139	2.192	2.251
-0.005	0.015	0.000	-0.005	-0.005	0.015	0.034	1.743	1.987	2.031	2.065	2.119	2.163	2.227
0.000	0.000	0.000	0.000	-0.024	0.005	0.029	1.792	1.973	2.012	2.051	2.109	2.144	2.207
0.000	0.000	-0.005	0.000	0.005	-0.005	0.029	1.792	1.958	2.002	2.041	2.095	2.134	2.183
-0.005	-0.005	0.010	0.000	0.000	0.005	0.029	1.787	1.948	1.992	2.026	2.080	2.114	2.173
-0.015	0.000	0.005	-0.005	-0.024	0.000	0.029	1.777	1.938	1.978	2.012	2.065	2.095	2.148
-0.005	-0.010	0.000	-0.005	-0.039	-0.005	0.029	1.782	1.929	1.968	1.997	2.051	2.080	2.124
0.000	-0.005	-0.005	0.000	-0.029	0.010	0.034	1.797	1.919	1.953	1.987	2.036	2.070	2.114
0.000	-0.010	0.000	-0.005	-0.024	0.015	0.034	1.748	1.904	1.943	1.973	2.026	2.056	2.104
0.005	-0.015	-0.005	0.000	-0.029	0.015	0.029	1.768	1.895	1.929	1.958	2.012	2.041	2.085
-0.005	-0.005	-0.005	-0.005	-0.020	-0.020	0.034	1.797	1.880	1.919	1.948	1.997	2.026	2.061
0.000	-0.005	0.000	0.000	-0.015	0.015	0.034	1.777	1.870	1.909	1.938	1.992	2.021	2.061
0.000	-0.005	0.000	-0.005	-0.015	0.015	0.034	1.787	1.865	1.895	1.924	1.978	2.007	2.046
0.000	-0.020	-0.005	0.000	-0.020	-0.005	0.034	1.807	1.855	1.880	1.909	1.963	1.992	2.026
0.000	0.005	-0.005	0.000	-0.015	0.015	0.034	1.768	1.841	1.875	1.904	1.953	1.982	2.021
0.000	0.010	0.000	0.000	-0.010	0.005	0.029	1.787	1.836	1.870	1.895	1.943	1.968	2.007
-0.005	0.005	-0.005	-0.005	-0.010	-0.005	0.029	1.777	1.816	1.855	1.885	1.929	1.958	1.992
-0.005	0.000	0.000	0.000	-0.005	0.005	0.029	1.758	1.802	1.841	1.870	1.924	1.948	1.982
0.000	-0.010	0.000	0.000	-0.010	-0.015	0.034	1.772	1.792	1.826	1.860	1.909	1.938	1.968
0.000	-0.029	0.000	0.005	0.000	0.000	0.034	1.777	1.782	1.812	1.851	1.895	1.929	1.958
-0.010	-0.015	-0.005	0.000	-0.005	-0.010	0.034	1.768	1.768	1.807	1.836	1.885	1.914	1.938
-0.005	0.010	-0.005	0.000	0.000	-0.020	0.034	1.782	1.763	1.802	1.826	1.875	1.904	1.929
-0.005	-0.005	-0.005	0.000	-0.010	0.000	0.034	1.782	1.753	1.782	1.816	1.865	1.890	1.924
-0.005	-0.005	0.000	0.000	0.000	0.000	0.034	1.753	1.743	1.777	1.807	1.855	1.880	1.914
0.005	-0.005	-0.005	0.000	0.000	0.005	0.034	1.797	1.738	1.768	1.797	1.841	1.870	1.899
-0.005	-0.005	-0.005	0.000	-0.005	0.005	0.034	1.812	1.729	1.758	1.782	1.831	1.855	1.885
0.000	-0.005	-0.005	0.000	0.000	-0.010	0.029	1.733	1.714	1.748	1.772	1.821	1.846	1.875
-0.005	0.000	-0.005	0.000	0.010	-0.005	0.029	1.792	1.709	1.738	1.768	1.812	1.836	1.865
0.005	-0.005	-0.005	0.000	0.005	0.000	0.029	1.768	1.694	1.729	1.758	1.802	1.826	1.855
0.005	0.000	0.000	0.000	0.010	0.010	0.034	1.772	1.685	1.719	1.743	1.787	1.816	1.846
-0.005	0.000	-0.005	0.000	0.015	-0.010	0.034	1.694	1.670	1.704	1.733	1.777	1.807	1.831
-0.005	0.005	0.000	0.000	0.010	0.000	0.034	1.748	1.660	1.699	1.724	1.768	1.797	1.826
-0.005	0.005	0.000	0.005	0.024	-0.015	0.034	1.787	1.660	1.689	1.714	1.763	1.787	1.812
-0.005	0.010	0.000	0.000	0.049	-0.005	0.034	1.763	1.655	1.685	1.704	1.748	1.787	1.807
0.000	0.005	0.005	0.000	0.024	0.005	0.034	1.821	1.650	1.670	1.699	1.738	1.763	1.797
0.005	0.005	0.005	0.000	0.005	0.020	0.034	1.797	1.646	1.665	1.689	1.729	1.748	1.787
-0.005	0.010	0.000	0.000	0.015	0.010	0.034	1.816	1.646	1.665	1.680	1.724	1.743	1.772
0.000	0.005	0.000	0.000	0.020	-0.005	0.029	1.787	1.636	1.655	1.675	1.714	1.733	1.763
-0.010	0.000	-0.005	0.000	-0.005	-0.020	0.029	1.777	1.621	1.646	1.665	1.704	1.719	1.748
0.005	-0.005	0.000	-0.005	-0.044	0.010	0.034	1.753	1.616	1.636	1.655	1.694	1.704	1.738
0.000	-0.005	0.005	0.000	-0.044	-0.010	0.034	1.748	1.602	1.626	1.650	1.689	1.699	1.724
-0.005	-0.005	0.000	0.000	-0.034	-0.005	0.034	1.782	1.597	1.621	1.641	1.685	1.694	1.714
-0.010	-0.005	0.000	0.000	-0.010	-0.005	0.029	1.753	1.582	1.606	1.631	1.670	1.694	1.709
0.000	-0.010	-0.005	0.000	0.005	-0.005	0.034	1.807	1.582	1.602	1.621	1.665	1.689	1.704
0.000	-0.005	-0.005	0.000	0.020	-0.005	0.034	1.787	1.572	1.597	1.616	1.655	1.680	1.699
-0.010	0.000	0.000	0.000	0.015	0.005	0.034	1.768	1.567	1.587	1.606	1.646	1.670	1.694
0.000	0.000	-0.005	0.000	0.000	0.010	0.029	1.797	1.558	1.582	1.602	1.641	1.655	1.685
-0.005	0.000	0.000	-0.005	-0.005	0.010	0.029	1.802	1.558	1.572	1.592	1.631	1.646	1.675
0.005	0.000	-0.005	0.000	0.000	0.005	0.029	1.782	1.558	1.572	1.587	1.626	1.641	1.665
0.000	0.005	0.000	0.005	0.010	0.005	0.034	1.758	1.543	1.567	1.582	1.621	1.641	1.655
0.000	0.010	0.000	0.000	0.010	-0.015	0.034	1.797	1.533	1.558	1.577	1.611	1.631	1.646
-0.005	0.000	0.000	-0.005	0.010	0.005	0.034	1.812	1.533	1.553	1.567	1.606	1.621	1.641
0.000	0.005	-0.005	0.000	0.000	-0.005	0.034	1.777	1.523	1.548	1.562	1.597	1.611	1.636
-0.010	0.029	0.000	0.000	-0.005	0.010	0.034	1.743	1.519	1.548	1.558	1.592	1.606	1.631
-0.005	-0.020	0.000	0.000	-0.005	0.005	0.034	1.763	1.504	1.523	1.548	1.587	1.597	1.621
-0.005	-0.015	0.000	0.000	0.005	0.000	0.029	1.787	1.499	1.519	1.543	1.577	1.592	1.611
0.005	-0.010	-0.005	0.000	0.000	0.000	0.034	1.797	1.504	1.519	1.533	1.567	1.587	1.602
0.000	-0.010	-0.005	-0.005	0.000	0.000	0.034	1.777	1.494	1.509	1.528	1.558	1.577	1.597
0.000	-0.015	0.000	-0.005	0.000	0.005	0.034	1.797	1.489	1.504	1.523	1.558	1.567	1.592
0.005	-0.005	-0.005	-0.005	0.000	-0.015	0.029	1.807	1.484	1.504	1.519	1.553	1.562	1.577
0.000	0.005	0.000	0.000	-0.005	0.005	0.034	1.777	1.479	1.499	1.509	1.548	1.558	1.577
-0.005	0.000	-0.005	-0.005	0.005	0.000	0.034	1.792	1.470	1.489	1.504	1.538	1.558	1.567
0.005	-0.010	-0.005	0.000	0.010	0.005	0.034	1.768	1.465	1.479	1.499	1.533	1.548	1.562
0.000	-0.005	0.000	-0.005	0.000	0.000	0.034	1.763	1.460	1.475	1.494	1.528	1.538	1.558
-0.010	0.005	0.000	-0.005	-0.015	0.000	0.034	1.802	1.455	1.470	1.489	1.519	1.528	1.548
-0.005	0.010	-0.005	0.000	-0.015	-0.034	0.029	1.738	1.445	1.465	1.484	1.514	1.523	1.533
0.000	0.005	0.000	-0.005	-0.005	-0.010	0.029	1.792	1.445	1.460	1.479	1.514	1.523	1.538
0.000	0.005	0.000	0.000	-0.020	0.015	0.034	1.714	1.426	1.450	1.470	1.504	1.514	1.538
0.000	-0.005	0.005	0.000	-0.005	0.015	0.029	1.797	1.431	1.445	1.465	1.499	1.514	1.533
-0.005	0.005	0.000	0.000	0.000	0.000	0.029	1.782	1.431	1.445	1.460	1.494	1.509	1.523
0.005	0.015	0.000	0.000	0.000	0.010	0.034	1.763	1.426	1.440	1.450	1.489	1.504	1.519
0.000	0.000	-0.005	0.000	0.020	0.000	0.034	1.777	1.421	1.431	1.445	1.484	1.499	1.514
-0.015	-0.005	-0.005	0.000	0.000	0.000	0.034	1.748	1.411	1.426	1.440	1.479	1.489	1.504
-0.005	0.000	0.000	-0.005	-0.020	-0.005	0.034	1.807	1.416	1.426	1.436	1.470	1.475	1.494
-0.005	-0.005	-0.005	0.005	-0.005	-0.005	0.034	1.719	1.401	1.416	1.431	1.465	1.475	1.489
0.000	-0.010	-0.005	0.000	0.000	0.000	0.034	1.772	1.396	1.411	1.426	1.455	1.470	1.484
0.000	-0.005	0.000	0.000	0.015	0.000	0.034	1.802	1.401	1.411	1.421	1.455	1.470	1.479
0.000	0.000	0.000	0.000	0.010	0.005	0.034	1.753	1.392	1.406	1.416	1.445	1.460	1.475
0.005	-0.005	0.005	0.000	-0.005	0.000	0.034	1.768	1.387	1.401	1.411	1.440	1.450	1.470
0.000	-0.005	-0.005	0.000	0.005	-0.015	0.034	1.772	1.382	1.396	1.406	1.436	1.450	1.460
0.000	0.015	0.000	-0.005	0.010	-0.015	0.034	1.743	1.377	1.396	1.406	1.431	1.445	1.455
-0.010	0.010	0.000	-0.005	0.010	-0.015	0.029	1.753	1.367	1.392	1.401	1.431	1.440	1.450
0.000	0.010	0.000	0.000	0.010	-0.015	0.029	1.743	1.367	1.382	1.396	1.426	1.436	1.445
0.000	0.010	-0.005	-0.005	0.005	0.005	0.029	1.797	1.362	1.377	1.392	1.421	1.426	1.445
-0.005	-0.010	0.000	0.000	-0.005	0.000	0.034	1.753	1.357	1.367	1.387	1.421	1.426	1.440
-0.010	-0.010	0.000	-0.005	-0.005	0.005	0.034	1.768	1.362	1.367	1.377	1.411	1.416	1.436
0.000	-0.005	-0.005	0.000	-0.005	0.000	0.034	1.768	1.357	1.367	1.372	1.406	1.416	1.431
0.000	-0.010	0.000	0.000	0.000	0.000	0.034	1.797	1.353	1.362	1.372	1.401	1.411	1.426
-0.005	0.000	0.000	0.000	0.000	0.000	0.034	1.748	1.348	1.357	1.367	1.401	1.406	1.421
0.000	-0.010	0.000	0.000	0.000	0.000	0.029	1.748	1.343	1.357	1.362	1.392	1.401	1.416
0.000	0.000	0.000	0.000	-0.005	-0.010	0.029	1.792	1.338	1.353	1.362	1.392	1.396	1.406
-0.005	0.005	0.000	-0.005	-0.005	-0.015	0.029	1.768	1.338	1.353	1.357	1.387	1.392	1.401
-0.005	0.005	-0.005	-0.005	0.000	-0.010	0.029	1.768	1.333	1.348	1.353	1.382	1.387	1.401
-0.005	-0.005	-0.005	0.000	-0.005	0.010	0.029	1.792	1.333	1.338	1.353	1.377	1.387	1.401
0.005	-0.010	-0.005	0.000	0.000	0.000	0.034	1.787	1.328	1.338	1.348	1.377	1.382	1.392
0.000	0.000	-0.005	0.000	0.000	-0.005	0.029	1.802	1.328	1.338	1.343	1.372	1.377	1.387
0.000	-0.020	0.000	-0.005	0.000	0.000	0.034	1.792	1.323	1.328	1.343	1.367	1.372	1.387
0.005	-0.005	0.005	0.000	0.005	0.000	0.034	1.777	1.323	1.333	1.338	1.367	1.372	1.382
0.005	-0.005	0.000	0.005	-0.010	-0.005	0.034	1.719	1.313	1.328	1.333	1.362	1.362	1.372
0.000	0.005	0.000	0.000	-0.005	0.000	0.029	1.797	1.313	1.323	1.333	1.362	1.362	1.372
-0.010	-0.005	0.000	0.000	0.000	0.005	0.034	1.748	1.304	1.318	1.323	1.357	1.362	1.372
-0.005	0.005	-0.005	0.000	0.000	-0.005	0.029	1.792	1.309	1.318	1.328	1.353	1.357	1.362
-0.005	-0.005	0.005	0.000	-0.005	0.000	0.029	1.758	1.299	1.309	1.323	1.348	1.353	1.362
0.000	0.005	0.000	0.000	0.000	-0.005	0.029	1.763	1.294	1.313	1.318	1.343	1.353	1.357
0.000	0.000	0.000	-0.005	0.000	0.005	0.029	1.807	1.299	1.309	1.313	1.343	1.348	1.357
0.000	-0.005	0.000	0.000	0.000	0.005	0.029	1.797	1.299	1.304	1.313	1.338	1.343	1.357
0.000	-0.005	0.000	-0.005	-0.005	0.000	0.034	1.753	1.294	1.299	1.309	1.333	1.338	1.348
0.000	0.000	0.000	0.000	-0.010	0.005	0.034	1.768	1.289	1.299	1.304	1.333	1.333	1.343
0.000	-0.010	-0.005	0.000	0.000	-0.005	0.034	1.763	1.284	1.289	1.299	1.328	1.333	1.338
-0.010	-0.010	-0.005	0.000	0.005	-0.015	0.029	1.787	1.279	1.284	1.294	1.323	1.333	1.338
0.000	-0.005	-0.005	-0.005	0.005	0.010	0.034	1.772	1.279	1.289	1.294	1.318	1.328	1.338
-0.005	-0.005	0.005	-0.005	-0.005	0.005	0.029	1.816	1.279	1.284	1.294	1.318	1.318	1.333
0.000	0.000	0.000	0.000	-0.005	-0.005	0.034	1.797	1.284	1.284	1.289	1.313	1.318	1.323
-0.005	0.005	-0.005	0.000	-0.020	-0.005	0.029	1.797	1.284	1.284	1.289	1.313	1.309	1.318
0.005	0.015	-0.005	0.000	-0.010	0.000	0.034	1.753	1.274	1.289	1.289	1.309	1.313	1.323
0.005	0.024	0.000	-0.005	0.010	0.000	0.034	1.792	1.274	1.284	1.284	1.309	1.318	1.318
-0.005	0.010	0.000	-0.005	0.000	-0.020	0.034	1.768	1.270	1.274	1.284	1.309	1.309	1.313
0.005	0.015	0.000	0.000	-0.005	-0.020	0.034	1.758	1.270	1.274	1.279	1.309	1.309	1.309
0.000	0.015	-0.005	0.000	-0.015	-0.024	0.034	1.797	1.265	1.274	1.279	1.304	1.299	1.309
-0.005	0.000	0.000	0.000	-0.005	0.010	0.034	1.797	1.260	1.265	1.279	1.304	1.304	1.313
0.005	-0.005	-0.005	0.000	0.000	0.010	0.034	1.768	1.260	1.260	1.270	1.299	1.304	1.313
-0.005	-0.005	0.000	-0.005	0.005	-0.005	0.034	1.743	1.255	1.260	1.270	1.294	1.304	1.304
0.005	-0.005	0.000	-0.005	0.005	-0.005	0.029	1.733	1.250	1.260	1.265	1.294	1.299	1.304
-0.005	-0.005	-0.005	0.000	0.015	0.024	0.034	1.802	1.250	1.255	1.265	1.289	1.294	1.304
-0.005	-0.020	-0.005	-0.005	0.015	0.024	0.034	1.733	1.245	1.245	1.255	1.284	1.294	1.304
-0.005	-0.029	0.000	0.000	0.005	0.005	0.034	1.792	1.245	1.245	1.255	1.284	1.284	1.294
0.000	-0.024	0.000	0.000	-0.005	-0.010	0.034	1.758	1.245	1.245	1.250	1.279	1.279	1.284
0.005	-0.015	0.000	0.000	0.000	-0.010	0.034	1.782	1.240	1.245	1.245	1.274	1.279	1.279
-0.010	-0.010	-0.005	0.000	0.010	-0.020	0.034	1.787	1.240	1.245	1.245	1.274	1.279	1.279
-0.005	0.005	0.000	0.000	0.010	-0.005	0.029	1.768	1.235	1.245	1.245	1.270	1.274	1.279
0.000	0.010	0.000	0.000	-0.010	-0.005	0.034	1.758	1.235	1.245	1.245	1.270	1.270	1.279
0.000	0.020	0.000	0.000	-0.015	-0.015	0.029	1.782	1.230	1.245	1.245	1.270	1.265	1.270
-0.005	0.010	0.000	0.000	-0.015	-0.005	0.034	1.792	1.230	1.235	1.245	1.265	1.265	1.274
-0.005	0.005	0.000	-0.005	-0.005	0.015	0.034	1.797	1.230	1.235	1.240	1.265	1.270	1.274
0.000	0.005	0.000	0.000	0.024	0.010	0.029	1.787	1.235	1.230	1.240	1.265	1.274	1.274
0.000	0.005	0.000	0.000	0.010	-0.005	0.029	1.802	1.211	1.226	1.235	1.265	1.265	1.265
-0.005	0.000	0.000	0.000	0.000	0.010	0.034	1.704	1.206	1.226	1.230	1.260	1.260	1.270
0.000	0.000	-0.005	0.000	0.000	-0.015	0.034	1.763	1.216	1.221	1.226	1.255	1.255	1.260
0.000	-0.020	-0.005	0.000	-0.005	-0.005	0.034	1.792	1.221	1.216	1.226	1.250	1.250	1.255
0.000	-0.010	-0.005	0.000	-0.020	0.010	0.034	1.768	1.221	1.216	1.221	1.245	1.250	1.260
0.000	-0.005	0.000	-0.005	-0.015	0.005	0.029	1.807	1.226	1.221	1.221	1.245	1.245	1.250
-0.005	-0.005	-0.005	0.005	0.005	0.000	0.034	1.802	1.221	1.221	1.221	1.245	1.250	1.255
-0.005	-0.015	-0.005	0.000	0.015	0.000	0.029	1.753	1.216	1.216	1.216	1.245	1.250	1.250
0.000	-0.005	0.000	0.000	0.015	0.005	0.034	1.743	1.211	1.221	1.221	1.240	1.245	1.250
-0.005	0.000	-0.005	0.000	0.000	-0.015	0.034	1.807	1.211	1.216	1.221	1.240	1.235	1.245
0.000	-0.010	0.000	-0.005	-0.005	-0.005	0.034	1.807	1.216	1.211	1.216	1.240	1.235	1.240
-0.010	0.005	0.000	-0.005	-0.005	0.005	0.029	1.777	1.211	1.216	1.216	1.235	1.235	1.240
-0.005	0.010	0.005	0.000	-0.010	0.010	0.034	1.763	1.211	1.221	1.216	1.240	1.235	1.240
0.005	0.020	0.000	0.000	-0.010	0.000	0.034	1.753	1.211	1.216	1.216	1.235	1.230	1.235
-0.005	-0.005	0.000	0.000	-0.010	-0.005	0.034	1.777	1.201	1.206	1.216	1.240	1.235	1.235
0.010	0.000	0.000	-0.005	0.000	0.000	0.034	1.777	1.211	1.211	1.211	1.235	1.235	1.230
0.000	0.024	0.000	0.000	-0.010	-0.010	0.029	1.772	1.206	1.216	1.211	1.235	1.230	1.235
0.005	0.010	-0.005	0.005	0.000	-0.005	0.034	1.792	1.206	1.211	1.211	1.235	1.235	1.235
-0.005	0.005	0.000	-0.005	0.005	-0.005	0.029	1.772	1.206	1.206	1.211	1.230	1.235	1.230
-0.005	0.005	0.005	-0.005	0.000	-0.005	0.029	1.797	1.206	1.206	1.211	1.230	1.230	1.230
-0.005	-0.005	0.000	-0.005	-0.015	0.005	0.029	1.777	1.201	1.201	1.206	1.230	1.226	1.230
-0.010	-0.010	-0.005	0.000	-0.020	0.000	0.034	1.792	1.201	1.201	1.201	1.226	1.226	1.230
-0.005	-0.010	-0.005	0.000	-0.015	0.005	0.034	1.792	1.201	1.201	1.201	1.226	1.226	1.226
-0.005	0.000	0.000	-0.005	-0.010	-0.005	0.034	1.777	1.201	1.196	1.201	1.221	1.221	1.226
0.000	0.000	-0.005	0.000	-0.005	0.000	0.034	1.772	1.196	1.201	1.201	1.221	1.226	1.226
-0.005	-0.005	0.000	-0.005	0.000	-0.005	0.034	1.782	1.191	1.196	1.196	1.221	1.221	1.221
0.000	-0.010	0.000	0.000	0.010	0.000	0.034	1.763	1.191	1.196	1.196	1.221	1.221	1.226
0.005	0.005	-0.005	0.000	0.010	-0.005	0.034	1.831	1.196	1.196	1.196	1.216	1.221	1.221
0.000	0.000	0.000	0.000	0.010	-0.015	0.034	1.792	1.191	1.191	1.196	1.216	1.216	1.216
0.000	0.005	0.000	0.000	0.010	-0.010	0.029	1.704	1.187	1.196	1.196	1.216	1.216	1.216
-0.005	0.005	0.000	0.000	0.005	0.000	0.029	1.807	1.191	1.191	1.196	1.221	1.216	1.221
-0.010	0.000	0.005	0.000	-0.005	0.000	0.034	1.777	1.187	1.187	1.191	1.216	1.211	1.216
-0.005	0.000	-0.005	0.000	0.010	-0.010	0.034	1.792	1.182	1.187	1.191	1.211	1.216	1.216
0.000	0.000	-0.005	-0.005	0.029	0.005	0.034	1.797	1.191	1.187	1.191	1.211	1.216	1.221
0.005	0.000	-0.005	0.000	0.015	-0.005	0.029	1.768	1.187	1.187	1.187	1.211	1.211	1.216
-0.005	0.000	0.000	0.000	0.000	0.000	0.034	1.797	1.187	1.187	1.187	1.211	1.206	1.211
0.000	-0.010	-0.005	0.000	-0.005	0.000	0.034	1.812	1.187	1.182	1.187	1.211	1.201	1.211
0.000	-0.005	0.000	0.000	-0.005	0.000	0.034	1.763	1.182	1.187	1.187	1.206	1.206	1.211
0.000	-0.010	0.000	0.000	-0.010	0.005	0.034	1.763	1.182	1.182	1.187	1.206	1.201	1.206
0.000	-0.005	0.000	0.005	-0.024	0.000	0.029	1.772	1.177	1.182	1.182	1.206	1.196	1.206
0.000	0.000	0.000	0.000	-0.020	-0.005	0.034	1.738	1.172	1.177	1.182	1.201	1.201	1.201
0.005	-0.010	0.000	0.000	-0.020	0.000	0.029	1.743	1.172	1.172	1.177	1.201	1.196	1.201
-0.005	-0.010	-0.005	0.000	-0.005	0.005	0.034	1.802	1.172	1.172	1.172	1.201	1.201	1.201
-0.005	0.005	-0.005	0.000	0.000	-0.005	0.034	1.797	1.172	1.172	1.177	1.196	1.196	1.201
0.000	0.000	-0.005	0.000	0.000	-0.010	0.034	1.782	1.172	1.172	1.177	1.196	1.196	1.196
-0.005	0.005	-0.005	0.000	0.000	-0.015	0.034	1.748	1.172	1.172	1.172	1.196	1.196	1.196
-0.005	0.005	0.000	0.000	-0.015	0.000	0.034	1.753	1.167	1.172	1.172	1.191	1.191	1.201
0.005	0.015	0.000	0.000	0.000	0.005	0.034	1.802	1.172	1.177	1.177	1.196	1.196	1.196
0.000	0.005	-0.005	0.000	0.010	0.005	0.034	1.782	1.172	1.172	1.172	1.191	1.196	1.196
0.005	0.000	-0.005	0.000	0.000	-0.005	0.034	1.777	1.172	1.172	1.172	1.191	1.191	1.196
-0.005	0.000	-0.005	-0.005	0.015	-0.005	0.029	1.812	1.177	1.172	1.172	1.191	1.191	1.191
-0.010	0.000	0.000	-0.005	0.000	-0.005	0.029	1.797	1.172	1.172	1.172	1.191	1.187	1.191
0.000	0.000	0.000	0.000	-0.010	0.000	0.029	1.729	1.162	1.172	1.172	1.191	1.187	1.191
-0.005	0.005	0.000	0.000	0.005	0.000	0.029	1.782	1.167	1.172	1.172	1.187	1.187	1.191
-0.005	0.000	-0.005	0.000	0.010	-0.005	0.029	1.802	1.167	1.167	1.167	1.191	1.191	1.187
-0.005	-0.005	0.000	0.000	0.005	0.000	0.034	1.792	1.162	1.162	1.167	1.187	1.187	1.187
0.000	-0.010	-0.005	0.000	0.000	0.000	0.034	1.797	1.172	1.162	1.162	1.187	1.182	1.187
-0.005	-0.005	-0.005	0.000	-0.015	-0.005	0.034	1.792	1.167	1.167	1.162	1.187	1.182	1.182
-0.005	-0.010	-0.005	0.000	-0.015	-0.005	0.034	1.792	1.162	1.162	1.162	1.182	1.177	1.182
0.000	-0.010	0.000	0.005	0.005	-0.024	0.034	1.758	1.152	1.157	1.162	1.182	1.187	1.172
-0.010	-0.005	0.000	0.005	0.015	0.005	0.034	1.802	1.152	1.157	1.162	1.182	1.187	1.187
0.000	-0.010	-0.005	0.005	0.010	0.005	0.034	1.753	1.157	1.157	1.157	1.182	1.182	1.182
-0.005	0.000	-0.005	0.000	0.005	-0.010	0.034	1.782	1.157	1.157	1.162	1.182	1.177	1.182
-0.005	-0.005	0.000	0.000	0.005	-0.020	0.034	1.733	1.147	1.157	1.162	1.177	1.177	1.177
-0.005	0.010	0.000	0.000	0.000	0.010	0.029	1.787	1.152	1.157	1.162	1.177	1.177	1.182
0.000	0.015	-0.005	-0.005	0.000	0.010	0.029	1.797	1.157	1.162	1.157	1.177	1.177	1.182
-0.005	0.005	-0.005	-0.005	0.005	0.005	0.029	1.768	1.152	1.152	1.157	1.172	1.177	1.182
0.005	0.000	-0.005	-0.005	-0.005	-0.005	0.034	1.763	1.152	1.152	1.157	1.177	1.172	1.172
0.000	0.005	0.000	-0.010	-0.010	0.000	0.034	1.758	1.143	1.152	1.157	1.172	1.172	1.172
-0.010	-0.005	0.005	-0.005	-0.010	0.005	0.034	1.807	1.147	1.147	1.152	1.177	1.172	1.177
-0.005	-0.005	0.000	-0.005	-0.010	-0.005	0.034	1.787	1.152	1.147	1.147	1.172	1.167	1.172
-0.005	-0.010	-0.005	0.000	-0.020	0.010	0.034	1.714	1.143	1.147	1.147	1.172	1.172	1.172
-0.005	-0.029	-0.005	0.000	-0.005	-0.015	0.029	1.758	1.143	1.138	1.143	1.172	1.172	1.167
0.000	-0.015	-0.005	0.000	0.005	0.005	0.034	1.787	1.147	1.143	1.143	1.172	1.172	1.172
0.000	-0.020	0.000	0.005	-0.005	0.000	0.029	1.782	1.147	1.143	1.143	1.167	1.167	1.167
0.005	-0.005	-0.005	0.000	-0.005	0.000	0.029	1.777	1.152	1.147	1.147	1.162	1.167	1.167
0.005	-0.005	-0.005	0.000	0.020	-0.020	0.029	1.807	1.157	1.152	1.147	1.167	1.172	1.167
0.005	0.015	0.000	0.000	0.034	-0.005	0.029	1.797	1.162	1.157	1.147	1.167	1.172	1.172
0.000	0.000	-0.005	0.000	0.005	0.000	0.034	1.733	1.147	1.152	1.147	1.167	1.162	1.167
0.005	0.000	0.000	0.000	-0.005	0.000	0.034	1.748	1.143	1.147	1.147	1.167	1.157	1.162
-0.005	0.000	0.000	0.000	-0.005	-0.010	0.029	1.763	1.138	1.143	1.147	1.167	1.162	1.157
0.010	0.005	0.000	0.000	-0.020	-0.015	0.034	1.748	1.138	1.147	1.147	1.162	1.152	1.157
0.005	0.020	0.000	-0.005	-0.015	0.000	0.029	1.807	1.147	1.147	1.147	1.167	1.157	1.162
0.005	0.010	-0.005	0.000	-0.020	-0.005	0.034	1.792	1.143	1.143	1.147	1.162	1.157	1.162
0.005	0.000	0.000	0.000	-0.020	0.010	0.029	1.797	1.143	1.143	1.143	1.167	1.162	1.162
-0.010	0.015	-0.005	-0.005	0.000	0.000	0.029	1.802	1.143	1.143	1.143	1.162	1.162	1.162
-0.005	0.005	0.005	0.000	0.000	-0.005	0.029	1.763	1.143	1.143	1.143	1.167	1.162	1.157
0.000	0.005	0.000	-0.005	0.000	-0.005	0.034	1.729	1.138	1.143	1.143	1.162	1.162	1.157
0.010	-0.020	0.000	0.000	-0.005	0.005	0.034	1.763	1.138	1.133	1.138	1.162	1.162	1.162
0.000	-0.015	-0.005	-0.005	0.000	0.000	0.034	1.787	1.143	1.133	1.138	1.157	1.162	1.162
-0.005	-0.020	0.000	0.000	0.000	0.005	0.034	1.792	1.143	1.133	1.138	1.162	1.157	1.157
-0.005	-0.005	-0.010	0.000	0.000	0.000	0.034	1.768	1.138	1.133	1.133	1.157	1.157	1.157
0.005	-0.010	-0.005	0.000	0.005	0.005	0.034	1.792	1.143	1.138	1.138	1.157	1.157	1.157
-0.005	-0.005	0.000	0.005	0.000	0.005	0.034	1.768	1.138	1.138	1.138	1.157	1.152	1.157
0.000	-0.005	-0.005	0.000	0.005	-0.010	0.029	1.792	1.143	1.138	1.138	1.157	1.152	1.152
-0.005	0.000	0.000	0.000	0.000	0.005	0.029	1.777	1.138	1.143	1.138	1.157	1.152	1.152
-0.005	0.005	-0.005	0.005	0.010	-0.020	0.029	1.782	1.143	1.143	1.138	1.157	1.157	1.147
-0.010	0.005	-0.005	-0.005	0.010	-0.005	0.034	1.787	1.138	1.143	1.138	1.152	1.152	1.157
-0.010	0.010	0.000	-0.005	0.005	0.000	0.034	1.777	1.138	1.143	1.138	1.157	1.152	1.152
-0.005	0.015	0.005	-0.005	-0.005	0.005	0.034	1.777	1.138	1.143	1.143	1.157	1.152	1.152
0.000	0.005	0.005	0.000	0.000	-0.015	0.034	1.768	1.138	1.138	1.138	1.157	1.152	1.147
-0.010	-0.005	0.000	-0.005	-0.005	0.005	0.034	1.787	1.138	1.133	1.138	1.157	1.152	1.157
-0.010	0.000	0.000	-0.010	-0.010	0.005	0.034	1.772	1.133	1.133	1.138	1.152	1.147	1.152
0.000	-0.005	0.000	-0.005	0.000	-0.010	0.034	1.807	1.138	1.133	1.133	1.157	1.152	1.147
0.000	-0.010	0.000	-0.005	-0.005	0.005	0.029	1.758	1.138	1.133	1.133	1.152	1.152	1.152
0.000	0.000	0.000	0.000	-0.005	-0.005	0.029	1.743	1.138	1.133	1.133	1.157	1.147	1.147
0.000	0.000	0.000	0.000	0.000	0.000	0.029	1.797	1.138	1.138	1.133	1.152	1.152	1.147
0.000	0.005	-0.005	0.000	-0.005	0.005	0.029	1.743	1.138	1.138	1.133	1.152	1.147	1.152
0.010	-0.010	0.000	0.000	-0.010	-0.005	0.034	1.743	1.133	1.133	1.133	1.152	1.147	1.147
0.005	-0.005	0.000	0.000	-0.005	0.000	0.034	1.807	1.133	1.133	1.133	1.152	1.147	1.147
0.000	0.000	-0.005	0.000	0.010	-0.005	0.034	1.758	1.128	1.133	1.133	1.152	1.152	1.147
0.010	-0.005	0.000	0.000	0.000	-0.015	0.034	1.792	1.133	1.128	1.133	1.152	1.147	1.143
0.000	0.000	0.000	0.000	0.010	-0.005	0.029	1.748	1.128	1.128	1.133	1.152	1.152	1.152
-0.005	0.010	0.000	0.000	0.024	0.000	0.034	1.782	1.133	1.133	1.133	1.152	1.152	1.152
-0.005	0.015	-0.005	0.000	-0.010	0.000	0.034	1.797	1.128	1.133	1.133	1.147	1.143	1.147
0.005	0.005	-0.005	0.000	-0.029	-0.034	0.034	1.792	1.128	1.128	1.128	1.147	1.138	1.138
0.000	0.000	0.000	0.000	-0.010	0.005	0.034	1.733	1.123	1.128	1.133	1.152	1.147	1.147
0.000	-0.005	0.000	-0.005	0.010	0.005	0.029	1.802	1.128	1.123	1.133	1.147	1.152	1.152
-0.005	-0.005	-0.005	0.005	0.000	-0.010	0.029	1.787	1.128	1.123	1.128	1.147	1.147	1.147
-0.010	-0.005	0.000	0.005	-0.024	-0.010	0.034	1.787	1.128	1.123	1.123	1.147	1.138	1.143
-0.005	-0.015	-0.005	0.010	0.010	-0.010	0.034	1.709	1.118	1.123	1.123	1.152	1.152	1.147
-0.005	-0.010	0.005	0.000	0.039	0.005	0.034	1.792	1.123	1.123	1.128	1.147	1.157	1.152
-0.005	-0.005	-0.005	0.000	0.029	0.010	0.029	1.772	1.128	1.128	1.123	1.147	1.147	1.152
0.010	-0.010	0.000	-0.005	0.029	-0.005	0.034	1.787	1.133	1.128	1.123	1.143	1.147	1.147
0.010	-0.020	-0.005	0.000	0.010	0.000	0.034	1.729	1.133	1.128	1.123	1.143	1.138	1.143
0.005	-0.015	-0.010	-0.005	-0.005	0.010	0.034	1.768	1.128	1.128	1.123	1.138	1.133	1.143
0.005	-0.005	-0.005	-0.005	-0.010	0.000	0.029	1.777	1.133	1.123	1.123	1.138	1.133	1.133
0.005	0.000	-0.005	-0.005	-0.015	-0.005	0.034	1.724	1.123	1.128	1.123	1.138	1.133	1.133
0.000	-0.005	0.000	0.000	-0.015	-0.005	0.029	1.792	1.123	1.128	1.128	1.143	1.133	1.128
-0.005	0.005	-0.005	0.000	-0.010	0.005	0.029	1.787	1.128	1.128	1.128	1.143	1.138	1.138
0.000	0.000	0.000	0.000	-0.005	0.005	0.029	1.816	1.133	1.128	1.123	1.143	1.138	1.138
0.000	0.005	0.000	0.005	0.000	-0.005	0.034	1.802	1.133	1.128	1.128	1.147	1.143	1.138
0.005	-0.005	0.000	0.000	-0.015	-0.005	0.034	1.787	1.133	1.128	1.128	1.143	1.138	1.138
-0.010	0.015	0.000	0.000	-0.020	-0.005	0.034	1.787	1.128	1.133	1.128	1.147	1.138	1.138
-0.005	0.010	0.000	-0.005	-0.024	-0.005	0.034	1.763	1.128	1.128	1.128	1.143	1.138	1.138
0.000	-0.005	0.000	-0.005	-0.020	-0.005	0.029	1.792	1.128	1.123	1.128	1.143	1.138	1.133
-0.005	-0.005	0.000	-0.005	-0.015	0.000	0.034	1.729	1.118	1.123	1.128	1.143	1.138	1.143
-0.010	-0.010	0.000	-0.005	0.000	0.010	0.029	1.792	1.123	1.118	1.123	1.147	1.143	1.143
-0.005	-0.005	-0.005	-0.005	0.010	0.015	0.034	1.738	1.123	1.123	1.123	1.143	1.147	1.147
0.000	-0.005	0.000	-0.005	0.020	-0.005	0.034	1.763	1.123	1.118	1.123	1.143	1.147	1.138
0.000	-0.005	0.000	0.000	0.029	-0.010	0.029	1.812	1.123	1.123	1.123	1.143	1.147	1.138
0.000	0.000	0.000	0.000	0.029	0.010	0.034	1.797	1.128	1.123	1.123	1.143	1.143	1.147
-0.005	-0.005	-0.005	0.000	0.010	0.010	0.034	1.787	1.128	1.118	1.118	1.143	1.138	1.147
0.000	0.005	-0.010	0.005	0.000	0.015	0.034	1.714	1.123	1.123	1.118	1.138	1.133	1.138
-0.005	-0.005	0.000	0.005	-0.010	0.000	0.034	1.753	1.123	1.123	1.123	1.143	1.133	1.133
-0.005	-0.005	0.000	0.000	-0.015	-0.005	0.034	1.772	1.118	1.123	1.123	1.138	1.133	1.133
-0.005	0.000	0.000	-0.005	-0.015	0.000	0.029	1.753	1.118	1.118	1.123	1.138	1.133	1.133
0.000	-0.005	-0.005	-0.005	-0.010	0.000	0.029	1.768	1.118	1.118	1.123	1.138	1.133	1.133
-0.005	0.010	0.000	-0.005	-0.015	-0.005	0.034	1.777	1.123	1.123	1.123	1.138	1.133	1.133
0.005	0.005	0.000	0.000	-0.015	-0.020	0.029	1.787	1.123	1.123	1.123	1.143	1.138	1.128
-0.005	0.010	0.005	0.000	0.010	-0.005	0.034	1.802	1.128	1.123	1.123	1.143	1.143	1.138
0.005	-0.005	0.000	0.000	0.000	-0.010	0.034	1.709	1.118	1.123	1.118	1.143	1.138	1.133
-0.005	0.000	0.005	0.000	0.005	0.000	0.034	1.787	1.118	1.118	1.123	1.143	1.138	1.143
0.000	-0.005	0.000	-0.005	0.005	-0.015	0.034	1.807	1.128	1.118	1.118	1.143	1.133	1.133
0.005	-0.005	0.000	0.000	0.000	0.005	0.034	1.704	1.108	1.118	1.118	1.138	1.138	1.138
-0.005	0.015	0.000	-0.005	0.000	0.010	0.034	1.763	1.108	1.118	1.118	1.138	1.133	1.138
0.000	-0.010	0.000	-0.005	0.000	-0.005	0.034	1.729	1.108	1.108	1.113	1.138	1.133	1.133
0.000	-0.005	0.000	-0.005	-0.005	0.005	0.029	1.802	1.118	1.108	1.113	1.133	1.133	1.133
0.000	-0.010	0.000	0.000	-0.005	-0.005	0.034	1.753	1.113	1.108	1.113	1.133	1.128	1.133
0.010	-0.005	0.000	-0.005	-0.005	0.005	0.029	1.743	1.113	1.108	1.113	1.133	1.128	1.133
-0.005	-0.010	0.000	0.000	0.000	-0.005	0.034	1.787	1.113	1.108	1.108	1.133	1.133	1.133
-0.005	0.000	0.000	0.005	-0.005	0.005	0.034	1.807	1.123	1.113	1.108	1.133	1.128	1.133
-0.005	0.000	0.000	0.010	-0.005	-0.005	0.034	1.753	1.118	1.113	1.108	1.133	1.128	1.128
-0.015	0.000	0.000	0.005	0.000	0.000	0.034	1.772	1.118	1.118	1.113	1.133	1.128	1.128
-0.015	0.010	-0.005	0.000	0.005	-0.010	0.034	1.797	1.123	1.113	1.113	1.128	1.128	1.128
-0.005	0.005	0.000	-0.005	0.005	-0.005	0.034	1.758	1.118	1.118	1.113	1.128	1.133	1.128
-0.005	0.005	0.000	0.000	0.005	0.000	0.034	1.772	1.123	1.118	1.113	1.133	1.128	1.128
0.000	0.000	0.000	-0.005	0.000	0.010	0.029	1.772	1.118	1.113	1.113	1.133	1.128	1.128
0.005	0.000	-0.005	-0.005	0.000	0.005	0.034	1.772	1.118	1.118	1.113	1.133	1.128	1.128
0.005	0.000	0.000	-0.005	0.000	0.005	0.029	1.772	1.118	1.118	1.118	1.133	1.128	1.128
0.000	0.010	0.000	0.005	-0.005	0.000	0.034	1.768	1.118	1.118	1.113	1.133	1.128	1.123
0.000	-0.005	-0.005	-0.005	-0.010	-0.005	0.034	1.787	1.113	1.113	1.113	1.133	1.123	1.123
0.000	-0.005	-0.005	-0.005	-0.010	0.000	0.034	1.758	1.118	1.113	1.113	1.133	1.128	1.123
0.000	0.000	-0.005	-0.005	-0.010	-0.005	0.034	1.753	1.113	1.113	1.113	1.133	1.128	1.128
-0.005	-0.010	-0.005	0.000	0.005	-0.010	0.034	1.743	1.113	1.108	1.108	1.133	1.133	1.128
0.005	-0.005	0.000	-0.005	0.000	0.005	0.034	1.787	1.118	1.113	1.113	1.128	1.128	1.128
0.005	0.000	-0.005	0.000	0.005	0.000	0.029	1.753	1.118	1.113	1.113	1.133	1.128	1.123
-0.005	0.005	0.000	0.000	0.000	0.005	0.034	1.782	1.108	1.113	1.113	1.128	1.128	1.128
0.000	-0.005	-0.005	0.000	-0.010	0.000	0.029	1.807	1.113	1.108	1.108	1.133	1.123	1.128
0.000	-0.020	0.000	0.000	-0.015	0.005	0.029	1.792	1.118	1.113	1.108	1.128	1.123	1.123
-0.005	-0.005	0.000	-0.005	0.000	0.000	0.029	1.792	1.118	1.113	1.113	1.128	1.128	1.128
-0.005	0.005	0.000	0.000	0.000	-0.010	0.029	1.743	1.113	1.118	1.113	1.133	1.128	1.123
0.005	0.005	0.005	0.000	0.005	0.000	0.029	1.777	1.113	1.113	1.113	1.133	1.133	1.128
0.000	0.000	0.000	0.000	0.000	-0.010	0.034	1.733	1.104	1.108	1.113	1.133	1.128	1.123
-0.010	0.000	0.000	0.000	0.005	0.000	0.034	1.787	1.104	1.108	1.113	1.133	1.128	1.128
0.000	0.010	-0.005	0.005	0.005	-0.020	0.034	1.748	1.108	1.108	1.113	1.133	1.128	1.123
-0.005	0.000	0.000	0.000	0.000	-0.015	0.034	1.782	1.108	1.108	1.113	1.133	1.128	1.128
0.000	-0.010	-0.005	0.000	0.000	0.015	0.029	1.772	1.108	1.104	1.108	1.133	1.128	1.133
-0.005	-0.005	0.000	0.005	0.000	0.005	0.029	1.772	1.108	1.108	1.104	1.128	1.128	1.128
0.000	-0.005	0.000	0.005	0.000	0.005	0.029	1.772	1.108	1.108	1.113	1.128	1.123	1.128
-0.005	-0.005	0.000	0.000	0.000	-0.020	0.034	1.821	1.113	1.104	1.108	1.128	1.123	1.118
-0.005	-0.015	0.000	0.000	0.005	0.005	0.034	1.787	1.108	1.104	1.104	1.128	1.123	1.128
-0.010	-0.005	0.000	0.000	-0.005	0.010	0.034	1.792	1.113	1.108	1.104	1.123	1.123	1.123
-0.010	-0.005	0.000	-0.005	-0.005	0.005	0.029	1.797	1.113	1.108	1.104	1.123	1.123	1.123
-0.010	-0.005	-0.005	0.000	0.000	0.005	0.034	1.738	1.108	1.108	1.104	1.123	1.123	1.123
-0.005	0.015	-0.005	-0.005	0.000	-0.010	0.034	1.748	1.108	1.113	1.108	1.128	1.118	1.118
-0.005	0.024	0.000	-0.005	0.000	0.005	0.029	1.792	1.113	1.118	1.108	1.128	1.118	1.123
-0.005	0.015	0.000	0.000	-0.005	0.005	0.029	1.792	1.113	1.113	1.113	1.128	1.123	1.123
-0.005	0.010	-0.005	0.000	0.005	-0.010	0.029	1.787	1.113	1.113	1.113	1.128	1.123	1.118
-0.005	0.005	-0.005	0.005	0.005	0.000	0.029	1.787	1.118	1.113	1.108	1.128	1.123	1.123
0.005	0.005	0.000	0.000	0.005	0.005	0.034	1.733	1.113	1.113	1.113	1.128	1.128	1.123
0.000	0.000	-0.005	0.000	0.000	-0.015	0.034	1.729	1.108	1.113	1.113	1.128	1.123	1.118
-0.005	0.015	0.000	-0.005	0.000	0.000	0.029	1.768	1.108	1.113	1.113	1.128	1.123	1.123
0.005	-0.010	0.000	-0.010	-0.010	-0.005	0.034	1.792	1.108	1.104	1.108	1.128	1.118	1.123
-0.005	-0.024	-0.005	0.000	-0.010	0.000	0.034	1.748	1.104	1.099	1.104	1.128	1.123	1.123
-0.005	-0.020	-0.005	-0.010	-0.005	-0.015	0.034	1.787	1.108	1.104	1.104	1.123	1.118	1.113
0.000	-0.005	0.000	-0.005	-0.005	0.005	0.034	1.777	1.108	1.104	1.104	1.123	1.118	1.123
0.000	-0.015	0.000	-0.005	-0.005	0.000	0.029	1.768	1.113	1.104	1.104	1.123	1.123	1.118
0.000	-0.010	0.000	0.000	0.000	-0.020	0.034	1.802	1.113	1.108	1.104	1.123	1.123	1.118
0.010	-0.010	0.000	0.005	0.000	0.005	0.029	1.743	1.113	1.113	1.108	1.128	1.123	1.123
0.000	-0.005	0.000	-0.005	0.000	0.000	0.029	1.768	1.108	1.108	1.108	1.123	1.123	1.123
0.005	0.005	0.000	0.000	-0.005	0.000	0.034	1.787	1.108	1.113	1.108	1.128	1.123	1.118
0.000	0.005	0.000	0.000	-0.005	0.000	0.029	1.787	1.108	1.113	1.108	1.128	1.123	1.118
0.005	0.000	0.000	-0.005	0.005	0.000	0.034	1.797	1.113	1.108	1.108	1.123	1.123	1.118
0.000	0.005	-0.005	-0.005	0.010	-0.010	0.034	1.743	1.108	1.108	1.108	1.123	1.123	1.123
-0.005	0.015	-0.005	-0.005	0.005	0.000	0.034	1.763	1.108	1.113	1.108	1.128	1.123	1.118
-0.015	0.020	0.000	0.000	0.015	-0.010	0.029	1.802	1.108	1.108	1.113	1.128	1.128	1.118
0.005	0.010	0.000	0.000	0.005	0.000	0.029	1.787	1.118	1.108	1.108	1.128	1.123	1.123
-0.005	0.000	0.000	0.005	0.000	0.005	0.034	1.753	1.108	1.108	1.108	1.128	1.123	1.123
0.000	0.000	-0.005	0.005	-0.005	-0.015	0.034	1.792	1.108	1.108	1.108	1.128	1.118	1.113
0.000	0.000	0.000	0.005	0.000	0.010	0.029	1.787	1.108	1.108	1.104	1.128	1.123	1.123
-0.010	0.000	0.000	0.005	-0.005	-0.005	0.029	1.802	1.113	1.108	1.104	1.128	1.123	1.123
-0.005	-0.005	0.000	0.015	-0.005	0.000	0.034	1.763	1.108	1.108	1.104	1.128	1.123	1.123
0.000	-0.010	0.000	0.015	-0.005	0.000	0.029	1.807	1.118	1.104	1.108	1.128	1.123	1.118
0.005	-0.005	-0.005	0.010	-0.010	0.000	0.034	1.753	1.113	1.108	1.104	1.123	1.118	1.118
-0.010	-0.010	-0.005	0.000	-0.010	0.000	0.034	1.772	1.108	1.108	1.104	1.123	1.118	1.123
0.005	-0.005	0.000	-0.010	-0.005	-0.005	0.029	1.733	1.104	1.108	1.104	1.118	1.118	1.118
0.000	-0.005	0.000	-0.020	0.000	0.010	0.029	1.777	1.104	1.108	1.104	1.118	1.118	1.118
0.000	0.005	0.000	-0.024	0.005	-0.005	0.034	1.763	1.104	1.108	1.108	1.118	1.118	1.118
-0.010	0.005	0.000	-0.024	0.000	0.000	0.034	1.729	1.099	1.104	1.104	1.123	1.118	1.113
0.005	-0.010	-0.005	-0.010	0.000	-0.015	0.034	1.812	1.108	1.104	1.104	1.128	1.118	1.113
-0.005	0.005	0.000	0.000	-0.005	0.005	0.029	1.724	1.104	1.108	1.104	1.128	1.118	1.118
0.010	0.005	-0.005	0.005	-0.005	-0.010	0.029	1.768	1.108	1.108	1.108	1.128	1.118	1.113
-0.005	0.005	-0.005	0.015	-0.010	-0.010	0.029	1.709	1.099	1.104	1.104	1.128	1.118	1.118
-0.005	0.000	0.005	0.010	-0.005	0.000	0.034	1.763	1.099	1.099	1.108	1.128	1.123	1.123
0.005	-0.005	-0.005	0.010	0.000	0.010	0.034	1.733	1.099	1.099	1.104	1.128	1.123	1.123
-0.005	-0.005	0.000	0.000	0.000	-0.015	0.034	1.807	1.108	1.099	1.104	1.123	1.123	1.118
0.000	0.000	0.000	0.005	0.000	-0.005	0.034	1.733	1.104	1.104	1.099	1.123	1.123	1.118
-0.005	-0.005	-0.005	0.000	0.005	0.010	0.034	1.792	1.104	1.099	1.099	1.118	1.118	1.123
0.000	-0.010	-0.005	-0.005	-0.005	-0.010	0.034	1.792	1.108	1.104	1.099	1.118	1.113	1.113
-0.020	-0.005	-0.005	-0.005	-0.005	0.015	0.029	1.802	1.108	1.099	1.099	1.113	1.113	1.123
-0.034	-0.005	-0.005	-0.005	0.000	0.000	0.034	1.816	1.104	1.099	1.099	1.113	1.113	1.113
-0.010	-0.005	0.000	0.000	-0.005	0.005	0.034	1.748	1.108	1.104	1.099	1.118	1.113	1.113
0.024	-0.005	-0.005	0.000	0.005	0.000	0.029	1.772	1.118	1.108	1.104	1.118	1.113	1.113
0.039	-0.015	0.000	0.005	0.005	0.005	0.034	1.777	1.123	1.113	1.104	1.123	1.113	1.118
0.059	0.000	0.000	0.005	0.000	-0.010	0.034	1.748	1.123	1.118	1.108	1.123	1.113	1.113
0.054	0.000	0.000	0.005	-0.005	-0.015	0.029	1.753	1.113	1.118	1.108	1.123	1.113	1.108
0.029	0.000	0.000	0.005	0.000	-0.005	0.034	1.792	1.104	1.108	1.108	1.128	1.118	1.118
0.000	0.005	0.000	0.000	0.000	0.000	0.034	1.782	1.099	1.108	1.108	1.123	1.118	1.118
-0.020	0.005	-0.005	-0.010	0.005	0.000	0.029	1.763	1.099	1.104	1.108	1.123	1.118	1.118
-0.034	0.005	0.000	-0.005	-0.005	0.000	0.034	1.772	1.099	1.104	1.108	1.123	1.118	1.118
-0.063	0.005	-0.005	-0.015	-0.005	-0.005	0.034	1.787	1.094	1.099	1.104	1.118	1.118	1.113
-0.054	0.005	-0.005	0.000	-0.005	-0.005	0.029	1.792	1.104	1.099	1.104	1.123	1.118	1.113
-0.068	0.005	-0.005	0.000	-0.005	0.000	0.029	1.792	1.104	1.099	1.104	1.123	1.118	1.118
-0.049	-0.005	0.000	-0.010	-0.005	-0.005	0.029	1.772	1.113	1.099	1.099	1.118	1.118	1.118
-0.029	0.000	0.000	-0.015	0.005	0.005	0.034	1.807	1.113	1.104	1.099	1.118	1.118	1.123
-0.015	0.005	-0.005	-0.020	-0.005	0.000	0.034	1.777	1.113	1.108	1.104	1.113	1.113	1.118
-0.015	-0.005	0.000	-0.010	-0.005	0.005	0.034	1.792	1.118	1.108	1.104	1.118	1.118	1.113
0.000	-0.005	-0.005	-0.010	0.000	0.000	0.029	1.772	1.118	1.108	1.104	1.123	1.113	1.113
0.005	-0.010	-0.005	0.000	0.005	0.005	0.034	1.748	1.108	1.108	1.104	1.123	1.118	1.113
0.000	0.000	-0.005	-0.005	0.000	0.000	0.034	1.792	1.108	1.108	1.104	1.123	1.118	1.118
-0.005	-0.005	0.000	0.000	-0.005	0.000	0.034	1.772	1.108	1.108	1.104	1.123	1.118	1.113
0.005	0.005	-0.005	0.000	0.000	-0.010	0.034	1.768	1.108	1.108	1.108	1.123	1.118	1.113
0.010	0.005	0.005	-0.005	0.005	0.000	0.034	1.782	1.113	1.108	1.108	1.123	1.118	1.118
0.024	-0.005	0.005	0.000	-0.005	0.000	0.034	1.772	1.113	1.108	1.108	1.128	1.118	1.118
0.024	0.000	0.000	0.000	-0.005	-0.005	0.034	1.802	1.118	1.113	1.108	1.128	1.118	1.118
0.029	-0.010	-0.005	0.005	0.000	0.000	0.029	1.807	1.113	1.108	1.108	1.128	1.123	1.118
0.029	0.000	0.000	0.000	0.000	-0.005	0.034	1.777	1.108	1.108	1.108	1.123	1.123	1.118
0.020	-0.015	0.005	0.000	0.000	-0.020	0.029	1.797	1.104	1.108	1.108	1.128	1.118	1.113
0.020	-0.020	0.000	0.000	-0.005	0.005	0.034	1.792	1.104	1.104	1.108	1.128	1.118	1.123
0.020	-0.005	0.000	0.000	0.000	-0.005	0.034	1.709	1.099	1.108	1.108	1.128	1.123	1.118
0.000	-0.005	0.000	0.000	0.000	0.005	0.034	1.748	1.099	1.104	1.104	1.123	1.123	1.123
0.000	-0.005	0.000	0.010	0.005	0.000	0.034	1.743	1.099	1.099	1.104	1.128	1.123	1.118
-0.010	-0.015	-0.005	0.000	0.000	0.010	0.034	1.787	1.099	1.094	1.104	1.123	1.118	1.123
-0.010	-0.005	-0.005	0.005	-0.005	0.005	0.034	1.792	1.104	1.099	1.099	1.123	1.118	1.118
0.000	0.010	-0.005	0.000	-0.005	-0.024	0.034	1.758	1.104	1.104	1.099	1.118	1.118	1.113
-0.005	0.020	-0.005	0.000	0.000	-0.015	0.029	1.782	1.104	1.108	1.104	1.118	1.118	1.113
0.000	0.020	0.000	-0.005	0.000	0.005	0.029	1.802	1.108	1.104	1.104	1.118	1.118	1.123
0.000	0.015	0.005	-0.005	0.000	0.010	0.029	1.812	1.113	1.108	1.104	1.118	1.113	1.118
0.000	0.005	0.000	-0.005	-0.005	0.005	0.029	1.753	1.108	1.104	1.104	1.123	1.118	1.118
-0.010	0.000	0.000	0.000	-0.005	0.000	0.034	1.807	1.108	1.104	1.104	1.123	1.118	1.118
-0.010	0.015	0.000	0.000	0.000	-0.005	0.034	1.758	1.108	1.108	1.104	1.123	1.118	1.113
-0.015	0.015	-0.005	0.005	0.005	0.000	0.034	1.719	1.099	1.104	1.104	1.123	1.123	1.118
-0.010	0.005	0.000	0.005	-0.005	0.000	0.034	1.787	1.104	1.099	1.104	1.123	1.118	1.118
-0.010	0.010	0.000	0.000	-0.005	-0.010	0.029	1.802	1.104	1.099	1.104	1.123	1.118	1.118
-0.010	0.010	-0.005	0.000	0.000	-0.015	0.034	1.758	1.108	1.104	1.104	1.123	1.118	1.113
0.000	-0.005	0.000	-0.005	0.010	-0.005	0.034	1.802	1.108	1.099	1.104	1.123	1.118	1.118
0.005	-0.005	-0.005	0.000	0.010	0.005	0.034	1.763	1.108	1.104	1.099	1.123	1.118	1.123
0.000	-0.010	-0.005	-0.005	-0.005	0.010	0.029	1.802	1.108	1.104	1.099	1.123	1.113	1.118
-0.005	-0.015	-0.010	0.000	0.000	-0.005	0.034	1.763	1.104	1.104	1.099	1.118	1.113	1.108
-0.005	-0.020	-0.005	0.005	-0.010	0.010	0.029	1.782	1.104	1.099	1.099	1.118	1.113	1.118
0.000	-0.015	-0.005	0.000	-0.010	0.005	0.034	1.768	1.108	1.104	1.104	1.118	1.113	1.113
0.000	-0.015	0.000	0.000	-0.005	-0.005	0.029	1.797	1.108	1.104	1.099	1.118	1.113	1.108
-0.005	-0.005	0.000	0.000	0.000	0.000	0.034	1.816	1.108	1.108	1.104	1.118	1.118	1.113
0.000	0.000	0.000	-0.005	0.005	0.000	0.034	1.758	1.104	1.108	1.104	1.118	1.118	1.113
0.005	-0.010	0.000	-0.010	-0.005	0.005	0.034	1.797	1.108	1.104	1.104	1.118	1.113	1.113
0.005	0.005	0.000	-0.010	0.005	-0.010	0.034	1.743	1.108	1.108	1.104	1.123	1.113	1.113
-0.005	0.000	0.000	-0.005	0.005	-0.020	0.034	1.753	1.108	1.104	1.104	1.123	1.118	1.113
0.000	0.010	-0.005	-0.005	0.005	0.000	0.034	1.787	1.108	1.108	1.104	1.123	1.118	1.118
0.000	-0.005	0.000	0.000	0.005	-0.015	0.034	1.777	1.108	1.104	1.104	1.123	1.118	1.113
0.000	0.000	0.005	0.000	0.000	-0.005	0.034	1.797	1.108	1.108	1.108	1.123	1.118	1.118
0.005	0.005	0.000	0.000	-0.005	-0.005	0.034	1.758	1.108	1.108	1.108	1.123	1.118	1.118
-0.005	-0.005	0.005	0.010	0.000	0.010	0.034	1.792	1.108	1.104	1.104	1.128	1.118	1.123
0.000	0.000	0.000	0.010	-0.005	-0.005	0.029	1.772	1.108	1.108	1.104	1.128	1.118	1.118
0.005	-0.005	-0.005	0.005	-0.010	0.000	0.034	1.748	1.104	1.104	1.104	1.123	1.118	1.118
-0.005	-0.015	-0.005	0.000	-0.005	0.005	0.034	1.743	1.104	1.104	1.104	1.123	1.118	1.118
-0.010	-0.015	0.000	0.000	0.000	0.005	0.034	1.797	1.104	1.099	1.104	1.118	1.118	1.118
0.005	0.000	-0.005	-0.005	0.000	0.005	0.034	1.733	1.104	1.104	1.104	1.118	1.118	1.118
-0.010	-0.010	-0.005	-0.005	-0.005	-0.020	0.029	1.777	1.104	1.104	1.104	1.118	1.113	1.108
0.000	-0.005	-0.005	-0.005	-0.005	-0.020	0.034	1.733	1.108	1.104	1.099	1.118	1.113	1.108
-0.005	0.000	0.000	-0.005	0.000	0.005	0.034	1.768	1.099	1.104	1.104	1.118	1.118	1.118
0.005	-0.005	0.000	-0.005	-0.005	-0.005	0.034	1.777	1.108	1.099	1.099	1.123	1.113	1.113
-0.005	0.010	0.000	-0.005	0.000	0.005	0.034	1.748	1.104	1.104	1.104	1.123	1.118	1.118
0.000	0.010	0.005	-0.005	0.005	0.005	0.034	1.768	1.108	1.104	1.104	1.123	1.118	1.118
0.000	0.010	0.005	-0.005	0.000	0.010	0.034	1.797	1.108	1.108	1.108	1.123	1.118	1.118
-0.005	0.005	0.000	0.005	-0.005	-0.010	0.034	1.758	1.099	1.104	1.104	1.123	1.118	1.113
-0.005	0.005	0.000	0.000	0.005	0.000	0.034	1.802	1.108	1.104	1.104	1.123	1.118	1.118
-0.005	0.000	-0.005	-0.005	0.000	-0.005	0.029	1.787	1.108	1.099	1.099	1.123	1.118	1.118
-0.005	-0.005	0.000	0.000	0.005	0.000	0.034	1.782	1.108	1.104	1.104	1.123	1.118	1.113
0.000	-0.015	0.000	0.005	-0.005	-0.005	0.034	1.748	1.104	1.099	1.099	1.118	1.118	1.118
-0.005	-0.005	-0.005	-0.005	0.000	0.000	0.034	1.777	1.104	1.104	1.099	1.118	1.113	1.113
-0.005	-0.015	-0.005	-0.005	0.000	0.010	0.034	1.797	1.108	1.099	1.099	1.118	1.113	1.118
-0.005	-0.010	0.000	0.000	0.000	0.000	0.034	1.733	1.104	1.104	1.099	1.118	1.113	1.113
0.000	-0.005	0.000	-0.005	-0.015	-0.024	0.029	1.777	1.108	1.104	1.099	1.118	1.113	1.108
-0.005	-0.010	0.000	-0.005	-0.005	0.005	0.029	1.782	1.104	1.099	1.104	1.118	1.113	1.118
-0.010	-0.005	0.005	-0.005	-0.005	0.005	0.029	1.797	1.108	1.104	1.104	1.118	1.113	1.113
0.000	0.000	-0.005	0.000	-0.005	0.005	0.029	1.792	1.108	1.108	1.099	1.118	1.118	1.113
0.000	0.000	0.000	0.000	0.005	0.000	0.029	1.763	1.104	1.108	1.104	1.123	1.118	1.113
-0.005	0.020	0.000	0.005	0.000	0.000	0.034	1.797	1.108	1.108	1.104	1.123	1.113	1.108
0.000	0.020	0.005	0.005	0.000	-0.005	0.034	1.807	1.113	1.113	1.108	1.123	1.118	1.113
-0.010	0.015	0.000	0.005	0.000	-0.020	0.034	1.812	1.113	1.108	1.108	1.123	1.118	1.108
0.000	0.015	0.000	0.005	-0.005	0.015	0.034	1.768	1.113	1.108	1.108	1.123	1.118	1.123
0.005	0.005	0.000	-0.005	0.000	0.010	0.034	1.743	1.108	1.108	1.108	1.123	1.118	1.118
-0.005	-0.005	0.000	-0.005	0.005	0.010	0.034	1.738	1.099	1.104	1.104	1.123	1.118	1.118
0.005	0.000	0.000	-0.005	0.010	0.000	0.034	1.743	1.099	1.104	1.104	1.123	1.123	1.118
-0.005	-0.010	0.005	-0.005	0.010	0.005	0.034	1.797	1.099	1.094	1.099	1.123	1.118	1.118
0.000	-0.010	0.000	0.000	0.005	0.000	0.034	1.772	1.104	1.099	1.099	1.123	1.118	1.118
0.000	-0.020	0.000	0.005	0.000	0.000	0.029	1.729	1.099	1.099	1.099	1.123	1.118	1.113
-0.005	-0.010	-0.005	0.005	-0.005	-0.010	0.034	1.797	1.099	1.099	1.099	1.123	1.118	1.113
0.000	-0.010	-0.005	0.010	-0.005	0.005	0.029	1.787	1.104	1.099	1.099	1.118	1.118	1.118
-0.005	-0.010	0.000	0.010	-0.005	0.005	0.034	1.787	1.108	1.099	1.099	1.118	1.118	1.113
-0.005	-0.005	0.000	-0.005	0.000	0.010	0.034	1.797	1.108	1.104	1.099	1.118	1.113	1.118
-0.010	-0.010	-0.005	0.000	0.000	-0.015	0.034	1.772	1.099	1.099	1.099	1.113	1.113	1.108
-0.005	-0.010	0.000	-0.010	-0.005	-0.020	0.034	1.748	1.099	1.099	1.099	1.113	1.113	1.113
-0.005	0.005	-0.005	-0.010	-0.005	-0.010	0.034	1.753	1.099	1.099	1.099	1.113	1.113	1.113
-0.005	0.005	-0.005	-0.020	-0.005	0.000	0.029	1.782	1.104	1.104	1.099	1.113	1.108	1.113
0.005	-0.005	0.000	-0.015	-0.005	0.015	0.034	1.763	1.099	1.099	1.099	1.118	1.108	1.113
-0.005	0.005	0.005	-0.015	-0.005	0.000	0.034	1.792	1.104	1.099	1.104	1.118	1.108	1.108
-0.005	0.010	0.010	-0.010	-0.005	-0.024	0.034	1.797	1.108	1.104	1.104	1.118	1.113	1.104
0.000	0.015	-0.005	0.000	-0.005	0.000	0.029	1.787	1.108	1.108	1.104	1.118	1.113	1.113
-0.005	0.000	0.000	0.000	0.000	-0.005	0.029	1.772	1.108	1.104	1.104	1.123	1.118	1.113
0.000	0.010	-0.005	0.010	0.000	0.005	0.034	1.719	1.099	1.108	1.104	1.123	1.118	1.118
0.000	0.005	0.000	0.015	-0.005	-0.005	0.034	1.787	1.104	1.099	1.104	1.128	1.118	1.118
0.000	-0.005	0.000	0.015	0.000	-0.005	0.034	1.802	1.108	1.099	1.104	1.123	1.123	1.113
-0.029	-0.010	-0.005	0.010	-0.010	0.000	0.034	1.772	1.094	1.094	1.099	1.118	1.118	1.118
-0.034	0.000	0.000	0.000	-0.005	-0.005	0.034	1.782	1.099	1.099	1.099	1.118	1.113	1.113
-0.015	0.000	-0.005	0.000	-0.005	-0.005	0.034	1.753	1.108	1.104	1.099	1.113	1.113	1.113
0.005	-0.010	0.000	0.000	0.000	0.005	0.034	1.782	1.113	1.099	1.099	1.118	1.118	1.118
0.015	-0.005	0.000	0.000	0.005	-0.015	0.034	1.768	1.118	1.108	1.099	1.118	1.113	1.108
0.034	0.010	-0.005	-0.005	-0.005	0.000	0.034	1.777	1.113	1.113	1.104	1.118	1.113	1.113
0.029	-0.015	-0.005	0.005	-0.005	-0.010	0.034	1.802	1.108	1.104	1.104	1.123	1.108	1.113
0.020	0.000	0.000	0.005	-0.005	-0.010	0.034	1.792	1.108	1.108	1.104	1.123	1.113	1.113
0.000	0.000	-0.005	0.000	0.000	-0.005	0.029	1.797	1.099	1.104	1.108	1.118	1.118	1.118
-0.005	0.010	-0.005	0.000	0.000	-0.020	0.029	1.724	1.089	1.104	1.104	1.118	1.118	1.113
-0.010	0.000	-0.005	0.000	0.005	-0.005	0.029	1.748	1.089	1.099	1.104	1.118	1.118	1.113
-0.010	0.010	-0.005	0.000	0.010	0.010	0.034	1.787	1.099	1.099	1.104	1.123	1.118	1.118
-0.015	0.010	0.000	-0.005	0.000	-0.020	0.034	1.738	1.094	1.099	1.099	1.118	1.118	1.113
-0.010	0.000	0.000	0.000	0.000	-0.015	0.034	1.797	1.099	1.094	1.099	1.118	1.118	1.118
-0.010	0.000	-0.005	0.000	-0.005	0.000	0.034	1.792	1.108	1.099	1.099	1.118	1.113	1.118
-0.010	0.000	-0.005	0.000	-0.005	-0.010	0.034	1.763	1.104	1.099	1.099	1.118	1.113	1.113
0.000	0.010	0.000	0.000	0.000	0.000	0.034	1.787	1.108	1.104	1.099	1.118	1.118	1.118
0.000	0.000	-0.005	0.000	0.005	0.015	0.029	1.753	1.099	1.099	1.099	1.118	1.118	1.118
-0.010	-0.010	0.000	0.000	0.000	0.005	0.029	1.782	1.094	1.094	1.099	1.118	1.113	1.118
-0.010	-0.005	-0.005	0.000	0.000	0.005	0.029	1.777	1.099	1.094	1.099	1.113	1.113	1.118
-0.005	-0.020	0.000	-0.005	0.000	0.000	0.029	1.787	1.099	1.094	1.094	1.113	1.108	1.113
0.000	-0.020	-0.005	-0.010	0.000	0.005	0.029	1.768	1.099	1.094	1.094	1.108	1.108	1.108
-0.005	-0.005	0.000	-0.010	-0.005	0.005	0.034	1.772	1.099	1.099	1.094	1.113	1.108	1.108
-0.005	0.000	-0.005	-0.005	-0.010	0.010	0.034	1.787	1.104	1.104	1.099	1.113	1.108	1.113
-0.005	0.000	-0.005	0.000	-0.005	-0.010	0.034	1.768	1.104	1.099	1.099	1.113	1.108	1.108
0.005	0.000	-0.005	0.000	0.000	-0.005	0.034	1.787	1.108	1.099	1.099	1.113	1.108	1.108
0.000	0.000	0.000	-0.005	0.005	0.005	0.034	1.758	1.104	1.104	1.099	1.118	1.113	1.113
0.010	0.000	0.000	-0.005	0.000	0.005	0.034	1.787	1.113	1.104	1.099	1.118	1.113	1.113
0.010	0.005	0.000	0.000	-0.005	0.000	0.034	1.787	1.113	1.108	1.104	1.118	1.113	1.108
0.005	0.005	0.005	0.005	-0.005	0.000	0.034	1.782	1.108	1.108	1.104	1.123	1.113	1.108
0.010	0.005	0.000	0.005	0.005	-0.010	0.034	1.768	1.104	1.104	1.104	1.123	1.113	1.108
0.005	0.000	0.005	0.005	0.000	0.000	0.029	1.802	1.108	1.104	1.104	1.123	1.118	1.113
0.000	0.010	0.000	0.005	0.000	0.000	0.034	1.787	1.108	1.104	1.104	1.123	1.118	1.113
-0.005	-0.010	-0.005	0.000	0.005	0.005	0.034	1.782	1.108	1.099	1.104	1.118	1.118	1.118
-0.020	-0.010	0.000	0.000	0.000	-0.005	0.034	1.792	1.104	1.099	1.104	1.123	1.113	1.113
-0.020	-0.005	0.000	0.005	0.000	-0.005	0.029	1.777	1.099	1.104	1.099	1.123	1.113	1.113
-0.029	0.000	0.000	0.010	0.000	-0.005	0.034	1.753	1.094	1.104	1.099	1.123	1.118	1.113
-0.015	-0.005	-0.005	0.005	0.000	0.005	0.034	1.772	1.099	1.099	1.099	1.118	1.113	1.118
-0.010	0.010	-0.005	-0.005	-0.010	0.000	0.034	1.768	1.104	1.104	1.099	1.118	1.108	1.113
-0.005	-0.005	0.000	-0.010	-0.005	0.000	0.034	1.802	1.108	1.099	1.099	1.113	1.113	1.113
0.000	0.000	-0.005	-0.010	0.000	-0.024	0.029	1.758	1.108	1.104	1.099	1.113	1.113	1.108
-0.005	0.010	-0.005	-0.010	0.005	0.000	0.034	1.802	1.108	1.108	1.104	1.113	1.113	1.113
0.005	0.005	-0.005	-0.015	0.000	0.005	0.034	1.792	1.108	1.104	1.104	1.118	1.113	1.113
0.000	0.005	0.000	-0.010	0.005	-0.015	0.034	1.797	1.108	1.108	1.104	1.118	1.113	1.108
0.010	0.000	0.005	-0.010	0.000	-0.005	0.029	1.738	1.108	1.104	1.104	1.118	1.113	1.113
0.005	0.005	0.000	-0.005	-0.010	0.010	0.029	1.743	1.099	1.108	1.104	1.123	1.113	1.118
0.000	0.000	0.005	-0.005	-0.005	0.010	0.029	1.777	1.099	1.104	1.104	1.123	1.113	1.118
0.000	0.000	0.000	0.000	-0.010	-0.005	0.034	1.797	1.108	1.104	1.104	1.123	1.113	1.108
0.005	0.000	0.000	0.000	-0.010	0.000	0.034	1.763	1.108	1.104	1.104	1.123	1.118	1.113
0.000	-0.005	0.000	0.000	-0.010	0.005	0.034	1.802	1.108	1.104	1.104	1.123	1.118	1.118
0.010	-0.020	0.000	0.005	0.000	0.000	0.034	1.748	1.104	1.099	1.099	1.123	1.123	1.118
0.000	-0.020	-0.005	0.005	0.020	0.010	0.034	1.733	1.099	1.099	1.099	1.123	1.123	1.123
0.000	-0.010	-0.005	0.005	0.020	0.005	0.034	1.777	1.099	1.094	1.099	1.118	1.123	1.123
0.005	-0.005	-0.005	0.005	0.010	0.000	0.034	1.768	1.104	1.099	1.099	1.118	1.118	1.118
-0.020	-0.005	-0.010	0.005	0.010	0.000	0.034	1.777	1.099	1.099	1.099	1.118	1.118	1.118
-0.005	-0.005	-0.005	0.005	-0.005	-0.005	0.034	1.782	1.099	1.099	1.099	1.118	1.108	1.113
0.000	0.000	0.000	0.005	-0.010	0.000	0.029	1.787	1.108	1.104	1.099	1.118	1.108	1.113
0.024	0.010	-0.005	0.000	-0.005	-0.005	0.029	1.797	1.113	1.108	1.099	1.113	1.108	1.108
0.020	0.000	-0.005	-0.005	-0.005	-0.010	0.029	1.758	1.104	1.108	1.104	1.118	1.113	1.113
0.020	-0.005	0.000	-0.010	0.000	0.005	0.034	1.797	1.108	1.104	1.104	1.118	1.108	1.113
0.010	-0.005	-0.005	-0.010	-0.010	0.000	0.029	1.787	1.104	1.104	1.104	1.118	1.108	1.113
0.000	0.000	0.000	-0.010	-0.010	-0.005	0.034	1.792	1.104	1.104	1.104	1.118	1.108	1.108
-0.010	0.010	0.000	-0.005	-0.005	0.005	0.034	1.816	1.104	1.104	1.104	1.123	1.113	1.113
-0.024	0.010	0.000	0.000	-0.010	-0.010	0.034	1.733	1.094	1.099	1.104	1.123	1.113	1.108
-0.029	-0.005	-0.005	0.000	0.000	0.010	0.034	1.782	1.099	1.094	1.099	1.123	1.118	1.118
-0.024	-0.010	-0.005	0.000	-0.005	-0.005	0.034	1.787	1.104	1.099	1.099	1.123	1.113	1.113
-0.024	0.015	-0.005	0.000	0.000	-0.010	0.034	1.777	1.108	1.108	1.104	1.123	1.113	1.108
-0.015	0.010	0.000	0.005	0.000	0.000	0.029	1.797	1.113	1.104	1.104	1.123	1.118	1.118
-0.010	-0.010	-0.005	0.005	0.005	-0.010	0.029	1.792	1.113	1.104	1.099	1.118	1.118	1.113
0.010	-0.010	-0.005	0.010	0.010	0.000	0.034	1.763	1.113	1.108	1.104	1.123	1.118	1.118
0.000	-0.010	0.000	0.000	0.000	-0.010	0.029	1.797	1.108	1.104	1.104	1.118	1.113	1.118
0.010	-0.005	-0.005	0.000	0.005	-0.005	0.034	1.748	1.113	1.108	1.104	1.118	1.118	1.118
0.010	-0.010	0.005	-0.005	0.005	-0.024	0.034	1.782	1.108	1.104	1.104	1.118	1.113	1.108
0.024	-0.005	-0.005	0.005	0.000	0.010	0.034	1.743	1.104	1.108	1.104	1.123	1.118	1.118
0.020	0.015	0.000	0.000	0.000	0.015	0.034	1.802	1.108	1.108	1.108	1.123	1.118	1.118
0.005	0.020	0.000	0.000	0.010	0.010	0.034	1.782	1.099	1.108	1.108	1.123	1.118	1.118
0.000	0.000	0.005	0.000	0.000	0.015	0.034	1.768	1.099	1.104	1.108	1.123	1.118	1.118
0.005	0.000	0.000	-0.005	0.005	0.005	0.034	1.802	1.104	1.099	1.104	1.123	1.118	1.118
-0.005	-0.005	-0.005	-0.010	0.000	0.000	0.029	1.792	1.104	1.099	1.104	1.118	1.118	1.113
-0.010	-0.010	0.000	-0.010	0.000	0.000	0.029	1.792	1.104	1.099	1.099	1.118	1.118	1.113
-0.010	-0.010	0.000	-0.010	-0.010	-0.020	0.029	1.792	1.104	1.099	1.104	1.118	1.108	1.108
-0.005	-0.020	0.000	-0.015	-0.029	-0.029	0.029	1.772	1.104	1.094	1.099	1.118	1.104	1.104
0.010	-0.024	0.000	-0.005	-0.049	-0.029	0.029	1.743	1.108	1.099	1.099	1.118	1.104	1.104
-0.005	-0.020	0.000	-0.005	-0.029	-0.010	0.034	1.787	1.104	1.099	1.099	1.123	1.113	1.113
-0.005	-0.015	-0.005	0.005	0.000	0.005	0.034	1.782	1.108	1.104	1.104	1.123	1.123	1.123
0.000	-0.015	-0.005	0.005	0.029	-0.005	0.029	1.724	1.104	1.104	1.099	1.123	1.128	1.123
0.005	0.000	-0.005	0.005	0.034	0.005	0.034	1.748	1.104	1.104	1.099	1.123	1.128	1.123
-0.010	0.000	-0.005	0.005	0.024	0.000	0.034	1.797	1.099	1.099	1.104	1.123	1.118	1.123
-0.005	0.005	-0.005	0.005	0.010	0.010	0.034	1.802	1.104	1.104	1.104	1.118	1.113	1.123
-0.010	0.000	0.000	0.005	0.005	-0.010	0.029	1.792	1.104	1.104	1.099	1.118	1.113	1.113
-0.005	0.005	0.000	0.000	0.000	0.010	0.034	1.753	1.104	1.104	1.099	1.118	1.113	1.118
-0.010	0.000	-0.005	-0.005	-0.005	-0.010	0.034	1.748	1.094	1.104	1.099	1.118	1.108	1.108
-0.010	0.005	0.000	0.000	-0.005	0.000	0.034	1.792	1.104	1.099	1.099	1.118	1.108	1.113
-0.005	0.010	-0.005	-0.005	-0.010	-0.010	0.034	1.768	1.104	1.099	1.099	1.118	1.113	1.108
-0.005	0.005	0.000	0.000	0.000	0.005	0.034	1.802	1.108	1.099	1.099	1.123	1.113	1.113
0.005	0.015	-0.005	0.000	0.000	-0.010	0.034	1.782	1.113	1.108	1.104	1.118	1.118	1.108
0.000	0.010	0.000	0.010	0.000	0.000	0.034	1.772	1.108	1.104	1.104	1.123	1.113	1.113
-0.005	0.000	0.000	-0.005	0.000	-0.005	0.029	1.787	1.094	1.104	1.104	1.118	1.118	1.113
-0.005	0.000	0.000	-0.005	0.000	0.005	0.034	1.802	1.099	1.104	1.104	1.118	1.113	1.113
0.005	0.005	0.000	0.000	-0.005	-0.005	0.034	1.812	1.108	1.104	1.104	1.123	1.113	1.113
-0.005	0.000	0.000	0.000	0.000	-0.029	0.029	1.787	1.108	1.099	1.104	1.123	1.113	1.104
0.000	-0.010	0.000	-0.005	0.005	0.005	0.034	1.748	1.104	1.099	1.099	1.118	1.118	1.113
-0.010	-0.010	0.000	0.000	-0.005	0.005	0.029	1.777	1.104	1.099	1.099	1.118	1.118	1.118
-0.005	-0.005	0.000	0.010	-0.005	0.000	0.034	1.768	1.099	1.104	1.099	1.118	1.113	1.113
0.005	-0.010	-0.005	0.010	-0.005	-0.005	0.034	1.753	1.113	1.104	1.099	1.118	1.118	1.113
0.005	0.005	-0.005	0.005	0.005	0.000	0.034	1.782	1.108	1.108	1.099	1.118	1.118	1.113
0.000	0.005	-0.005	0.000	-0.010	0.000	0.029	1.787	1.113	1.108	1.104	1.113	1.113	1.113
0.005	0.020	-0.005	-0.005	-0.010	0.000	0.034	1.748	1.113	1.113	1.104	1.113	1.108	1.108
-0.005	0.015	0.000	-0.015	-0.010	0.010	0.034	1.802	1.108	1.108	1.108	1.118	1.113	1.113
-0.010	0.005	0.000	-0.010	0.015	0.005	0.029	1.782	1.108	1.104	1.108	1.118	1.118	1.113
0.000	0.000	0.000	-0.015	0.029	0.000	0.029	1.802	1.113	1.104	1.104	1.123	1.123	1.113
0.005	-0.005	0.005	-0.005	0.029	0.000	0.034	1.719	1.108	1.108	1.104	1.128	1.123	1.118
0.000	0.010	0.005	-0.005	0.005	-0.015	0.029	1.792	1.108	1.108	1.108	1.123	1.113	1.113
-0.005	0.000	0.000	0.000	-0.024	-0.020	0.029	1.772	1.104	1.104	1.104	1.123	1.108	1.113
-0.005	-0.005	0.005	0.000	-0.049	-0.010	0.029	1.807	1.108	1.104	1.104	1.123	1.108	1.113
-0.005	-0.005	0.000	0.010	-0.044	-0.015	0.034	1.748	1.108	1.104	1.104	1.123	1.113	1.113
0.005	-0.005	0.000	0.015	-0.029	-0.034	0.034	1.748	1.108	1.104	1.104	1.128	1.118	1.108
0.000	-0.005	-0.005	0.010	-0.059	-0.020	0.034	1.777	1.104	1.099	1.104	1.123	1.108	1.113
0.000	-0.010	0.000	0.005	-0.039	0.000	0.034	1.772	1.104	1.099	1.099	1.118	1.118	1.118
0.000	-0.020	-0.005	0.000	0.010	0.000	0.029	1.777	1.104	1.099	1.099	1.118	1.133	1.123
-0.005	-0.010	0.000	0.000	0.020	0.015	0.034	1.797	1.108	1.099	1.099	1.118	1.128	1.128
0.005	-0.020	-0.005	0.000	0.059	0.010	0.034	1.777	1.104	1.099	1.099	1.118	1.138	1.128
0.005	-0.010	0.000	-0.005	0.073	0.024	0.029	1.787	1.104	1.104	1.104	1.118	1.133	1.133
-0.005	-0.010	0.000	0.000	0.063	0.015	0.029	1.797	1.108	1.104	1.104	1.118	1.128	1.128
0.000	0.000	0.000	0.000	0.034	0.010	0.029	1.792	1.108	1.108	1.104	1.118	1.113	1.123
0.000	0.005	0.000	-0.005	0.005	-0.005	0.029	1.802	1.113	1.108	1.104	1.118	1.104	1.113
0.000	0.005	0.005	0.000	-0.015	0.000	0.034	1.802	1.118	1.108	1.104	1.123	1.104	1.108
-0.005	0.005	-0.005	0.000	-0.005	-0.005	0.034	1.792	1.113	1.108	1.108	1.123	1.108	1.113
0.000	0.005	0.000	-0.005	0.000	0.000	0.034	1.792	1.113	1.108	1.108	1.123	1.113	1.113
0.000	0.005	0.000	0.000	0.000	0.000	0.034	1.772	1.108	1.108	1.108	1.123	1.118	1.113
-0.005	0.005	0.005	0.000	-0.005	0.005	0.029	1.782	1.108	1.108	1.108	1.128	1.118	1.113
0.000	0.000	0.000	0.000	-0.005	0.015	0.034	1.743	1.108	1.108	1.104	1.128	1.118	1.118
-0.005	0.005	0.000	0.000	-0.010	0.005	0.029	1.816	1.108	1.108	1.108	1.128	1.118	1.113
-0.010	0.005	-0.005	-0.005	-0.005	0.000	0.029	1.802	1.108	1.108	1.104	1.123	1.118	1.113
0.000	-0.015	0.000	-0.005	-0.015	0.005	0.034	1.714	1.104	1.104	1.104	1.123	1.118	1.118
-0.005	-0.010	0.000	0.000	-0.005	-0.005	0.034	1.763	1.099	1.104	1.104	1.123	1.118	1.113
-0.005	-0.010	-0.005	0.005	-0.005	-0.005	0.034	1.812	1.108	1.104	1.104	1.123	1.118	1.113
-0.010	-0.015	0.005	0.005	-0.010	0.005	0.034	1.802	1.099	1.099	1.104	1.123	1.118	1.118
0.000	-0.010	-0.005	0.005	-0.010	-0.005	0.034	1.816	1.108	1.104	1.099	1.123	1.118	1.113
-0.005	-0.005	0.000	0.000	-0.005	-0.005	0.034	1.792	1.108	1.104	1.104	1.118	1.118	1.118
0.000	-0.005	0.000	-0.005	0.005	-0.024	0.029	1.719	1.104	1.104	1.104	1.118	1.118	1.108
0.000	0.000	-0.005	-0.005	0.000	0.005	0.034	1.758	1.108	1.104	1.104	1.118	1.118	1.118
-0.005	-0.005	-0.005	-0.005	0.000	0.005	0.034	1.777	1.108	1.104	1.099	1.118	1.118	1.118
-0.005	0.005	-0.005	-0.010	-0.005	0.000	0.029	1.787	1.108	1.108	1.104	1.118	1.113	1.113
0.000	0.000	0.005	-0.010	-0.005	0.010	0.029	1.797	1.113	1.108	1.108	1.118	1.113	1.118
0.000	0.005	0.000	-0.015	-0.010	-0.005	0.029	1.743	1.108	1.108	1.108	1.118	1.113	1.113
0.000	0.005	-0.005	-0.010	-0.020	-0.015	0.029	1.777	1.108	1.108	1.104	1.123	1.108	1.108
0.005	0.005	0.000	-0.015	-0.024	0.015	0.029	1.787	1.108	1.108	1.108	1.123	1.113	1.118
-0.005	0.000	0.000	-0.005	-0.015	0.000	0.034	1.792	1.108	1.108	1.104	1.123	1.118	1.118
0.000	-0.005	-0.005	0.000	-0.005	0.005	0.034	1.787	1.113	1.104	1.104	1.128	1.123	1.118
0.005	0.005	0.000	0.000	-0.020	-0.024	0.029	1.768	1.108	1.108	1.108	1.128	1.118	1.108
0.000	0.005	-0.005	0.005	-0.005	-0.015	0.034	1.792	1.108	1.108	1.108	1.128	1.123	1.113
-0.010	-0.005	0.000	0.005	0.015	-0.015	0.029	1.782	1.108	1.104	1.108	1.128	1.128	1.123
0.000	0.000	0.005	0.005	-0.010	0.005	0.034	1.768	1.108	1.104	1.104	1.123	1.118	1.123
-0.005	-0.005	-0.005	0.005	-0.024	0.010	0.034	1.782	1.104	1.104	1.104	1.123	1.118	1.123
-0.005	0.000	-0.005	0.005	-0.020	0.015	0.029	1.758	1.104	1.104	1.104	1.123	1.118	1.123
-0.005	-0.005	-0.005	0.010	0.024	0.005	0.029	1.772	1.104	1.104	1.108	1.123	1.133	1.123
0.010	-0.010	0.000	0.000	0.063	-0.005	0.029	1.797	1.113	1.104	1.104	1.123	1.138	1.123
0.005	0.005	0.000	0.005	0.088	-0.005	0.034	1.787	1.113	1.108	1.104	1.123	1.138	1.128
0.000	0.000	-0.005	0.005	0.098	0.000	0.034	1.807	1.113	1.108	1.108	1.128	1.138	1.133
-0.010	0.000	0.000	0.000	0.063	0.000	0.034	1.797	1.113	1.108	1.108	1.123	1.123	1.128
-0.010	-0.005	0.000	0.000	0.024	-0.005	0.034	1.777	1.113	1.108	1.108	1.123	1.113	1.123
-0.015	-0.010	0.000	0.000	-0.020	-0.015	0.034	1.802	1.113	1.108	1.104	1.123	1.104	1.113
-0.010	0.005	0.000	-0.005	-0.039	0.005	0.029	1.777	1.113	1.113	1.108	1.123	1.104	1.113
-0.010	0.005	-0.005	-0.005	-0.039	0.015	0.034	1.738	1.108	1.108	1.108	1.123	1.108	1.113
0.000	0.005	0.000	-0.005	-0.029	0.000	0.029	1.792	1.113	1.113	1.108	1.123	1.113	1.108
-0.005	-0.005	0.005	0.000	-0.029	0.010	0.034	1.787	1.108	1.108	1.108	1.128	1.113	1.113
0.000	-0.020	0.000	-0.010	-0.024	0.000	0.029	1.753	1.104	1.104	1.104	1.123	1.118	1.113
-0.010	-0.005	0.000	-0.005	-0.015	-0.005	0.034	1.782	1.104	1.104	1.104	1.123	1.118	1.113
-0.005	-0.005	0.000	0.000	-0.020	-0.005	0.034	1.748	1.099	1.108	1.104	1.123	1.123	1.113
0.000	0.005	0.000	0.000	-0.010	-0.034	0.034	1.768	1.104	1.104	1.104	1.123	1.118	1.108
0.000	-0.005	0.000	0.000	-0.010	-0.010	0.034	1.787	1.108	1.099	1.104	1.123	1.123	1.118
-0.005	-0.005	-0.005	0.010	-0.005	-0.010	0.034	1.748	1.099	1.099	1.099	1.123	1.123	1.118
0.000	-0.005	0.000	0.005	-0.020	-0.005	0.034	1.768	1.104	1.099	1.099	1.123	1.118	1.118
0.000	0.000	-0.005	0.005	-0.054	-0.015	0.034	1.733	1.099	1.099	1.099	1.118	1.104	1.113
-0.005	0.010	0.000	-0.010	-0.059	0.015	0.034	1.797	1.108	1.104	1.099	1.118	1.108	1.118
0.000	0.005	0.000	-0.015	-0.049	0.020	0.029	1.782	1.108	1.108	1.099	1.113	1.113	1.118
0.005	0.005	0.005	-0.010	-0.049	0.005	0.034	1.807	1.113	1.104	1.104	1.118	1.113	1.113
-0.005	0.005	0.000	-0.015	-0.029	0.005	0.029	1.763	1.108	1.104	1.104	1.118	1.118	1.113
0.000	0.005	-0.005	-0.015	-0.044	0.010	0.034	1.738	1.113	1.108	1.104	1.118	1.108	1.113
0.000	0.000	0.000	0.000	-0.044	0.000	0.034	1.802	1.113	1.108	1.104	1.128	1.113	1.108
0.010	0.005	0.000	0.010	-0.020	-0.020	0.034	1.743	1.152	1.118	1.108	1.128	1.123	1.108
-0.005	0.000	0.005	0.005	-0.010	-0.020	0.034	1.777	1.128	1.118	1.113	1.128	1.128	1.118
-0.015	0.000	0.000	0.010	0.059	0.005	0.034	1.733	1.123	1.123	1.113	1.133	1.152	1.133
-0.010	0.000	-0.005	0.000	0.171	0.020	0.029	1.777	1.123	1.118	1.118	1.133	1.172	1.147
0.010	-0.005	-0.005	0.000	0.176	0.000	0.034	1.787	1.123	1.118	1.118	1.133	1.162	1.147
0.020	-0.020	0.000	-0.010	0.112	0.039	0.034	1.792	1.123	1.118	1.118	1.128	1.133	1.152
0.024	-0.005	0.000	-0.010	0.054	0.015	0.029	1.807	1.128	1.123	1.113	1.128	1.118	1.128
0.024	-0.005	-0.005	-0.010	0.029	-0.010	0.029	1.782	1.123	1.123	1.113	1.128	1.108	1.118
0.020	-0.005	0.005	-0.005	0.005	0.000	0.029	1.816	1.118	1.123	1.118	1.133	1.108	1.118
0.010	-0.005	-0.005	0.000	-0.010	0.000	0.034	1.787	1.113	1.118	1.113	1.133	1.108	1.113
-0.010	0.005	0.000	0.005	-0.024	0.005	0.034	1.797	1.104	1.113	1.118	1.133	1.108	1.113
-0.020	0.010	0.000	0.005	-0.039	-0.005	0.034	1.812	1.108	1.113	1.113	1.133	1.113	1.113
-0.010	0.000	0.005	0.005	-0.049	-0.015	0.034	1.792	1.108	1.108	1.113	1.133	1.118	1.108
-0.010	0.005	0.005	0.015	-0.049	-0.010	0.034	1.782	1.108	1.108	1.113	1.138	1.118	1.113
-0.015	0.010	-0.005	0.005	-0.044	0.010	0.034	1.802	1.108	1.108	1.113	1.133	1.123	1.123
-0.020	0.005	0.000	0.005	-0.044	0.000	0.034	1.772	1.108	1.113	1.113	1.133	1.123	1.123
-0.010	-0.005	0.000	0.005	-0.034	0.000	0.034	1.768	1.104	1.108	1.108	1.128	1.133	1.123
0.005	-0.005	0.000	0.000	-0.024	-0.010	0.034	1.738	1.108	1.108	1.108	1.128	1.128	1.123
0.000	-0.015	0.005	0.000	-0.020	0.000	0.029	1.797	1.113	1.104	1.108	1.128	1.128	1.128
0.000	-0.010	0.000	0.000	-0.024	0.005	0.029	1.772	1.113	1.104	1.104	1.128	1.128	1.128
0.005	-0.029	0.000	0.000	-0.024	0.000	0.029	1.733	1.099	1.099	1.104	1.123	1.128	1.128
-0.005	-0.015	-0.005	-0.005	-0.020	0.005	0.034	1.738	1.094	1.104	1.104	1.123	1.123	1.128
-0.010	-0.005	-0.005	0.000	-0.044	0.005	0.029	1.772	1.104	1.104	1.104	1.123	1.113	1.123
-0.005	-0.010	0.000	0.000	-0.063	0.000	0.034	1.704	1.099	1.099	1.104	1.118	1.108	1.118
0.000	-0.005	-0.005	0.005	-0.054	0.010	0.034	1.772	1.099	1.099	1.104	1.118	1.113	1.123
0.000	0.000	-0.005	-0.005	-0.059	0.005	0.034	1.787	1.108	1.104	1.099	1.118	1.108	1.113
-0.005	0.010	0.000	0.000	-0.049	0.000	0.034	1.748	1.099	1.108	1.104	1.118	1.118	1.113
0.010	0.024	0.000	-0.005	0.000	-0.005	0.034	1.782	1.108	1.113	1.108	1.123	1.128	1.118
0.015	0.024	0.000	-0.005	0.020	-0.010	0.029	1.733	1.108	1.108	1.108	1.123	1.133	1.118
0.010	0.010	0.000	-0.005	0.049	-0.010	0.034	1.787	1.104	1.104	1.104	1.123	1.138	1.128
0.005	0.005	0.000	-0.005	0.083	-0.010	0.034	1.758	1.104	1.104	1.104	1.128	1.138	1.128
-0.005	-0.005	0.005	0.000	0.103	-0.010	0.029	1.782	1.104	1.099	1.104	1.128	1.143	1.133
-0.005	0.000	0.000	-0.005	0.098	-0.010	0.029	1.743	1.108	1.104	1.104	1.123	1.133	1.133
0.000	0.010	0.005	0.000	0.098	0.000	0.034	1.753	1.108	1.108	1.104	1.123	1.133	1.138
-0.005	0.005	0.000	0.000	0.049	0.010	0.034	1.768	1.108	1.104	1.104	1.123	1.113	1.133
-0.015	-0.005	0.000	-0.005	0.000	-0.024	0.034	1.753	1.104	1.099	1.099	1.123	1.099	1.113
-0.010	0.000	0.000	-0.005	-0.015	-0.029	0.029	1.787	1.108	1.099	1.099	1.118	1.099	1.108
-0.005	-0.005	-0.005	-0.005	-0.010	-0.039	0.034	1.675	1.094	1.099	1.099	1.118	1.104	1.104
-0.005	-0.005	0.000	-0.005	-0.010	-0.034	0.034	1.787	1.108	1.104	1.099	1.118	1.108	1.108
-0.010	-0.015	0.000	-0.005	0.005	-0.010	0.034	1.768	1.108	1.104	1.099	1.118	1.113	1.113
-0.010	-0.010	-0.005	0.000	0.054	-0.029	0.029	1.792	1.104	1.099	1.099	1.118	1.128	1.113
-0.005	-0.024	-0.005	0.000	0.073	0.010	0.034	1.777	1.104	1.099	1.099	1.118	1.133	1.128
-0.010	-0.010	0.000	-0.005	0.088	0.005	0.034	1.777	1.108	1.104	1.099	1.118	1.128	1.128
-0.010	-0.020	0.000	-0.005	0.054	-0.005	0.029	1.792	1.108	1.104	1.099	1.118	1.113	1.123
0.005	0.000	-0.005	0.000	0.015	0.000	0.029	1.699	1.108	1.108	1.099	1.118	1.104	1.113
0.005	0.005	-0.005	0.005	0.005	0.000	0.034	1.787	1.118	1.113	1.104	1.123	1.108	1.113
0.005	0.010	0.000	-0.005	-0.020	0.010	0.034	1.768	1.113	1.113	1.108	1.118	1.104	1.108
-0.005	0.015	0.000	0.005	-0.034	0.000	0.034	1.763	1.113	1.113	1.108	1.123	1.104	1.108
0.000	0.020	0.000	0.000	-0.024	0.005	0.034	1.787	1.108	1.113	1.113	1.123	1.108	1.108
0.005	0.010	-0.005	-0.005	-0.029	0.010	0.029	1.787	1.113	1.108	1.108	1.128	1.113	1.108
-0.005	0.010	0.000	-0.005	-0.020	0.015	0.034	1.802	1.108	1.113	1.113	1.128	1.118	1.113
0.000	0.000	-0.005	-0.005	-0.020	0.015	0.029	1.807	1.113	1.108	1.108	1.128	1.118	1.113
-0.005	0.000	0.000	0.000	-0.010	0.000	0.029	1.792	1.108	1.108	1.113	1.128	1.123	1.108
-0.010	-0.010	-0.005	0.005	-0.020	0.005	0.034	1.738	1.104	1.104	1.108	1.128	1.118	1.118
0.005	-0.015	-0.005	0.000	-0.039	0.000	0.029	1.758	1.108	1.099	1.104	1.128	1.113	1.108
0.005	-0.020	-0.005	0.000	-0.034	-0.015	0.029	1.787	1.108	1.104	1.104	1.123	1.118	1.108
0.005	-0.010	-0.005	0.000	-0.049	-0.010	0.029	1.772	1.104	1.104	1.104	1.123	1.113	1.113
0.005	-0.015	-0.005	-0.005	-0.078	-0.010	0.034	1.777	1.104	1.104	1.104	1.118	1.108	1.108
0.000	-0.005	-0.005	-0.005	-0.068	-0.005	0.029	1.768	1.104	1.108	1.104	1.123	1.113	1.113
0.005	-0.005	-0.005	-0.005	-0.088	0.020	0.034	1.738	1.104	1.104	1.104	1.123	1.108	1.118
0.015	-0.020	-0.010	0.000	-0.127	0.015	0.034	1.792	1.104	1.099	1.099	1.123	1.099	1.113
0.000	-0.010	0.000	0.000	-0.088	0.029	0.034	1.787	1.104	1.104	1.099	1.123	1.118	1.113
0.000	0.000	0.000	-0.005	-0.039	0.015	0.029	1.782	1.108	1.104	1.104	1.123	1.128	1.118
-0.015	0.010	-0.005	0.000	-0.005	0.000	0.034	1.792	1.108	1.108	1.104	1.123	1.138	1.118
0.005	0.015	-0.005	0.000	0.054	-0.010	0.034	1.719	1.099	1.108	1.108	1.123	1.147	1.128
-0.005	0.010	-0.005	-0.005	0.054	0.000	0.034	1.763	1.099	1.104	1.104	1.123	1.138	1.133
-0.005	0.020	0.000	0.000	0.039	-0.005	0.034	1.787	1.099	1.104	1.108	1.123	1.128	1.133
-0.005	0.015	0.000	0.000	0.005	0.015	0.034	1.758	1.104	1.099	1.104	1.123	1.118	1.128
-0.005	0.024	0.000	-0.005	0.005	0.020	0.029	1.787	1.104	1.104	1.104	1.123	1.118	1.128
0.005	-0.005	0.000	0.000	0.044	0.005	0.029	1.748	1.108	1.099	1.099	1.123	1.128	1.123
-0.010	-0.010	0.000	-0.005	0.063	0.010	0.029	1.797	1.108	1.094	1.099	1.123	1.128	1.128
-0.005	-0.005	0.000	0.000	0.059	0.000	0.034	1.763	1.113	1.099	1.099	1.123	1.123	1.123
-0.005	-0.020	-0.010	0.000	0.083	0.010	0.029	1.743	1.104	1.099	1.094	1.118	1.128	1.128
-0.005	-0.010	-0.005	0.000	0.049	0.010	0.034	1.733	1.104	1.099	1.099	1.118	1.118	1.123
0.005	-0.005	-0.005	0.000	0.015	0.000	0.034	1.777	1.108	1.104	1.099	1.113	1.104	1.113
-0.005	-0.010	-0.015	0.010	0.000	-0.005	0.034	1.748	1.108	1.104	1.099	1.118	1.104	1.104
-0.005	0.000	-0.005	0.010	-0.005	-0.010	0.034	1.777	1.104	1.104	1.099	1.118	1.104	1.104
-0.005	-0.005	-0.005	0.005	-0.015	-0.015	0.029	1.797	1.108	1.104	1.099	1.118	1.104	1.104
-0.010	0.010	0.000	0.000	-0.024	0.000	0.034	1.802	1.108	1.108	1.104	1.118	1.104	1.108
-0.005	0.020	0.000	-0.005	-0.039	-0.010	0.034	1.729	1.104	1.108	1.104	1.118	1.104	1.104
0.005	-0.005	-0.005	-0.005	-0.029	-0.020	0.034	1.782	1.104	1.099	1.104	1.118	1.108	1.099
0.005	-0.015	-0.005	-0.005	-0.015	0.000	0.029	1.802	1.108	1.099	1.104	1.118	1.113	1.108
0.000	-0.005	0.000	-0.005	-0.020	-0.029	0.034	1.772	1.108	1.104	1.104	1.118	1.113	1.104
0.000	-0.010	0.000	-0.005	-0.020	-0.005	0.029	1.807	1.108	1.099	1.104	1.123	1.113	1.113
-0.005	-0.015	0.000	-0.005	-0.029	-0.005	0.029	1.763	1.108	1.104	1.099	1.123	1.113	1.108
0.005	-0.010	0.005	-0.005	-0.015	0.020	0.029	1.797	1.108	1.104	1.104	1.123	1.118	1.123
-0.010	0.000	-0.005	0.005	-0.020	0.010	0.029	1.763	1.108	1.108	1.104	1.123	1.118	1.118
-0.010	0.005	-0.005	0.005	0.000	0.010	0.034	1.787	1.113	1.108	1.104	1.123	1.123	1.118
0.000	-0.005	-0.005	0.005	0.010	0.010	0.034	1.772	1.113	1.104	1.104	1.123	1.123	1.118
0.000	-0.015	0.000	0.000	0.015	0.005	0.029	1.816	1.113	1.104	1.104	1.123	1.123	1.118
-0.005	-0.015	0.000	0.015	0.000	-0.015	0.034	1.748	1.108	1.104	1.104	1.123	1.118	1.113
-0.005	-0.020	-0.005	0.020	-0.005	-0.034	0.034	1.738	1.104	1.104	1.104	1.123	1.118	1.108
0.000	-0.010	0.000	0.015	0.024	-0.010	0.034	1.777	1.104	1.104	1.104	1.123	1.128	1.123
0.000	0.000	0.000	0.000	0.015	0.005	0.034	1.787	1.104	1.108	1.104	1.118	1.118	1.123
0.000	-0.010	0.000	-0.010	0.000	-0.024	0.029	1.743	1.104	1.104	1.104	1.118	1.113	1.113
-0.005	0.010	0.000	-0.010	0.024	-0.029	0.034	1.743	1.104	1.108	1.108	1.118	1.123	1.113
-0.005	0.015	-0.005	-0.015	0.063	-0.029	0.034	1.768	1.099	1.108	1.104	1.118	1.128	1.123
0.005	0.054	0.000	-0.024	0.044	-0.034	0.029	1.812	1.108	1.118	1.108	1.118	1.118	1.113
0.000	0.015	0.000	-0.015	-0.044	-0.015	0.034	1.738	1.104	1.104	1.104	1.123	1.094	1.113
-0.005	0.005	0.000	-0.005	-0.068	0.015	0.034	1.777	1.113	1.104	1.104	1.123	1.099	1.113
-0.005	0.005	0.000	-0.010	-0.005	0.015	0.034	1.758	1.104	1.104	1.104	1.123	1.123	1.123
-0.010	0.000	-0.005	-0.005	0.020	0.010	0.034	1.772	1.104	1.104	1.104	1.123	1.128	1.118
-0.005	-0.005	-0.005	0.000	0.029	-0.005	0.034	1.738	1.108	1.099	1.099	1.128	1.128	1.118
0.000	-0.010	0.000	0.005	0.015	0.020	0.034	1.792	1.108	1.099	1.104	1.123	1.123	1.123
0.010	-0.015	0.000	0.000	-0.005	0.015	0.029	1.812	1.113	1.104	1.104	1.123	1.118	1.123
0.005	-0.005	-0.005	0.000	-0.005	0.005	0.029	1.792	1.113	1.108	1.104	1.123	1.118	1.118
0.000	-0.005	0.000	0.010	0.000	0.005	0.034	1.753	1.108	1.108	1.104	1.123	1.118	1.118
0.000	0.005	0.000	-0.005	-0.005	0.005	0.029	1.807	1.113	1.108	1.104	1.118	1.113	1.113
0.000	0.000	0.000	0.000	-0.010	0.000	0.034	1.812	1.113	1.108	1.104	1.123	1.113	1.113
0.000	-0.015	0.000	-0.005	-0.010	0.000	0.034	1.782	1.113	1.108	1.104	1.123	1.118	1.108
-0.005	0.000	0.000	-0.005	-0.005	0.000	0.034	1.782	1.108	1.108	1.108	1.118	1.113	1.118
0.005	0.015	-0.005	0.000	0.000	-0.005	0.029	1.743	1.104	1.113	1.108	1.123	1.118	1.113
0.005	0.010	0.000	-0.005	-0.005	0.000	0.034	1.787	1.104	1.108	1.108	1.123	1.118	1.113
0.005	0.005	0.000	0.000	-0.005	-0.020	0.034	1.787	1.104	1.108	1.108	1.128	1.118	1.113
-0.005	0.000	0.000	0.005	0.000	0.005	0.029	1.802	1.108	1.108	1.108	1.128	1.123	1.123
0.000	0.000	0.000	0.005	0.000	0.000	0.034	1.763	1.108	1.108	1.108	1.123	1.123	1.118
-0.005	0.010	0.005	0.000	0.005	0.000	0.029	1.782	1.104	1.108	1.108	1.123	1.123	1.123
0.000	0.000	0.000	0.000	-0.005	-0.005	0.029	1.787	1.108	1.104	1.108	1.128	1.123	1.118
-0.010	0.015	0.000	0.000	0.000	-0.005	0.034	1.787	1.113	1.108	1.108	1.123	1.123	1.118
-0.005	0.005	0.000	0.000	0.000	0.010	0.034	1.802	1.113	1.108	1.108	1.123	1.123	1.123
-0.005	-0.020	0.000	-0.005	-0.005	0.010	0.034	1.792	1.108	1.104	1.104	1.123	1.118	1.123
0.010	-0.005	-0.005	-0.005	0.000	0.005	0.034	1.777	1.108	1.108	1.104	1.123	1.123	1.123
0.005	-0.010	-0.005	-0.005	0.005	0.000	0.034	1.777	1.108	1.104	1.104	1.123	1.123	1.118
-0.005	-0.015	0.000	-0.005	-0.005	-0.029	0.034	1.782	1.108	1.104	1.104	1.123	1.113	1.108
0.000	0.000	0.000	0.000	0.005	-0.034	0.034	1.797	1.104	1.108	1.104	1.123	1.123	1.113
0.000	-0.005	0.000	0.005	0.000	-0.015	0.034	1.772	1.104	1.104	1.104	1.123	1.118	1.118
-0.005	-0.005	-0.005	0.005	0.005	-0.015	0.034	1.797	1.108	1.104	1.104	1.123	1.118	1.118
-0.005	-0.005	0.000	0.005	-0.005	-0.005	0.034	1.743	1.104	1.104	1.104	1.123	1.118	1.118
-0.005	0.000	-0.005	0.020	0.000	0.005	0.034	1.763	1.099	1.104	1.104	1.128	1.123	1.123
0.000	-0.005	0.000	0.010	-0.005	0.000	0.034	1.768	1.099	1.104	1.104	1.123	1.123	1.123
-0.005	0.000	0.000	0.010	0.000	0.005	0.034	1.733	1.099	1.104	1.104	1.123	1.123	1.123
-0.005	0.015	0.000	-0.005	0.000	0.000	0.029	1.782	1.104	1.104	1.104	1.118	1.118	1.118
0.000	0.005	0.000	-0.015	0.010	-0.015	0.034	1.797	1.108	1.104	1.104	1.118	1.118	1.113
0.000	0.005	0.000	-0.020	0.000	0.005	0.029	1.797	1.108	1.104	1.104	1.118	1.118	1.118
0.005	-0.005	0.005	-0.020	0.000	0.010	0.034	1.763	1.118	1.108	1.104	1.118	1.113	1.118
0.000	-0.010	0.000	-0.024	-0.005	0.000	0.034	1.763	1.113	1.108	1.104	1.118	1.113	1.113
-0.005	-0.010	-0.005	-0.010	0.000	0.020	0.034	1.777	1.108	1.104	1.104	1.123	1.113	1.118
0.000	0.000	0.000	0.000	-0.005	-0.005	0.029	1.792	1.108	1.104	1.108	1.128	1.113	1.108
-0.015	0.000	0.005	0.015	-0.005	0.005	0.034	1.777	1.104	1.104	1.108	1.128	1.118	1.118
0.015	-0.005	0.005	0.024	-0.010	0.005	0.034	1.816	1.118	1.104	1.104	1.133	1.123	1.118
0.015	-0.010	0.000	0.034	-0.010	0.005	0.029	1.758	1.108	1.104	1.104	1.128	1.123	1.118
0.015	-0.005	-0.005	0.015	-0.005	0.005	0.029	1.753	1.104	1.104	1.104	1.123	1.123	1.118
0.005	-0.005	-0.005	-0.005	-0.005	0.000	0.029	1.768	1.104	1.108	1.104	1.113	1.118	1.118
0.000	0.000	0.005	-0.015	0.005	-0.005	0.034	1.758	1.099	1.104	1.104	1.113	1.118	1.118
0.000	0.029	0.000	-0.029	0.005	0.015	0.034	1.802	1.104	1.108	1.104	1.113	1.118	1.123
0.005	0.010	0.005	-0.024	0.000	0.015	0.029	1.792	1.108	1.104	1.104	1.118	1.113	1.118
-0.005	0.000	0.000	-0.020	0.000	0.015	0.034	1.768	1.104	1.099	1.104	1.123	1.113	1.118
-0.020	0.010	-0.005	-0.005	0.020	0.010	0.034	1.768	1.099	1.104	1.104	1.123	1.123	1.118
-0.015	0.010	0.000	0.000	0.015	0.015	0.034	1.782	1.104	1.099	1.104	1.128	1.123	1.118
-0.015	0.000	0.000	0.005	0.015	0.010	0.034	1.787	1.104	1.099	1.104	1.128	1.123	1.118
-0.015	0.000	0.000	0.010	-0.005	0.015	0.034	1.782	1.104	1.099	1.099	1.123	1.118	1.118
-0.029	-0.005	0.000	0.010	0.005	-0.020	0.029	1.782	1.104	1.099	1.099	1.123	1.118	1.108
-0.015	-0.015	0.000	0.005	-0.010	-0.049	0.029	1.782	1.108	1.099	1.099	1.118	1.108	1.099
-0.020	-0.015	-0.005	0.005	-0.024	-0.059	0.029	1.772	1.108	1.099	1.094	1.118	1.108	1.099
-0.005	-0.029	0.005	-0.005	-0.024	-0.054	0.034	1.797	1.108	1.099	1.099	1.113	1.108	1.104
-0.005	-0.020	-0.005	-0.005	-0.020	-0.034	0.034	1.714	1.099	1.099	1.094	1.113	1.113	1.108
0.000	-0.010	-0.005	-0.005	-0.020	-0.024	0.034	1.753	1.099	1.104	1.099	1.113	1.113	1.113
0.005	-0.005	-0.005	-0.005	-0.010	-0.010	0.034	1.787	1.104	1.104	1.099	1.118	1.113	1.113
0.005	0.000	-0.005	-0.005	0.005	0.010	0.034	1.792	1.108	1.108	1.104	1.118	1.118	1.123
0.034	0.010	-0.005	0.005	0.015	0.020	0.034	1.772	1.118	1.108	1.108	1.123	1.123	1.123
0.059	0.000	-0.005	0.005	0.020	0.010	0.034	1.802	1.118	1.108	1.108	1.123	1.123	1.118
0.029	0.010	-0.005	0.010	0.020	0.015	0.029	1.772	1.108	1.113	1.108	1.123	1.123	1.118
0.000	0.015	0.005	0.000	0.015	0.005	0.034	1.802	1.104	1.108	1.108	1.123	1.123	1.118
-0.044	0.015	0.005	-0.005	0.010	0.015	0.029	1.763	1.094	1.104	1.108	1.123	1.118	1.118
-0.063	-0.005	0.005	-0.005	-0.010	-0.005	0.034	1.763	1.089	1.094	1.104	1.118	1.113	1.113
-0.039	-0.005	0.005	-0.010	-0.005	0.015	0.034	1.772	1.099	1.094	1.104	1.118	1.118	1.118
-0.005	-0.010	0.000	-0.010	0.000	0.010	0.034	1.787	1.113	1.099	1.099	1.118	1.118	1.118
0.015	-0.010	-0.005	-0.010	0.000	-0.010	0.034	1.772	1.118	1.104	1.099	1.118	1.113	1.108
-0.005	0.005	-0.005	-0.005	-0.015	0.024	0.029	1.763	1.108	1.108	1.104	1.118	1.113	1.118
0.010	0.000	0.000	0.000	-0.015	0.029	0.034	1.802	1.108	1.108	1.104	1.123	1.118	1.118
0.010	0.000	-0.005	0.005	0.020	0.010	0.034	1.777	1.108	1.108	1.104	1.123	1.128	1.118
0.015	-0.005	-0.005	-0.005	0.039	0.000	0.029	1.768	1.113	1.108	1.104	1.118	1.123	1.118
0.010	-0.015	-0.005	-0.005	0.020	-0.010	0.034	1.792	1.104	1.104	1.104	1.123	1.118	1.113
0.015	-0.005	0.000	0.000	0.005	0.005	0.029	1.748	1.104	1.104	1.104	1.118	1.113	1.118
0.005	-0.005	-0.005	0.000	-0.010	0.000	0.029	1.768	1.104	1.104	1.104	1.118	1.108	1.113
-0.005	0.005	-0.005	0.000	-0.010	-0.005	0.029	1.792	1.104	1.108	1.104	1.123	1.113	1.108
-0.010	-0.010	-0.005	0.010	-0.034	0.000	0.034	1.777	1.099	1.099	1.099	1.123	1.108	1.108
-0.005	0.005	-0.005	0.024	-0.024	-0.020	0.034	1.787	1.099	1.104	1.104	1.128	1.113	1.108
-0.010	-0.005	-0.005	0.020	-0.044	-0.039	0.034	1.782	1.104	1.104	1.104	1.123	1.108	1.099
-0.015	-0.005	-0.005	0.020	-0.044	-0.039	0.034	1.753	1.099	1.099	1.099	1.123	1.108	1.104
-0.015	-0.005	0.000	0.005	-0.044	-0.024	0.034	1.777	1.099	1.099	1.099	1.118	1.108	1.108
-0.010	0.005	0.000	-0.005	-0.103	0.005	0.034	1.768	1.099	1.104	1.099	1.113	1.099	1.113
-0.010	0.005	0.000	-0.010	-0.054	0.020	0.029	1.753	1.099	1.099	1.099	1.118	1.118	1.118
-0.005	0.015	-0.005	-0.015	0.059	0.029	0.034	1.802	1.108	1.104	1.104	1.118	1.147	1.128
0.000	0.005	-0.005	-0.010	0.068	0.024	0.029	1.787	1.113	1.104	1.099	1.123	1.138	1.128
-0.005	0.020	0.000	-0.005	0.083	0.010	0.034	1.792	1.108	1.108	1.104	1.123	1.138	1.128
0.000	-0.010	-0.005	-0.010	0.068	0.000	0.029	1.797	1.108	1.099	1.099	1.118	1.123	1.128
0.000	-0.020	-0.005	-0.005	0.024	0.000	0.034	1.738	1.104	1.099	1.099	1.118	1.113	1.123
0.005	-0.020	-0.005	-0.005	0.024	0.000	0.029	1.758	1.104	1.099	1.099	1.118	1.113	1.113
0.000	-0.020	-0.005	-0.010	0.024	0.010	0.034	1.797	1.108	1.099	1.099	1.113	1.113	1.118
0.000	-0.044	0.000	-0.005	-0.005	0.015	0.029	1.787	1.104	1.094	1.099	1.118	1.104	1.113
0.000	-0.015	-0.005	0.000	-0.024	-0.010	0.034	1.787	1.108	1.104	1.099	1.118	1.099	1.104
0.015	0.005	-0.005	0.000	-0.020	0.005	0.029	1.758	1.108	1.113	1.104	1.118	1.108	1.108
0.005	0.015	-0.005	0.000	0.000	0.000	0.034	1.787	1.104	1.113	1.108	1.118	1.113	1.108
0.015	-0.005	0.000	0.000	0.000	0.005	0.034	1.768	1.104	1.104	1.104	1.123	1.113	1.113
0.010	-0.005	0.000	0.000	-0.005	-0.010	0.034	1.772	1.104	1.104	1.104	1.123	1.113	1.108
0.015	0.000	-0.005	0.005	0.000	-0.010	0.034	1.777	1.104	1.104	1.104	1.123	1.113	1.108
0.000	0.000	0.005	0.010	0.000	-0.005	0.034	1.802	1.099	1.104	1.104	1.123	1.118	1.113
-0.010	0.020	0.000	0.005	0.005	-0.005	0.034	1.724	1.094	1.108	1.104	1.123	1.123	1.113
-0.015	0.020	0.000	-0.005	0.005	0.000	0.029	1.777	1.094	1.104	1.104	1.123	1.118	1.118
-0.005	0.010	0.000	0.000	-0.010	-0.005	0.034	1.758	1.099	1.099	1.104	1.123	1.113	1.113
-0.005	-0.005	0.005	0.000	-0.010	-0.005	0.034	1.797	1.099	1.094	1.099	1.118	1.118	1.113
-0.015	-0.005	0.000	-0.010	-0.010	-0.005	0.034	1.777	1.104	1.094	1.094	1.118	1.113	1.113
-0.010	0.029	0.000	-0.005	-0.010	0.000	0.034	1.772	1.108	1.108	1.104	1.118	1.113	1.118
0.000	0.059	-0.005	0.000	-0.005	0.005	0.034	1.802	1.108	1.113	1.104	1.118	1.118	1.118
0.005	0.039	-0.005	0.000	-0.005	0.010	0.029	1.763	1.108	1.108	1.104	1.118	1.113	1.118
-0.005	-0.024	-0.010	0.000	-0.005	0.000	0.034	1.763	1.104	1.089	1.094	1.118	1.113	1.113
-0.005	-0.044	-0.005	0.000	-0.005	0.000	0.029	1.782	1.104	1.084	1.094	1.118	1.113	1.113
0.005	-0.029	-0.005	0.010	-0.010	-0.015	0.029	1.802	1.104	1.094	1.094	1.118	1.113	1.108
0.005	-0.015	-0.005	0.010	-0.005	-0.010	0.034	1.729	1.099	1.099	1.094	1.113	1.113	1.108
0.005	-0.010	0.000	0.000	-0.005	-0.020	0.034	1.782	1.104	1.104	1.099	1.113	1.113	1.108
-0.010	-0.029	0.000	-0.005	0.005	-0.010	0.029	1.787	1.099	1.094	1.099	1.113	1.113	1.113
-0.005	-0.005	0.000	-0.010	0.010	0.000	0.034	1.738	1.099	1.104	1.099	1.113	1.113	1.113
-0.010	-0.005	0.000	-0.005	0.015	0.000	0.034	1.802	1.099	1.104	1.099	1.118	1.113	1.118
0.000	-0.020	0.000	0.000	0.005	0.010	0.034	1.743	1.104	1.099	1.099	1.118	1.113	1.118
-0.005	-0.015	0.000	-0.010	0.000	0.010	0.034	1.792	1.104	1.099	1.099	1.118	1.108	1.113
0.005	-0.005	-0.005	-0.010	-0.005	-0.005	0.034	1.782	1.108	1.104	1.099	1.113	1.108	1.108
0.000	0.000	0.000	-0.010	0.000	-0.020	0.029	1.763	1.099	1.108	1.099	1.118	1.108	1.104
-0.005	0.005	0.005	-0.005	-0.005	0.000	0.034	1.787	1.104	1.104	1.104	1.118	1.113	1.113
-0.005	0.005	0.000	0.010	-0.005	-0.005	0.029	1.738	1.099	1.104	1.104	1.123	1.113	1.108
-0.010	0.005	0.005	0.010	0.005	-0.005	0.034	1.797	1.099	1.104	1.104	1.123	1.118	1.113
-0.010	0.005	0.000	0.020	0.000	0.000	0.029	1.738	1.094	1.099	1.099	1.123	1.118	1.113
-0.010	0.015	0.000	0.010	0.000	0.000	0.034	1.768	1.094	1.099	1.099	1.118	1.118	1.113
0.000	0.000	-0.005	0.000	0.005	-0.005	0.034	1.719	1.099	1.094	1.099	1.113	1.113	1.113
0.005	0.010	-0.005	-0.015	0.000	-0.005	0.034	1.748	1.099	1.099	1.094	1.108	1.113	1.108
0.000	0.024	0.000	-0.029	0.000	0.015	0.034	1.753	1.094	1.099	1.099	1.108	1.108	1.118
0.005	0.010	0.000	-0.024	0.010	0.005	0.034	1.763	1.094	1.094	1.099	1.113	1.113	1.113
-0.010	0.015	-0.005	-0.020	0.005	0.005	0.029	1.748	1.099	1.099	1.094	1.113	1.108	1.113
-0.005	0.000	0.000	-0.005	0.005	-0.015	0.029	1.777	1.099	1.094	1.094	1.118	1.108	1.104
0.005	0.000	0.000	0.005	-0.005	0.005	0.029	1.743	1.094	1.094	1.094	1.118	1.108	1.108
0.005	0.000	0.000	0.005	-0.015	0.010	0.029	1.748	1.099	1.099	1.099	1.118	1.108	1.113
-0.005	0.005	0.000	0.015	-0.015	-0.005	0.034	1.797	1.104	1.099	1.094	1.118	1.108	1.108
-0.010	0.000	-0.005	0.015	-0.010	-0.005	0.034	1.743	1.099	1.094	1.094	1.113	1.113	1.108
-0.005	0.000	0.000	0.015	-0.010	0.005	0.034	1.777	1.104	1.094	1.094	1.118	1.113	1.113
-0.015	-0.015	0.000	0.010	-0.010	-0.005	0.034	1.748	1.104	1.094	1.094	1.113	1.113	1.108
-0.015	-0.010	0.000	0.010	-0.010	0.000	0.034	1.797	1.108	1.094	1.094	1.118	1.108	1.108
-0.005	-0.010	0.000	0.005	-0.005	0.005	0.034	1.733	1.094	1.094	1.094	1.113	1.108	1.113
-0.010	-0.005	0.000	0.000	-0.005	-0.010	0.034	1.763	1.094	1.094	1.094	1.113	1.108	1.104
0.005	-0.005	0.000	-0.005	0.000	-0.005	0.034	1.738	1.099	1.099	1.094	1.108	1.113	1.108
-0.010	-0.020	0.000	-0.005	0.005	0.015	0.034	1.821	1.099	1.094	1.094	1.108	1.113	1.113
0.010	-0.010	0.000	0.000	0.005	0.000	0.034	1.792	1.108	1.099	1.094	1.113	1.108	1.108
0.000	-0.010	0.000	0.000	0.005	0.010	0.034	1.782	1.104	1.099	1.094	1.113	1.108	1.108
0.010	-0.010	0.000	0.000	-0.005	0.000	0.029	1.792	1.108	1.104	1.094	1.113	1.108	1.108
0.005	-0.005	0.000	-0.010	-0.005	-0.020	0.034	1.758	1.108	1.104	1.099	1.113	1.104	1.099
0.010	0.005	0.000	0.000	0.000	-0.020	0.034	1.782	1.104	1.108	1.104	1.118	1.108	1.104
0.005	0.000	0.000	0.015	-0.005	-0.010	0.034	1.743	1.099	1.104	1.104	1.123	1.108	1.104
0.000	-0.005	0.000	0.010	-0.005	-0.010	0.034	1.763	1.099	1.104	1.104	1.118	1.108	1.113
0.000	0.000	0.000	0.005	-0.005	0.005	0.034	1.753	1.094	1.099	1.099	1.118	1.113	1.113
-0.005	0.010	-0.005	0.000	-0.005	-0.005	0.029	1.743	1.089	1.099	1.099	1.113	1.113	1.113
0.000	-0.005	0.000	-0.015	0.000	0.005	0.029	1.743	1.094	1.094	1.099	1.113	1.113	1.113
-0.005	0.000	-0.005	-0.020	0.010	0.010	0.034	1.782	1.099	1.094	1.099	1.108	1.113	1.113
0.010	0.000	0.000	-0.020	0.005	0.010	0.029	1.772	1.104	1.099	1.099	1.113	1.108	1.113
-0.020	0.005	-0.005	-0.015	0.000	-0.010	0.029	1.812	1.094	1.099	1.099	1.113	1.108	1.104
-0.034	-0.005	-0.005	-0.015	0.000	0.010	0.034	1.807	1.094	1.089	1.094	1.113	1.108	1.113
-0.010	-0.010	-0.005	-0.005	0.005	0.010	0.029	1.768	1.104	1.094	1.094	1.113	1.108	1.108
0.010	-0.005	0.000	-0.005	0.005	0.000	0.034	1.802	1.113	1.099	1.094	1.118	1.108	1.104
0.020	0.000	-0.005	0.005	0.000	-0.005	0.034	1.792	1.113	1.104	1.094	1.118	1.108	1.108
0.024	-0.010	-0.005	0.005	0.000	0.005	0.034	1.758	1.113	1.104	1.094	1.118	1.113	1.108
0.024	-0.005	-0.005	0.000	0.000	0.010	0.034	1.802	1.113	1.108	1.099	1.118	1.108	1.108
0.005	0.005	0.000	0.000	0.005	-0.005	0.034	1.777	1.104	1.108	1.099	1.118	1.113	1.104
0.000	0.000	0.005	0.005	-0.005	0.000	0.034	1.763	1.099	1.104	1.099	1.118	1.108	1.108
-0.024	0.000	0.005	0.005	-0.015	0.015	0.034	1.748	1.094	1.099	1.099	1.118	1.108	1.113
-0.024	0.000	0.000	0.000	-0.005	0.005	0.034	1.733	1.089	1.094	1.099	1.118	1.113	1.108
-0.029	-0.005	0.000	0.000	-0.005	-0.010	0.029	1.768	1.094	1.094	1.094	1.118	1.108	1.108
-0.015	0.000	-0.005	0.005	-0.015	-0.005	0.029	1.763	1.099	1.094	1.094	1.113	1.108	1.108
-0.015	-0.005	-0.005	0.005	-0.010	-0.015	0.034	1.763	1.099	1.094	1.094	1.113	1.113	1.108
-0.010	0.005	-0.005	0.000	-0.010	-0.015	0.034	1.772	1.099	1.099	1.094	1.113	1.108	1.108
-0.010	-0.005	-0.005	0.000	-0.024	-0.015	0.034	1.777	1.099	1.094	1.094	1.113	1.108	1.104
-0.010	-0.010	0.000	0.005	-0.059	-0.010	0.034	1.797	1.099	1.094	1.094	1.113	1.099	1.104
0.000	-0.010	0.000	0.005	-0.093	0.015	0.029	1.802	1.104	1.094	1.094	1.113	1.094	1.108
0.000	-0.015	0.000	0.000	-0.068	0.039	0.029	1.777	1.104	1.099	1.094	1.113	1.104	1.113
0.010	-0.005	0.000	-0.005	-0.068	0.034	0.029	1.782	1.108	1.099	1.099	1.113	1.104	1.108
0.005	-0.010	0.000	-0.005	-0.083	0.029	0.034	1.724	1.099	1.099	1.094	1.108	1.099	1.104
0.010	-0.010	0.000	-0.005	-0.103	0.005	0.029	1.748	1.094	1.094	1.094	1.113	1.099	1.094
0.015	-0.005	0.005	-0.005	-0.068	-0.020	0.034	1.777	1.099	1.099	1.094	1.113	1.108	1.094
0.000	0.020	0.000	0.000	-0.029	-0.020	0.029	1.743	1.094	1.104	1.099	1.113	1.118	1.099
0.005	0.020	0.000	0.000	0.005	-0.044	0.034	1.782	1.094	1.099	1.099	1.118	1.128	1.099
-0.005	0.020	-0.005	-0.005	0.044	-0.073	0.029	1.777	1.089	1.094	1.099	1.118	1.133	1.104
-0.010	0.010	-0.005	-0.005	0.083	-0.068	0.034	1.763	1.089	1.094	1.094	1.118	1.138	1.113
-0.005	0.010	0.000	-0.005	0.098	-0.083	0.034	1.694	1.089	1.089	1.094	1.118	1.133	1.118
-0.005	0.015	-0.005	-0.005	0.122	-0.073	0.034	1.787	1.094	1.089	1.094	1.118	1.138	1.123
0.000	0.024	-0.005	-0.005	0.229	-0.029	0.034	1.763	1.099	1.094	1.094	1.118	1.162	1.147
-0.005	0.015	0.000	-0.005	0.269	0.005	0.034	1.802	1.104	1.099	1.094	1.118	1.157	1.162
0.000	0.005	0.000	0.000	0.249	0.049	0.034	1.772	1.113	1.099	1.094	1.118	1.143	1.167
0.005	0.000	-0.005	0.000	0.239	0.059	0.029	1.797	1.113	1.099	1.099	1.118	1.133	1.157
0.010	-0.015	-0.005	0.005	0.190	0.059	0.029	1.787	1.118	1.099	1.094	1.113	1.113	1.143
0.005	0.000	-0.005	-0.005	0.142	0.054	0.034	1.777	1.118	1.108	1.099	1.113	1.099	1.128
0.010	0.000	-0.005	-0.005	0.132	0.049	0.034	1.812	1.123	1.113	1.099	1.113	1.099	1.118
0.005	-0.010	0.000	-0.005	0.049	0.039	0.034	1.777	1.113	1.108	1.104	1.113	1.079	1.104
0.010	-0.024	0.000	-0.005	-0.059	0.020	0.034	1.719	1.108	1.104	1.104	1.113	1.060	1.084
0.005	-0.034	-0.005	0.000	-0.107	0.010	0.034	1.768	1.108	1.099	1.099	1.113	1.060	1.074
-0.015	-0.029	-0.005	0.010	-0.146	-0.005	0.029	1.758	1.099	1.099	1.099	1.113	1.060	1.064
0.010	-0.024	-0.010	0.005	-0.176	-0.010	0.029	1.782	1.099	1.099	1.099	1.113	1.064	1.060
0.005	0.005	-0.005	0.005	-0.176	-0.020	0.034	1.753	1.094	1.104	1.099	1.118	1.079	1.064
-0.005	0.010	-0.005	0.010	-0.146	-0.015	0.029	1.787	1.089	1.099	1.104	1.123	1.099	1.074
-0.005	0.010	0.000	0.005	-0.137	-0.010	0.034	1.802	1.099	1.099	1.104	1.118	1.104	1.084
-0.005	0.020	-0.005	0.000	-0.117	-0.020	0.029	1.772	1.094	1.099	1.099	1.118	1.113	1.089
-0.005	0.010	0.000	0.000	-0.093	-0.020	0.034	1.807	1.094	1.094	1.099	1.118	1.118	1.094
-0.010	0.024	0.000	0.005	-0.068	-0.010	0.029	1.743	1.094	1.099	1.099	1.118	1.128	1.108
-0.015	0.039	0.000	0.000	-0.063	-0.005	0.034	1.753	1.089	1.104	1.099	1.118	1.128	1.113
-0.010	0.015	0.000	0.000	-0.039	-0.005	0.034	1.743	1.089	1.089	1.099	1.118	1.128	1.123
0.005	-0.005	-0.005	-0.005	-0.024	-0.015	0.034	1.758	1.094	1.089	1.094	1.113	1.128	1.118
0.000	-0.005	0.000	-0.010	-0.034	0.010	0.034	1.763	1.099	1.089	1.094	1.108	1.118	1.128
-0.005	0.010	0.000	-0.015	-0.020	0.000	0.034	1.797	1.104	1.099	1.094	1.108	1.118	1.123
0.000	0.049	0.005	-0.005	-0.015	0.010	0.029	1.753	1.104	1.108	1.099	1.113	1.118	1.123
0.000	-0.015	0.000	-0.005	-0.010	-0.005	0.029	1.787	1.104	1.089	1.094	1.113	1.113	1.118
0.005	-0.063	0.000	-0.005	0.000	0.005	0.029	1.816	1.108	1.079	1.089	1.113	1.113	1.118
0.005	-0.044	0.000	0.005	0.000	-0.015	0.034	1.729	1.099	1.094	1.089	1.108	1.113	1.113
0.010	-0.020	-0.005	-0.005	-0.005	0.000	0.034	1.743	1.104	1.099	1.089	1.108	1.108	1.113
0.005	-0.015	-0.005	-0.005	0.000	-0.015	0.034	1.758	1.099	1.099	1.094	1.108	1.108	1.108
0.000	0.005	-0.005	0.000	0.010	0.000	0.034	1.777	1.099	1.104	1.099	1.108	1.108	1.118
-0.020	0.005	-0.005	-0.005	0.010	0.005	0.034	1.758	1.099	1.104	1.099	1.113	1.113	1.113
-0.015	0.000	0.000	-0.005	0.010	0.005	0.034	1.821	1.099	1.099	1.099	1.113	1.108	1.113
-0.010	0.005	0.000	-0.005	0.005	-0.005	0.034	1.763	1.099	1.104	1.099	1.113	1.108	1.108
-0.005	0.020	-0.005	0.000	0.000	0.005	0.029	1.792	1.104	1.108	1.099	1.118	1.108	1.108
-0.010	0.010	0.000	0.000	0.005	0.010	0.034	1.753	1.104	1.104	1.104	1.118	1.113	1.113
0.000	0.015	0.005	0.000	0.005	-0.005	0.029	1.768	1.113	1.108	1.104	1.118	1.113	1.108
-0.010	0.005	0.005	-0.005	0.010	-0.015	0.029	1.787	1.113	1.104	1.104	1.118	1.113	1.104
0.000	0.000	0.000	-0.005	0.015	0.005	0.029	1.792	1.108	1.104	1.104	1.118	1.113	1.113
-0.010	-0.005	-0.005	-0.005	0.000	0.005	0.034	1.802	1.108	1.104	1.104	1.118	1.113	1.113
-0.010	-0.005	0.000	0.000	0.010	0.005	0.034	1.768	1.104	1.099	1.104	1.123	1.113	1.113
0.000	-0.034	0.000	-0.005	0.015	-0.005	0.034	1.777	1.104	1.094	1.099	1.118	1.113	1.113
0.010	-0.078	0.000	-0.005	0.005	0.005	0.034	1.768	1.104	1.084	1.094	1.113	1.113	1.113
0.005	-0.078	0.000	0.000	0.010	-0.020	0.034	1.763	1.104	1.089	1.089	1.118	1.113	1.108
0.010	-0.039	-0.005	0.000	0.010	-0.005	0.029	1.777	1.104	1.104	1.094	1.118	1.113	1.113
0.000	0.005	-0.005	0.005	0.010	-0.015	0.034	1.772	1.104	1.113	1.099	1.113	1.113	1.108
0.005	0.015	0.000	-0.005	0.010	0.005	0.029	1.763	1.099	1.113	1.104	1.113	1.113	1.113
0.000	0.063	-0.005	0.000	0.015	0.005	0.034	1.787	1.104	1.123	1.108	1.123	1.113	1.113
-0.005	0.073	0.000	0.000	0.010	0.005	0.034	1.777	1.104	1.118	1.113	1.123	1.118	1.113
-0.005	0.049	0.000	-0.005	0.005	0.000	0.029	1.777	1.094	1.108	1.108	1.128	1.118	1.113
-0.005	0.000	0.000	0.000	0.005	0.000	0.034	1.777	1.094	1.089	1.104	1.123	1.118	1.113
-0.005	0.024	0.000	0.000	0.005	-0.020	0.029	1.782	1.099	1.099	1.104	1.123	1.118	1.113
-0.005	0.020	-0.005	0.000	0.000	0.000	0.029	1.807	1.104	1.094	1.099	1.123	1.118	1.113
-0.010	-0.005	0.000	0.000	0.005	0.005	0.029	1.768	1.099	1.094	1.099	1.118	1.118	1.118
0.010	-0.024	-0.005	0.000	0.005	0.000	0.034	1.782	1.108	1.089	1.094	1.118	1.118	1.113
0.000	-0.020	0.005	0.005	-0.005	0.000	0.029	1.792	1.108	1.099	1.094	1.118	1.113	1.113
-0.005	-0.034	0.005	0.000	0.000	0.000	0.034	1.753	1.104	1.094	1.094	1.113	1.118	1.113
0.000	-0.039	0.000	0.000	0.010	-0.024	0.029	1.733	1.099	1.094	1.094	1.113	1.118	1.108
-0.015	-0.020	-0.005	-0.005	0.005	0.005	0.029	1.753	1.089	1.099	1.094	1.113	1.113	1.118
-0.005	-0.005	-0.005	0.005	0.005	-0.020	0.034	1.758	1.094	1.099	1.099	1.113	1.108	1.113
-0.005	-0.005	0.000	0.000	-0.010	0.005	0.034	1.802	1.099	1.099	1.099	1.113	1.108	1.113
-0.005	-0.005	-0.005	0.000	-0.010	0.010	0.029	1.743	1.099	1.099	1.094	1.113	1.108	1.108
-0.005	0.044	0.000	0.000	0.005	0.015	0.029	1.743	1.094	1.108	1.104	1.113	1.113	1.113
-0.010	0.088	-0.005	0.000	-0.005	0.005	0.034	1.802	1.104	1.118	1.108	1.113	1.108	1.108
-0.005	0.078	0.000	-0.010	0.000	0.005	0.029	1.763	1.104	1.108	1.108	1.118	1.108	1.108
0.010	0.029	-0.005	-0.010	0.005	0.000	0.034	1.787	1.104	1.094	1.099	1.113	1.113	1.108
0.015	-0.005	-0.005	-0.020	0.005	-0.005	0.029	1.826	1.104	1.089	1.099	1.113	1.113	1.108
0.020	0.039	0.005	-0.015	0.010	0.000	0.034	1.797	1.104	1.108	1.104	1.118	1.113	1.108
0.005	0.010	-0.005	-0.010	0.010	-0.010	0.034	1.763	1.094	1.094	1.099	1.118	1.113	1.108
-0.005	-0.005	-0.005	0.000	0.005	0.000	0.034	1.763	1.094	1.089	1.094	1.118	1.113	1.113
0.000	-0.029	-0.005	0.015	0.005	-0.010	0.034	1.772	1.099	1.084	1.089	1.123	1.113	1.113
0.010	-0.049	-0.005	0.020	0.000	0.005	0.034	1.699	1.099	1.084	1.089	1.118	1.113	1.113
0.005	-0.059	0.000	0.010	0.005	0.005	0.034	1.821	1.104	1.079	1.089	1.113	1.113	1.113
0.015	-0.039	-0.005	0.000	0.000	0.005	0.029	1.802	1.104	1.094	1.089	1.108	1.108	1.113
0.005	-0.039	-0.010	-0.005	0.005	0.010	0.029	1.729	1.099	1.094	1.089	1.104	1.108	1.113
0.000	-0.059	0.000	0.000	-0.005	-0.010	0.029	1.792	1.094	1.089	1.089	1.104	1.104	1.104
-0.010	-0.063	-0.005	0.000	0.000	0.000	0.029	1.787	1.099	1.089	1.089	1.104	1.104	1.108
0.010	-0.005	-0.005	0.005	0.000	-0.005	0.034	1.738	1.089	1.108	1.094	1.108	1.104	1.099
0.005	0.068	-0.005	0.000	0.000	0.000	0.029	1.753	1.094	1.123	1.104	1.113	1.104	1.104
0.010	0.034	-0.005	-0.005	-0.005	-0.005	0.034	1.763	1.089	1.104	1.104	1.113	1.104	1.104
0.000	-0.005	-0.005	-0.005	-0.005	-0.005	0.034	1.782	1.094	1.089	1.099	1.113	1.104	1.104
-0.010	0.005	-0.005	-0.005	0.000	0.000	0.029	1.797	1.094	1.089	1.094	1.113	1.108	1.108
-0.015	0.015	-0.005	-0.005	0.005	-0.029	0.034	1.807	1.099	1.094	1.094	1.113	1.108	1.104
-0.015	0.005	-0.005	-0.005	0.010	-0.005	0.029	1.797	1.099	1.094	1.094	1.113	1.108	1.104
-0.010	-0.010	0.005	0.000	0.000	-0.015	0.034	1.753	1.099	1.094	1.094	1.113	1.108	1.104
0.000	-0.005	0.000	-0.005	0.000	0.010	0.034	1.763	1.104	1.094	1.094	1.113	1.108	1.108
-0.005	-0.005	0.000	0.005	0.000	-0.010	0.034	1.738	1.099	1.094	1.094	1.113	1.108	1.108
0.000	-0.005	0.000	0.005	0.005	0.010	0.029	1.738	1.099	1.094	1.094	1.118	1.108	1.108
0.005	-0.005	-0.005	0.000	0.015	0.010	0.034	1.787	1.104	1.099	1.094	1.113	1.113	1.113
-0.005	-0.015	-0.005	-0.005	0.010	0.010	0.029	1.792	1.104	1.094	1.094	1.113	1.108	1.113
0.000	0.000	0.000	-0.015	-0.010	0.029	0.034	1.782	1.099	1.099	1.094	1.108	1.104	1.113
-0.005	0.015	-0.005	-0.010	-0.039	-0.005	0.029	1.787	1.104	1.104	1.099	1.113	1.094	1.094
0.000	0.024	0.005	0.000	-0.063	-0.034	0.029	1.812	1.108	1.104	1.099	1.113	1.094	1.089
0.005	0.034	-0.010	0.005	-0.044	-0.010	0.034	1.738	1.099	1.108	1.099	1.118	1.104	1.099
-0.005	0.020	-0.005	0.000	0.000	-0.020	0.034	1.782	1.094	1.099	1.099	1.118	1.118	1.104
-0.010	0.005	-0.005	0.000	0.015	-0.034	0.029	1.787	1.094	1.094	1.099	1.113	1.118	1.104
0.000	-0.020	0.000	0.005	0.015	-0.063	0.029	1.748	1.094	1.084	1.094	1.113	1.113	1.099
0.000	-0.034	-0.005	0.000	0.010	-0.044	0.034	1.797	1.099	1.084	1.089	1.113	1.113	1.108
0.005	-0.063	0.000	0.000	0.000	-0.024	0.034	1.772	1.104	1.084	1.084	1.113	1.108	1.108
0.005	-0.063	-0.005	-0.005	-0.078	-0.015	0.034	1.733	1.094	1.089	1.089	1.104	1.089	1.104
0.015	-0.024	-0.005	-0.005	-0.098	0.015	0.034	1.792	1.099	1.099	1.089	1.104	1.089	1.108
0.010	-0.015	-0.010	-0.005	-0.054	0.044	0.034	1.758	1.094	1.099	1.089	1.108	1.104	1.118
0.005	0.000	-0.005	0.000	-0.015	0.059	0.034	1.743	1.089	1.099	1.099	1.108	1.118	1.123
0.000	0.034	0.000	-0.005	0.063	0.063	0.034	1.802	1.099	1.108	1.104	1.118	1.138	1.128
-0.005	0.049	0.000	-0.005	0.088	0.049	0.029	1.753	1.104	1.108	1.104	1.118	1.138	1.123
0.010	-0.005	0.000	-0.005	0.098	0.029	0.029	1.743	1.094	1.094	1.099	1.118	1.128	1.123
0.000	-0.005	-0.005	0.000	0.078	0.015	0.034	1.797	1.099	1.094	1.099	1.118	1.123	1.118
-0.010	0.024	0.000	0.010	0.059	0.000	0.034	1.782	1.104	1.099	1.099	1.118	1.113	1.113
-0.005	-0.005	0.000	0.000	0.034	-0.010	0.029	1.782	1.104	1.094	1.099	1.113	1.104	1.108
0.000	0.000	0.005	-0.005	0.015	-0.020	0.034	1.787	1.104	1.099	1.094	1.113	1.099	1.099
0.000	0.015	0.000	-0.005	0.000	-0.020	0.034	1.772	1.104	1.104	1.094	1.108	1.099	1.099
-0.010	0.020	0.000	-0.010	-0.010	-0.005	0.029	1.787	1.099	1.099	1.099	1.108	1.094	1.104
-0.015	0.024	0.000	-0.010	-0.024	-0.015	0.034	1.812	1.104	1.104	1.099	1.113	1.094	1.094
0.000	0.029	0.000	0.000	-0.005	-0.005	0.034	1.777	1.104	1.104	1.099	1.118	1.108	1.104
-0.010	0.010	0.000	0.010	0.020	0.000	0.029	1.802	1.104	1.094	1.099	1.123	1.118	1.108
0.000	0.000	-0.005	0.024	0.020	-0.010	0.029	1.758	1.104	1.094	1.099	1.123	1.113	1.108
-0.010	0.015	0.005	0.015	-0.020	-0.020	0.029	1.816	1.104	1.104	1.099	1.118	1.104	1.104
-0.020	0.010	-0.005	0.000	-0.078	-0.049	0.034	1.802	1.104	1.099	1.099	1.113	1.089	1.089
-0.015	-0.029	-0.005	-0.005	-0.088	-0.015	0.034	1.758	1.099	1.089	1.094	1.108	1.094	1.099
-0.015	-0.020	0.000	0.000	-0.088	-0.010	0.034	1.787	1.099	1.094	1.094	1.113	1.099	1.099
0.000	-0.015	0.000	-0.005	-0.088	-0.005	0.029	1.738	1.099	1.094	1.094	1.113	1.099	1.099
0.005	-0.005	0.000	0.005	-0.088	-0.010	0.034	1.792	1.099	1.099	1.099	1.118	1.099	1.099
0.000	0.059	0.005	0.005	-0.117	0.010	0.034	1.743	1.099	1.118	1.104	1.118	1.099	1.104
-0.005	0.020	0.000	0.015	-0.122	0.000	0.034	1.758	1.094	1.099	1.099	1.118	1.104	1.104
-0.005	-0.020	0.000	0.000	-0.112	0.020	0.034	1.758	1.094	1.084	1.094	1.113	1.104	1.104
0.000	-0.010	0.000	-0.005	-0.107	0.029	0.034	1.802	1.094	1.094	1.094	1.113	1.113	1.108
0.010	-0.034	0.005	0.000	-0.005	0.015	0.029	1.787	1.099	1.079	1.094	1.113	1.138	1.113
0.005	-0.068	-0.005	-0.010	0.059	0.029	0.034	1.768	1.099	1.079	1.084	1.113	1.147	1.123
-0.020	-0.020	0.000	-0.010	0.098	0.029	0.034	1.763	1.094	1.094	1.089	1.108	1.143	1.133
-0.015	-0.010	-0.005	-0.020	0.117	0.034	0.034	1.792	1.104	1.099	1.094	1.108	1.143	1.138
0.015	-0.005	0.000	-0.010	0.190	0.044	0.034	1.772	1.113	1.104	1.094	1.113	1.152	1.143
0.015	0.000	0.000	0.000	0.312	0.034	0.034	1.772	1.118	1.113	1.104	1.123	1.177	1.152
0.005	0.039	-0.005	0.005	0.259	0.044	0.034	1.807	1.108	1.118	1.108	1.123	1.143	1.152
0.005	0.010	-0.005	0.005	0.127	0.020	0.034	1.772	1.113	1.113	1.108	1.118	1.104	1.128
0.000	0.020	-0.005	0.005	0.054	0.015	0.034	1.772	1.108	1.113	1.108	1.118	1.084	1.108
-0.005	0.010	0.000	0.015	0.000	-0.029	0.029	1.787	1.108	1.108	1.108	1.123	1.079	1.089
-0.010	0.005	0.005	0.024	-0.039	-0.054	0.029	1.709	1.089	1.099	1.104	1.123	1.079	1.079
-0.020	0.000	0.005	0.010	-0.049	-0.088	0.029	1.792	1.094	1.099	1.104	1.123	1.089	1.069
0.000	-0.005	0.000	0.015	-0.049	-0.103	0.034	1.738	1.094	1.094	1.099	1.118	1.094	1.074
-0.015	-0.015	0.000	0.010	-0.044	-0.083	0.034	1.792	1.094	1.094	1.094	1.118	1.099	1.084
-0.015	0.005	0.000	-0.005	-0.039	-0.093	0.034	1.787	1.094	1.094	1.094	1.113	1.104	1.089
-0.005	0.000	0.000	-0.010	-0.049	-0.039	0.034	1.753	1.094	1.094	1.094	1.113	1.104	1.108
0.000	-0.020	0.005	-0.010	-0.039	0.000	0.034	1.738	1.094	1.089	1.094	1.108	1.108	1.113
0.010	-0.020	0.000	-0.015	-0.029	-0.005	0.034	1.782	1.099	1.089	1.089	1.108	1.108	1.108
-0.005	-0.034	-0.005	-0.020	-0.024	0.015	0.034	1.787	1.099	1.089	1.084	1.108	1.108	1.113
0.005	-0.010	0.000	-0.015	-0.024	0.034	0.034	1.782	1.104	1.099	1.094	1.108	1.108	1.123
0.005	-0.039	0.000	-0.010	-0.024	0.034	0.034	1.797	1.104	1.089	1.089	1.108	1.108	1.113
0.000	-0.015	0.005	-0.005	-0.015	0.024	0.034	1.763	1.104	1.104	1.099	1.113	1.108	1.113
-0.005	0.059	0.000	0.000	-0.015	0.015	0.029	1.812	1.113	1.128	1.104	1.118	1.113	1.108
0.000	0.073	0.005	0.000	-0.015	0.020	0.034	1.782	1.108	1.123	1.108	1.118	1.113	1.113
0.005	0.015	0.000	-0.005	-0.005	0.010	0.034	1.733	1.104	1.099	1.104	1.118	1.113	1.108
0.005	0.000	0.000	0.000	-0.005	0.005	0.034	1.777	1.104	1.099	1.104	1.123	1.113	1.108
0.005	0.005	0.000	0.000	0.000	-0.005	0.034	1.768	1.104	1.099	1.104	1.118	1.118	1.108
0.015	0.005	-0.005	-0.005	0.005	0.010	0.029	1.792	1.108	1.099	1.104	1.118	1.118	1.113
0.005	0.000	0.000	0.000	-0.005	0.000	0.029	1.763	1.099	1.099	1.099	1.118	1.113	1.113
0.005	-0.005	-0.005	0.000	0.005	-0.005	0.029	1.709	1.094	1.099	1.099	1.118	1.118	1.113
-0.010	0.010	0.005	0.000	0.005	0.024	0.034	1.763	1.094	1.099	1.099	1.118	1.118	1.123
0.000	0.005	0.000	-0.005	0.005	0.005	0.029	1.724	1.094	1.099	1.099	1.118	1.113	1.113
0.000	0.015	0.000	-0.005	0.005	-0.005	0.029	1.787	1.094	1.099	1.094	1.118	1.113	1.108
-0.010	0.024	-0.005	-0.010	0.015	0.010	0.034	1.777	1.094	1.099	1.099	1.113	1.118	1.118
-0.020	0.000	0.000	-0.005	0.010	0.010	0.034	1.797	1.099	1.089	1.094	1.118	1.113	1.113
0.000	-0.010	0.000	0.000	0.005	-0.010	0.029	1.733	1.099	1.089	1.094	1.113	1.113	1.108
0.005	-0.020	0.000	0.015	0.010	0.010	0.034	1.768	1.099	1.094	1.094	1.118	1.113	1.113
0.000	-0.020	0.000	0.020	0.005	0.005	0.034	1.782	1.104	1.094	1.094	1.118	1.113	1.113
-0.005	-0.015	0.005	0.000	0.010	-0.005	0.034	1.782	1.104	1.099	1.094	1.108	1.113	1.108
0.000	-0.010	0.010	-0.024	0.015	0.010	0.034	1.787	1.104	1.099	1.094	1.104	1.108	1.113
0.000	-0.010	0.005	-0.034	0.005	0.000	0.034	1.802	1.108	1.099	1.094	1.104	1.104	1.108
-0.010	-0.039	0.005	-0.029	0.000	0.000	0.034	1.792	1.094	1.094	1.094	1.108	1.104	1.104
-0.010	0.000	0.005	-0.010	0.010	-0.015	0.029	1.812	1.104	1.108	1.099	1.118	1.108	1.099
-0.015	0.034	0.000	0.015	0.005	-0.005	0.029	1.797	1.108	1.113	1.104	1.123	1.108	1.108
-0.010	0.029	-0.005	0.029	0.000	-0.010	0.034	1.797	1.108	1.113	1.104	1.128	1.113	1.108
0.000	0.010	0.000	0.029	0.000	-0.005	0.029	1.758	1.108	1.104	1.104	1.128	1.113	1.108
-0.005	0.024	0.000	0.024	0.005	0.005	0.034	1.787	1.108	1.113	1.108	1.128	1.118	1.113
0.000	0.034	-0.005	0.029	0.010	0.005	0.034	1.753	1.104	1.108	1.108	1.123	1.118	1.113
-0.005	-0.024	0.000	0.020	0.024	-0.005	0.034	1.792	1.104	1.089	1.099	1.123	1.123	1.118
0.000	-0.068	0.000	0.005	0.029	-0.005	0.034	1.738	1.099	1.079	1.094	1.113	1.118	1.113
0.005	-0.024	-0.005	-0.005	0.034	-0.010	0.034	1.792	1.104	1.099	1.094	1.113	1.118	1.113
0.020	-0.005	0.000	-0.005	0.039	0.010	0.034	1.743	1.104	1.104	1.094	1.108	1.113	1.123
0.015	-0.020	0.000	-0.010	0.039	0.010	0.034	1.753	1.099	1.099	1.099	1.113	1.113	1.118
0.010	-0.005	-0.005	-0.010	0.034	0.005	0.029	1.777	1.104	1.104	1.094	1.108	1.113	1.113
0.015	-0.005	-0.010	-0.015	0.029	0.005	0.034	1.782	1.104	1.104	1.094	1.108	1.108	1.113
0.015	-0.029	-0.005	-0.020	0.029	0.000	0.029	1.748	1.099	1.094	1.094	1.108	1.108	1.108
0.010	-0.029	-0.010	-0.015	0.020	0.010	0.034	1.792	1.099	1.094	1.094	1.113	1.104	1.108
-0.005	-0.020	-0.005	-0.015	0.010	0.000	0.029	1.753	1.099	1.099	1.094	1.113	1.104	1.104
-0.020	-0.039	0.000	-0.005	0.005	-0.005	0.034	1.733	1.089	1.089	1.099	1.113	1.104	1.104
-0.015	-0.029	0.005	0.000	0.005	-0.015	0.034	1.821	1.099	1.094	1.099	1.118	1.108	1.099
-0.015	-0.020	0.005	0.010	-0.005	0.000	0.034	1.792	1.099	1.099	1.099	1.118	1.108	1.108
-0.005	0.015	0.000	0.005	-0.010	-0.005	0.029	1.797	1.108	1.113	1.099	1.118	1.108	1.104
-0.010	0.073	-0.005	0.005	-0.010	0.005	0.029	1.787	1.108	1.123	1.108	1.118	1.108	1.108
0.000	0.059	-0.005	-0.005	-0.020	0.005	0.029	1.797	1.108	1.108	1.108	1.118	1.108	1.108
0.005	0.010	-0.010	-0.005	-0.024	0.005	0.034	1.763	1.099	1.099	1.104	1.118	1.113	1.108
0.005	0.044	-0.010	-0.005	-0.015	0.010	0.029	1.787	1.108	1.104	1.104	1.118	1.108	1.108
0.000	-0.020	-0.005	-0.005	-0.024	0.000	0.034	1.797	1.104	1.089	1.099	1.118	1.108	1.104
-0.005	-0.049	0.000	0.000	-0.024	0.000	0.034	1.792	1.084	1.079	1.094	1.118	1.113	1.108
0.000	-0.063	-0.005	0.010	-0.020	-0.020	0.034	1.782	1.089	1.079	1.089	1.118	1.113	1.104
-0.005	-0.049	-0.005	0.010	-0.020	0.000	0.029	1.787	1.094	1.084	1.089	1.113	1.113	1.108
-0.005	-0.034	-0.015	0.020	-0.024	0.005	0.034	1.733	1.089	1.094	1.089	1.113	1.113	1.113
0.010	0.132	-0.010	0.020	-0.029	0.005	0.034	1.792	1.108	1.147	1.104	1.118	1.108	1.113
0.005	0.210	0.000	0.005	-0.029	-0.005	0.029	1.748	1.099	1.152	1.118	1.118	1.113	1.108
0.005	0.000	0.000	0.000	-0.024	0.005	0.029	1.782	1.094	1.069	1.104	1.118	1.113	1.108
0.010	-0.078	0.000	0.005	-0.024	-0.005	0.034	1.680	1.084	1.060	1.089	1.118	1.113	1.108
0.005	-0.054	0.000	-0.005	-0.020	0.005	0.034	1.753	1.094	1.074	1.089	1.113	1.113	1.113
-0.005	-0.010	0.005	-0.015	-0.015	0.000	0.034	1.743	1.094	1.084	1.089	1.108	1.113	1.113
-0.010	-0.010	0.000	-0.034	-0.005	0.000	0.034	1.758	1.099	1.094	1.089	1.104	1.108	1.113
-0.005	0.024	-0.005	-0.034	-0.015	0.000	0.029	1.797	1.104	1.104	1.089	1.104	1.104	1.108
-0.015	0.015	-0.010	-0.024	-0.020	0.005	0.029	1.768	1.099	1.099	1.089	1.108	1.104	1.108
0.000	0.000	-0.010	-0.010	-0.024	0.000	0.029	1.787	1.104	1.094	1.094	1.113	1.104	1.104
0.005	0.005	-0.010	0.005	-0.020	0.005	0.034	1.802	1.108	1.094	1.094	1.118	1.108	1.104
-0.005	-0.005	-0.005	-0.010	-0.020	0.000	0.034	1.768	1.099	1.099	1.094	1.108	1.108	1.104
0.000	0.000	-0.005	0.000	-0.015	-0.005	0.034	1.787	1.099	1.094	1.094	1.113	1.108	1.104
0.000	-0.005	0.005	0.015	-0.020	-0.005	0.034	1.768	1.099	1.099	1.094	1.118	1.108	1.104
0.000	-0.010	-0.005	0.020	-0.010	0.000	0.029	1.787	1.099	1.094	1.094	1.118	1.108	1.108
-0.005	-0.015	0.005	0.020	-0.005	0.000	0.034	1.787	1.104	1.094	1.094	1.118	1.113	1.108
-0.005	0.015	0.000	0.015	0.005	0.000	0.034	1.787	1.108	1.108	1.099	1.113	1.113	1.113
-0.010	0.020	0.000	0.010	0.005	-0.020	0.029	1.807	1.108	1.104	1.099	1.113	1.113	1.108
-0.005	-0.005	0.000	0.029	0.000	-0.005	0.034	1.748	1.104	1.099	1.099	1.123	1.113	1.113
-0.005	0.000	0.000	0.039	-0.010	-0.005	0.034	1.758	1.108	1.104	1.099	1.123	1.113	1.108
0.015	0.005	0.000	0.034	-0.015	-0.010	0.029	1.802	1.113	1.104	1.099	1.118	1.108	1.108
0.010	-0.010	0.005	0.015	-0.020	0.000	0.029	1.797	1.108	1.099	1.099	1.113	1.108	1.113
0.015	-0.015	0.000	0.005	-0.010	-0.015	0.034	1.758	1.108	1.104	1.099	1.113	1.108	1.108
-0.005	-0.054	0.000	-0.010	-0.044	-0.015	0.034	1.816	1.104	1.089	1.094	1.108	1.099	1.104
-0.010	-0.044	0.000	-0.010	-0.088	-0.010	0.034	1.733	1.094	1.099	1.094	1.108	1.089	1.104
-0.005	0.005	0.005	-0.020	-0.078	0.000	0.034	1.797	1.108	1.108	1.099	1.108	1.094	1.099
-0.005	0.010	0.005	-0.015	-0.083	0.000	0.034	1.782	1.104	1.108	1.099	1.113	1.099	1.104
-0.005	-0.024	0.000	-0.015	-0.078	0.005	0.034	1.792	1.104	1.094	1.099	1.113	1.104	1.104
0.010	-0.015	0.000	-0.015	-0.044	0.000	0.029	1.782	1.104	1.104	1.099	1.113	1.113	1.104
0.010	0.112	0.010	-0.015	-0.024	0.015	0.034	1.777	1.108	1.138	1.113	1.123	1.123	1.113
0.010	0.093	0.005	-0.010	0.020	-0.010	0.034	1.772	1.104	1.118	1.113	1.123	1.133	1.113
0.005	-0.073	0.005	-0.015	0.068	0.005	0.029	1.792	1.094	1.064	1.099	1.123	1.143	1.123
0.005	-0.054	0.005	-0.005	0.098	0.005	0.034	1.782	1.099	1.084	1.094	1.123	1.143	1.128
-0.010	-0.015	0.000	-0.005	0.098	-0.020	0.034	1.758	1.099	1.099	1.094	1.123	1.138	1.123
0.000	0.010	0.000	-0.005	0.112	0.015	0.034	1.772	1.104	1.104	1.094	1.118	1.133	1.138
0.015	0.000	0.000	-0.005	0.107	-0.005	0.034	1.768	1.108	1.104	1.099	1.118	1.128	1.128
0.000	0.010	0.000	0.000	0.059	0.024	0.034	1.836	1.108	1.104	1.104	1.123	1.113	1.128
-0.010	0.015	0.005	-0.005	0.044	-0.010	0.034	1.782	1.108	1.108	1.104	1.118	1.108	1.118
-0.010	0.059	0.000	0.005	0.049	0.015	0.034	1.787	1.113	1.118	1.108	1.123	1.113	1.123
-0.044	0.073	0.000	-0.005	0.020	0.015	0.034	1.719	1.099	1.118	1.108	1.118	1.108	1.118
-0.029	0.000	0.000	-0.010	-0.015	0.005	0.029	1.763	1.099	1.094	1.104	1.118	1.099	1.104
-0.015	-0.024	0.000	-0.010	-0.039	-0.015	0.029	1.772	1.099	1.089	1.099	1.118	1.094	1.099
-0.005	-0.029	-0.010	-0.015	-0.054	0.000	0.029	1.758	1.104	1.094	1.094	1.113	1.099	1.094
0.015	-0.029	-0.010	-0.005	-0.063	-0.005	0.034	1.748	1.104	1.094	1.094	1.113	1.099	1.094
0.000	-0.020	-0.015	-0.010	-0.049	-0.005	0.029	1.724	1.094	1.094	1.094	1.113	1.104	1.099
0.015	-0.029	-0.010	-0.015	-0.034	-0.015	0.034	1.768	1.099	1.089	1.094	1.108	1.108	1.099
0.000	-0.034	-0.005	0.005	-0.029	-0.005	0.034	1.792	1.099	1.089	1.094	1.118	1.108	1.108
0.000	-0.044	-0.005	0.010	-0.024	0.000	0.029	1.724	1.094	1.089	1.094	1.118	1.113	1.108
0.005	-0.029	0.000	0.010	-0.063	-0.005	0.034	1.763	1.094	1.094	1.094	1.113	1.099	1.104
-0.005	-0.020	0.005	-0.005	-0.088	-0.005	0.034	1.812	1.099	1.094	1.094	1.108	1.094	1.099
-0.015	-0.005	0.010	-0.005	-0.088	0.005	0.034	1.724	1.089	1.099	1.094	1.108	1.099	1.099
-0.010	0.015	0.010	0.010	-0.063	-0.020	0.029	1.797	1.099	1.104	1.099	1.118	1.108	1.099
0.000	0.083	0.010	0.020	-0.034	-0.010	0.034	1.763	1.099	1.123	1.108	1.123	1.118	1.108
0.000	0.044	0.010	0.020	-0.005	0.005	0.029	1.753	1.099	1.104	1.104	1.128	1.128	1.118
0.000	0.034	0.000	0.024	0.015	0.015	0.034	1.768	1.099	1.104	1.104	1.123	1.133	1.128
-0.005	0.020	-0.005	0.029	0.015	0.020	0.034	1.777	1.099	1.099	1.099	1.123	1.128	1.128
0.015	0.020	-0.005	0.015	0.020	0.000	0.034	1.792	1.113	1.099	1.094	1.118	1.128	1.123
0.034	-0.103	-0.005	0.005	0.029	0.010	0.034	1.748	1.104	1.064	1.089	1.113	1.123	1.128
0.024	-0.083	0.000	0.000	0.029	0.000	0.034	1.792	1.104	1.079	1.084	1.108	1.118	1.118
0.005	-0.034	-0.005	-0.015	0.029	-0.005	0.029	1.768	1.099	1.099	1.089	1.104	1.108	1.113
0.015	-0.015	0.000	-0.020	0.024	-0.005	0.029	1.738	1.094	1.104	1.094	1.104	1.108	1.113
0.005	-0.015	0.000	-0.039	0.044	-0.034	0.029	1.787	1.099	1.099	1.094	1.104	1.108	1.104
-0.005	-0.015	0.000	-0.034	0.073	0.000	0.034	1.807	1.099	1.094	1.094	1.108	1.118	1.118
0.000	-0.010	0.005	-0.034	0.137	0.000	0.029	1.753	1.104	1.104	1.094	1.108	1.128	1.123
0.000	0.005	0.005	-0.029	0.132	0.000	0.029	1.777	1.104	1.104	1.099	1.113	1.123	1.123
-0.005	0.020	0.000	-0.005	0.063	0.000	0.034	1.772	1.099	1.108	1.104	1.118	1.099	1.113
-0.005	0.044	0.000	0.020	-0.024	0.010	0.034	1.787	1.104	1.108	1.104	1.128	1.084	1.104
-0.020	0.054	0.000	0.034	-0.073	0.010	0.034	1.797	1.108	1.108	1.104	1.128	1.079	1.099
0.000	0.024	0.000	0.034	-0.078	0.005	0.029	1.753	1.104	1.104	1.104	1.128	1.094	1.094
-0.020	0.039	-0.005	0.020	-0.073	0.000	0.029	1.782	1.094	1.099	1.104	1.118	1.099	1.094
-0.029	0.029	0.000	-0.020	-0.054	0.005	0.034	1.768	1.099	1.099	1.099	1.108	1.108	1.099
-0.020	0.005	0.010	-0.015	-0.049	-0.005	0.034	1.743	1.094	1.094	1.099	1.113	1.108	1.099
-0.015	-0.005	0.000	-0.005	-0.029	0.005	0.029	1.753	1.094	1.089	1.094	1.118	1.113	1.108
-0.005	-0.020	-0.005	0.005	-0.024	-0.005	0.029	1.797	1.099	1.084	1.094	1.118	1.118	1.104
0.000	-0.005	0.000	0.020	-0.015	0.015	0.034	1.763	1.099	1.094	1.094	1.123	1.123	1.113
0.000	-0.010	0.000	0.044	-0.005	0.000	0.034	1.763	1.094	1.099	1.094	1.123	1.123	1.113
0.000	-0.010	0.000	0.039	-0.005	-0.020	0.034	1.802	1.113	1.094	1.094	1.123	1.123	1.108
0.000	0.044	0.000	0.034	0.000	-0.005	0.034	1.763	1.108	1.113	1.099	1.118	1.118	1.113
0.005	0.015	0.000	0.015	0.000	-0.005	0.034	1.802	1.108	1.099	1.099	1.113	1.113	1.113
-0.015	-0.020	0.000	0.005	-0.015	-0.005	0.034	1.772	1.094	1.094	1.094	1.108	1.108	1.113
-0.005	-0.005	0.000	-0.015	-0.005	-0.010	0.034	1.758	1.094	1.094	1.094	1.104	1.108	1.108
-0.005	-0.005	0.000	-0.024	0.000	-0.005	0.034	1.797	1.099	1.094	1.099	1.104	1.108	1.113
-0.015	-0.024	0.000	-0.024	-0.005	0.005	0.034	1.748	1.094	1.089	1.094	1.104	1.108	1.113
-0.024	-0.034	-0.005	-0.029	-0.010	-0.005	0.029	1.792	1.094	1.089	1.089	1.104	1.104	1.104
0.005	-0.039	0.000	-0.020	-0.010	0.000	0.034	1.719	1.099	1.094	1.089	1.108	1.104	1.104
0.015	-0.049	-0.005	-0.010	0.000	0.000	0.029	1.777	1.099	1.089	1.094	1.113	1.108	1.108
0.015	-0.073	0.000	0.000	0.005	0.005	0.034	1.724	1.099	1.084	1.089	1.113	1.113	1.108
0.024	-0.054	0.005	0.000	0.010	0.005	0.029	1.782	1.104	1.099	1.094	1.113	1.108	1.113
0.010	0.059	0.005	-0.005	0.005	0.010	0.034	1.763	1.104	1.128	1.104	1.113	1.108	1.113
0.005	0.088	0.005	-0.010	0.005	0.015	0.034	1.792	1.104	1.133	1.113	1.118	1.113	1.108
-0.005	0.142	0.005	-0.005	0.024	0.015	0.034	1.777	1.099	1.133	1.118	1.123	1.118	1.113
-0.005	-0.010	0.000	-0.010	0.039	0.039	0.034	1.807	1.104	1.079	1.104	1.123	1.123	1.123
0.015	-0.049	-0.005	0.000	0.063	0.029	0.029	1.787	1.104	1.079	1.094	1.123	1.128	1.123
-0.005	0.005	-0.005	-0.010	0.054	0.039	0.029	1.797	1.104	1.099	1.094	1.118	1.123	1.123
-0.005	-0.044	-0.005	-0.005	0.059	0.015	0.034	1.777	1.104	1.089	1.089	1.113	1.118	1.113
0.000	-0.034	-0.010	0.000	0.049	-0.010	0.029	1.777	1.104	1.094	1.094	1.113	1.113	1.108
0.005	-0.024	0.000	-0.005	0.029	-0.034	0.034	1.797	1.108	1.099	1.094	1.113	1.104	1.094
0.005	-0.015	0.005	-0.005	-0.005	-0.054	0.034	1.738	1.104	1.108	1.099	1.113	1.094	1.094
-0.020	0.117	-0.005	0.000	-0.010	-0.073	0.034	1.782	1.099	1.143	1.108	1.118	1.099	1.089
-0.024	0.044	-0.010	0.005	-0.029	-0.063	0.034	1.797	1.099	1.099	1.104	1.118	1.099	1.094
-0.020	-0.088	-0.020	0.010	-0.029	-0.039	0.034	1.758	1.094	1.064	1.089	1.118	1.104	1.099
-0.015	-0.049	-0.010	0.015	-0.024	-0.015	0.034	1.787	1.099	1.089	1.094	1.118	1.108	1.108
-0.005	-0.020	0.000	0.015	-0.020	0.010	0.034	1.738	1.099	1.099	1.094	1.118	1.108	1.113
-0.010	0.063	0.005	0.005	-0.020	0.010	0.029	1.768	1.104	1.128	1.108	1.113	1.113	1.118
-0.005	0.063	-0.005	0.000	-0.010	0.020	0.029	1.802	1.108	1.108	1.104	1.118	1.113	1.118
0.020	-0.078	-0.005	0.000	0.000	0.015	0.034	1.768	1.108	1.079	1.094	1.118	1.118	1.118
0.015	0.078	0.005	0.000	0.010	0.010	0.034	1.792	1.108	1.133	1.108	1.118	1.118	1.118
0.010	0.054	-0.005	-0.005	0.000	0.010	0.029	1.812	1.108	1.108	1.108	1.123	1.113	1.113
0.015	-0.146	-0.020	-0.005	-0.005	0.005	0.034	1.782	1.094	1.055	1.084	1.113	1.113	1.113
0.010	-0.117	-0.015	-0.005	-0.005	0.005	0.034	1.787	1.099	1.079	1.084	1.113	1.108	1.113
-0.005	-0.010	-0.010	0.005	-0.010	0.015	0.034	1.772	1.099	1.108	1.094	1.113	1.108	1.108
0.005	-0.029	-0.005	0.005	-0.005	0.015	0.034	1.753	1.099	1.104	1.099	1.113	1.108	1.113
0.005	0.049	-0.010	0.000	0.000	-0.005	0.034	1.768	1.104	1.118	1.104	1.118	1.108	1.108
-0.005	0.024	0.005	0.000	0.000	0.000	0.034	1.787	1.099	1.108	1.108	1.118	1.113	1.108
-0.005	0.239	0.015	0.000	-0.005	0.010	0.034	1.743	1.104	1.172	1.133	1.123	1.113	1.113
0.000	0.088	0.020	-0.005	-0.005	-0.015	0.029	1.792	1.099	1.094	1.118	1.128	1.113	1.104
0.010	-0.083	0.010	-0.010	-0.005	0.000	0.029	1.792	1.094	1.055	1.099	1.123	1.118	1.113
0.005	-0.059	0.005	-0.015	-0.005	0.005	0.034	1.709	1.094	1.074	1.089	1.118	1.118	1.113
-0.005	-0.073	0.010	-0.010	0.000	0.005	0.034	1.782	1.094	1.074	1.084	1.113	1.113	1.113
-0.005	-0.049	0.010	-0.015	0.005	0.005	0.034	1.763	1.104	1.089	1.089	1.113	1.113	1.113
0.005	-0.005	0.005	-0.020	0.010	-0.020	0.034	1.768	1.113	1.108	1.089	1.108	1.113	1.108
0.024	0.068	0.010	-0.020	0.010	-0.015	0.034	1.787	1.123	1.133	1.104	1.113	1.113	1.108
0.020	0.015	0.005	-0.005	0.015	-0.010	0.034	1.763	1.108	1.108	1.104	1.118	1.113	1.113
-0.005	-0.005	0.000	0.005	0.010	0.000	0.034	1.787	1.108	1.104	1.104	1.123	1.113	1.118
-0.020	-0.005	0.010	0.034	0.010	-0.010	0.034	1.729	1.099	1.104	1.104	1.133	1.118	1.113
0.005	0.000	0.010	0.049	0.010	-0.010	0.034	1.787	1.108	1.108	1.104	1.133	1.123	1.118
-0.005	0.015	0.005	0.049	0.005	0.005	0.034	1.768	1.099	1.113	1.104	1.128	1.123	1.118
-0.039	0.034	0.005	0.039	0.015	0.005	0.034	1.792	1.094	1.108	1.104	1.123	1.123	1.123
-0.034	0.020	-0.005	0.024	0.005	0.000	0.034	1.797	1.099	1.099	1.099	1.118	1.118	1.118
-0.020	0.005	-0.015	0.000	0.010	0.000	0.034	1.772	1.104	1.099	1.099	1.108	1.113	1.118
-0.010	0.005	-0.010	0.029	0.005	-0.005	0.034	1.753	1.108	1.099	1.099	1.123	1.113	1.113
0.005	0.005	-0.005	0.015	0.000	0.005	0.034	1.719	1.108	1.104	1.099	1.118	1.108	1.113
0.005	-0.015	-0.010	-0.010	0.005	0.000	0.034	1.787	1.108	1.094	1.094	1.108	1.108	1.113
0.010	-0.039	-0.005	-0.039	-0.005	0.000	0.034	1.787	1.108	1.094	1.099	1.104	1.104	1.108
-0.005	-0.034	0.000	-0.044	-0.005	-0.005	0.034	1.724	1.099	1.099	1.094	1.104	1.104	1.108
0.000	-0.005	-0.005	-0.034	0.000	-0.005	0.034	1.763	1.099	1.104	1.099	1.108	1.108	1.104
-0.015	-0.054	-0.010	-0.010	-0.015	0.000	0.034	1.748	1.089	1.084	1.094	1.113	1.104	1.108
-0.015	-0.078	-0.015	-0.005	-0.015	0.010	0.034	1.792	1.094	1.084	1.089	1.118	1.108	1.108
-0.010	0.000	-0.005	0.005	-0.010	-0.005	0.034	1.758	1.094	1.108	1.099	1.118	1.113	1.108
-0.005	0.059	0.000	0.000	-0.010	0.005	0.039	1.807	1.104	1.123	1.104	1.123	1.113	1.108
0.020	-0.029	-0.005	-0.005	-0.005	0.005	0.039	1.719	1.104	1.089	1.099	1.118	1.113	1.108
0.024	0.029	-0.005	0.000	-0.005	0.005	0.039	1.787	1.104	1.118	1.108	1.123	1.113	1.108
0.029	0.107	0.000	0.005	0.005	0.000	0.039	1.797	1.108	1.133	1.113	1.123	1.118	1.113
0.024	0.054	0.000	-0.015	0.020	0.000	0.034	1.753	1.099	1.104	1.108	1.123	1.123	1.113
0.015	-0.034	0.000	-0.010	0.015	0.000	0.039	1.743	1.094	1.079	1.099	1.123	1.118	1.108
0.010	-0.020	0.000	0.000	0.000	0.000	0.039	1.777	1.094	1.089	1.099	1.123	1.113	1.113
0.000	-0.010	0.000	0.000	0.010	0.000	0.039	1.792	1.099	1.094	1.094	1.123	1.118	1.113
-0.005	-0.005	-0.010	-0.015	0.000	-0.015	0.039	1.724	1.089	1.094	1.094	1.108	1.113	1.113
-0.010	0.010	-0.005	-0.024	0.005	0.000	0.034	1.787	1.094	1.094	1.094	1.113	1.108	1.113
-0.029	-0.005	0.000	-0.010	-0.005	-0.005	0.039	1.777	1.094	1.089	1.094	1.113	1.108	1.108
-0.029	-0.024	0.000	-0.015	-0.020	-0.024	0.039	1.753	1.089	1.084	1.089	1.108	1.099	1.099
-0.005	-0.044	0.005	-0.015	-0.015	0.015	0.034	1.782	1.099	1.079	1.089	1.113	1.108	1.113
0.020	-0.039	-0.005	0.010	-0.020	0.015	0.039	1.772	1.108	1.094	1.089	1.113	1.108	1.113
0.024	-0.034	-0.015	0.024	-0.010	0.000	0.039	1.777	1.113	1.099	1.089	1.118	1.108	1.108
0.020	0.010	-0.005	0.034	0.000	0.005	0.034	1.782	1.108	1.118	1.099	1.123	1.118	1.108
0.000	0.098	-0.005	0.059	0.005	-0.010	0.034	1.787	1.108	1.138	1.113	1.133	1.118	1.108
-0.034	0.098	0.000	0.054	0.000	-0.005	0.034	1.758	1.094	1.123	1.113	1.128	1.123	1.113
-0.039	0.015	0.000	0.034	0.000	0.005	0.039	1.753	1.089	1.089	1.104	1.118	1.118	1.113
-0.029	-0.029	-0.005	0.020	0.005	0.005	0.039	1.758	1.089	1.079	1.099	1.118	1.118	1.118
-0.020	-0.034	0.000	0.000	0.005	0.005	0.039	1.792	1.099	1.079	1.094	1.108	1.113	1.113
-0.005	-0.039	0.000	-0.005	0.005	0.005	0.039	1.758	1.099	1.089	1.089	1.108	1.113	1.113
-0.005	-0.015	0.000	-0.005	0.010	0.000	0.039	1.787	1.104	1.094	1.089	1.108	1.108	1.113
0.005	-0.039	-0.005	-0.015	0.010	0.000	0.039	1.777	1.108	1.094	1.089	1.104	1.108	1.108
0.000	0.054	0.000	-0.015	0.020	0.010	0.039	1.792	1.108	1.123	1.099	1.108	1.108	1.113
-0.005	0.083	-0.005	-0.020	0.015	0.015	0.039	1.797	1.108	1.118	1.104	1.108	1.108	1.108
0.005	0.000	-0.005	-0.020	-0.010	-0.015	0.034	1.748	1.099	1.094	1.099	1.108	1.099	1.094
0.020	-0.020	-0.005	-0.020	-0.015	0.010	0.039	1.772	1.099	1.094	1.099	1.113	1.104	1.108
0.015	-0.034	0.000	-0.020	0.000	-0.015	0.034	1.758	1.094	1.089	1.094	1.113	1.108	1.099
0.005	-0.049	-0.005	-0.015	0.000	-0.005	0.039	1.792	1.099	1.084	1.094	1.113	1.108	1.104
0.015	-0.098	0.000	-0.010	-0.015	0.005	0.039	1.768	1.104	1.074	1.084	1.108	1.108	1.108
0.024	-0.073	-0.010	-0.010	-0.005	0.005	0.039	1.753	1.104	1.094	1.089	1.108	1.108	1.108
0.015	-0.029	-0.015	-0.005	-0.005	0.010	0.039	1.768	1.099	1.104	1.089	1.108	1.108	1.108
-0.005	0.024	-0.005	0.010	0.005	0.010	0.034	1.768	1.099	1.113	1.104	1.118	1.113	1.113
-0.005	0.059	0.000	0.005	0.000	0.005	0.039	1.753	1.094	1.118	1.108	1.118	1.113	1.108
-0.010	0.059	0.000	-0.005	-0.010	0.020	0.034	1.802	1.099	1.108	1.108	1.118	1.108	1.108
-0.005	-0.010	-0.005	-0.010	-0.020	-0.005	0.034	1.787	1.099	1.089	1.099	1.113	1.108	1.104
-0.015	-0.005	0.000	-0.020	-0.010	0.015	0.034	1.792	1.099	1.089	1.099	1.113	1.108	1.108
-0.010	0.010	0.000	-0.020	-0.010	0.015	0.034	1.763	1.104	1.094	1.094	1.113	1.113	1.108
-0.010	-0.020	-0.005	-0.015	-0.005	0.015	0.034	1.748	1.094	1.089	1.094	1.113	1.113	1.113
0.000	-0.029	0.000	-0.005	-0.005	0.020	0.034	1.797	1.104	1.084	1.094	1.113	1.113	1.108
-0.005	-0.034	0.000	0.000	-0.010	0.020	0.034	1.777	1.099	1.094	1.094	1.113	1.108	1.108
0.000	-0.010	0.000	0.005	-0.020	0.000	0.034	1.782	1.099	1.104	1.094	1.113	1.108	1.104
0.005	0.000	-0.005	0.020	-0.029	0.005	0.034	1.748	1.099	1.104	1.094	1.118	1.108	1.104
-0.005	0.005	-0.010	0.044	-0.024	0.005	0.034	1.777	1.094	1.099	1.094	1.123	1.113	1.104
-0.015	0.029	-0.010	0.029	-0.010	-0.005	0.034	1.733	1.094	1.104	1.099	1.118	1.113	1.108
-0.010	-0.005	-0.005	0.005	-0.020	-0.010	0.034	1.787	1.099	1.094	1.094	1.113	1.108	1.104
-0.005	-0.015	-0.005	0.000	-0.010	-0.039	0.034	1.792	1.099	1.089	1.094	1.108	1.108	1.099
-0.005	-0.015	0.000	0.000	0.015	-0.054	0.034	1.685	1.094	1.094	1.094	1.108	1.118	1.099
-0.010	0.029	-0.005	-0.010	0.020	-0.039	0.034	1.802	1.099	1.104	1.099	1.113	1.113	1.113
-0.005	0.059	0.005	-0.010	0.020	0.000	0.034	1.743	1.099	1.118	1.104	1.113	1.118	1.118
0.000	0.088	0.000	-0.015	0.029	0.024	0.029	1.772	1.104	1.108	1.104	1.118	1.118	1.128
0.034	-0.088	0.005	-0.005	0.029	0.054	0.029	1.758	1.108	1.069	1.094	1.118	1.118	1.128
0.010	-0.083	-0.005	-0.010	0.029	0.059	0.034	1.802	1.104	1.079	1.084	1.113	1.113	1.128
0.005	-0.034	-0.005	0.000	0.024	0.039	0.034	1.772	1.104	1.099	1.089	1.113	1.108	1.113
