0.000	-0.010	0.005	0.000	-0.005	-0.039	0.044	3.970	3.662	3.228	3.120	2.939	3.008	3.013
0.000	0.005	0.000	0.000	0.010	-0.024	0.044	3.960	3.491	3.311	3.169	3.008	3.008	3.018
-0.005	0.000	0.000	0.000	0.015	-0.005	0.044	3.989	3.374	3.330	3.213	3.071	3.027	3.027
0.000	0.005	0.005	0.005	0.034	0.010	0.039	3.960	3.286	3.320	3.247	3.120	3.052	3.042
-0.010	0.020	0.005	0.005	0.015	0.005	0.044	3.989	3.223	3.296	3.262	3.164	3.076	3.052
-0.005	0.020	0.005	0.005	-0.020	0.024	0.039	3.975	3.179	3.271	3.267	3.193	3.101	3.066
-0.005	0.005	0.005	0.005	0.034	0.010	0.039	3.960	3.145	3.232	3.257	3.218	3.145	3.086
-0.010	0.010	0.000	0.005	0.034	-0.020	0.039	3.989	3.125	3.203	3.242	3.228	3.164	3.101
-0.010	0.000	0.000	0.000	0.015	0.005	0.044	3.965	3.110	3.174	3.223	3.232	3.179	3.125
0.000	-0.005	0.000	0.000	0.044	-0.020	0.039	4.087	3.120	3.159	3.203	3.232	3.203	3.140
0.005	-0.015	0.000	0.000	0.034	-0.005	0.044	3.945	3.105	3.140	3.184	3.228	3.208	3.164
0.005	0.000	-0.005	0.000	0.010	0.010	0.044	3.940	3.101	3.130	3.169	3.213	3.198	3.174
0.005	0.000	-0.005	0.005	-0.010	0.015	0.039	4.087	3.110	3.125	3.154	3.203	3.198	3.184
0.000	0.005	-0.005	0.005	0.010	0.010	0.044	4.019	3.110	3.120	3.145	3.193	3.198	3.184
0.010	0.010	0.000	0.000	0.005	0.005	0.039	3.921	3.101	3.115	3.135	3.179	3.193	3.188
0.010	0.010	-0.005	0.000	-0.005	0.010	0.039	4.038	3.096	3.110	3.130	3.169	3.184	3.188
0.005	-0.005	-0.005	0.000	-0.010	0.005	0.039	3.931	3.091	3.101	3.120	3.159	3.174	3.184
0.005	-0.005	0.005	0.000	-0.005	0.010	0.039	3.916	3.091	3.101	3.115	3.154	3.169	3.184
0.000	-0.005	-0.005	0.000	0.000	-0.005	0.039	4.023	3.101	3.101	3.110	3.145	3.159	3.174
0.000	0.010	0.000	0.000	-0.010	0.005	0.039	3.940	3.101	3.105	3.110	3.140	3.154	3.174
-0.005	0.015	0.010	0.000	-0.010	-0.020	0.039	4.004	3.110	3.105	3.110	3.135	3.149	3.159
-0.005	0.015	0.010	0.010	-0.005	0.005	0.044	3.960	3.105	3.105	3.110	3.135	3.145	3.164
-0.010	0.005	0.005	0.000	-0.015	0.010	0.044	4.043	3.110	3.105	3.105	3.130	3.135	3.154
-0.005	0.020	0.010	0.000	-0.015	0.005	0.039	3.960	3.105	3.110	3.105	3.130	3.135	3.149
0.000	0.000	0.005	0.000	-0.005	0.010	0.039	4.033	3.115	3.105	3.105	3.125	3.130	3.149
-0.005	0.005	0.010	0.000	0.000	0.010	0.039	3.984	3.110	3.105	3.105	3.125	3.130	3.140
0.000	-0.010	0.005	0.000	-0.005	0.005	0.039	3.989	3.105	3.105	3.101	3.120	3.125	3.140
0.000	0.000	-0.005	0.000	-0.015	0.005	0.039	3.975	3.101	3.105	3.101	3.120	3.120	3.135
0.010	0.010	0.000	0.000	-0.029	0.005	0.039	3.970	3.105	3.110	3.101	3.120	3.120	3.125
0.015	0.000	0.000	0.000	-0.010	-0.005	0.039	3.975	3.101	3.105	3.101	3.120	3.120	3.125
0.015	-0.005	-0.005	0.005	-0.020	-0.029	0.039	3.979	3.091	3.101	3.101	3.120	3.115	3.120
0.015	-0.010	-0.010	0.005	-0.044	-0.010	0.039	3.960	3.091	3.096	3.101	3.120	3.110	3.120
0.005	-0.005	-0.005	-0.005	-0.044	-0.015	0.039	3.965	3.086	3.091	3.096	3.115	3.110	3.115
0.005	-0.005	-0.005	0.000	-0.029	0.010	0.039	3.999	3.091	3.091	3.091	3.115	3.115	3.120
0.010	0.005	0.005	0.000	0.024	0.010	0.039	3.965	3.091	3.091	3.096	3.115	3.125	3.125
-0.005	0.005	0.005	-0.005	0.059	0.010	0.039	3.994	3.086	3.091	3.096	3.115	3.130	3.130
-0.005	0.005	0.005	0.000	0.068	0.015	0.044	3.984	3.091	3.091	3.096	3.115	3.125	3.130
-0.005	0.015	0.005	0.000	0.063	0.015	0.044	3.965	3.091	3.096	3.091	3.115	3.120	3.130
-0.010	0.015	0.005	0.000	0.044	0.010	0.039	3.955	3.091	3.091	3.091	3.110	3.115	3.120
-0.005	0.005	0.005	0.000	0.039	-0.015	0.039	3.999	3.096	3.091	3.091	3.110	3.110	3.115
-0.010	-0.005	0.000	0.010	0.034	-0.034	0.044	3.979	3.091	3.091	3.091	3.110	3.105	3.110
-0.005	-0.005	0.005	0.005	0.000	-0.015	0.039	3.965	3.091	3.091	3.091	3.105	3.096	3.110
0.005	-0.010	0.005	0.000	-0.020	0.005	0.039	3.994	3.091	3.086	3.086	3.105	3.091	3.110
0.000	-0.005	0.005	0.005	-0.029	0.000	0.039	3.970	3.091	3.091	3.086	3.105	3.091	3.105
0.005	-0.005	-0.005	0.000	-0.020	0.005	0.039	3.975	3.091	3.086	3.086	3.105	3.096	3.105
0.005	-0.010	-0.005	0.000	-0.005	0.000	0.044	3.965	3.096	3.086	3.086	3.105	3.101	3.105
0.005	-0.020	0.000	0.000	-0.005	0.010	0.039	3.965	3.091	3.086	3.081	3.101	3.101	3.105
0.010	-0.010	0.000	0.000	-0.015	0.000	0.039	3.979	3.081	3.091	3.086	3.101	3.096	3.105
0.010	-0.020	-0.005	0.005	-0.020	-0.005	0.039	3.940	3.081	3.086	3.081	3.101	3.096	3.101
-0.005	0.005	-0.005	0.000	-0.020	0.010	0.039	4.082	3.091	3.091	3.086	3.101	3.096	3.101
0.000	0.020	0.000	0.000	-0.005	-0.015	0.039	3.950	3.086	3.091	3.086	3.105	3.101	3.096
0.005	0.005	0.000	0.000	0.005	0.015	0.044	3.940	3.081	3.086	3.086	3.101	3.105	3.105
0.000	0.020	0.005	0.000	0.000	0.005	0.039	4.082	3.091	3.086	3.086	3.105	3.101	3.105
0.000	0.010	0.005	0.000	-0.010	0.005	0.039	4.023	3.096	3.086	3.086	3.105	3.101	3.101
0.000	0.010	0.010	0.000	-0.005	-0.010	0.039	3.911	3.081	3.091	3.086	3.105	3.101	3.101
-0.010	0.005	0.005	0.000	0.000	0.010	0.044	4.043	3.086	3.086	3.086	3.105	3.101	3.105
-0.005	0.000	0.005	0.005	0.000	0.000	0.039	3.931	3.076	3.081	3.086	3.101	3.101	3.101
-0.020	0.010	0.005	0.000	0.000	0.000	0.044	4.019	3.081	3.086	3.081	3.101	3.101	3.101
-0.010	0.010	0.000	0.000	-0.010	0.010	0.039	4.014	3.086	3.081	3.086	3.101	3.096	3.105
0.000	-0.005	0.000	-0.005	-0.010	0.005	0.039	3.965	3.081	3.081	3.081	3.101	3.096	3.101
0.005	-0.005	-0.005	0.005	-0.010	-0.010	0.039	3.911	3.076	3.076	3.076	3.101	3.096	3.091
-0.005	-0.010	-0.005	0.010	0.000	0.010	0.039	3.970	3.076	3.076	3.076	3.101	3.101	3.105
0.005	-0.020	-0.010	0.015	0.015	-0.005	0.039	3.940	3.071	3.071	3.076	3.096	3.101	3.101
0.015	-0.005	-0.005	0.010	0.005	0.005	0.044	3.984	3.066	3.076	3.071	3.096	3.096	3.105
0.015	-0.015	-0.005	0.000	0.005	-0.005	0.044	4.033	3.076	3.071	3.071	3.091	3.091	3.096
0.010	-0.005	-0.005	0.000	0.010	0.005	0.039	3.975	3.081	3.076	3.071	3.091	3.096	3.096
0.005	0.000	-0.005	-0.005	0.010	-0.005	0.044	3.994	3.076	3.076	3.071	3.091	3.091	3.096
0.005	0.005	-0.005	-0.005	0.005	0.005	0.044	3.960	3.071	3.076	3.071	3.091	3.091	3.096
0.000	0.000	0.000	0.005	0.015	0.005	0.039	3.989	3.071	3.071	3.076	3.096	3.091	3.096
-0.005	0.010	0.000	0.005	-0.020	0.015	0.039	3.970	3.071	3.076	3.071	3.091	3.081	3.096
0.000	0.010	0.005	0.005	-0.044	0.000	0.039	3.994	3.071	3.071	3.076	3.091	3.076	3.086
-0.005	0.020	0.010	0.005	-0.029	0.015	0.039	3.994	3.071	3.076	3.076	3.091	3.086	3.091
-0.010	0.024	0.005	0.000	0.000	0.010	0.039	3.970	3.071	3.076	3.076	3.091	3.096	3.096
-0.005	0.010	0.005	-0.005	0.049	0.015	0.039	3.994	3.076	3.071	3.071	3.091	3.105	3.101
0.000	-0.005	0.010	-0.005	0.068	0.000	0.039	3.955	3.071	3.066	3.071	3.091	3.105	3.096
-0.005	0.005	0.000	-0.010	0.063	0.005	0.044	3.960	3.066	3.071	3.066	3.086	3.096	3.101
0.000	0.010	0.000	-0.015	0.034	0.005	0.044	3.989	3.076	3.071	3.066	3.086	3.086	3.091
0.005	-0.005	0.000	-0.010	-0.005	-0.005	0.044	3.960	3.071	3.066	3.066	3.086	3.071	3.086
-0.005	-0.005	0.000	-0.010	-0.020	-0.015	0.039	3.960	3.062	3.066	3.062	3.081	3.071	3.081
0.005	-0.005	-0.005	-0.005	-0.020	-0.020	0.039	3.975	3.066	3.066	3.062	3.086	3.071	3.076
0.000	-0.010	0.000	0.000	-0.020	0.010	0.039	3.984	3.066	3.066	3.062	3.086	3.076	3.086
0.015	-0.015	-0.005	0.010	-0.015	0.010	0.044	3.960	3.066	3.062	3.062	3.086	3.076	3.081
0.010	0.000	0.000	0.015	-0.005	0.005	0.039	3.989	3.066	3.066	3.062	3.086	3.081	3.081
0.005	-0.005	0.000	0.015	0.000	0.000	0.039	3.960	3.062	3.066	3.062	3.086	3.086	3.081
0.005	0.005	0.000	0.024	0.020	-0.005	0.039	3.970	3.062	3.066	3.066	3.086	3.086	3.086
0.005	0.005	0.005	0.015	0.010	-0.024	0.044	3.970	3.062	3.062	3.062	3.086	3.081	3.076
0.000	0.010	0.005	0.015	-0.015	0.010	0.044	3.989	3.062	3.066	3.062	3.081	3.076	3.086
-0.010	0.010	0.010	0.005	-0.039	-0.020	0.039	3.989	3.062	3.062	3.062	3.081	3.066	3.076
-0.005	0.024	0.005	0.010	-0.054	0.005	0.039	3.955	3.062	3.066	3.062	3.076	3.066	3.081
-0.005	0.010	0.005	0.005	-0.049	0.015	0.039	4.082	3.071	3.062	3.062	3.076	3.071	3.081
-0.005	0.000	0.005	0.000	-0.010	-0.005	0.039	3.955	3.066	3.062	3.062	3.081	3.081	3.081
-0.010	-0.005	0.000	0.000	0.034	0.010	0.044	3.940	3.062	3.062	3.057	3.076	3.091	3.086
-0.005	0.000	0.005	-0.010	0.059	-0.010	0.044	4.082	3.076	3.062	3.062	3.076	3.091	3.086
0.000	-0.010	0.000	-0.015	0.078	-0.020	0.044	4.014	3.076	3.066	3.057	3.071	3.091	3.086
0.005	-0.005	0.000	-0.015	0.088	-0.015	0.044	3.916	3.066	3.066	3.057	3.076	3.086	3.086
0.010	0.000	-0.005	-0.010	0.059	-0.005	0.044	4.038	3.076	3.066	3.062	3.076	3.076	3.086
0.010	-0.005	-0.005	-0.005	0.020	0.005	0.044	3.921	3.062	3.062	3.062	3.076	3.062	3.081
0.015	-0.010	-0.005	-0.005	-0.059	0.005	0.039	4.009	3.066	3.066	3.062	3.076	3.047	3.071
0.010	-0.015	-0.005	0.005	-0.073	0.005	0.039	4.014	3.066	3.062	3.062	3.076	3.052	3.066
0.015	0.000	-0.005	0.010	-0.034	0.005	0.039	3.965	3.062	3.066	3.062	3.081	3.066	3.066
0.010	-0.005	0.000	0.010	-0.015	0.020	0.039	3.926	3.062	3.062	3.062	3.081	3.076	3.076
-0.005	0.010	0.005	0.005	-0.020	0.015	0.044	3.970	3.057	3.062	3.062	3.081	3.071	3.076
-0.005	0.010	0.000	0.005	0.005	0.024	0.039	3.950	3.052	3.062	3.062	3.081	3.081	3.081
-0.005	0.015	0.005	0.005	0.054	0.000	0.044	3.955	3.052	3.062	3.062	3.081	3.096	3.081
-0.010	0.005	0.005	0.000	0.093	0.000	0.039	4.033	3.062	3.057	3.062	3.081	3.096	3.086
-0.005	0.010	0.005	0.000	0.068	-0.020	0.039	3.965	3.066	3.062	3.062	3.081	3.081	3.081
-0.005	0.010	0.005	0.000	0.049	0.000	0.039	3.994	3.062	3.062	3.057	3.076	3.076	3.081
-0.005	0.015	0.010	0.000	0.000	-0.005	0.039	3.960	3.057	3.062	3.062	3.076	3.062	3.076
0.000	0.000	0.000	0.005	-0.024	-0.005	0.039	3.989	3.062	3.057	3.057	3.076	3.057	3.071
-0.005	-0.020	0.005	0.000	-0.039	-0.024	0.039	3.965	3.057	3.052	3.052	3.076	3.057	3.062
0.000	-0.020	-0.005	0.005	-0.039	-0.020	0.039	3.989	3.057	3.057	3.052	3.071	3.062	3.066
0.000	-0.010	-0.005	0.005	-0.024	-0.015	0.044	3.999	3.057	3.052	3.052	3.071	3.066	3.066
0.015	-0.005	0.000	0.005	-0.010	-0.020	0.039	3.965	3.062	3.057	3.052	3.071	3.071	3.066
0.015	-0.010	-0.005	0.005	-0.029	0.000	0.044	3.999	3.062	3.057	3.052	3.071	3.066	3.071
0.020	-0.010	-0.010	0.005	-0.029	0.010	0.039	3.965	3.057	3.057	3.052	3.071	3.066	3.076
0.010	-0.005	-0.005	0.005	0.010	0.015	0.039	3.970	3.052	3.057	3.052	3.071	3.076	3.076
0.010	-0.005	-0.005	0.000	0.010	0.015	0.039	3.970	3.052	3.057	3.052	3.071	3.076	3.076
0.005	0.010	0.005	0.000	0.000	0.020	0.044	3.960	3.047	3.057	3.052	3.071	3.071	3.081
-0.010	0.005	0.005	0.000	-0.005	0.015	0.039	3.965	3.042	3.052	3.052	3.066	3.066	3.071
0.000	0.015	0.000	-0.005	-0.005	-0.010	0.039	3.965	3.052	3.057	3.052	3.071	3.066	3.062
-0.005	0.010	0.010	-0.005	-0.015	-0.020	0.039	3.965	3.047	3.047	3.052	3.071	3.062	3.062
-0.005	0.024	0.005	0.000	-0.005	-0.039	0.039	3.955	3.047	3.052	3.052	3.071	3.066	3.057
-0.015	0.020	0.000	0.005	-0.054	-0.034	0.044	3.984	3.047	3.047	3.052	3.066	3.052	3.057
-0.015	0.010	0.005	0.005	-0.068	0.010	0.039	3.970	3.052	3.047	3.047	3.071	3.057	3.071
-0.005	0.000	0.005	0.010	-0.005	0.010	0.044	3.994	3.052	3.047	3.047	3.071	3.076	3.076
0.000	-0.005	0.000	0.010	0.000	0.015	0.044	3.970	3.052	3.047	3.047	3.066	3.076	3.076
0.005	0.000	-0.005	0.005	0.005	0.010	0.039	3.984	3.057	3.047	3.047	3.066	3.071	3.071
0.005	0.000	0.000	0.000	-0.063	0.024	0.039	3.984	3.057	3.047	3.047	3.062	3.052	3.066
0.000	-0.020	-0.005	0.000	-0.010	0.015	0.039	3.960	3.052	3.047	3.042	3.062	3.066	3.066
0.020	-0.015	-0.005	-0.010	-0.005	0.015	0.039	4.082	3.066	3.052	3.047	3.062	3.062	3.066
0.015	-0.005	-0.005	-0.010	0.054	0.015	0.039	3.945	3.062	3.057	3.047	3.062	3.081	3.076
0.015	0.010	-0.005	-0.010	0.171	0.005	0.044	3.940	3.057	3.062	3.052	3.066	3.110	3.086
0.010	0.010	0.000	-0.010	0.200	-0.005	0.044	4.077	3.066	3.062	3.052	3.066	3.096	3.086
0.010	0.020	0.000	-0.010	0.073	0.015	0.044	4.019	3.066	3.066	3.052	3.062	3.057	3.081
0.005	0.005	0.005	-0.005	0.029	0.005	0.044	3.921	3.057	3.057	3.057	3.066	3.047	3.071
-0.005	0.000	0.000	-0.005	0.039	0.010	0.044	4.033	3.052	3.057	3.057	3.071	3.052	3.066
-0.010	0.015	0.000	0.005	0.010	0.000	0.044	3.926	3.042	3.057	3.057	3.071	3.052	3.062
-0.010	0.010	0.010	0.000	-0.020	0.010	0.039	4.019	3.047	3.052	3.057	3.071	3.047	3.062
-0.010	0.010	0.005	0.005	-0.039	-0.005	0.039	4.038	3.057	3.052	3.052	3.071	3.047	3.052
-0.005	0.005	0.005	0.005	-0.073	0.000	0.044	3.970	3.057	3.052	3.052	3.071	3.042	3.052
-0.010	0.010	0.005	0.005	-0.059	-0.005	0.039	3.921	3.047	3.052	3.052	3.066	3.052	3.052
-0.010	0.005	0.010	0.000	-0.059	-0.029	0.044	3.970	3.047	3.047	3.052	3.071	3.057	3.047
-0.010	0.000	0.005	0.005	-0.063	-0.024	0.044	3.955	3.047	3.047	3.047	3.066	3.057	3.052
0.000	-0.010	0.000	0.010	-0.034	-0.020	0.044	3.989	3.047	3.042	3.047	3.066	3.066	3.062
0.010	-0.010	-0.005	0.005	-0.020	0.000	0.039	3.940	3.047	3.042	3.042	3.066	3.071	3.066
0.015	-0.015	-0.005	0.010	0.000	0.000	0.039	3.960	3.047	3.042	3.042	3.062	3.071	3.071
0.015	-0.015	-0.005	0.005	0.015	0.000	0.044	3.994	3.047	3.042	3.037	3.062	3.071	3.071
0.010	-0.005	-0.005	0.005	0.005	-0.010	0.044	3.989	3.052	3.047	3.042	3.062	3.062	3.066
0.005	-0.015	-0.005	0.005	-0.005	0.000	0.039	3.979	3.047	3.047	3.042	3.062	3.057	3.066
0.005	-0.005	-0.005	0.000	0.000	0.020	0.044	3.965	3.042	3.047	3.042	3.057	3.062	3.071
0.005	0.000	0.000	0.000	0.020	0.010	0.039	3.984	3.047	3.047	3.042	3.062	3.062	3.066
0.000	-0.005	0.000	0.005	0.024	0.024	0.044	3.984	3.047	3.047	3.047	3.062	3.066	3.071
-0.010	0.010	0.005	0.005	0.029	0.020	0.044	3.975	3.047	3.047	3.047	3.062	3.066	3.066
-0.005	0.005	0.010	0.000	0.024	0.015	0.044	3.999	3.047	3.047	3.047	3.062	3.062	3.066
-0.005	0.020	0.010	-0.005	0.024	0.000	0.039	3.999	3.052	3.052	3.047	3.062	3.062	3.062
-0.010	0.020	0.005	0.000	0.015	0.024	0.039	3.994	3.052	3.052	3.047	3.062	3.057	3.066
-0.005	0.029	0.005	0.005	0.010	0.015	0.039	3.960	3.052	3.057	3.047	3.066	3.057	3.062
-0.010	0.015	0.005	0.005	-0.005	0.005	0.044	3.970	3.047	3.047	3.047	3.066	3.052	3.062
-0.010	0.000	0.005	0.000	-0.005	0.015	0.039	3.960	3.042	3.042	3.042	3.062	3.057	3.062
-0.010	0.010	-0.005	0.000	-0.005	0.015	0.044	3.970	3.047	3.047	3.042	3.062	3.057	3.062
-0.005	0.005	0.000	0.005	0.005	0.010	0.039	3.975	3.047	3.042	3.042	3.062	3.057	3.057
0.005	-0.005	0.000	0.005	-0.005	0.005	0.039	3.955	3.047	3.042	3.042	3.062	3.057	3.057
0.005	-0.020	-0.005	0.000	-0.010	-0.005	0.039	3.989	3.047	3.037	3.037	3.057	3.052	3.057
0.020	-0.015	-0.005	0.000	-0.010	0.005	0.044	3.970	3.052	3.042	3.042	3.057	3.052	3.062
0.005	-0.020	0.000	0.000	-0.005	0.005	0.039	3.984	3.047	3.042	3.042	3.057	3.057	3.057
0.015	-0.010	-0.005	0.000	0.015	0.005	0.039	3.970	3.047	3.047	3.037	3.057	3.057	3.062
0.010	0.000	-0.010	0.000	0.024	0.005	0.044	3.979	3.042	3.047	3.037	3.057	3.062	3.057
0.005	0.005	0.000	0.000	0.015	-0.010	0.044	3.975	3.047	3.047	3.042	3.057	3.057	3.057
-0.005	0.005	0.005	0.000	-0.015	-0.010	0.039	3.955	3.037	3.047	3.042	3.057	3.042	3.047
-0.005	0.015	0.000	0.000	-0.020	-0.005	0.039	4.097	3.057	3.047	3.042	3.062	3.047	3.052
0.000	0.000	0.010	0.005	-0.015	-0.015	0.044	3.945	3.047	3.047	3.047	3.062	3.052	3.052
-0.005	0.005	0.005	0.000	-0.020	-0.010	0.039	3.931	3.042	3.047	3.042	3.062	3.052	3.057
-0.010	0.015	0.005	0.000	-0.054	-0.005	0.044	3.960	3.052	3.047	3.047	3.057	3.042	3.052
-0.005	0.010	0.005	0.005	-0.063	0.005	0.039	4.033	3.057	3.047	3.047	3.062	3.047	3.057
-0.005	0.010	0.000	0.005	-0.078	0.020	0.039	3.906	3.042	3.047	3.047	3.062	3.047	3.057
0.000	0.000	0.005	-0.005	-0.044	0.015	0.039	4.048	3.052	3.042	3.042	3.062	3.062	3.057
0.005	-0.029	0.005	0.000	0.068	0.000	0.039	4.014	3.042	3.037	3.042	3.062	3.091	3.062
0.005	-0.024	0.000	0.000	0.073	0.000	0.039	3.911	3.037	3.042	3.037	3.062	3.076	3.066
0.010	-0.020	-0.005	0.005	0.000	-0.020	0.044	3.921	3.047	3.042	3.037	3.057	3.052	3.062
0.005	-0.005	0.000	0.000	-0.015	0.005	0.039	3.955	3.047	3.047	3.037	3.057	3.047	3.062
0.005	-0.010	-0.005	0.000	-0.005	0.000	0.039	3.926	3.042	3.042	3.037	3.057	3.057	3.062
0.010	0.005	0.000	0.000	0.054	0.015	0.039	3.970	3.042	3.047	3.042	3.057	3.071	3.066
0.005	0.005	-0.005	0.000	0.083	-0.005	0.044	3.940	3.047	3.047	3.042	3.062	3.076	3.066
0.005	-0.005	-0.005	0.000	0.063	0.010	0.039	3.970	3.047	3.042	3.037	3.057	3.062	3.066
0.000	-0.005	0.000	0.005	0.015	0.000	0.039	3.940	3.047	3.042	3.042	3.057	3.047	3.057
-0.005	0.015	0.005	0.000	0.015	0.000	0.039	3.975	3.047	3.047	3.042	3.057	3.047	3.057
-0.010	0.015	0.005	-0.005	0.005	-0.024	0.039	3.989	3.042	3.047	3.042	3.057	3.047	3.052
-0.010	0.020	0.010	0.000	-0.005	-0.005	0.039	3.989	3.047	3.047	3.047	3.062	3.047	3.052
-0.005	0.020	0.005	0.000	-0.010	0.010	0.039	3.960	3.047	3.047	3.047	3.062	3.047	3.057
-0.015	0.034	0.005	0.005	-0.005	-0.005	0.039	3.965	3.042	3.052	3.047	3.062	3.052	3.052
-0.010	0.024	0.005	0.005	0.000	0.000	0.044	3.984	3.047	3.047	3.042	3.062	3.057	3.057
-0.010	0.015	0.010	0.000	0.029	0.005	0.044	3.975	3.047	3.047	3.047	3.062	3.066	3.062
-0.005	0.005	0.005	0.005	0.034	-0.005	0.039	3.994	3.052	3.042	3.042	3.062	3.062	3.057
0.000	0.000	0.010	0.000	0.015	0.005	0.044	3.994	3.052	3.042	3.042	3.062	3.057	3.062
0.005	0.000	-0.005	0.005	-0.010	0.005	0.039	3.965	3.052	3.042	3.037	3.057	3.052	3.057
0.010	-0.015	0.000	0.000	-0.015	0.000	0.039	3.970	3.052	3.042	3.037	3.057	3.052	3.052
0.015	-0.015	-0.005	0.005	-0.015	0.000	0.044	3.965	3.047	3.042	3.037	3.057	3.052	3.057
0.015	-0.010	0.000	0.000	-0.005	-0.024	0.044	3.970	3.047	3.042	3.037	3.057	3.052	3.047
0.010	0.000	-0.005	0.000	0.020	-0.005	0.039	3.975	3.037	3.042	3.037	3.057	3.057	3.062
0.000	-0.005	0.000	0.010	0.020	0.005	0.044	3.984	3.037	3.037	3.042	3.057	3.057	3.062
0.005	0.000	-0.005	0.000	0.015	0.005	0.044	3.950	3.042	3.042	3.037	3.057	3.057	3.062
0.010	-0.005	0.005	0.000	-0.020	-0.005	0.039	3.994	3.037	3.042	3.042	3.052	3.042	3.052
0.000	0.000	0.005	0.005	-0.029	0.000	0.039	3.994	3.037	3.042	3.042	3.057	3.047	3.052
0.000	0.000	0.010	0.000	-0.073	-0.005	0.039	3.970	3.042	3.042	3.037	3.052	3.037	3.047
-0.005	0.010	0.005	0.000	-0.083	0.000	0.039	3.975	3.037	3.042	3.037	3.057	3.037	3.047
-0.005	0.015	0.005	0.000	-0.059	-0.005	0.039	3.975	3.037	3.037	3.037	3.057	3.047	3.042
-0.010	0.000	0.015	0.000	-0.049	-0.015	0.039	3.960	3.037	3.037	3.037	3.057	3.052	3.047
-0.005	0.005	0.010	0.000	-0.029	0.005	0.044	3.989	3.042	3.037	3.037	3.057	3.057	3.057
-0.005	0.010	0.005	0.005	0.005	-0.005	0.039	3.950	3.042	3.042	3.037	3.057	3.066	3.057
-0.010	-0.005	0.000	0.000	0.010	0.029	0.044	4.077	3.052	3.037	3.032	3.057	3.062	3.071
0.005	-0.015	0.000	0.000	-0.015	0.049	0.039	3.950	3.052	3.037	3.032	3.052	3.052	3.071
0.005	-0.020	0.000	0.000	0.029	0.034	0.039	3.940	3.042	3.037	3.032	3.057	3.066	3.066
0.010	-0.024	0.000	0.000	0.083	0.020	0.044	4.077	3.057	3.042	3.032	3.052	3.076	3.066
0.010	0.000	-0.005	-0.005	0.078	-0.005	0.039	4.019	3.057	3.052	3.037	3.052	3.066	3.057
0.010	-0.005	0.000	0.005	0.015	-0.020	0.039	3.906	3.047	3.052	3.037	3.057	3.042	3.052
0.000	-0.015	0.000	0.000	-0.010	-0.010	0.039	4.043	3.047	3.047	3.042	3.052	3.037	3.052
0.005	0.000	0.000	0.005	0.000	-0.015	0.039	3.931	3.042	3.047	3.042	3.057	3.047	3.047
0.000	0.005	0.000	0.005	0.000	-0.010	0.039	4.004	3.032	3.047	3.042	3.057	3.047	3.047
0.005	0.015	0.000	0.005	-0.005	-0.010	0.044	4.014	3.037	3.047	3.047	3.057	3.047	3.052
0.005	0.015	0.005	0.000	-0.020	0.005	0.044	3.950	3.037	3.042	3.042	3.062	3.047	3.052
0.000	0.015	0.005	0.005	-0.034	0.010	0.039	3.901	3.032	3.042	3.042	3.057	3.047	3.052
-0.015	0.010	0.010	0.005	-0.005	-0.024	0.039	3.955	3.027	3.037	3.042	3.057	3.057	3.047
0.000	0.005	0.005	-0.005	0.000	0.000	0.039	4.048	3.037	3.032	3.037	3.057	3.057	3.057
-0.010	0.010	0.005	-0.005	0.010	0.005	0.039	3.965	3.037	3.037	3.037	3.057	3.057	3.062
0.000	0.000	0.005	-0.005	0.020	0.005	0.039	3.940	3.037	3.032	3.032	3.057	3.057	3.057
0.000	-0.005	0.005	-0.005	0.015	0.000	0.044	3.965	3.037	3.032	3.032	3.052	3.057	3.057
0.005	0.000	0.000	-0.005	0.010	0.005	0.044	3.999	3.047	3.037	3.032	3.052	3.052	3.057
0.005	-0.005	0.000	0.000	0.000	0.000	0.039	3.975	3.042	3.037	3.032	3.052	3.047	3.052
0.010	-0.010	-0.005	0.005	0.000	0.015	0.044	3.984	3.042	3.037	3.032	3.052	3.047	3.057
0.010	-0.005	-0.005	0.005	-0.005	0.015	0.039	3.970	3.042	3.037	3.032	3.052	3.047	3.052
0.020	-0.005	-0.005	0.005	0.000	0.000	0.044	3.984	3.047	3.042	3.032	3.052	3.047	3.052
0.015	-0.020	0.000	0.005	0.000	0.010	0.039	3.989	3.042	3.037	3.032	3.052	3.047	3.052
0.005	-0.010	0.000	0.000	0.000	0.015	0.039	3.994	3.042	3.037	3.037	3.052	3.047	3.052
0.005	-0.015	0.005	0.000	0.015	0.015	0.039	3.999	3.042	3.037	3.037	3.052	3.052	3.052
0.010	0.005	0.000	0.000	0.005	0.020	0.044	3.975	3.037	3.042	3.037	3.052	3.047	3.052
0.000	0.015	0.000	0.005	-0.029	0.010	0.039	3.975	3.037	3.042	3.037	3.052	3.037	3.042
-0.010	0.015	0.010	0.010	-0.034	-0.010	0.039	3.989	3.042	3.047	3.042	3.057	3.037	3.042
-0.015	0.015	0.005	0.010	-0.034	-0.034	0.044	3.960	3.037	3.042	3.037	3.057	3.042	3.032
-0.005	0.020	0.010	0.005	-0.054	-0.015	0.039	3.955	3.037	3.042	3.042	3.052	3.042	3.047
0.000	0.010	0.015	0.000	-0.068	0.000	0.039	3.965	3.032	3.037	3.037	3.052	3.037	3.047
-0.005	0.005	0.005	-0.005	-0.049	0.000	0.039	3.994	3.032	3.032	3.037	3.052	3.047	3.047
-0.020	0.010	0.000	-0.005	-0.039	-0.005	0.039	3.979	3.037	3.032	3.032	3.052	3.052	3.047
0.005	0.000	0.005	0.000	0.015	-0.029	0.039	3.979	3.037	3.037	3.037	3.052	3.066	3.052
0.000	0.000	0.000	-0.005	0.063	-0.010	0.039	3.965	3.037	3.032	3.032	3.052	3.076	3.062
0.000	-0.024	0.000	-0.005	0.098	0.000	0.039	3.999	3.042	3.027	3.027	3.052	3.076	3.071
0.000	-0.024	0.000	-0.005	0.107	0.005	0.044	3.950	3.037	3.032	3.032	3.052	3.071	3.071
0.010	0.000	-0.005	0.000	0.073	0.005	0.039	3.965	3.042	3.037	3.027	3.052	3.052	3.066
0.010	0.000	-0.010	0.000	0.010	-0.010	0.039	3.979	3.047	3.037	3.032	3.047	3.032	3.052
0.010	-0.005	-0.005	0.005	-0.039	-0.010	0.039	3.955	3.042	3.037	3.032	3.047	3.022	3.042
0.000	0.005	-0.005	0.005	-0.005	-0.015	0.039	3.979	3.032	3.037	3.032	3.047	3.037	3.047
0.005	0.005	0.000	0.005	0.034	0.005	0.039	3.950	3.027	3.037	3.032	3.052	3.052	3.057
-0.005	0.005	0.000	0.000	0.020	-0.010	0.039	3.940	3.027	3.032	3.032	3.052	3.042	3.047
0.005	0.010	0.005	0.000	0.010	0.000	0.039	3.965	3.032	3.037	3.032	3.052	3.047	3.047
-0.010	0.005	0.005	0.005	0.117	0.010	0.044	4.014	3.037	3.037	3.032	3.057	3.076	3.062
-0.010	0.010	0.005	0.005	0.112	0.020	0.044	4.009	3.042	3.037	3.037	3.052	3.062	3.066
-0.010	0.010	0.005	0.005	0.020	0.000	0.039	4.033	3.047	3.037	3.032	3.052	3.037	3.052
-0.005	0.010	0.005	0.005	-0.020	0.010	0.039	4.023	3.052	3.042	3.037	3.052	3.027	3.047
-0.010	0.015	0.005	0.000	-0.029	-0.010	0.044	4.004	3.052	3.047	3.037	3.047	3.027	3.037
-0.010	0.015	0.000	0.000	-0.020	0.020	0.039	3.926	3.042	3.042	3.037	3.052	3.037	3.047
0.000	0.000	0.005	0.000	-0.024	0.020	0.039	3.940	3.037	3.037	3.037	3.052	3.042	3.047
0.000	0.000	0.000	0.000	-0.020	0.010	0.039	3.911	3.037	3.037	3.032	3.052	3.042	3.042
0.010	-0.020	0.000	0.000	-0.020	0.000	0.039	3.955	3.037	3.032	3.032	3.052	3.047	3.047
0.010	-0.010	-0.005	-0.005	-0.020	0.010	0.044	3.911	3.027	3.032	3.032	3.052	3.047	3.047
0.005	-0.010	-0.005	0.000	-0.010	0.005	0.039	3.999	3.027	3.032	3.027	3.052	3.047	3.047
0.015	-0.015	-0.005	0.000	-0.010	0.020	0.044	3.950	3.032	3.032	3.027	3.052	3.047	3.052
0.005	-0.010	-0.005	0.000	-0.010	0.010	0.044	3.975	3.032	3.032	3.027	3.047	3.047	3.047
0.005	-0.005	0.000	0.005	-0.010	-0.005	0.039	3.984	3.032	3.032	3.027	3.047	3.047	3.042
0.000	0.005	0.005	0.005	-0.024	0.015	0.039	3.994	3.032	3.032	3.032	3.047	3.037	3.047
0.010	0.005	0.000	0.005	-0.039	0.015	0.039	3.984	3.037	3.037	3.027	3.047	3.037	3.047
0.005	0.015	0.005	0.010	-0.039	0.024	0.039	3.965	3.037	3.037	3.032	3.047	3.037	3.047
-0.005	0.015	0.005	0.000	-0.088	0.015	0.039	3.999	3.037	3.032	3.032	3.047	3.027	3.037
0.000	0.010	0.010	0.005	-0.098	-0.005	0.039	3.960	3.032	3.037	3.032	3.047	3.032	3.032
-0.010	0.010	0.000	0.000	-0.063	-0.005	0.039	3.989	3.032	3.032	3.032	3.047	3.042	3.037
-0.005	0.020	0.010	0.000	-0.024	-0.010	0.039	3.975	3.037	3.037	3.032	3.052	3.052	3.042
-0.005	0.010	0.010	0.005	-0.029	0.000	0.044	3.970	3.037	3.032	3.032	3.052	3.052	3.047
0.005	0.010	0.000	0.005	-0.010	0.005	0.039	3.960	3.032	3.032	3.027	3.052	3.057	3.052
0.000	0.005	-0.005	0.000	0.005	0.015	0.039	3.999	3.037	3.032	3.027	3.047	3.057	3.057
0.015	-0.010	-0.005	0.000	0.029	0.010	0.039	3.960	3.037	3.032	3.027	3.047	3.062	3.057
0.005	-0.015	0.000	0.005	0.073	0.015	0.039	3.955	3.037	3.027	3.027	3.052	3.071	3.062
0.010	-0.029	-0.010	0.005	0.107	0.000	0.039	3.965	3.037	3.027	3.027	3.047	3.071	3.062
0.010	-0.020	0.000	0.000	0.137	-0.005	0.039	3.975	3.037	3.032	3.027	3.047	3.071	3.066
0.005	-0.005	-0.005	0.005	0.127	0.015	0.039	3.994	3.037	3.037	3.027	3.047	3.062	3.071
0.000	-0.010	-0.005	0.005	0.073	-0.015	0.044	3.979	3.037	3.032	3.027	3.047	3.037	3.052
0.005	0.005	0.000	0.005	0.029	-0.005	0.044	3.970	3.037	3.037	3.032	3.047	3.027	3.047
-0.005	-0.005	0.000	0.000	-0.005	0.000	0.039	3.965	3.037	3.032	3.032	3.047	3.022	3.042
-0.005	0.000	0.005	0.000	-0.010	-0.005	0.044	3.965	3.032	3.037	3.032	3.042	3.027	3.037
-0.005	0.029	0.000	0.005	0.000	-0.010	0.039	3.965	3.032	3.042	3.037	3.052	3.032	3.032
-0.005	0.024	0.005	0.000	-0.010	-0.024	0.039	3.984	3.032	3.037	3.037	3.047	3.037	3.032
-0.015	0.024	0.005	-0.005	-0.015	0.010	0.039	3.950	3.027	3.037	3.037	3.047	3.037	3.037
-0.010	0.024	0.005	0.000	-0.010	0.000	0.044	4.092	3.042	3.032	3.032	3.052	3.042	3.042
-0.015	0.024	0.000	0.000	0.000	-0.005	0.044	3.945	3.032	3.037	3.032	3.052	3.047	3.042
0.000	0.005	0.000	0.000	-0.005	-0.015	0.039	3.936	3.037	3.027	3.032	3.052	3.042	3.037
-0.005	-0.005	0.000	-0.005	0.010	0.000	0.039	4.067	3.047	3.027	3.032	3.052	3.047	3.047
0.000	-0.010	0.000	0.000	0.015	-0.005	0.044	4.023	3.052	3.032	3.032	3.052	3.047	3.047
-0.010	-0.010	0.000	-0.005	0.034	-0.005	0.039	3.916	3.037	3.032	3.032	3.047	3.052	3.052
0.010	-0.015	0.000	0.000	0.039	0.000	0.039	3.950	3.037	3.032	3.027	3.047	3.052	3.052
0.005	-0.010	-0.005	0.000	0.029	-0.005	0.039	3.945	3.027	3.032	3.027	3.047	3.047	3.052
0.005	-0.010	-0.005	0.000	0.029	-0.015	0.039	4.004	3.032	3.032	3.027	3.047	3.047	3.047
0.000	-0.005	-0.010	0.000	-0.005	0.005	0.039	3.916	3.037	3.032	3.027	3.047	3.037	3.047
0.005	-0.010	-0.005	0.000	-0.020	-0.005	0.044	3.965	3.037	3.037	3.027	3.047	3.032	3.042
0.005	0.005	-0.005	0.005	-0.054	-0.015	0.044	3.916	3.027	3.032	3.032	3.047	3.022	3.037
0.005	0.000	0.000	0.000	-0.083	-0.029	0.039	3.965	3.022	3.032	3.032	3.047	3.022	3.027
-0.010	0.010	0.005	0.005	-0.063	-0.049	0.039	4.033	3.032	3.032	3.032	3.047	3.032	3.022
-0.005	0.010	0.000	0.000	-0.068	-0.029	0.039	3.965	3.027	3.027	3.027	3.047	3.032	3.032
-0.005	0.015	0.010	0.000	-0.132	0.000	0.039	3.950	3.027	3.027	3.032	3.047	3.018	3.037
0.000	0.015	0.005	0.005	-0.151	0.015	0.039	3.965	3.027	3.032	3.027	3.047	3.022	3.037
-0.010	0.010	0.005	0.000	-0.093	0.005	0.039	3.989	3.027	3.027	3.027	3.047	3.047	3.042
-0.005	0.005	0.005	0.000	0.073	-0.010	0.039	3.970	3.032	3.027	3.032	3.052	3.091	3.057
-0.010	0.005	0.005	0.000	0.161	0.020	0.039	3.975	3.027	3.027	3.027	3.052	3.105	3.076
-0.010	-0.005	0.000	0.005	0.176	0.029	0.044	3.965	3.032	3.027	3.027	3.052	3.091	3.086
0.000	-0.005	0.000	0.000	0.186	0.020	0.044	3.984	3.042	3.027	3.027	3.052	3.081	3.081
0.005	-0.010	-0.005	0.000	0.190	0.020	0.039	3.965	3.042	3.032	3.022	3.047	3.071	3.081
0.005	-0.015	0.000	0.000	0.088	0.020	0.044	3.979	3.042	3.032	3.027	3.042	3.032	3.066
0.015	-0.015	-0.005	0.000	0.000	0.029	0.039	3.960	3.042	3.037	3.027	3.037	3.013	3.052
0.000	-0.005	-0.005	0.000	-0.010	-0.005	0.039	3.970	3.037	3.037	3.027	3.042	3.013	3.032
0.010	-0.010	-0.005	0.000	0.020	-0.015	0.039	3.965	3.032	3.037	3.032	3.042	3.027	3.027
0.005	-0.015	-0.005	0.000	0.034	-0.005	0.039	3.975	3.032	3.037	3.027	3.047	3.037	3.037
0.005	-0.005	0.000	0.000	-0.010	-0.020	0.044	3.950	3.032	3.037	3.032	3.047	3.027	3.027
-0.005	0.015	0.005	0.000	-0.039	-0.020	0.039	3.975	3.032	3.037	3.032	3.047	3.022	3.027
0.005	0.010	0.005	-0.005	-0.059	0.010	0.044	4.004	3.032	3.037	3.032	3.047	3.022	3.032
0.000	0.024	0.005	0.000	-0.059	0.010	0.044	3.979	3.032	3.037	3.032	3.047	3.027	3.037
-0.005	0.015	0.005	0.000	-0.054	0.010	0.044	3.965	3.027	3.032	3.032	3.047	3.037	3.037
-0.005	0.015	0.005	0.000	-0.059	0.000	0.039	3.989	3.037	3.032	3.032	3.047	3.037	3.032
-0.010	0.010	0.005	0.000	-0.039	0.010	0.044	3.979	3.032	3.032	3.032	3.047	3.047	3.042
-0.010	0.005	0.010	-0.005	-0.029	-0.005	0.039	3.994	3.032	3.027	3.032	3.047	3.047	3.042
0.000	0.000	0.010	0.000	-0.020	0.005	0.039	3.975	3.037	3.032	3.027	3.047	3.052	3.047
0.005	0.000	0.005	0.000	-0.020	-0.005	0.039	3.979	3.037	3.032	3.032	3.047	3.047	3.047
0.000	-0.005	0.005	0.000	-0.010	0.010	0.039	3.984	3.037	3.027	3.027	3.047	3.047	3.047
0.005	-0.005	-0.005	0.000	-0.020	0.005	0.039	3.945	3.032	3.032	3.027	3.047	3.042	3.047
0.015	-0.005	-0.010	0.000	-0.029	0.010	0.044	4.092	3.047	3.032	3.027	3.042	3.037	3.047
0.005	-0.015	-0.005	0.005	-0.039	0.010	0.039	3.936	3.037	3.032	3.027	3.047	3.037	3.047
0.010	0.005	-0.015	0.005	-0.020	0.005	0.039	3.936	3.032	3.037	3.027	3.047	3.042	3.047
0.005	-0.010	0.000	0.005	-0.039	-0.005	0.044	4.087	3.047	3.037	3.032	3.047	3.032	3.037
0.005	-0.005	0.000	0.000	-0.088	0.000	0.039	4.033	3.047	3.037	3.032	3.047	3.022	3.037
0.005	0.000	0.005	0.000	-0.063	0.015	0.039	3.911	3.032	3.037	3.037	3.047	3.037	3.042
0.000	0.000	0.005	0.000	-0.029	-0.015	0.039	4.038	3.042	3.037	3.032	3.047	3.047	3.037
0.010	0.020	0.005	0.000	0.005	-0.015	0.039	3.940	3.032	3.042	3.037	3.052	3.057	3.042
0.000	0.010	0.010	0.000	0.029	-0.005	0.039	3.950	3.037	3.037	3.037	3.052	3.062	3.052
-0.005	0.015	0.010	0.000	0.020	-0.015	0.039	3.994	3.037	3.037	3.037	3.052	3.057	3.052
0.000	0.029	0.010	0.000	0.020	-0.020	0.039	3.970	3.042	3.042	3.037	3.057	3.052	3.052
-0.005	0.010	0.010	0.000	0.049	0.000	0.039	3.931	3.032	3.037	3.037	3.057	3.062	3.062
-0.005	0.000	0.005	0.005	0.073	0.015	0.044	3.970	3.027	3.032	3.032	3.057	3.066	3.066
-0.005	-0.005	0.005	0.005	0.039	0.015	0.044	3.921	3.027	3.027	3.032	3.052	3.052	3.066
-0.005	-0.005	0.000	0.005	0.049	0.024	0.044	3.970	3.032	3.027	3.027	3.052	3.057	3.062
0.000	-0.005	0.000	-0.005	0.024	0.015	0.044	4.033	3.042	3.032	3.027	3.047	3.042	3.057
0.000	-0.020	-0.005	0.005	0.005	0.015	0.039	3.970	3.037	3.027	3.027	3.047	3.042	3.052
0.000	-0.015	0.000	0.005	-0.020	0.010	0.039	3.999	3.042	3.032	3.027	3.047	3.032	3.047
0.005	-0.020	0.000	0.005	-0.020	0.005	0.039	3.999	3.042	3.032	3.027	3.047	3.032	3.042
0.010	-0.005	-0.005	0.000	-0.010	-0.010	0.039	3.984	3.042	3.037	3.027	3.042	3.037	3.037
0.010	-0.005	-0.005	0.005	-0.005	-0.005	0.039	3.965	3.037	3.037	3.032	3.047	3.042	3.042
0.005	0.005	-0.005	0.000	0.005	0.000	0.039	3.989	3.037	3.042	3.032	3.047	3.047	3.047
0.005	0.005	0.000	0.000	0.000	-0.020	0.039	3.960	3.037	3.037	3.032	3.047	3.042	3.042
0.000	0.015	0.005	0.005	0.005	0.000	0.044	3.970	3.032	3.037	3.037	3.052	3.047	3.047
0.000	0.010	0.005	0.000	0.005	0.000	0.039	3.965	3.027	3.037	3.032	3.052	3.047	3.047
-0.005	0.020	0.000	0.000	0.005	-0.005	0.044	3.975	3.032	3.032	3.032	3.047	3.047	3.047
-0.010	0.010	0.005	-0.005	0.010	-0.005	0.039	3.994	3.037	3.032	3.032	3.047	3.047	3.047
-0.005	0.010	0.010	0.000	0.010	-0.005	0.039	3.975	3.032	3.032	3.032	3.052	3.047	3.047
-0.010	0.015	0.005	0.000	0.005	0.010	0.039	3.965	3.032	3.027	3.032	3.052	3.047	3.052
0.000	0.000	0.005	0.000	0.005	-0.010	0.039	3.970	3.032	3.027	3.027	3.047	3.047	3.047
0.000	0.000	0.000	0.000	0.000	-0.010	0.039	3.984	3.037	3.032	3.027	3.047	3.042	3.047
0.005	-0.010	0.000	0.000	0.005	0.005	0.044	3.960	3.037	3.032	3.027	3.047	3.047	3.052
0.005	-0.005	-0.005	0.005	0.000	0.010	0.044	3.960	3.032	3.032	3.027	3.047	3.042	3.052
0.010	-0.010	-0.005	0.000	0.000	0.015	0.044	3.989	3.047	3.032	3.027	3.047	3.042	3.052
0.010	-0.005	-0.005	0.000	0.010	0.024	0.039	3.960	3.042	3.032	3.027	3.047	3.042	3.052
0.015	-0.015	0.000	0.005	-0.039	0.010	0.044	3.999	3.042	3.032	3.027	3.047	3.027	3.042
0.005	-0.010	0.000	0.005	-0.054	0.000	0.039	3.965	3.037	3.032	3.027	3.047	3.032	3.037
0.010	-0.005	0.000	0.005	-0.044	-0.005	0.039	3.994	3.042	3.037	3.027	3.047	3.037	3.032
0.005	-0.005	0.000	-0.005	-0.005	0.005	0.039	3.984	3.037	3.037	3.032	3.047	3.047	3.042
-0.005	0.000	0.000	0.000	0.020	0.010	0.039	3.950	3.032	3.037	3.032	3.052	3.052	3.047
-0.005	0.020	0.005	0.000	0.039	0.005	0.039	4.092	3.047	3.042	3.032	3.052	3.057	3.047
-0.005	0.015	0.005	0.000	0.049	-0.015	0.044	3.950	3.037	3.037	3.037	3.052	3.057	3.047
-0.010	0.015	0.005	0.000	0.044	0.010	0.044	3.955	3.037	3.037	3.032	3.052	3.057	3.057
-0.010	0.010	0.000	0.005	0.068	0.024	0.044	4.087	3.047	3.037	3.037	3.057	3.062	3.066
-0.005	0.020	0.000	0.000	0.107	0.015	0.044	4.019	3.052	3.047	3.037	3.052	3.066	3.066
0.000	0.024	0.005	0.000	0.083	0.015	0.039	3.906	3.037	3.047	3.042	3.052	3.057	3.062
-0.005	0.010	0.005	0.000	0.044	0.015	0.039	3.931	3.032	3.037	3.037	3.052	3.042	3.057
-0.005	0.005	0.005	0.000	0.005	0.010	0.039	3.926	3.032	3.037	3.037	3.052	3.037	3.047
0.000	0.000	0.000	0.000	-0.005	-0.005	0.044	4.019	3.037	3.037	3.032	3.052	3.032	3.042
0.005	-0.010	0.005	0.000	-0.029	0.010	0.039	4.019	3.042	3.032	3.032	3.052	3.032	3.042
0.015	-0.005	-0.005	0.000	-0.049	-0.010	0.044	3.955	3.042	3.032	3.027	3.047	3.027	3.032
0.010	-0.005	-0.010	0.005	-0.068	-0.015	0.044	3.916	3.027	3.032	3.027	3.047	3.027	3.032
0.010	-0.010	0.000	0.005	-0.049	0.005	0.044	3.955	3.022	3.032	3.027	3.047	3.037	3.042
0.015	-0.005	0.000	0.000	-0.024	0.000	0.044	4.033	3.037	3.032	3.027	3.047	3.047	3.042
0.010	-0.005	0.000	0.000	-0.005	0.000	0.044	3.999	3.037	3.032	3.027	3.047	3.047	3.042
0.005	0.000	0.000	0.000	-0.020	0.005	0.039	4.038	3.042	3.037	3.027	3.047	3.047	3.047
0.000	0.005	0.005	0.005	-0.010	0.000	0.039	3.965	3.037	3.037	3.032	3.047	3.052	3.047
0.000	0.005	0.010	0.000	0.020	0.005	0.039	3.989	3.032	3.037	3.032	3.052	3.057	3.052
-0.005	0.015	0.005	0.000	0.024	-0.010	0.039	3.975	3.037	3.042	3.032	3.052	3.052	3.047
-0.010	0.005	0.005	0.000	0.010	-0.015	0.039	3.965	3.032	3.037	3.032	3.052	3.047	3.052
-0.010	0.015	0.005	-0.005	0.005	0.020	0.044	3.970	3.037	3.037	3.032	3.052	3.047	3.057
0.000	0.005	0.005	0.000	0.000	0.015	0.039	3.984	3.037	3.032	3.032	3.052	3.042	3.057
-0.005	0.005	0.000	0.000	-0.015	0.015	0.039	3.984	3.042	3.037	3.037	3.052	3.042	3.052
-0.005	0.000	0.000	0.000	-0.015	-0.005	0.039	3.960	3.032	3.032	3.032	3.047	3.042	3.042
0.010	-0.005	-0.005	0.005	0.005	0.015	0.044	3.955	3.037	3.032	3.032	3.052	3.047	3.052
0.010	0.000	0.000	0.005	-0.005	0.005	0.044	3.970	3.032	3.032	3.032	3.047	3.047	3.047
0.010	-0.010	-0.005	0.000	-0.005	0.000	0.039	3.979	3.037	3.032	3.027	3.047	3.047	3.047
0.005	-0.005	0.000	0.000	-0.015	-0.039	0.039	3.989	3.037	3.032	3.027	3.047	3.037	3.032
0.005	-0.010	0.000	0.000	-0.029	-0.039	0.044	3.960	3.032	3.027	3.027	3.047	3.037	3.037
0.010	-0.005	0.000	0.000	-0.039	-0.005	0.039	3.975	3.032	3.032	3.027	3.047	3.037	3.047
0.005	0.000	-0.005	0.000	-0.005	-0.010	0.039	3.984	3.037	3.032	3.027	3.047	3.047	3.047
0.000	0.000	0.000	0.000	0.034	0.020	0.044	3.999	3.037	3.032	3.027	3.047	3.057	3.057
0.000	0.010	0.005	0.000	0.010	0.010	0.039	3.979	3.037	3.037	3.032	3.047	3.047	3.052
-0.005	0.010	0.010	0.000	-0.010	0.010	0.039	3.984	3.037	3.032	3.032	3.047	3.037	3.052
0.000	0.015	0.005	0.000	-0.024	0.010	0.039	3.975	3.037	3.037	3.032	3.047	3.037	3.047
-0.010	0.010	0.005	0.005	-0.029	0.010	0.039	3.960	3.032	3.037	3.032	3.047	3.037	3.047
-0.005	0.015	0.010	0.000	-0.005	0.010	0.039	3.970	3.032	3.037	3.032	3.052	3.047	3.047
-0.005	0.000	0.010	0.000	0.015	0.010	0.039	3.979	3.032	3.032	3.032	3.052	3.052	3.047
-0.015	-0.010	0.010	0.000	-0.010	0.010	0.044	3.975	3.037	3.027	3.027	3.047	3.042	3.052
-0.020	0.000	0.005	0.000	-0.005	-0.005	0.039	3.950	3.032	3.032	3.027	3.047	3.042	3.042
-0.010	-0.005	0.005	0.005	0.000	-0.005	0.039	4.077	3.047	3.032	3.027	3.047	3.047	3.047
0.000	-0.015	0.000	0.005	0.020	-0.010	0.039	3.950	3.042	3.032	3.027	3.047	3.047	3.047
0.000	-0.015	0.000	0.005	0.015	0.000	0.039	3.945	3.042	3.032	3.032	3.047	3.047	3.052
0.010	-0.020	-0.005	0.000	0.029	0.005	0.039	3.950	3.042	3.032	3.032	3.047	3.052	3.052
0.010	-0.020	-0.005	0.000	0.034	-0.005	0.039	4.028	3.047	3.032	3.027	3.047	3.052	3.052
0.005	-0.010	-0.005	0.000	0.015	-0.005	0.039	3.916	3.037	3.042	3.032	3.047	3.042	3.047
0.010	-0.010	0.000	-0.005	-0.029	-0.005	0.039	3.945	3.032	3.037	3.032	3.047	3.027	3.042
0.010	0.000	-0.005	0.000	-0.029	0.000	0.039	4.019	3.037	3.042	3.032	3.047	3.037	3.042
0.015	0.000	0.000	0.000	-0.024	0.020	0.039	4.009	3.037	3.042	3.032	3.052	3.042	3.047
0.010	0.020	0.000	0.000	-0.024	-0.005	0.044	3.999	3.042	3.047	3.037	3.052	3.042	3.042
0.000	0.024	0.000	0.000	0.000	0.000	0.039	3.936	3.032	3.042	3.037	3.052	3.047	3.047
-0.010	0.024	0.005	0.005	0.020	-0.015	0.044	3.936	3.027	3.037	3.037	3.057	3.057	3.047
-0.015	0.029	0.005	0.005	0.049	-0.010	0.044	3.965	3.027	3.032	3.037	3.057	3.062	3.052
-0.015	0.024	0.005	0.005	0.063	-0.034	0.039	4.038	3.037	3.032	3.037	3.057	3.062	3.052
-0.005	0.005	0.005	0.010	0.063	-0.015	0.039	3.984	3.042	3.032	3.032	3.057	3.062	3.062
0.000	0.005	0.000	0.015	0.020	-0.034	0.039	4.043	3.047	3.032	3.027	3.052	3.047	3.047
-0.005	-0.005	0.005	0.005	0.000	-0.010	0.039	3.979	3.047	3.032	3.032	3.047	3.042	3.057
-0.005	-0.005	0.005	0.000	-0.015	0.005	0.039	3.994	3.042	3.037	3.032	3.047	3.037	3.052
0.005	-0.005	-0.005	-0.005	0.024	0.005	0.039	3.955	3.037	3.037	3.032	3.047	3.052	3.057
0.005	-0.005	-0.005	-0.005	0.020	0.000	0.044	3.994	3.042	3.037	3.032	3.047	3.047	3.052
-0.005	-0.005	-0.005	0.000	0.015	0.000	0.044	3.975	3.037	3.037	3.032	3.047	3.042	3.052
0.015	-0.020	0.000	-0.005	-0.005	0.020	0.039	3.979	3.042	3.037	3.032	3.047	3.042	3.052
0.005	0.000	-0.005	-0.005	-0.010	0.015	0.039	3.965	3.037	3.037	3.032	3.047	3.037	3.047
0.015	-0.005	0.000	-0.010	0.000	0.005	0.039	3.989	3.042	3.037	3.032	3.047	3.042	3.047
0.010	-0.005	0.000	-0.005	-0.005	-0.010	0.039	3.950	3.032	3.037	3.032	3.047	3.042	3.037
0.000	0.000	-0.005	-0.005	-0.024	-0.020	0.039	3.965	3.027	3.032	3.027	3.047	3.037	3.037
-0.005	0.005	0.005	0.000	-0.054	-0.020	0.039	3.965	3.032	3.037	3.032	3.052	3.032	3.032
0.000	0.005	0.005	0.005	-0.073	-0.010	0.039	3.970	3.032	3.032	3.032	3.052	3.027	3.037
-0.005	0.010	0.005	0.010	-0.078	-0.015	0.039	3.965	3.027	3.032	3.032	3.052	3.037	3.037
-0.010	0.015	0.010	0.005	-0.059	-0.005	0.044	3.975	3.027	3.032	3.037	3.052	3.042	3.042
-0.010	0.005	0.010	0.005	-0.044	-0.010	0.039	3.965	3.027	3.027	3.027	3.052	3.052	3.042
0.000	0.010	0.000	0.005	-0.005	0.005	0.044	3.970	3.032	3.032	3.027	3.052	3.062	3.052
-0.005	0.010	0.005	0.000	0.044	0.024	0.039	3.965	3.032	3.027	3.027	3.047	3.071	3.066
0.000	0.000	0.005	0.000	0.034	0.020	0.044	3.989	3.037	3.027	3.032	3.047	3.057	3.062
0.000	-0.005	0.005	0.000	-0.024	0.039	0.039	3.965	3.037	3.032	3.027	3.047	3.042	3.062
0.020	-0.010	0.000	0.000	0.005	0.034	0.039	3.960	3.042	3.032	3.027	3.047	3.052	3.057
0.005	-0.015	0.000	0.000	0.063	0.054	0.039	3.965	3.037	3.027	3.027	3.047	3.066	3.066
0.010	-0.005	-0.005	0.000	0.132	0.044	0.039	3.994	3.042	3.032	3.027	3.047	3.081	3.071
0.015	-0.015	0.000	0.005	0.293	0.029	0.044	3.979	3.047	3.037	3.032	3.052	3.110	3.081
0.010	-0.010	-0.005	0.010	0.166	0.005	0.044	3.945	3.037	3.037	3.032	3.047	3.052	3.062
0.005	-0.015	-0.005	0.005	0.059	-0.024	0.044	4.082	3.047	3.037	3.027	3.042	3.018	3.042
0.000	-0.005	-0.005	0.000	-0.034	-0.044	0.039	3.950	3.042	3.037	3.027	3.042	3.003	3.022
0.005	0.005	0.000	0.005	-0.073	-0.054	0.039	3.926	3.032	3.042	3.032	3.042	3.003	3.018
-0.005	0.000	0.010	0.005	-0.078	-0.063	0.039	4.009	3.047	3.042	3.032	3.047	3.013	3.013
-0.010	0.010	0.005	0.000	-0.020	-0.044	0.039	4.028	3.042	3.042	3.037	3.052	3.042	3.032
-0.015	0.010	0.005	0.000	0.059	-0.015	0.044	3.906	3.032	3.037	3.037	3.057	3.062	3.047
0.000	0.015	0.005	0.000	0.049	0.000	0.039	3.940	3.027	3.037	3.037	3.057	3.057	3.052
-0.005	0.015	0.005	0.005	0.029	0.010	0.044	4.009	3.027	3.037	3.037	3.052	3.052	3.057
-0.010	0.015	0.005	0.005	0.000	0.015	0.039	4.023	3.042	3.037	3.032	3.052	3.042	3.052
-0.005	0.010	0.000	0.005	-0.015	0.015	0.044	4.009	3.042	3.037	3.032	3.052	3.037	3.052
0.000	0.000	0.005	0.000	-0.024	0.005	0.039	3.975	3.042	3.037	3.032	3.052	3.037	3.042
0.000	0.000	0.000	0.005	-0.039	0.010	0.039	3.921	3.032	3.037	3.032	3.052	3.037	3.047
0.000	-0.015	0.000	0.000	-0.049	-0.005	0.039	3.970	3.032	3.027	3.027	3.047	3.037	3.042
0.015	-0.020	-0.005	0.000	-0.039	0.005	0.044	3.940	3.037	3.027	3.027	3.047	3.042	3.047
0.015	-0.020	-0.005	0.000	-0.024	0.010	0.044	3.965	3.037	3.032	3.027	3.047	3.047	3.047
0.010	-0.015	-0.005	0.000	-0.034	0.015	0.039	3.945	3.032	3.027	3.027	3.047	3.042	3.047
0.010	-0.005	-0.005	0.000	-0.039	-0.010	0.039	3.979	3.037	3.032	3.027	3.047	3.042	3.037
0.005	-0.010	-0.005	0.000	-0.029	0.000	0.039	3.984	3.037	3.032	3.027	3.047	3.042	3.042
0.005	-0.005	0.005	0.000	-0.039	0.000	0.044	3.960	3.027	3.037	3.032	3.047	3.037	3.042
0.010	0.005	0.000	0.000	-0.039	0.000	0.039	3.970	3.027	3.037	3.032	3.047	3.042	3.042
-0.015	0.034	0.000	0.000	-0.020	-0.005	0.039	3.975	3.027	3.042	3.037	3.047	3.047	3.047
-0.010	0.024	0.000	0.005	-0.029	-0.024	0.039	3.994	3.027	3.032	3.032	3.052	3.047	3.042
-0.005	0.020	0.000	0.000	-0.010	-0.005	0.039	3.965	3.032	3.032	3.032	3.052	3.052	3.047
-0.015	0.015	0.010	0.005	-0.015	0.005	0.039	3.975	3.027	3.027	3.032	3.052	3.047	3.052
-0.010	0.015	0.005	0.000	-0.015	-0.005	0.039	3.970	3.037	3.032	3.032	3.052	3.047	3.052
-0.015	0.005	0.005	0.005	-0.015	0.010	0.044	3.970	3.032	3.032	3.027	3.052	3.047	3.052
0.000	-0.005	0.000	0.005	-0.039	-0.005	0.044	3.955	3.032	3.027	3.027	3.047	3.037	3.047
0.000	0.005	0.000	0.000	-0.020	-0.020	0.044	3.989	3.037	3.032	3.027	3.047	3.047	3.047
0.010	-0.010	0.000	0.000	0.000	0.020	0.039	3.965	3.037	3.027	3.027	3.047	3.052	3.057
0.010	-0.010	-0.005	0.005	0.049	0.020	0.039	3.945	3.032	3.032	3.027	3.047	3.062	3.062
0.015	-0.005	-0.005	0.005	0.054	0.010	0.039	3.970	3.037	3.032	3.027	3.042	3.057	3.057
0.020	-0.015	-0.005	-0.005	0.059	0.015	0.039	3.984	3.037	3.032	3.027	3.047	3.052	3.057
0.005	-0.024	-0.005	0.000	0.083	0.029	0.039	3.994	3.037	3.027	3.027	3.047	3.057	3.062
0.015	-0.010	-0.005	0.000	0.093	0.024	0.044	3.979	3.042	3.037	3.027	3.047	3.052	3.062
0.005	-0.010	0.000	0.000	0.044	0.000	0.039	3.965	3.037	3.037	3.027	3.047	3.037	3.047
0.000	0.010	0.000	0.000	0.010	-0.005	0.044	4.004	3.037	3.042	3.032	3.047	3.027	3.037
0.000	0.010	0.000	0.005	0.000	-0.005	0.044	3.975	3.037	3.042	3.032	3.047	3.027	3.037
-0.005	0.000	0.000	0.000	-0.010	0.005	0.044	3.970	3.032	3.032	3.032	3.047	3.032	3.037
0.000	0.005	0.010	0.000	-0.015	0.005	0.039	3.994	3.037	3.037	3.037	3.047	3.032	3.037
-0.005	0.010	0.005	-0.005	-0.024	0.000	0.039	3.950	3.032	3.037	3.032	3.047	3.037	3.032
-0.010	0.029	0.010	-0.005	-0.024	0.000	0.039	4.082	3.032	3.042	3.037	3.052	3.037	3.037
-0.020	0.024	0.005	-0.005	-0.024	-0.020	0.039	3.945	3.022	3.032	3.032	3.052	3.042	3.037
-0.005	0.010	0.005	-0.005	-0.015	0.005	0.039	3.940	3.027	3.027	3.032	3.052	3.047	3.042
-0.010	0.005	0.005	0.000	-0.020	0.000	0.044	3.965	3.027	3.027	3.027	3.052	3.042	3.042
-0.005	-0.015	0.000	0.005	-0.020	-0.005	0.039	3.931	3.037	3.022	3.027	3.052	3.042	3.047
0.000	-0.005	-0.005	0.005	-0.020	-0.005	0.044	4.033	3.042	3.032	3.027	3.047	3.042	3.047
0.010	-0.010	0.000	0.000	-0.015	-0.005	0.039	3.936	3.037	3.032	3.022	3.047	3.047	3.047
0.020	-0.020	0.000	0.005	-0.005	0.005	0.039	4.014	3.042	3.032	3.022	3.047	3.047	3.052
0.010	-0.024	0.000	0.005	0.000	-0.015	0.039	3.921	3.042	3.032	3.027	3.047	3.047	3.047
0.020	-0.020	-0.005	0.005	0.015	0.010	0.039	3.940	3.037	3.037	3.027	3.047	3.052	3.052
0.015	-0.010	0.000	0.005	0.005	0.010	0.039	3.940	3.032	3.037	3.027	3.047	3.042	3.047
-0.005	-0.010	0.000	-0.005	-0.015	-0.015	0.044	3.921	3.018	3.032	3.032	3.042	3.037	3.042
-0.020	0.010	0.005	-0.005	-0.029	0.000	0.039	3.960	3.018	3.032	3.032	3.042	3.032	3.042
-0.020	0.015	0.000	-0.005	-0.020	0.000	0.039	3.926	3.018	3.027	3.027	3.042	3.037	3.042
-0.005	0.015	0.005	0.000	0.010	-0.015	0.039	3.970	3.027	3.027	3.032	3.047	3.047	3.047
-0.010	0.024	0.000	0.005	0.010	0.000	0.039	3.965	3.022	3.027	3.027	3.047	3.047	3.047
0.000	0.005	0.005	0.005	-0.005	0.000	0.039	3.979	3.032	3.022	3.027	3.047	3.042	3.047
-0.005	0.005	0.005	0.010	0.005	0.010	0.039	3.989	3.037	3.027	3.027	3.047	3.047	3.047
-0.005	0.015	0.000	0.020	0.015	0.000	0.039	3.989	3.032	3.027	3.027	3.052	3.047	3.047
0.010	0.005	0.010	0.054	0.034	0.000	0.039	3.994	3.047	3.032	3.027	3.057	3.057	3.047
0.015	0.000	0.005	0.034	0.034	0.010	0.039	3.965	3.042	3.037	3.027	3.047	3.052	3.057
0.010	-0.010	-0.005	0.000	0.015	0.010	0.039	3.994	3.037	3.032	3.027	3.037	3.042	3.052
0.015	-0.005	0.000	-0.029	0.000	-0.010	0.039	3.960	3.037	3.032	3.027	3.032	3.032	3.042
0.005	-0.010	-0.005	-0.044	0.005	-0.020	0.039	3.960	3.032	3.032	3.022	3.027	3.027	3.037
0.005	-0.015	0.000	-0.054	0.000	-0.010	0.044	3.984	3.032	3.027	3.022	3.032	3.027	3.037
-0.005	0.010	-0.015	-0.044	-0.029	0.010	0.044	3.965	3.027	3.037	3.022	3.037	3.022	3.042
0.005	0.000	0.000	-0.034	-0.024	-0.020	0.044	3.994	3.037	3.027	3.027	3.042	3.027	3.032
0.010	-0.005	0.000	-0.010	-0.015	0.015	0.039	3.965	3.032	3.027	3.032	3.047	3.037	3.042
0.005	-0.005	0.000	0.000	-0.015	0.010	0.044	3.970	3.027	3.027	3.027	3.052	3.037	3.037
0.000	0.020	0.010	0.010	-0.015	0.015	0.044	3.975	3.027	3.032	3.032	3.057	3.042	3.042
-0.010	0.010	0.005	0.059	-0.024	0.015	0.044	3.965	3.022	3.032	3.032	3.066	3.047	3.047
-0.010	0.015	0.000	0.088	-0.015	0.000	0.044	3.999	3.027	3.027	3.032	3.066	3.052	3.047
-0.010	0.015	0.010	0.059	-0.020	0.005	0.039	3.975	3.032	3.032	3.032	3.057	3.052	3.047
-0.015	0.010	0.005	0.015	-0.054	0.015	0.044	3.989	3.032	3.032	3.027	3.037	3.037	3.052
-0.015	0.024	0.000	-0.029	-0.068	0.015	0.039	3.960	3.032	3.032	3.027	3.027	3.027	3.047
-0.005	0.024	0.005	-0.054	-0.107	-0.005	0.044	4.004	3.037	3.032	3.022	3.027	3.018	3.027
0.000	0.000	0.005	-0.044	-0.093	-0.005	0.039	3.965	3.037	3.027	3.022	3.032	3.022	3.032
0.010	-0.005	0.000	-0.034	-0.054	-0.024	0.039	3.970	3.037	3.032	3.027	3.037	3.037	3.032
0.000	0.020	0.000	-0.034	0.039	0.005	0.039	3.984	3.037	3.037	3.027	3.047	3.066	3.047
0.015	0.024	0.000	-0.010	0.083	-0.005	0.044	3.940	3.032	3.037	3.032	3.052	3.071	3.057
0.010	0.039	-0.010	0.000	0.039	0.015	0.039	4.092	3.047	3.042	3.032	3.052	3.052	3.057
0.000	0.020	-0.005	0.010	0.034	-0.005	0.039	3.940	3.037	3.032	3.032	3.052	3.052	3.052
0.005	-0.015	-0.005	0.029	0.068	0.020	0.039	3.931	3.032	3.027	3.027	3.057	3.062	3.062
0.015	-0.029	0.000	0.029	0.063	0.029	0.044	3.945	3.047	3.022	3.027	3.057	3.062	3.066
0.015	-0.034	0.000	0.024	0.132	-0.024	0.039	4.028	3.047	3.027	3.027	3.052	3.071	3.052
0.010	-0.034	0.005	0.010	0.225	-0.024	0.039	3.931	3.037	3.032	3.027	3.052	3.091	3.066
0.000	-0.029	0.000	0.010	0.205	-0.034	0.039	3.950	3.037	3.032	3.027	3.047	3.071	3.062
0.010	-0.029	0.005	0.010	0.122	-0.068	0.039	4.033	3.032	3.032	3.027	3.047	3.037	3.047
0.000	-0.015	0.010	0.005	0.044	-0.088	0.039	4.009	3.032	3.037	3.032	3.042	3.018	3.037
-0.010	0.005	0.005	0.020	0.034	-0.098	0.039	4.014	3.037	3.042	3.032	3.047	3.027	3.032
-0.015	0.020	0.010	0.005	0.015	-0.049	0.039	3.936	3.032	3.042	3.037	3.047	3.022	3.042
-0.010	0.015	0.005	0.000	0.010	-0.015	0.044	3.931	3.022	3.037	3.037	3.047	3.032	3.047
-0.005	-0.005	0.005	0.000	0.127	0.000	0.044	3.970	3.032	3.027	3.032	3.052	3.066	3.062
-0.005	-0.015	0.000	0.000	0.078	0.010	0.044	4.033	3.037	3.027	3.027	3.047	3.047	3.057
-0.010	-0.010	0.000	-0.005	-0.005	0.044	0.044	3.970	3.042	3.032	3.027	3.047	3.022	3.057
0.005	0.005	-0.005	-0.005	-0.054	0.049	0.039	4.048	3.042	3.037	3.027	3.047	3.013	3.047
0.015	0.015	-0.010	0.000	-0.093	0.054	0.039	3.965	3.042	3.037	3.027	3.047	3.013	3.037
0.010	-0.005	-0.005	0.000	-0.117	0.044	0.039	3.984	3.037	3.032	3.027	3.047	3.013	3.027
0.005	-0.020	-0.005	0.000	-0.117	0.034	0.039	3.989	3.032	3.027	3.027	3.042	3.018	3.022
0.010	-0.029	-0.005	0.000	-0.117	0.010	0.039	3.994	3.037	3.027	3.027	3.047	3.022	3.013
0.010	-0.015	-0.005	0.000	-0.107	0.020	0.039	3.970	3.032	3.032	3.027	3.047	3.027	3.027
0.005	0.005	0.000	0.005	-0.098	0.020	0.039	3.989	3.032	3.037	3.032	3.047	3.037	3.032
0.000	0.010	0.000	0.000	-0.078	0.015	0.044	3.989	3.032	3.037	3.032	3.047	3.042	3.037
0.000	-0.010	0.000	0.005	-0.073	0.034	0.039	3.989	3.032	3.027	3.032	3.047	3.047	3.042
0.000	0.020	0.005	0.005	-0.073	0.034	0.039	3.960	3.032	3.042	3.032	3.052	3.047	3.047
-0.010	0.039	0.005	0.005	-0.068	0.010	0.039	3.970	3.027	3.037	3.037	3.052	3.047	3.042
-0.015	0.010	0.010	0.010	-0.049	0.024	0.044	3.994	3.027	3.032	3.037	3.052	3.052	3.047
-0.005	0.059	0.010	0.010	-0.015	0.000	0.039	3.970	3.032	3.047	3.037	3.052	3.062	3.047
-0.005	-0.010	0.010	0.010	-0.005	0.005	0.039	3.960	3.032	3.018	3.027	3.052	3.062	3.052
0.000	-0.024	0.005	0.000	-0.010	0.000	0.039	3.979	3.032	3.018	3.022	3.047	3.052	3.052
0.010	-0.020	0.010	-0.005	0.000	0.000	0.039	4.004	3.042	3.027	3.022	3.047	3.052	3.057
0.005	-0.010	0.005	0.000	0.000	-0.005	0.044	3.975	3.037	3.032	3.022	3.042	3.052	3.057
0.005	0.024	-0.005	-0.005	0.024	-0.020	0.039	3.994	3.042	3.042	3.027	3.047	3.052	3.047
0.005	0.034	-0.005	-0.005	0.034	0.000	0.044	3.979	3.037	3.047	3.032	3.047	3.052	3.057
0.005	0.078	0.000	0.000	0.039	-0.020	0.044	3.965	3.037	3.052	3.037	3.047	3.052	3.052
0.010	-0.005	-0.005	0.000	0.059	0.015	0.039	3.999	3.037	3.022	3.027	3.047	3.057	3.062
0.000	-0.015	-0.005	0.000	0.063	0.015	0.044	3.970	3.032	3.027	3.027	3.047	3.057	3.057
0.005	0.000	0.000	-0.005	0.044	0.020	0.039	3.979	3.037	3.027	3.027	3.047	3.047	3.057
0.000	-0.010	0.000	-0.005	0.020	0.024	0.039	3.979	3.037	3.027	3.027	3.042	3.037	3.052
-0.005	-0.015	0.000	-0.005	0.020	0.029	0.039	3.940	3.032	3.032	3.027	3.042	3.037	3.052
-0.005	0.000	0.000	-0.010	0.020	0.015	0.039	4.087	3.047	3.032	3.027	3.047	3.037	3.047
-0.010	-0.015	0.005	-0.005	0.020	0.020	0.039	3.965	3.037	3.032	3.027	3.047	3.037	3.047
0.005	-0.015	0.005	-0.010	0.020	0.015	0.044	3.940	3.042	3.032	3.032	3.047	3.037	3.042
-0.005	0.020	0.005	-0.005	0.020	0.010	0.044	4.053	3.047	3.047	3.037	3.047	3.042	3.042
0.000	0.005	0.010	-0.005	0.010	0.000	0.039	4.019	3.047	3.042	3.037	3.052	3.042	3.042
0.000	-0.015	0.000	0.000	0.000	-0.010	0.039	3.936	3.037	3.032	3.037	3.052	3.037	3.037
0.005	-0.044	0.000	0.000	-0.010	0.000	0.039	4.004	3.042	3.027	3.032	3.052	3.037	3.042
0.005	-0.020	0.000	0.005	-0.010	0.000	0.039	4.014	3.032	3.042	3.032	3.052	3.042	3.042
0.010	0.029	-0.005	0.005	-0.010	-0.010	0.039	4.014	3.042	3.047	3.037	3.052	3.042	3.042
0.010	0.015	0.000	0.005	-0.005	-0.010	0.039	3.921	3.047	3.042	3.037	3.052	3.047	3.042
0.015	0.005	-0.005	0.000	-0.005	-0.029	0.039	3.945	3.037	3.042	3.037	3.052	3.047	3.037
0.000	0.020	0.000	0.005	-0.010	-0.005	0.039	3.936	3.027	3.042	3.037	3.052	3.047	3.047
0.000	-0.024	0.000	0.005	-0.005	-0.005	0.039	3.955	3.022	3.022	3.032	3.052	3.052	3.052
0.015	-0.034	0.000	0.010	-0.005	-0.005	0.044	3.970	3.027	3.022	3.027	3.052	3.047	3.047
0.000	-0.024	-0.005	0.010	-0.005	-0.010	0.044	3.989	3.022	3.022	3.027	3.047	3.047	3.047
-0.010	-0.024	0.000	0.005	0.000	0.000	0.044	3.940	3.022	3.022	3.027	3.047	3.047	3.047
0.000	0.000	0.005	0.005	0.000	0.000	0.044	3.970	3.022	3.027	3.027	3.047	3.047	3.052
-0.010	0.000	0.005	0.005	0.000	-0.010	0.039	3.989	3.022	3.027	3.027	3.047	3.047	3.047
-0.010	0.088	0.005	0.010	0.000	-0.005	0.044	3.955	3.032	3.057	3.037	3.052	3.047	3.052
-0.015	0.107	0.000	0.005	0.000	-0.005	0.039	3.994	3.032	3.057	3.037	3.047	3.047	3.052
-0.005	0.107	0.000	0.005	0.000	-0.015	0.039	3.970	3.037	3.047	3.042	3.052	3.047	3.047
-0.005	0.000	0.005	0.010	0.005	-0.020	0.039	3.989	3.032	3.013	3.032	3.052	3.052	3.047
-0.005	0.000	0.005	0.005	0.005	-0.020	0.044	3.975	3.037	3.022	3.027	3.052	3.047	3.047
-0.005	-0.024	0.000	0.005	-0.005	-0.005	0.039	3.984	3.037	3.018	3.022	3.047	3.047	3.052
0.000	-0.024	0.000	0.005	-0.015	0.000	0.039	3.960	3.037	3.022	3.022	3.047	3.042	3.047
0.015	-0.039	0.005	0.005	-0.049	-0.005	0.039	3.975	3.037	3.022	3.018	3.042	3.032	3.042
0.015	-0.073	0.000	0.000	-0.059	0.000	0.039	3.994	3.037	3.013	3.018	3.037	3.027	3.037
0.000	-0.010	-0.005	0.000	-0.059	0.005	0.039	3.989	3.042	3.042	3.022	3.037	3.032	3.042
0.015	0.034	-0.005	0.005	-0.024	0.000	0.039	3.955	3.037	3.052	3.032	3.042	3.042	3.042
0.005	0.010	-0.005	0.000	-0.005	0.000	0.039	3.970	3.027	3.037	3.032	3.042	3.047	3.047
0.020	0.049	-0.005	0.005	0.010	-0.005	0.039	3.965	3.032	3.047	3.037	3.047	3.047	3.047
0.000	0.000	-0.005	0.000	0.015	-0.015	0.044	3.984	3.032	3.027	3.032	3.047	3.047	3.042
0.000	-0.020	0.000	0.005	0.039	-0.005	0.039	3.965	3.032	3.027	3.027	3.047	3.057	3.052
0.000	-0.020	0.005	0.005	0.063	0.000	0.044	3.984	3.027	3.022	3.027	3.047	3.062	3.057
-0.010	-0.020	0.005	0.005	0.068	-0.010	0.044	3.965	3.027	3.022	3.027	3.047	3.057	3.057
-0.015	-0.029	0.005	0.000	0.063	0.010	0.044	3.989	3.037	3.022	3.027	3.047	3.052	3.062
-0.010	-0.015	0.005	0.000	0.059	0.005	0.039	3.970	3.037	3.032	3.027	3.047	3.047	3.057
-0.010	-0.010	0.005	0.005	0.034	0.005	0.039	3.979	3.037	3.032	3.027	3.047	3.037	3.052
-0.010	0.054	0.005	0.000	0.005	-0.010	0.039	3.984	3.042	3.052	3.037	3.047	3.032	3.042
0.000	0.063	0.000	-0.005	-0.005	-0.005	0.039	3.960	3.042	3.052	3.042	3.047	3.032	3.042
0.000	-0.010	0.005	0.000	-0.024	0.000	0.039	4.102	3.052	3.032	3.032	3.052	3.027	3.037
0.015	-0.005	0.005	0.000	-0.029	0.000	0.039	3.950	3.047	3.037	3.032	3.052	3.037	3.037
0.015	0.000	-0.005	0.005	-0.024	0.005	0.044	3.931	3.037	3.037	3.032	3.047	3.037	3.042
0.000	-0.024	-0.010	0.005	-0.029	0.000	0.044	4.082	3.042	3.027	3.032	3.047	3.037	3.037
0.000	-0.024	-0.005	0.000	-0.029	0.010	0.039	4.028	3.047	3.032	3.027	3.047	3.042	3.042
0.010	0.005	-0.010	0.000	-0.039	0.020	0.044	3.906	3.037	3.042	3.027	3.047	3.037	3.042
0.010	0.010	-0.005	0.000	-0.059	-0.015	0.039	4.014	3.042	3.042	3.037	3.047	3.032	3.032
0.005	0.010	-0.005	-0.005	-0.049	-0.005	0.039	3.921	3.032	3.037	3.037	3.047	3.037	3.037
0.005	0.029	-0.005	-0.005	-0.054	0.000	0.039	4.009	3.037	3.042	3.037	3.047	3.037	3.042
0.000	0.010	0.005	-0.005	-0.063	-0.005	0.039	4.023	3.037	3.032	3.037	3.052	3.037	3.037
0.000	0.000	0.000	0.000	-0.078	-0.020	0.039	3.970	3.037	3.027	3.032	3.052	3.037	3.032
-0.005	-0.029	0.005	0.000	-0.078	0.000	0.044	3.911	3.022	3.022	3.027	3.052	3.042	3.042
-0.010	-0.029	0.010	-0.005	-0.034	0.005	0.044	3.975	3.022	3.022	3.027	3.047	3.052	3.047
0.000	-0.015	0.005	0.000	-0.044	0.000	0.044	4.028	3.037	3.032	3.027	3.047	3.047	3.052
-0.005	0.010	0.005	0.000	-0.122	0.015	0.044	3.984	3.032	3.037	3.027	3.047	3.022	3.042
-0.005	0.005	0.005	0.005	-0.122	0.020	0.039	4.038	3.042	3.037	3.027	3.047	3.032	3.042
0.000	-0.005	-0.005	0.005	-0.029	-0.005	0.039	3.975	3.037	3.032	3.032	3.047	3.062	3.047
0.000	0.000	0.000	0.000	0.020	0.010	0.039	3.994	3.042	3.032	3.027	3.047	3.071	3.057
0.000	0.000	-0.005	0.005	0.029	0.020	0.039	3.965	3.037	3.037	3.032	3.047	3.066	3.066
0.010	-0.015	0.000	0.010	0.044	0.034	0.044	3.970	3.042	3.032	3.032	3.052	3.062	3.066
0.005	-0.024	-0.005	0.010	0.083	0.029	0.044	3.979	3.042	3.032	3.027	3.052	3.071	3.066
0.010	-0.010	-0.005	0.015	0.181	0.020	0.044	3.984	3.042	3.042	3.032	3.052	3.091	3.076
0.010	0.000	-0.005	0.000	0.186	-0.024	0.044	3.979	3.042	3.042	3.037	3.047	3.076	3.062
0.005	0.005	0.000	-0.010	0.103	-0.015	0.044	3.965	3.042	3.042	3.037	3.047	3.042	3.062
0.010	0.020	0.000	-0.010	0.078	-0.005	0.044	3.970	3.042	3.047	3.037	3.047	3.037	3.057
0.010	0.005	0.005	-0.010	0.015	-0.010	0.044	3.999	3.037	3.042	3.037	3.047	3.022	3.047
0.010	0.020	0.005	0.000	-0.020	0.015	0.039	3.970	3.037	3.042	3.037	3.052	3.022	3.042
0.000	0.029	0.000	0.000	-0.020	0.015	0.039	3.999	3.042	3.047	3.037	3.052	3.032	3.042
-0.015	0.015	0.005	0.000	-0.020	0.000	0.039	3.960	3.032	3.037	3.042	3.057	3.032	3.037
-0.010	-0.015	0.015	0.015	-0.039	-0.010	0.044	3.979	3.032	3.027	3.037	3.057	3.032	3.032
-0.010	-0.005	0.005	0.015	-0.039	0.000	0.044	3.975	3.032	3.032	3.032	3.057	3.037	3.037
-0.010	0.005	0.005	0.020	-0.034	-0.005	0.044	3.970	3.032	3.037	3.032	3.057	3.047	3.037
-0.005	0.010	0.000	0.015	-0.015	-0.005	0.039	3.975	3.032	3.032	3.032	3.057	3.052	3.047
-0.005	-0.015	0.000	0.015	0.005	0.005	0.044	3.970	3.032	3.027	3.027	3.052	3.057	3.052
0.010	0.000	0.000	0.005	-0.005	0.000	0.044	3.960	3.037	3.037	3.027	3.047	3.047	3.052
0.020	0.020	0.000	0.010	0.005	-0.005	0.044	3.965	3.037	3.047	3.032	3.047	3.052	3.052
0.015	0.039	-0.005	0.000	0.020	-0.024	0.039	3.975	3.042	3.042	3.032	3.052	3.052	3.047
0.010	-0.034	0.005	0.005	0.010	-0.005	0.039	3.999	3.037	3.022	3.027	3.047	3.047	3.052
0.015	-0.039	-0.005	0.005	0.000	0.010	0.044	3.975	3.032	3.022	3.027	3.047	3.042	3.052
-0.005	0.005	-0.005	0.000	0.005	0.005	0.044	3.955	3.032	3.037	3.027	3.047	3.042	3.052
-0.005	0.029	-0.005	0.000	0.005	-0.010	0.039	4.087	3.047	3.042	3.032	3.047	3.042	3.047
0.005	0.005	0.005	-0.005	0.010	-0.005	0.044	3.940	3.037	3.037	3.032	3.042	3.042	3.052
0.000	0.010	0.000	-0.010	0.005	0.010	0.039	3.940	3.032	3.037	3.032	3.047	3.042	3.047
0.000	0.000	0.005	-0.010	0.000	0.000	0.044	3.936	3.032	3.037	3.032	3.047	3.042	3.047
0.000	0.015	0.010	-0.005	0.010	0.000	0.039	4.019	3.032	3.037	3.032	3.052	3.047	3.047
0.005	0.020	0.005	0.000	0.010	-0.005	0.039	3.940	3.032	3.037	3.037	3.052	3.047	3.047
-0.005	0.024	0.005	0.005	0.015	-0.015	0.039	3.916	3.022	3.032	3.037	3.052	3.047	3.042
-0.010	-0.020	0.010	0.000	0.015	-0.015	0.039	4.019	3.032	3.018	3.027	3.052	3.047	3.047
-0.005	-0.078	0.005	0.000	0.029	-0.005	0.044	3.926	3.027	3.003	3.018	3.047	3.052	3.052
-0.005	-0.024	0.000	0.005	0.039	-0.020	0.039	4.004	3.037	3.027	3.022	3.047	3.052	3.052
0.000	0.015	-0.005	0.000	0.049	-0.005	0.044	3.950	3.037	3.042	3.027	3.042	3.052	3.052
0.010	0.034	0.000	-0.005	0.044	-0.005	0.044	3.989	3.032	3.042	3.032	3.042	3.047	3.052
0.005	0.005	-0.005	0.000	0.044	-0.024	0.039	3.955	3.032	3.032	3.032	3.047	3.047	3.047
0.015	-0.044	0.000	-0.005	0.034	-0.005	0.039	4.043	3.042	3.018	3.027	3.042	3.042	3.047
0.015	0.000	-0.005	-0.005	0.117	0.000	0.039	3.965	3.042	3.037	3.027	3.047	3.066	3.057
0.000	-0.005	0.000	-0.010	0.151	0.010	0.039	4.043	3.042	3.032	3.027	3.047	3.066	3.062
0.015	-0.039	-0.005	-0.005	0.181	0.005	0.044	3.965	3.047	3.027	3.027	3.047	3.066	3.066
0.015	-0.044	-0.005	-0.005	0.161	0.020	0.044	3.984	3.047	3.032	3.027	3.042	3.057	3.066
0.015	-0.024	0.000	-0.005	0.112	0.010	0.044	3.970	3.047	3.037	3.032	3.047	3.037	3.057
0.015	0.010	0.005	0.000	0.073	0.010	0.039	3.970	3.042	3.052	3.037	3.047	3.027	3.047
-0.010	0.063	0.000	0.000	0.034	-0.005	0.044	3.965	3.037	3.062	3.042	3.047	3.022	3.037
-0.015	0.063	0.005	0.000	-0.005	0.015	0.039	3.989	3.032	3.052	3.047	3.052	3.022	3.037
-0.010	0.034	0.005	0.000	-0.015	0.015	0.039	3.994	3.037	3.037	3.042	3.057	3.022	3.037
0.000	0.024	0.005	0.000	-0.039	0.020	0.044	3.989	3.042	3.037	3.037	3.052	3.027	3.032
-0.020	-0.029	-0.005	0.000	-0.034	0.024	0.039	3.945	3.027	3.022	3.032	3.052	3.032	3.037
-0.024	-0.015	0.005	0.000	-0.039	0.020	0.044	3.970	3.027	3.027	3.032	3.052	3.037	3.037
-0.015	0.054	0.000	-0.005	-0.034	0.005	0.039	3.975	3.032	3.047	3.032	3.052	3.042	3.032
-0.005	0.020	0.000	0.000	-0.034	-0.020	0.039	3.945	3.032	3.032	3.032	3.052	3.042	3.027
0.000	0.020	-0.005	0.000	-0.029	-0.005	0.039	3.950	3.027	3.037	3.032	3.047	3.047	3.042
0.000	0.054	-0.005	0.000	-0.029	-0.005	0.044	3.970	3.032	3.042	3.032	3.052	3.042	3.042
0.039	-0.015	-0.005	0.000	-0.029	-0.005	0.044	3.965	3.037	3.018	3.027	3.047	3.042	3.042
0.034	-0.024	-0.005	0.005	-0.054	-0.029	0.044	3.989	3.032	3.018	3.027	3.047	3.037	3.037
0.020	-0.049	-0.005	0.000	-0.068	-0.063	0.039	3.965	3.027	3.013	3.022	3.042	3.032	3.027
0.015	-0.039	-0.005	0.000	-0.059	-0.039	0.039	3.975	3.022	3.018	3.018	3.042	3.037	3.037
0.005	-0.054	0.000	-0.005	-0.054	-0.020	0.039	3.975	3.027	3.018	3.018	3.042	3.037	3.042
0.000	0.122	0.010	0.000	-0.049	0.005	0.039	3.984	3.027	3.071	3.037	3.047	3.042	3.052
-0.005	0.073	0.015	0.000	-0.063	0.010	0.039	3.965	3.022	3.037	3.037	3.047	3.037	3.052
-0.015	-0.034	0.010	0.000	-0.107	0.010	0.044	3.989	3.022	3.003	3.027	3.047	3.022	3.042
-0.005	-0.034	0.015	0.000	-0.146	0.020	0.044	3.970	3.032	3.018	3.022	3.042	3.018	3.037
-0.010	0.029	0.005	0.000	-0.117	0.010	0.039	3.950	3.027	3.037	3.022	3.042	3.032	3.032
-0.005	0.039	0.000	0.010	-0.098	0.000	0.039	4.087	3.042	3.037	3.027	3.047	3.042	3.037
-0.010	0.049	0.010	0.010	-0.054	-0.020	0.039	3.950	3.037	3.042	3.032	3.052	3.052	3.037
-0.020	0.024	0.000	0.010	-0.039	0.010	0.039	3.936	3.027	3.027	3.027	3.047	3.057	3.052
0.000	0.010	-0.005	0.005	-0.063	0.024	0.044	3.945	3.042	3.027	3.022	3.047	3.047	3.052
0.010	-0.029	0.000	-0.010	-0.117	0.044	0.044	4.023	3.047	3.022	3.022	3.037	3.027	3.052
0.005	-0.068	-0.005	-0.020	-0.171	0.039	0.039	3.911	3.032	3.013	3.018	3.032	3.013	3.037
0.005	-0.049	-0.005	-0.020	-0.117	0.010	0.044	3.999	3.037	3.027	3.018	3.032	3.032	3.032
0.005	-0.039	-0.010	-0.010	0.039	0.044	0.044	4.019	3.042	3.032	3.022	3.042	3.081	3.057
0.015	-0.024	-0.005	0.000	0.127	0.044	0.044	4.009	3.042	3.042	3.027	3.047	3.091	3.071
0.010	0.044	-0.005	0.010	0.132	0.029	0.039	3.926	3.042	3.062	3.037	3.052	3.076	3.071
0.005	0.024	-0.005	0.005	0.088	0.010	0.039	3.965	3.037	3.047	3.037	3.052	3.057	3.057
-0.005	-0.020	0.000	0.010	0.068	0.000	0.039	3.921	3.027	3.027	3.032	3.052	3.052	3.052
0.000	-0.088	0.000	0.015	0.049	-0.015	0.039	3.965	3.027	3.008	3.022	3.052	3.042	3.047
-0.015	0.010	0.005	0.020	0.020	-0.024	0.039	4.033	3.022	3.042	3.032	3.047	3.037	3.037
-0.005	0.020	0.005	0.020	0.034	-0.039	0.044	3.994	3.027	3.042	3.032	3.052	3.042	3.042
0.000	0.000	0.005	0.034	0.034	-0.029	0.039	4.033	3.037	3.032	3.032	3.052	3.047	3.047
0.000	0.020	0.005	0.024	0.029	-0.015	0.044	3.970	3.042	3.047	3.037	3.052	3.042	3.052
-0.005	0.093	0.010	0.015	0.010	-0.024	0.039	4.004	3.042	3.057	3.042	3.052	3.042	3.047
-0.015	0.034	0.015	-0.010	0.000	-0.010	0.044	3.979	3.032	3.032	3.037	3.047	3.037	3.047
0.010	-0.039	0.000	-0.024	-0.005	0.000	0.039	3.994	3.037	3.018	3.027	3.037	3.037	3.047
0.010	0.005	0.000	-0.034	0.015	-0.005	0.039	3.975	3.047	3.032	3.027	3.042	3.042	3.047
0.010	0.024	0.005	-0.029	0.039	-0.020	0.039	3.994	3.047	3.047	3.032	3.047	3.047	3.042
0.015	0.112	0.000	-0.015	0.063	0.010	0.044	3.965	3.047	3.066	3.042	3.052	3.057	3.057
0.020	-0.039	-0.005	0.000	0.122	0.020	0.039	3.965	3.037	3.013	3.032	3.057	3.071	3.066
0.015	-0.063	-0.005	0.010	0.112	0.024	0.039	3.970	3.037	3.013	3.022	3.052	3.062	3.062
-0.005	0.029	-0.005	0.020	0.088	0.034	0.044	3.984	3.032	3.047	3.032	3.057	3.057	3.066
-0.020	0.029	-0.005	0.020	0.083	0.044	0.044	3.989	3.037	3.037	3.032	3.057	3.052	3.062
0.005	-0.054	-0.005	0.015	0.088	0.024	0.039	3.999	3.042	3.018	3.027	3.052	3.052	3.057
0.020	-0.073	0.005	0.015	0.088	0.015	0.044	3.955	3.042	3.018	3.022	3.047	3.047	3.052
0.015	0.010	0.000	0.010	0.063	0.020	0.039	3.965	3.042	3.047	3.032	3.047	3.037	3.047
0.005	0.044	0.010	0.005	0.015	0.015	0.039	3.979	3.037	3.057	3.037	3.047	3.027	3.042
-0.005	0.010	0.005	0.005	-0.020	0.010	0.039	3.975	3.032	3.042	3.037	3.042	3.022	3.037
-0.010	0.000	0.000	0.005	-0.029	-0.010	0.039	3.984	3.027	3.037	3.037	3.047	3.022	3.027
-0.020	0.107	0.000	0.000	-0.049	-0.020	0.039	3.975	3.037	3.071	3.042	3.052	3.027	3.027
-0.024	0.156	0.005	0.005	-0.059	-0.024	0.044	3.979	3.032	3.062	3.047	3.057	3.032	3.027
-0.005	0.024	-0.005	0.005	-0.049	-0.010	0.044	3.950	3.027	3.018	3.037	3.057	3.037	3.032
0.005	0.010	-0.010	-0.010	-0.034	0.010	0.044	3.970	3.032	3.018	3.027	3.052	3.042	3.047
-0.020	-0.059	0.000	-0.015	-0.044	0.000	0.039	3.989	3.027	2.998	3.018	3.047	3.042	3.042
0.005	-0.083	-0.005	-0.020	-0.024	0.005	0.039	3.979	3.032	3.003	3.013	3.037	3.047	3.047
0.015	-0.117	-0.005	-0.020	-0.024	0.005	0.039	3.960	3.032	3.003	3.003	3.037	3.042	3.047
0.024	-0.068	0.005	-0.015	-0.024	0.005	0.039	4.097	3.052	3.027	3.013	3.037	3.037	3.047
0.010	-0.034	0.005	0.000	-0.029	-0.015	0.039	3.950	3.042	3.042	3.022	3.042	3.037	3.037
0.020	0.142	0.005	0.005	-0.029	0.005	0.044	3.936	3.042	3.091	3.042	3.047	3.037	3.042
0.024	0.063	0.000	0.010	-0.039	0.015	0.044	4.053	3.032	3.047	3.042	3.052	3.037	3.047
0.000	-0.068	0.000	0.010	-0.020	0.010	0.044	3.936	3.018	3.003	3.027	3.052	3.042	3.047
0.010	-0.005	-0.005	0.015	-0.020	0.000	0.044	3.989	3.032	3.032	3.032	3.052	3.047	3.042
0.000	-0.020	0.000	0.010	-0.015	-0.005	0.039	4.043	3.037	3.027	3.027	3.047	3.047	3.042
0.000	-0.015	0.005	0.000	-0.015	-0.015	0.039	4.019	3.037	3.027	3.027	3.047	3.042	3.037
-0.010	0.000	0.000	-0.010	-0.015	-0.034	0.044	3.916	3.027	3.032	3.027	3.042	3.042	3.037
-0.020	-0.010	0.015	-0.015	-0.010	-0.015	0.039	4.023	3.032	3.027	3.027	3.042	3.042	3.042
-0.015	0.059	0.039	-0.005	-0.024	0.010	0.039	3.931	3.032	3.052	3.042	3.047	3.042	3.047
0.000	0.000	0.029	-0.005	-0.005	0.000	0.039	4.043	3.042	3.027	3.037	3.052	3.047	3.047
-0.005	-0.049	0.005	0.010	-0.005	-0.005	0.039	3.970	3.032	3.018	3.022	3.052	3.047	3.047
0.000	-0.039	-0.005	0.010	-0.010	0.000	0.044	3.994	3.027	3.027	3.022	3.047	3.047	3.047
-0.020	0.015	-0.005	0.005	-0.005	-0.024	0.039	3.975	3.027	3.037	3.027	3.047	3.042	3.042
-0.010	0.010	-0.005	0.000	-0.005	0.010	0.039	4.043	3.037	3.037	3.027	3.047	3.047	3.052
0.005	0.063	-0.010	0.000	0.005	0.000	0.039	3.970	3.042	3.052	3.032	3.047	3.047	3.052
0.005	0.044	-0.005	0.000	0.005	0.000	0.039	3.999	3.047	3.047	3.032	3.047	3.047	3.052
0.015	0.068	-0.010	-0.005	0.015	0.015	0.039	3.965	3.047	3.052	3.037	3.052	3.047	3.052
0.010	-0.063	-0.005	0.000	0.010	0.020	0.039	4.004	3.037	3.008	3.027	3.047	3.047	3.052
0.020	-0.049	0.000	0.010	0.005	0.005	0.039	3.979	3.042	3.022	3.027	3.052	3.047	3.047
0.024	-0.059	-0.005	0.015	-0.005	0.015	0.039	3.999	3.042	3.022	3.022	3.052	3.042	3.047
0.029	-0.039	0.005	0.010	-0.005	0.010	0.039	3.989	3.047	3.037	3.027	3.047	3.042	3.047
0.005	-0.078	0.005	0.010	-0.005	0.024	0.039	3.975	3.032	3.022	3.027	3.047	3.042	3.047
-0.010	-0.010	0.005	0.020	0.000	0.000	0.044	3.989	3.027	3.042	3.032	3.047	3.047	3.042
-0.020	0.005	0.005	0.000	0.000	-0.005	0.044	3.994	3.032	3.042	3.032	3.042	3.042	3.047
-0.010	0.005	0.000	-0.015	0.000	-0.015	0.044	3.960	3.037	3.037	3.032	3.042	3.042	3.037
-0.005	0.000	0.005	-0.020	-0.020	-0.020	0.039	3.965	3.032	3.042	3.037	3.047	3.032	3.032
-0.010	0.112	0.015	-0.005	-0.024	-0.020	0.039	3.975	3.032	3.066	3.047	3.052	3.037	3.037
-0.015	0.010	0.010	0.005	-0.024	-0.005	0.039	3.979	3.032	3.027	3.037	3.057	3.042	3.042
-0.010	-0.049	0.000	0.020	-0.005	-0.020	0.039	3.994	3.032	3.008	3.027	3.057	3.052	3.047
0.000	-0.034	0.000	0.029	-0.005	-0.005	0.039	3.965	3.032	3.027	3.027	3.057	3.052	3.052
0.005	-0.039	0.005	0.015	0.000	0.010	0.044	3.960	3.032	3.027	3.022	3.047	3.052	3.057
0.010	0.015	0.005	0.010	-0.005	-0.015	0.039	3.970	3.037	3.042	3.027	3.047	3.047	3.047
0.010	0.029	-0.005	0.015	0.000	0.010	0.039	3.979	3.037	3.042	3.032	3.047	3.047	3.057
0.020	-0.005	0.000	0.020	0.000	0.015	0.044	3.984	3.047	3.032	3.032	3.047	3.052	3.052
0.029	-0.029	-0.005	0.010	0.029	0.010	0.039	3.960	3.042	3.027	3.022	3.047	3.052	3.052
0.000	0.049	-0.005	0.005	0.020	0.005	0.039	3.955	3.037	3.052	3.032	3.047	3.047	3.052
-0.029	0.068	0.005	0.005	0.000	0.010	0.039	3.989	3.027	3.047	3.037	3.047	3.042	3.052
-0.020	0.000	0.010	0.005	-0.024	-0.005	0.039	3.965	3.027	3.022	3.037	3.052	3.032	3.042
-0.005	0.000	0.000	0.010	-0.039	-0.020	0.039	4.097	3.047	3.032	3.032	3.047	3.032	3.037
-0.010	0.146	0.010	0.005	-0.029	-0.024	0.039	3.965	3.047	3.076	3.047	3.052	3.042	3.037
0.005	0.107	0.010	0.000	0.024	-0.015	0.039	3.931	3.037	3.052	3.047	3.057	3.057	3.047
0.005	-0.068	0.010	-0.005	0.039	0.005	0.039	3.945	3.027	2.998	3.027	3.052	3.062	3.057
-0.005	-0.015	0.010	-0.005	0.010	0.010	0.039	4.038	3.037	3.022	3.027	3.052	3.047	3.052
-0.010	0.010	0.005	0.000	-0.015	0.000	0.044	3.936	3.032	3.037	3.032	3.052	3.042	3.052
-0.010	0.029	-0.005	0.000	-0.029	0.000	0.039	3.936	3.042	3.037	3.027	3.047	3.037	3.047
0.005	-0.107	-0.005	0.000	-0.029	0.029	0.044	4.014	3.042	2.998	3.018	3.047	3.042	3.057
0.015	-0.103	-0.005	0.000	-0.024	0.029	0.039	3.916	3.032	3.013	3.018	3.042	3.042	3.052
0.005	0.107	0.000	0.000	-0.010	0.015	0.039	4.023	3.047	3.081	3.037	3.047	3.042	3.047
0.005	0.088	-0.005	0.000	0.005	0.005	0.039	3.940	3.037	3.057	3.042	3.052	3.047	3.047
0.005	0.000	-0.005	0.005	0.024	0.005	0.039	3.931	3.027	3.027	3.037	3.052	3.052	3.047
0.015	-0.039	-0.005	-0.005	0.010	0.000	0.039	3.955	3.022	3.013	3.027	3.047	3.047	3.042
0.010	-0.049	0.000	-0.015	-0.020	0.015	0.039	3.936	3.022	3.018	3.022	3.042	3.037	3.047
0.005	-0.024	-0.005	-0.005	-0.044	0.024	0.044	3.994	3.027	3.022	3.022	3.042	3.032	3.047
-0.015	0.000	0.000	0.000	-0.054	0.029	0.044	3.945	3.018	3.027	3.022	3.042	3.032	3.047
-0.005	-0.010	0.005	0.000	-0.059	0.029	0.039	3.970	3.027	3.027	3.022	3.047	3.032	3.037
0.000	-0.029	0.010	0.010	-0.073	0.015	0.039	3.994	3.027	3.018	3.022	3.047	3.032	3.037
-0.005	-0.024	0.010	0.005	-0.078	-0.005	0.039	3.989	3.032	3.027	3.022	3.047	3.032	3.032
-0.024	0.015	0.010	0.010	-0.073	0.010	0.039	3.984	3.027	3.037	3.027	3.042	3.032	3.032
-0.005	-0.005	0.010	0.015	-0.098	0.010	0.039	3.965	3.032	3.032	3.027	3.047	3.027	3.037
-0.005	0.034	-0.005	0.010	-0.078	-0.005	0.039	3.984	3.032	3.037	3.027	3.042	3.037	3.032
-0.015	-0.029	-0.005	0.000	-0.029	-0.010	0.039	3.989	3.027	3.018	3.022	3.042	3.052	3.037
0.000	-0.049	-0.010	0.000	0.020	-0.005	0.039	3.984	3.037	3.018	3.018	3.042	3.062	3.047
0.020	-0.039	-0.005	-0.005	0.098	-0.010	0.039	3.960	3.042	3.027	3.022	3.042	3.076	3.057
0.015	0.054	-0.010	0.000	0.195	-0.015	0.044	3.989	3.047	3.062	3.032	3.052	3.096	3.071
0.000	0.054	-0.005	0.010	0.234	-0.015	0.039	3.965	3.037	3.047	3.042	3.052	3.091	3.071
-0.005	-0.054	0.000	0.005	0.225	-0.020	0.039	3.984	3.037	3.018	3.032	3.052	3.076	3.071
0.005	0.117	0.000	0.005	0.142	-0.005	0.044	3.960	3.042	3.076	3.042	3.052	3.042	3.066
0.000	0.054	0.005	0.005	0.063	0.010	0.039	3.970	3.037	3.042	3.042	3.052	3.027	3.062
0.000	-0.024	0.005	0.000	0.020	0.000	0.039	3.975	3.032	3.018	3.032	3.047	3.018	3.047
-0.005	-0.029	0.005	-0.005	0.010	0.015	0.039	3.965	3.037	3.027	3.027	3.047	3.022	3.047
0.000	0.029	0.000	0.005	-0.010	0.010	0.039	3.955	3.037	3.047	3.032	3.052	3.022	3.037
0.015	-0.020	0.005	0.010	-0.020	0.010	0.044	3.975	3.037	3.022	3.027	3.052	3.032	3.037
0.024	-0.049	0.000	0.010	0.015	0.010	0.039	3.970	3.037	3.027	3.027	3.052	3.042	3.042
0.010	-0.015	0.005	0.005	-0.015	0.005	0.039	3.999	3.037	3.032	3.027	3.047	3.032	3.037
-0.005	-0.005	0.010	0.010	-0.059	-0.010	0.039	3.975	3.032	3.032	3.032	3.047	3.022	3.027
-0.010	-0.107	0.005	0.010	-0.083	0.005	0.039	3.965	3.022	2.998	3.022	3.047	3.022	3.032
0.015	-0.117	0.005	0.000	-0.073	0.005	0.039	3.979	3.037	3.008	3.018	3.037	3.027	3.032
0.010	-0.039	0.000	-0.005	-0.044	-0.005	0.039	3.955	3.037	3.042	3.022	3.037	3.037	3.032
0.015	0.073	0.000	-0.010	-0.024	-0.010	0.039	4.097	3.052	3.071	3.032	3.042	3.042	3.032
-0.005	0.063	0.000	-0.005	-0.005	-0.010	0.039	3.945	3.037	3.057	3.042	3.047	3.052	3.042
0.010	0.000	0.000	-0.005	0.024	-0.020	0.039	3.926	3.032	3.032	3.037	3.052	3.052	3.042
-0.005	0.054	-0.005	-0.005	0.044	-0.005	0.044	3.945	3.042	3.047	3.042	3.052	3.057	3.052
0.005	0.083	-0.005	-0.005	0.024	-0.005	0.044	4.019	3.042	3.057	3.042	3.052	3.052	3.052
0.005	0.068	-0.010	0.005	0.010	-0.005	0.044	3.931	3.032	3.042	3.042	3.057	3.047	3.052
0.000	0.039	-0.005	0.010	-0.010	-0.005	0.044	3.926	3.022	3.032	3.037	3.057	3.047	3.047
-0.010	-0.010	-0.005	0.005	0.000	-0.020	0.044	4.009	3.013	3.008	3.027	3.052	3.047	3.047
0.000	-0.029	0.000	-0.010	0.010	-0.015	0.039	4.014	3.022	3.008	3.022	3.047	3.047	3.047
-0.010	0.000	0.010	-0.015	-0.005	0.000	0.039	3.916	3.018	3.022	3.022	3.042	3.047	3.052
0.000	0.029	0.005	-0.010	-0.005	-0.010	0.039	3.936	3.022	3.032	3.027	3.042	3.042	3.047
-0.010	0.015	0.005	-0.010	0.000	-0.029	0.039	3.931	3.022	3.022	3.022	3.047	3.042	3.047
-0.005	0.010	0.010	-0.010	0.020	-0.020	0.039	3.955	3.022	3.022	3.022	3.042	3.047	3.047
-0.015	0.000	0.005	0.005	0.020	-0.020	0.039	4.043	3.032	3.022	3.022	3.047	3.047	3.047
0.000	-0.015	0.005	0.005	0.010	-0.005	0.044	3.999	3.042	3.022	3.018	3.047	3.042	3.052
0.000	-0.020	0.000	0.000	-0.020	0.000	0.039	4.048	3.047	3.022	3.018	3.042	3.032	3.047
-0.005	-0.020	-0.005	0.005	-0.029	0.010	0.039	3.970	3.042	3.032	3.018	3.037	3.032	3.047
-0.005	-0.010	0.000	0.005	-0.024	0.010	0.044	3.984	3.037	3.032	3.022	3.037	3.032	3.042
-0.005	-0.029	0.000	-0.005	-0.010	0.000	0.044	3.984	3.042	3.032	3.022	3.037	3.037	3.042
-0.005	-0.029	-0.005	0.000	-0.010	-0.005	0.039	3.994	3.042	3.032	3.022	3.042	3.037	3.037
0.000	-0.010	0.000	0.005	-0.020	0.005	0.044	3.975	3.037	3.042	3.032	3.042	3.032	3.037
0.000	0.029	-0.005	-0.005	-0.029	0.000	0.039	3.979	3.037	3.047	3.032	3.042	3.032	3.037
0.024	0.010	0.000	-0.015	-0.010	0.010	0.044	3.999	3.047	3.047	3.037	3.042	3.042	3.042
0.029	0.015	-0.005	-0.010	-0.005	0.010	0.039	3.965	3.037	3.037	3.032	3.047	3.042	3.042
0.020	-0.059	-0.005	-0.010	0.000	0.000	0.039	3.960	3.027	3.022	3.027	3.047	3.042	3.042
0.005	-0.010	-0.005	-0.010	0.024	0.000	0.039	3.999	3.032	3.032	3.027	3.047	3.047	3.042
0.005	0.039	0.005	-0.005	0.034	0.015	0.044	3.984	3.037	3.052	3.037	3.052	3.052	3.052
0.005	-0.010	0.000	0.000	0.034	0.015	0.039	3.979	3.032	3.027	3.032	3.052	3.052	3.052
-0.005	0.010	0.000	0.000	0.049	0.010	0.044	3.965	3.032	3.037	3.037	3.052	3.052	3.052
0.000	0.015	0.000	0.010	0.059	0.005	0.039	3.975	3.032	3.037	3.037	3.057	3.057	3.052
0.000	0.024	0.005	0.010	0.044	0.010	0.044	3.994	3.042	3.042	3.037	3.057	3.052	3.057
-0.005	0.024	0.005	0.010	0.044	0.010	0.039	3.994	3.037	3.042	3.037	3.052	3.052	3.057
-0.010	0.044	0.005	0.005	0.029	0.005	0.039	3.989	3.037	3.042	3.037	3.052	3.047	3.052
-0.010	0.029	0.005	0.005	0.029	0.010	0.039	3.984	3.037	3.037	3.037	3.057	3.047	3.052
-0.015	0.015	0.000	0.000	0.010	0.005	0.044	3.970	3.037	3.037	3.032	3.052	3.042	3.047
-0.005	0.020	0.000	0.000	0.005	0.015	0.039	3.965	3.037	3.037	3.032	3.052	3.042	3.047
0.005	-0.024	-0.010	0.005	-0.005	0.015	0.044	3.960	3.037	3.018	3.027	3.047	3.042	3.047
0.020	-0.039	-0.005	-0.005	-0.029	0.020	0.039	3.975	3.042	3.022	3.022	3.047	3.032	3.047
0.024	-0.044	0.000	-0.010	-0.034	0.015	0.044	3.975	3.032	3.022	3.022	3.042	3.032	3.042
0.000	-0.068	-0.005	-0.010	-0.049	0.000	0.039	3.950	3.027	3.013	3.018	3.037	3.027	3.027
0.010	-0.063	-0.005	-0.010	-0.049	0.005	0.039	4.087	3.042	3.027	3.018	3.037	3.032	3.037
0.000	0.034	0.000	-0.010	-0.054	0.000	0.039	3.950	3.037	3.057	3.032	3.042	3.032	3.037
0.010	-0.020	0.000	0.000	-0.068	-0.015	0.044	3.931	3.027	3.027	3.027	3.047	3.027	3.027
0.010	-0.088	0.000	0.000	-0.063	-0.010	0.039	4.072	3.042	3.018	3.022	3.047	3.032	3.032
0.005	-0.010	0.005	0.000	-0.054	-0.024	0.039	4.033	3.047	3.047	3.032	3.047	3.037	3.032
0.015	0.039	0.005	-0.010	-0.044	-0.005	0.039	3.911	3.037	3.062	3.037	3.047	3.042	3.042
-0.024	0.151	0.010	-0.015	-0.039	-0.010	0.044	3.931	3.022	3.076	3.052	3.052	3.047	3.042
-0.029	0.112	0.010	-0.005	-0.029	0.020	0.039	3.931	3.018	3.047	3.052	3.062	3.052	3.052
-0.015	0.059	0.000	-0.005	-0.020	0.015	0.039	4.014	3.032	3.027	3.042	3.057	3.052	3.052
-0.015	0.024	-0.005	-0.010	-0.005	0.020	0.039	3.989	3.032	3.018	3.032	3.057	3.062	3.057
-0.020	0.024	-0.005	-0.005	0.000	0.015	0.039	3.940	3.027	3.022	3.027	3.052	3.057	3.057
-0.020	-0.005	-0.005	-0.010	-0.010	0.015	0.044	3.931	3.027	3.013	3.022	3.047	3.052	3.057
-0.010	-0.015	0.000	-0.005	-0.024	0.010	0.044	3.970	3.032	3.018	3.022	3.047	3.042	3.052
0.015	-0.020	-0.005	-0.005	-0.034	0.005	0.039	3.940	3.032	3.022	3.018	3.042	3.042	3.047
0.010	-0.024	0.000	-0.015	-0.020	-0.005	0.039	3.965	3.032	3.022	3.018	3.037	3.042	3.042
0.015	-0.049	0.000	-0.034	-0.015	0.005	0.044	4.038	3.042	3.018	3.013	3.027	3.037	3.047
0.010	-0.044	-0.005	-0.054	-0.020	0.020	0.039	3.975	3.037	3.022	3.018	3.027	3.032	3.047
0.005	-0.039	0.000	-0.063	-0.020	-0.005	0.039	3.979	3.037	3.027	3.018	3.027	3.027	3.037
0.024	-0.029	0.005	-0.063	-0.020	0.000	0.039	3.979	3.042	3.037	3.027	3.032	3.027	3.037
0.029	-0.039	0.010	-0.059	-0.024	0.005	0.039	3.965	3.037	3.032	3.027	3.037	3.027	3.037
0.010	-0.015	0.000	-0.034	-0.044	0.024	0.039	3.975	3.032	3.042	3.027	3.047	3.027	3.037
-0.005	0.093	0.000	-0.005	-0.059	0.015	0.044	3.989	3.032	3.066	3.037	3.057	3.032	3.037
-0.005	-0.005	-0.005	0.010	-0.073	0.034	0.044	3.965	3.027	3.027	3.037	3.057	3.032	3.042
-0.020	-0.024	-0.010	0.010	-0.068	0.044	0.044	3.960	3.022	3.018	3.027	3.052	3.042	3.042
-0.034	-0.020	0.005	0.010	-0.088	0.020	0.039	3.955	3.022	3.022	3.027	3.052	3.037	3.032
-0.010	-0.044	0.010	0.024	-0.103	0.020	0.044	3.994	3.027	3.018	3.027	3.057	3.037	3.037
0.010	-0.088	0.020	0.029	-0.117	0.010	0.039	3.999	3.037	3.013	3.022	3.052	3.037	3.037
0.010	0.127	0.015	0.039	-0.103	0.020	0.039	3.975	3.042	3.091	3.037	3.057	3.047	3.042
0.010	0.190	0.005	0.054	-0.093	-0.005	0.044	3.970	3.042	3.081	3.047	3.062	3.052	3.037
0.044	0.010	-0.005	0.059	-0.083	-0.024	0.044	3.960	3.037	3.022	3.037	3.062	3.052	3.037
0.020	-0.044	-0.005	0.049	-0.054	-0.044	0.039	3.965	3.027	3.003	3.027	3.057	3.062	3.037
0.024	-0.049	-0.005	0.044	0.000	-0.044	0.044	3.965	3.027	3.013	3.022	3.052	3.071	3.052
0.015	-0.059	-0.005	0.039	0.029	-0.029	0.039	3.970	3.022	3.013	3.018	3.047	3.071	3.062
0.010	-0.063	0.000	0.029	0.068	-0.029	0.039	3.984	3.027	3.013	3.018	3.042	3.071	3.066
0.000	0.073	0.015	0.024	0.063	0.020	0.039	3.975	3.032	3.057	3.032	3.047	3.062	3.076
-0.005	0.049	0.000	0.034	0.083	0.024	0.039	3.975	3.032	3.042	3.027	3.047	3.066	3.076
-0.020	0.029	0.000	0.029	0.093	0.020	0.039	3.970	3.027	3.032	3.032	3.047	3.057	3.071
-0.010	0.098	0.010	0.024	0.078	0.029	0.044	3.979	3.037	3.052	3.042	3.047	3.052	3.071
-0.024	0.063	0.010	0.020	0.068	0.024	0.039	3.984	3.032	3.037	3.037	3.047	3.047	3.057
-0.020	-0.005	0.000	0.015	0.063	0.034	0.039	3.955	3.032	3.018	3.027	3.047	3.047	3.062
-0.015	-0.010	0.005	0.010	0.073	0.010	0.044	4.072	3.052	3.022	3.027	3.047	3.047	3.047
0.005	-0.020	0.010	0.010	0.049	0.034	0.039	3.950	3.047	3.027	3.027	3.042	3.037	3.052
0.000	-0.020	0.015	0.000	0.034	0.029	0.039	3.945	3.042	3.032	3.027	3.042	3.032	3.047
0.000	-0.015	0.015	0.005	0.024	-0.005	0.039	3.950	3.032	3.037	3.027	3.047	3.032	3.032
0.000	-0.010	0.010	0.000	0.054	0.000	0.039	4.019	3.037	3.037	3.027	3.042	3.042	3.037
0.000	-0.010	-0.010	0.005	0.068	0.000	0.039	3.931	3.032	3.037	3.022	3.042	3.047	3.042
-0.015	-0.005	-0.020	0.010	0.049	0.000	0.039	3.950	3.022	3.032	3.022	3.042	3.037	3.042
-0.015	0.020	-0.020	0.010	0.034	0.005	0.044	4.009	3.032	3.037	3.027	3.042	3.032	3.042
0.000	0.000	-0.015	0.005	0.039	0.000	0.044	3.921	3.032	3.027	3.027	3.042	3.037	3.037
-0.005	-0.024	-0.010	0.010	0.054	-0.015	0.039	3.906	3.027	3.022	3.027	3.042	3.042	3.037
0.024	-0.034	-0.010	0.020	0.068	-0.020	0.039	3.970	3.032	3.018	3.022	3.047	3.047	3.042
0.005	-0.020	0.000	0.029	0.078	-0.029	0.044	4.023	3.018	3.027	3.027	3.052	3.052	3.037
0.020	0.020	0.000	0.034	0.103	-0.039	0.039	3.960	3.027	3.032	3.027	3.052	3.057	3.042
0.020	-0.044	0.005	0.039	0.098	-0.005	0.039	4.028	3.032	3.018	3.027	3.047	3.052	3.057
0.005	-0.029	0.015	0.034	0.103	-0.015	0.044	3.960	3.027	3.027	3.027	3.047	3.052	3.052
0.005	0.005	0.010	0.029	0.112	-0.020	0.039	4.028	3.042	3.037	3.027	3.047	3.052	3.052
0.000	0.049	0.000	0.020	0.127	-0.039	0.039	3.975	3.042	3.047	3.032	3.047	3.047	3.047
-0.005	0.029	0.005	0.015	0.112	-0.024	0.044	4.004	3.042	3.042	3.032	3.047	3.047	3.047
-0.020	0.000	0.005	-0.005	0.103	-0.034	0.044	3.965	3.027	3.027	3.027	3.037	3.042	3.047
-0.020	-0.020	0.000	-0.024	0.088	-0.029	0.044	3.970	3.027	3.022	3.022	3.032	3.032	3.047
-0.020	-0.039	0.000	-0.010	0.068	-0.005	0.039	3.979	3.032	3.018	3.022	3.037	3.032	3.047
0.010	-0.049	-0.005	0.005	0.059	-0.020	0.044	3.975	3.042	3.027	3.022	3.042	3.032	3.037
0.034	-0.034	0.000	0.015	0.063	-0.010	0.044	3.960	3.042	3.032	3.027	3.047	3.037	3.042
0.034	0.000	0.000	0.029	0.083	-0.020	0.039	3.970	3.042	3.047	3.027	3.052	3.042	3.042
0.034	-0.010	-0.005	0.015	0.093	-0.005	0.039	3.955	3.037	3.042	3.032	3.047	3.047	3.047
0.044	0.020	-0.005	0.005	0.098	-0.005	0.044	3.989	3.047	3.052	3.032	3.042	3.047	3.047
-0.005	0.034	-0.005	0.005	0.103	-0.005	0.044	3.989	3.027	3.047	3.037	3.047	3.047	3.047
-0.005	0.015	-0.005	0.015	0.122	-0.005	0.039	3.970	3.027	3.037	3.037	3.052	3.052	3.047
0.005	0.015	-0.005	0.015	0.088	0.000	0.039	3.970	3.032	3.032	3.037	3.052	3.042	3.047
-0.005	0.015	0.000	0.000	0.073	0.000	0.039	3.975	3.027	3.032	3.032	3.047	3.042	3.047
-0.029	0.039	0.000	0.005	0.049	-0.005	0.039	3.965	3.022	3.037	3.037	3.047	3.032	3.042
-0.039	0.044	0.000	-0.015	0.054	0.000	0.039	3.965	3.018	3.032	3.032	3.042	3.037	3.042
-0.020	0.029	0.005	-0.020	0.034	0.020	0.039	3.965	3.027	3.027	3.032	3.047	3.032	3.047
0.000	0.000	0.010	-0.010	0.059	0.020	0.039	3.979	3.037	3.022	3.032	3.047	3.042	3.047
0.015	0.000	0.000	0.000	0.103	0.000	0.039	3.970	3.042	3.027	3.027	3.057	3.057	3.047
0.015	0.010	0.005	0.005	0.195	0.000	0.044	3.960	3.032	3.037	3.027	3.052	3.081	3.057
-0.010	0.020	0.000	-0.005	0.181	0.015	0.039	3.975	3.027	3.032	3.027	3.047	3.062	3.066
-0.015	-0.015	0.000	-0.010	0.093	0.015	0.044	3.994	3.032	3.022	3.027	3.047	3.032	3.057
0.020	-0.020	0.000	-0.005	0.020	-0.005	0.039	3.975	3.042	3.027	3.022	3.042	3.018	3.037
0.020	-0.024	0.005	0.000	-0.024	0.000	0.039	3.950	3.032	3.027	3.022	3.042	3.008	3.032
0.005	-0.005	0.000	0.000	-0.063	-0.015	0.039	4.072	3.042	3.037	3.027	3.042	3.008	3.018
0.000	0.000	-0.005	-0.010	-0.078	0.015	0.039	3.945	3.032	3.037	3.027	3.037	3.008	3.027
-0.024	0.005	-0.005	-0.005	-0.083	-0.005	0.039	3.940	3.022	3.032	3.027	3.042	3.013	3.022
-0.005	-0.010	0.000	-0.010	-0.088	0.010	0.039	3.945	3.022	3.022	3.027	3.042	3.018	3.022
0.005	-0.015	-0.005	-0.005	-0.083	0.020	0.039	4.009	3.032	3.027	3.022	3.042	3.027	3.027
0.010	-0.010	0.005	-0.010	-0.078	0.024	0.039	3.916	3.027	3.022	3.027	3.042	3.032	3.032
-0.010	0.000	0.000	0.000	-0.078	0.015	0.044	4.033	3.018	3.027	3.022	3.047	3.032	3.027
0.000	0.000	0.010	-0.005	-0.078	0.010	0.044	4.009	3.027	3.027	3.022	3.042	3.037	3.032
-0.020	0.024	0.015	-0.005	-0.073	-0.010	0.039	3.926	3.018	3.027	3.027	3.047	3.037	3.027
-0.039	0.039	0.005	-0.005	-0.073	0.000	0.044	3.926	3.008	3.027	3.027	3.042	3.042	3.037
-0.020	0.029	0.010	-0.010	-0.068	-0.010	0.044	3.975	3.022	3.022	3.022	3.042	3.037	3.032
0.005	0.000	0.005	-0.010	-0.059	-0.015	0.044	3.960	3.022	3.013	3.018	3.042	3.042	3.042
0.029	-0.020	0.005	0.000	-0.044	0.010	0.044	3.975	3.027	3.013	3.018	3.042	3.042	3.047
0.044	-0.034	0.010	0.000	-0.044	-0.010	0.039	4.043	3.042	3.018	3.018	3.042	3.042	3.042
0.034	-0.024	0.010	0.000	-0.024	0.005	0.044	3.989	3.037	3.022	3.018	3.037	3.047	3.052
0.020	0.005	-0.005	-0.005	-0.020	0.020	0.044	4.033	3.037	3.037	3.018	3.037	3.047	3.052
-0.020	0.063	-0.010	-0.015	-0.029	0.020	0.039	3.975	3.027	3.042	3.027	3.037	3.037	3.047
-0.034	0.020	-0.010	-0.020	-0.020	0.010	0.044	3.994	3.027	3.027	3.022	3.037	3.037	3.042
-0.034	0.000	-0.010	-0.010	-0.020	0.005	0.039	3.960	3.027	3.022	3.022	3.037	3.037	3.042
-0.010	-0.015	-0.005	-0.015	-0.020	0.000	0.039	3.994	3.037	3.022	3.022	3.037	3.037	3.037
-0.005	-0.039	0.005	-0.010	-0.024	0.005	0.039	3.989	3.032	3.018	3.022	3.037	3.032	3.037
0.015	0.020	0.000	-0.015	-0.020	0.000	0.044	3.999	3.042	3.042	3.022	3.037	3.032	3.037
0.005	0.000	0.000	-0.010	-0.024	0.000	0.044	3.975	3.037	3.027	3.027	3.042	3.032	3.037
0.010	-0.044	0.005	-0.005	-0.020	0.005	0.044	3.999	3.037	3.022	3.027	3.042	3.037	3.037
0.000	0.020	0.005	0.010	-0.020	0.010	0.044	3.960	3.032	3.047	3.032	3.052	3.042	3.042
0.015	0.093	0.005	0.015	-0.024	-0.010	0.044	3.989	3.042	3.062	3.042	3.052	3.042	3.037
0.020	-0.020	0.010	0.015	-0.029	0.010	0.039	3.989	3.037	3.022	3.032	3.052	3.042	3.047
0.024	-0.034	0.005	0.015	-0.024	0.000	0.039	3.970	3.032	3.018	3.027	3.052	3.047	3.047
0.005	-0.044	0.005	0.010	-0.020	0.005	0.039	3.970	3.027	3.018	3.027	3.047	3.047	3.047
0.010	-0.039	0.000	0.010	-0.010	0.000	0.044	3.965	3.027	3.022	3.022	3.042	3.047	3.047
-0.005	-0.005	-0.005	0.010	-0.015	-0.005	0.044	3.994	3.027	3.037	3.022	3.042	3.047	3.047
0.015	-0.005	-0.010	0.005	-0.020	-0.005	0.044	3.975	3.037	3.037	3.022	3.042	3.037	3.042
0.020	-0.020	-0.005	0.010	-0.020	-0.024	0.044	3.989	3.037	3.027	3.027	3.042	3.037	3.042
0.015	0.010	0.000	0.005	-0.020	-0.010	0.039	3.984	3.037	3.047	3.032	3.047	3.042	3.047
-0.005	0.088	-0.005	0.010	-0.024	-0.005	0.039	3.965	3.032	3.052	3.037	3.047	3.042	3.042
0.015	0.010	0.000	0.010	-0.020	0.000	0.039	3.960	3.027	3.027	3.032	3.047	3.042	3.047
-0.005	-0.020	0.005	0.005	-0.024	-0.005	0.039	3.979	3.022	3.018	3.027	3.047	3.042	3.042
0.005	-0.024	0.005	0.000	-0.015	-0.010	0.039	3.994	3.032	3.022	3.022	3.047	3.042	3.042
0.015	-0.049	0.005	-0.020	-0.020	-0.010	0.039	3.984	3.032	3.008	3.022	3.037	3.037	3.042
0.020	-0.122	-0.005	-0.015	-0.015	-0.010	0.039	3.965	3.032	2.998	3.008	3.037	3.037	3.042
-0.005	-0.073	0.005	-0.015	-0.015	0.000	0.044	3.735	2.998	3.013	3.013	3.032	3.037	3.042
-0.029	0.039	0.010	-0.039	-0.010	-0.020	0.039	3.501	2.949	3.027	3.022	3.027	3.032	3.037
-0.024	0.054	0.015	-0.010	-0.010	0.000	0.039	2.642	2.832	2.983	3.013	3.037	3.027	3.032
0.029	0.146	0.010	0.010	-0.005	-0.015	0.039	2.803	2.759	2.964	3.003	3.037	3.032	3.032
0.024	0.098	0.005	0.020	-0.005	0.005	0.044	2.637	2.686	2.871	2.969	3.027	3.027	3.037
-0.029	0.044	0.005	0.020	-0.015	0.005	0.039	2.739	2.637	2.803	2.920	3.003	3.018	3.032
-0.049	0.059	0.000	0.039	-0.015	-0.005	0.044	2.656	2.612	2.754	2.876	2.979	3.008	3.022
-0.015	0.029	-0.005	0.049	-0.034	0.000	0.039	2.725	2.612	2.715	2.832	2.949	2.988	3.018
-0.024	0.054	-0.005	0.039	-0.044	0.000	0.039	2.617	2.593	2.690	2.793	2.905	2.964	3.003
-0.044	-0.010	0.005	0.010	-0.029	0.000	0.044	2.651	2.578	2.642	2.749	2.861	2.939	2.988
-0.015	-0.054	-0.005	-0.005	-0.029	0.005	0.044	2.666	2.578	2.612	2.710	2.817	2.905	2.964
0.015	-0.063	-0.010	0.000	-0.029	-0.020	0.044	2.725	2.588	2.612	2.681	2.788	2.871	2.935
0.024	0.015	-0.015	0.020	-0.024	0.005	0.044	2.661	2.588	2.627	2.666	2.769	2.842	2.915
0.024	-0.044	0.000	0.015	-0.010	-0.005	0.039	2.705	2.578	2.607	2.651	2.739	2.817	2.886
0.010	-0.063	0.010	-0.020	-0.005	-0.010	0.039	2.671	2.568	2.583	2.632	2.705	2.788	2.861
-0.015	-0.073	0.005	-0.034	0.000	0.005	0.039	2.651	2.554	2.583	2.617	2.681	2.759	2.837
-0.020	0.010	0.000	-0.044	0.015	0.010	0.044	2.676	2.549	2.603	2.612	2.666	2.739	2.808
-0.015	0.029	0.000	-0.039	0.020	0.005	0.039	2.700	2.549	2.588	2.607	2.656	2.715	2.788
0.010	0.054	0.005	-0.010	0.015	0.000	0.044	2.671	2.554	2.598	2.607	2.651	2.695	2.764
0.034	0.127	0.005	0.005	0.010	0.000	0.039	2.690	2.554	2.607	2.607	2.651	2.681	2.739
0.049	0.078	0.005	0.015	-0.005	0.015	0.039	2.671	2.544	2.573	2.598	2.646	2.666	2.725
0.034	-0.049	0.005	0.024	0.000	0.010	0.044	2.700	2.520	2.524	2.573	2.632	2.656	2.705
0.015	-0.049	-0.005	0.015	-0.010	0.000	0.044	2.681	2.510	2.520	2.559	2.617	2.642	2.686
0.005	-0.020	-0.010	0.005	0.005	-0.005	0.039	2.681	2.500	2.524	2.549	2.598	2.632	2.671
0.010	-0.010	-0.010	0.005	-0.005	-0.005	0.039	2.695	2.495	2.520	2.539	2.588	2.617	2.651
-0.010	-0.010	-0.005	0.005	-0.005	0.010	0.039	2.695	2.485	2.510	2.534	2.578	2.603	2.646
-0.010	-0.010	0.000	-0.005	0.005	-0.010	0.044	2.695	2.480	2.505	2.524	2.563	2.593	2.627
-0.005	-0.015	0.005	-0.010	0.010	0.015	0.039	2.671	2.471	2.495	2.520	2.554	2.583	2.627
0.005	-0.015	-0.005	-0.015	0.000	0.010	0.039	2.666	2.466	2.490	2.505	2.549	2.568	2.607
0.005	-0.015	-0.005	-0.010	0.000	0.010	0.044	2.661	2.456	2.485	2.495	2.539	2.559	2.598
0.010	-0.015	0.000	0.000	0.005	-0.015	0.039	2.666	2.446	2.476	2.495	2.534	2.554	2.578
0.005	-0.010	0.000	0.015	-0.005	0.010	0.044	2.690	2.437	2.466	2.485	2.529	2.544	2.578
0.010	-0.005	0.010	0.015	-0.020	0.020	0.039	2.676	2.432	2.461	2.480	2.520	2.534	2.563
-0.010	-0.005	0.010	0.010	-0.034	-0.005	0.039	2.686	2.417	2.451	2.471	2.510	2.520	2.549
-0.020	0.020	0.010	0.005	-0.029	0.029	0.039	2.686	2.412	2.446	2.466	2.505	2.520	2.549
-0.015	0.024	0.020	-0.005	-0.029	0.024	0.044	2.705	2.412	2.437	2.461	2.495	2.510	2.539
-0.015	0.005	0.010	-0.034	-0.034	0.020	0.039	2.686	2.402	2.422	2.446	2.476	2.500	2.529
-0.010	0.000	0.005	-0.024	-0.020	-0.020	0.044	2.671	2.393	2.412	2.437	2.476	2.495	2.505
-0.005	-0.005	0.010	-0.020	-0.020	-0.024	0.039	2.686	2.393	2.407	2.432	2.471	2.485	2.500
0.010	-0.010	0.000	-0.005	-0.024	-0.024	0.039	2.656	2.378	2.402	2.422	2.466	2.480	2.495
0.010	-0.015	-0.005	0.000	-0.034	-0.024	0.039	2.793	2.383	2.397	2.412	2.461	2.471	2.490
0.000	0.010	0.000	0.024	-0.029	-0.020	0.039	2.656	2.368	2.397	2.407	2.456	2.466	2.485
0.010	0.005	-0.005	0.020	-0.020	0.015	0.039	2.642	2.358	2.393	2.402	2.441	2.461	2.490
-0.010	0.024	-0.010	0.005	-0.005	0.039	0.044	2.642	2.344	2.378	2.393	2.432	2.461	2.490
-0.015	-0.059	0.000	0.000	0.000	0.034	0.044	2.729	2.344	2.349	2.383	2.422	2.446	2.476
0.015	-0.049	-0.005	0.020	-0.015	0.015	0.044	2.646	2.339	2.354	2.373	2.417	2.437	2.461
0.015	-0.010	-0.010	0.034	0.000	0.010	0.044	2.651	2.334	2.358	2.368	2.412	2.432	2.446
0.005	-0.024	-0.010	0.005	-0.005	0.010	0.039	2.725	2.329	2.344	2.363	2.393	2.417	2.441
0.024	0.015	-0.010	-0.015	-0.005	0.020	0.039	2.632	2.324	2.354	2.358	2.383	2.407	2.437
0.039	0.005	-0.005	0.005	0.000	0.000	0.039	2.720	2.319	2.339	2.354	2.388	2.402	2.427
0.034	0.000	0.005	0.000	-0.005	0.000	0.039	2.671	2.310	2.334	2.349	2.378	2.393	2.412
-0.015	0.049	-0.005	0.015	0.000	0.010	0.039	2.715	2.285	2.339	2.344	2.378	2.388	2.412
-0.073	0.117	-0.005	0.015	-0.010	0.029	0.039	2.676	2.271	2.339	2.344	2.373	2.383	2.412
-0.054	0.073	-0.005	0.010	-0.020	0.015	0.044	2.637	2.271	2.310	2.334	2.363	2.373	2.397
-0.020	0.049	0.000	-0.020	-0.029	0.005	0.044	2.686	2.280	2.295	2.319	2.349	2.363	2.388
0.000	-0.015	0.000	-0.024	-0.020	0.015	0.039	2.739	2.290	2.275	2.310	2.344	2.358	2.383
-0.005	-0.039	0.005	-0.059	-0.029	0.010	0.039	2.681	2.275	2.266	2.295	2.329	2.344	2.368
0.000	-0.059	0.010	-0.063	-0.020	0.000	0.044	2.686	2.271	2.271	2.290	2.319	2.339	2.358
0.000	0.015	0.024	-0.054	-0.005	-0.005	0.039	2.661	2.261	2.285	2.295	2.319	2.339	2.354
0.015	-0.010	0.020	-0.054	0.000	0.020	0.039	2.671	2.261	2.271	2.285	2.319	2.334	2.354
0.020	-0.049	0.010	-0.020	-0.010	0.010	0.039	2.676	2.251	2.256	2.271	2.324	2.324	2.344
0.020	-0.044	0.010	0.034	-0.015	-0.005	0.044	2.686	2.241	2.256	2.271	2.324	2.324	2.334
0.015	-0.059	0.015	0.044	0.005	-0.010	0.044	2.700	2.241	2.246	2.266	2.319	2.324	2.334
0.024	-0.029	0.005	0.024	0.000	-0.044	0.039	2.700	2.241	2.256	2.256	2.300	2.319	2.319
0.000	0.059	-0.005	0.010	-0.005	-0.020	0.039	2.666	2.227	2.275	2.261	2.290	2.310	2.324
0.015	0.078	0.000	0.015	0.000	-0.010	0.039	2.671	2.227	2.266	2.266	2.295	2.305	2.319
-0.005	0.005	0.005	0.020	-0.005	-0.010	0.039	2.676	2.212	2.227	2.256	2.285	2.295	2.310
0.005	-0.088	0.010	0.010	-0.020	-0.015	0.039	2.676	2.207	2.202	2.241	2.275	2.285	2.305
-0.024	-0.068	0.010	-0.010	-0.024	-0.005	0.039	2.681	2.197	2.207	2.227	2.261	2.275	2.295
-0.010	-0.054	0.010	-0.005	-0.024	0.005	0.039	2.671	2.197	2.212	2.222	2.256	2.271	2.295
-0.005	-0.059	0.005	-0.015	-0.015	-0.005	0.044	2.686	2.197	2.207	2.212	2.251	2.266	2.285
-0.010	-0.024	0.005	-0.039	0.005	0.005	0.044	2.705	2.202	2.212	2.217	2.241	2.266	2.280
0.029	0.098	0.005	-0.063	0.000	0.010	0.049	2.710	2.222	2.256	2.227	2.231	2.251	2.275
0.044	0.205	0.000	-0.068	0.005	0.000	0.049	2.695	2.212	2.271	2.241	2.241	2.246	2.266
0.020	0.044	-0.005	-0.054	0.005	0.010	0.049	2.671	2.187	2.202	2.227	2.246	2.246	2.261
-0.010	0.059	0.000	-0.039	0.005	-0.005	0.044	2.676	2.178	2.197	2.217	2.246	2.246	2.251
-0.005	-0.015	-0.010	-0.020	0.015	-0.015	0.049	2.666	2.168	2.168	2.202	2.246	2.246	2.246
0.010	-0.059	-0.020	-0.034	0.024	0.000	0.044	2.700	2.168	2.163	2.183	2.231	2.246	2.256
-0.005	-0.024	-0.005	-0.039	0.020	-0.015	0.049	2.681	2.158	2.173	2.183	2.222	2.236	2.246
-0.010	0.054	-0.005	-0.034	0.020	0.005	0.049	2.656	2.158	2.187	2.187	2.217	2.231	2.246
-0.015	0.142	0.000	-0.029	0.015	0.000	0.049	2.788	2.173	2.207	2.192	2.217	2.222	2.236
0.010	0.000	0.000	-0.024	-0.005	0.005	0.044	2.646	2.163	2.153	2.183	2.212	2.217	2.231
0.005	-0.020	0.005	-0.059	0.000	0.000	0.049	2.651	2.148	2.153	2.173	2.197	2.207	2.227
-0.010	-0.005	0.005	-0.073	0.005	-0.015	0.049	2.651	2.139	2.153	2.168	2.192	2.202	2.217
0.000	-0.015	0.005	-0.073	0.000	-0.005	0.049	2.739	2.153	2.148	2.163	2.187	2.197	2.217
-0.005	0.000	0.010	-0.063	0.005	0.010	0.044	2.642	2.139	2.153	2.163	2.187	2.192	2.217
-0.010	0.005	0.010	-0.029	0.010	0.015	0.044	2.754	2.139	2.148	2.158	2.197	2.197	2.212
0.000	-0.020	0.010	0.044	0.015	-0.005	0.044	2.729	2.144	2.144	2.158	2.207	2.202	2.202
0.005	-0.029	0.020	0.078	0.005	0.015	0.044	2.715	2.144	2.144	2.153	2.207	2.197	2.207
0.010	-0.039	0.010	0.054	0.005	0.015	0.049	2.720	2.144	2.139	2.148	2.187	2.197	2.207
0.005	-0.039	0.005	0.039	0.000	0.015	0.044	2.671	2.134	2.134	2.144	2.178	2.187	2.202
0.010	-0.044	0.000	0.020	0.005	-0.024	0.049	2.642	2.119	2.129	2.139	2.168	2.178	2.183
-0.005	-0.034	-0.024	-0.024	-0.029	-0.024	0.049	2.666	2.114	2.129	2.124	2.148	2.158	2.178
-0.015	-0.015	-0.024	-0.049	-0.049	-0.024	0.044	2.734	2.114	2.129	2.124	2.134	2.148	2.168
-0.020	-0.020	-0.015	-0.059	-0.049	-0.039	0.044	2.671	2.104	2.119	2.124	2.139	2.144	2.158
0.015	-0.005	0.000	-0.020	-0.024	-0.020	0.044	2.734	2.124	2.129	2.134	2.153	2.153	2.163
0.010	0.063	0.010	-0.015	-0.005	-0.010	0.044	2.671	2.109	2.148	2.139	2.153	2.158	2.163
-0.020	0.059	-0.010	-0.015	0.024	-0.039	0.044	2.705	2.100	2.129	2.129	2.153	2.163	2.158
-0.059	0.117	-0.029	-0.010	0.059	-0.005	0.044	2.695	2.090	2.134	2.124	2.148	2.168	2.168
-0.044	0.044	-0.015	-0.005	0.073	0.010	0.039	2.671	2.090	2.100	2.124	2.148	2.168	2.173
-0.005	-0.029	-0.010	-0.010	0.020	-0.005	0.044	2.686	2.100	2.085	2.114	2.144	2.144	2.158
0.000	-0.020	-0.005	-0.039	-0.098	-0.020	0.044	2.705	2.100	2.090	2.104	2.129	2.104	2.139
0.010	-0.005	0.024	-0.020	-0.195	0.000	0.044	2.676	2.095	2.100	2.109	2.129	2.090	2.129
0.010	0.000	0.034	-0.015	-0.205	0.000	0.044	2.700	2.095	2.095	2.109	2.134	2.095	2.119
0.015	-0.039	0.024	-0.020	-0.200	0.000	0.039	2.666	2.085	2.080	2.100	2.124	2.104	2.114
0.020	-0.044	0.020	-0.020	-0.107	0.015	0.044	2.710	2.085	2.085	2.090	2.124	2.139	2.129
0.029	-0.024	0.000	-0.010	-0.005	0.000	0.044	2.700	2.085	2.090	2.090	2.124	2.158	2.139
0.039	-0.049	-0.005	-0.005	0.078	0.024	0.044	2.705	2.090	2.085	2.085	2.124	2.173	2.153
0.029	-0.044	-0.010	-0.005	0.151	0.010	0.044	2.666	2.080	2.085	2.080	2.119	2.178	2.158
0.015	0.005	-0.010	0.000	0.220	0.005	0.039	2.671	2.075	2.095	2.090	2.114	2.178	2.168
0.020	0.088	-0.020	0.005	0.249	0.015	0.039	2.671	2.075	2.114	2.095	2.119	2.168	2.168
0.000	0.005	-0.010	0.010	0.190	0.034	0.044	2.700	2.070	2.070	2.085	2.114	2.134	2.163
0.005	-0.068	-0.010	-0.020	0.117	0.044	0.044	2.700	2.075	2.061	2.080	2.095	2.104	2.148
0.000	-0.029	-0.015	-0.039	0.093	0.039	0.044	2.690	2.075	2.075	2.070	2.090	2.095	2.134
0.000	0.093	0.000	-0.005	0.225	0.049	0.044	2.671	2.075	2.109	2.090	2.109	2.139	2.139
-0.005	0.063	0.010	0.034	0.337	0.054	0.044	2.666	2.065	2.085	2.095	2.124	2.163	2.148
-0.010	0.005	0.020	0.039	0.327	0.039	0.044	2.676	2.065	2.065	2.090	2.124	2.148	2.144
-0.005	0.005	0.010	0.054	0.352	0.010	0.044	2.695	2.065	2.065	2.080	2.119	2.144	2.134
0.000	-0.010	0.010	0.059	0.200	0.020	0.044	2.676	2.061	2.061	2.070	2.109	2.095	2.124
-0.005	0.010	0.010	0.059	0.181	0.000	0.039	2.666	2.056	2.065	2.075	2.104	2.090	2.104
-0.010	0.010	0.000	0.049	0.078	-0.024	0.039	2.803	2.070	2.065	2.065	2.090	2.056	2.085
-0.005	0.010	0.010	0.024	-0.088	-0.034	0.044	2.651	2.056	2.065	2.065	2.080	2.017	2.061
0.005	0.000	0.034	0.010	-0.234	-0.044	0.044	2.646	2.046	2.056	2.065	2.075	1.997	2.041
0.000	-0.010	0.015	0.000	-0.298	-0.029	0.044	2.744	2.051	2.051	2.056	2.070	1.997	2.026
0.010	-0.020	0.015	0.000	-0.298	-0.024	0.044	2.729	2.051	2.046	2.051	2.070	2.017	2.026
0.020	-0.034	0.005	0.005	-0.254	-0.024	0.044	2.651	2.041	2.041	2.046	2.075	2.046	2.036
0.029	-0.054	-0.029	0.015	-0.186	-0.020	0.049	2.720	2.041	2.036	2.036	2.070	2.070	2.046
0.034	-0.039	-0.005	0.024	-0.122	-0.029	0.049	2.632	2.026	2.036	2.046	2.070	2.085	2.056
0.010	-0.024	0.010	0.024	-0.073	-0.029	0.044	2.622	2.012	2.036	2.046	2.070	2.090	2.070
-0.039	0.024	-0.005	-0.005	-0.083	0.000	0.049	2.725	2.007	2.036	2.036	2.061	2.075	2.075
-0.034	0.029	-0.010	0.000	-0.098	-0.015	0.264	2.686	2.017	2.031	2.031	2.061	2.070	2.075
-0.005	0.010	-0.039	0.015	-0.112	-0.015	0.049	2.715	2.026	2.026	2.026	2.056	2.061	2.065
0.010	0.000	-0.020	-0.005	-0.098	-0.010	0.049	2.656	2.021	2.026	2.026	2.051	2.061	2.070
0.005	-0.005	0.000	-0.010	-0.078	-0.005	0.054	2.637	2.021	2.021	2.031	2.046	2.061	2.070
0.034	-0.005	0.005	0.010	-0.015	-0.005	0.049	2.671	2.021	2.021	2.031	2.056	2.080	2.075
0.000	0.054	0.024	0.029	0.063	-0.015	0.054	2.651	2.012	2.036	2.041	2.065	2.095	2.080
-0.063	0.098	0.044	0.020	0.098	0.000	0.049	2.681	2.002	2.036	2.041	2.061	2.095	2.085
-0.059	0.054	0.010	0.015	0.112	-0.015	0.215	2.715	2.012	2.017	2.026	2.056	2.085	2.085
-0.039	0.039	-0.005	0.024	0.078	0.010	0.078	2.695	2.017	2.012	2.021	2.056	2.065	2.085
-0.005	0.000	0.010	0.044	0.010	-0.010	0.122	2.690	2.026	2.007	2.021	2.051	2.041	2.070
0.000	-0.024	0.010	0.015	-0.015	-0.015	0.034	2.676	2.031	2.007	2.012	2.036	2.031	2.051
0.034	-0.029	-0.005	0.005	-0.034	-0.044	0.034	2.690	2.031	2.012	2.007	2.031	2.026	2.036
0.054	-0.029	0.005	0.010	-0.039	-0.005	0.034	2.671	2.036	2.017	2.012	2.031	2.026	2.046
0.049	-0.039	0.000	0.034	0.024	0.020	0.034	2.705	2.031	2.017	2.012	2.041	2.051	2.056
0.044	-0.029	0.029	0.039	0.083	0.020	0.034	2.666	2.021	2.021	2.021	2.041	2.061	2.061
0.039	-0.029	-0.005	0.044	0.078	0.044	0.034	2.700	2.017	2.021	2.012	2.041	2.051	2.061
0.015	-0.015	-0.020	0.068	0.059	0.068	0.039	2.695	2.007	2.021	2.012	2.046	2.046	2.061
-0.034	0.015	-0.020	0.049	-0.010	0.063	0.034	2.681	1.992	2.021	2.012	2.031	2.021	2.051
-0.098	0.029	0.010	0.024	-0.078	0.054	0.034	2.671	1.973	2.007	2.021	2.026	2.002	2.031
-0.112	0.015	0.005	0.005	-0.112	0.029	0.034	2.681	1.978	1.997	2.007	2.021	1.997	2.017
-0.103	0.005	0.010	0.015	-0.078	0.000	0.034	2.656	1.982	1.992	2.002	2.026	2.012	2.007
-0.083	0.015	-0.010	0.024	-0.044	-0.015	0.034	2.700	1.982	1.992	1.997	2.026	2.021	2.012
-0.063	0.005	-0.044	0.029	-0.010	0.000	0.034	2.695	1.992	1.992	1.987	2.021	2.031	2.021
0.010	-0.005	-0.020	0.034	0.049	0.015	0.034	2.681	2.012	1.997	1.997	2.021	2.046	2.031
0.073	-0.010	-0.005	0.039	0.078	0.039	0.034	2.661	2.021	2.007	2.002	2.021	2.046	2.046
0.137	-0.005	0.010	0.024	0.054	0.054	0.044	1.943	1.948	1.997	2.007	2.021	2.026	2.046
0.161	0.010	0.005	0.010	0.078	0.029	0.044	1.558	1.846	1.968	1.992	2.017	2.031	2.026
0.166	-0.005	0.010	0.015	0.103	0.034	0.039	1.167	1.719	1.904	1.968	2.012	2.026	2.026
0.146	0.010	0.010	0.024	0.044	0.000	0.039	1.162	1.626	1.841	1.938	1.997	2.002	2.012
0.098	-0.005	0.024	0.005	-0.005	-0.039	0.034	1.167	1.553	1.763	1.890	1.968	1.978	1.992
0.054	0.005	0.010	-0.015	-0.054	-0.083	0.552	1.289	1.519	1.699	1.836	1.929	1.948	1.982
-0.005	-0.005	-0.010	-0.020	-0.142	-0.103	0.386	1.138	1.475	1.636	1.777	1.890	1.909	1.948
-0.059	-0.005	-0.015	-0.015	-0.171	-0.098	0.225	1.128	1.440	1.587	1.729	1.851	1.885	1.929
-0.107	-0.010	0.010	-0.015	-0.146	-0.063	0.044	1.133	1.416	1.543	1.685	1.812	1.875	1.924
-0.122	-0.005	0.044	-0.010	-0.088	-0.029	0.630	1.221	1.426	1.514	1.646	1.782	1.870	1.934
-0.098	-0.005	0.034	-0.005	-0.020	0.015	0.605	1.104	1.436	1.499	1.606	1.743	1.855	1.924
-0.083	0.010	0.015	0.000	0.063	0.073	0.459	1.201	1.450	1.494	1.567	1.699	1.836	1.914
-0.098	0.034	-0.015	-0.029	0.122	0.088	0.479	1.211	1.455	1.494	1.538	1.655	1.802	1.885
-0.068	0.029	-0.073	-0.005	0.161	0.034	0.054	1.191	1.460	1.484	1.514	1.626	1.758	1.831
-0.005	0.010	-0.088	0.029	0.205	0.024	0.034	1.118	1.475	1.479	1.499	1.606	1.729	1.802
0.034	0.015	-0.068	0.039	0.210	0.000	0.210	1.167	1.475	1.489	1.499	1.587	1.685	1.768
0.054	0.005	-0.034	0.039	0.161	-0.020	0.396	1.206	1.465	1.484	1.504	1.567	1.646	1.733
0.078	0.000	0.005	0.049	0.127	-0.029	0.459	1.162	1.450	1.479	1.509	1.558	1.606	1.699
0.088	-0.015	0.010	0.059	-0.015	-0.034	0.059	1.230	1.440	1.465	1.494	1.548	1.548	1.641
0.073	-0.010	0.000	0.059	-0.093	-0.039	0.400	1.182	1.416	1.455	1.479	1.533	1.533	1.621
0.063	0.005	0.039	0.049	-0.015	-0.015	0.508	1.230	1.401	1.450	1.484	1.523	1.548	1.606
0.034	0.005	0.020	0.034	0.000	-0.015	0.049	1.147	1.367	1.426	1.460	1.504	1.538	1.577
-0.015	0.010	0.010	0.034	0.010	0.005	0.054	1.177	1.343	1.406	1.445	1.494	1.528	1.567
-0.044	0.005	0.005	0.005	-0.029	0.034	0.039	1.152	1.323	1.387	1.426	1.470	1.499	1.558
-0.049	0.005	0.015	0.000	-0.083	0.078	0.044	1.152	1.318	1.367	1.411	1.460	1.475	1.543
-0.054	-0.005	0.044	0.000	-0.093	0.098	0.039	1.157	1.299	1.348	1.401	1.450	1.465	1.528
-0.054	0.000	0.054	-0.005	-0.073	0.122	0.039	1.167	1.299	1.338	1.392	1.440	1.460	1.519
-0.034	-0.010	0.059	0.005	-0.083	0.127	0.044	1.143	1.289	1.328	1.372	1.426	1.450	1.499
-0.024	-0.005	0.029	0.010	-0.088	0.122	0.044	1.172	1.289	1.318	1.348	1.411	1.436	1.479
-0.029	0.000	0.024	0.015	-0.068	0.088	0.044	1.147	1.274	1.313	1.338	1.401	1.431	1.460
-0.020	0.000	-0.020	0.020	-0.015	0.000	0.044	1.147	1.265	1.299	1.313	1.387	1.426	1.421
-0.020	-0.005	-0.044	0.024	-0.010	-0.083	0.396	1.152	1.255	1.284	1.299	1.367	1.411	1.411
0.000	-0.010	-0.020	0.005	0.000	-0.156	0.557	1.157	1.250	1.279	1.299	1.353	1.396	1.392
-0.010	-0.005	-0.015	-0.015	0.029	-0.215	0.547	1.167	1.240	1.270	1.294	1.338	1.382	1.377
-0.010	0.015	0.005	0.000	-0.015	-0.239	0.552	1.172	1.230	1.265	1.294	1.333	1.353	1.362
0.000	0.010	0.054	0.015	-0.024	-0.234	0.547	1.182	1.226	1.255	1.299	1.333	1.348	1.362
0.029	-0.015	0.059	0.010	0.015	-0.176	0.581	2.017	1.323	1.265	1.289	1.328	1.357	1.382
0.044	-0.015	0.010	0.010	-0.010	-0.078	0.869	2.012	1.387	1.294	1.274	1.313	1.343	1.406
0.034	-0.015	0.005	0.000	-0.024	-0.005	0.571	2.002	1.416	1.323	1.284	1.309	1.328	1.396
0.020	-0.010	0.010	0.015	-0.020	0.073	0.210	1.978	1.436	1.353	1.309	1.318	1.323	1.392
0.005	-0.010	0.010	0.024	-0.078	0.112	0.552	1.987	1.445	1.377	1.323	1.323	1.309	1.387
0.024	-0.010	-0.024	0.024	-0.078	0.112	0.693	1.987	1.460	1.396	1.333	1.333	1.313	1.367
0.015	0.000	0.005	0.015	-0.044	0.103	0.605	2.002	1.460	1.421	1.367	1.343	1.328	1.353
0.015	0.010	0.029	0.010	0.024	0.054	0.630	2.007	1.455	1.431	1.387	1.362	1.357	1.343
0.005	0.020	0.000	0.015	0.103	0.044	0.918	2.007	1.455	1.436	1.396	1.382	1.382	1.362
0.010	0.015	-0.020	0.020	0.122	0.005	0.952	2.129	1.460	1.440	1.401	1.392	1.387	1.357
-0.015	0.024	-0.039	0.024	0.063	0.015	0.962	1.982	1.450	1.440	1.406	1.401	1.372	1.362
-0.029	0.020	-0.054	0.015	-0.024	0.020	0.977	1.978	1.436	1.436	1.411	1.401	1.357	1.362
-0.015	0.015	-0.073	0.010	-0.039	0.020	0.952	1.997	1.460	1.436	1.411	1.411	1.367	1.357
0.015	0.010	-0.068	0.015	-0.063	-0.005	0.918	2.051	1.460	1.440	1.421	1.421	1.372	1.357
0.024	0.005	-0.044	0.020	-0.020	-0.005	1.001	1.953	1.445	1.445	1.440	1.431	1.401	1.372
0.020	-0.005	0.005	0.024	0.083	0.020	1.011	1.953	1.450	1.440	1.450	1.445	1.440	1.401
0.015	-0.005	0.005	0.010	0.234	0.010	1.006	2.041	1.440	1.440	1.450	1.455	1.484	1.421
0.000	-0.005	-0.005	0.005	0.356	0.034	0.991	1.938	1.421	1.436	1.445	1.460	1.514	1.455
0.000	-0.010	0.015	0.000	0.322	0.020	1.021	1.948	1.421	1.431	1.440	1.455	1.479	1.460
-0.005	0.000	0.020	0.000	0.234	0.034	1.035	2.017	1.421	1.431	1.436	1.455	1.450	1.460
-0.010	0.010	0.005	0.010	0.137	0.073	1.069	1.973	1.416	1.426	1.431	1.455	1.431	1.460
0.005	0.005	0.000	0.010	0.063	0.093	1.045	2.012	1.421	1.426	1.431	1.450	1.411	1.450
0.010	0.015	-0.005	0.000	0.005	0.107	1.055	2.056	1.426	1.426	1.426	1.445	1.401	1.440
0.015	0.010	-0.015	-0.010	-0.068	0.122	1.055	2.012	1.421	1.421	1.421	1.440	1.396	1.431
0.000	0.005	0.020	-0.010	-0.103	0.146	1.064	2.075	1.421	1.421	1.431	1.440	1.401	1.426
-0.039	-0.005	0.059	-0.005	-0.039	0.107	1.069	2.012	1.406	1.411	1.436	1.450	1.426	1.416
-0.034	0.000	0.059	0.029	-0.010	0.088	1.079	2.031	1.411	1.411	1.431	1.460	1.440	1.416
-0.039	-0.005	0.049	0.059	-0.151	0.020	1.089	2.002	1.406	1.406	1.421	1.455	1.401	1.392
-0.024	-0.005	0.024	0.020	-0.249	-0.088	1.094	2.012	1.411	1.406	1.406	1.436	1.382	1.357
0.010	-0.005	0.005	0.000	-0.254	-0.137	1.099	2.012	1.411	1.406	1.401	1.426	1.392	1.357
0.039	-0.005	0.015	-0.005	-0.244	-0.190	1.104	2.031	1.411	1.406	1.406	1.426	1.401	1.353
0.078	-0.010	-0.010	-0.005	-0.229	-0.234	1.104	2.021	1.411	1.406	1.401	1.421	1.406	1.357
0.068	-0.010	-0.034	-0.015	-0.205	-0.210	1.099	1.982	1.396	1.401	1.396	1.416	1.416	1.382
0.063	-0.010	-0.029	0.000	-0.166	-0.146	1.113	1.997	1.392	1.401	1.401	1.426	1.431	1.416
0.054	-0.010	-0.015	0.000	-0.068	-0.093	1.152	2.026	1.387	1.392	1.401	1.426	1.460	1.440
0.024	0.000	-0.010	-0.024	0.044	0.005	1.133	2.002	1.377	1.396	1.401	1.421	1.479	1.484
-0.010	0.010	0.000	-0.005	0.127	0.039	1.138	2.002	1.377	1.392	1.401	1.431	1.484	1.489
-0.024	0.005	-0.005	0.005	0.142	0.044	1.143	1.992	1.382	1.387	1.401	1.426	1.475	1.489
-0.005	0.015	-0.005	0.005	0.137	0.044	1.157	1.997	1.392	1.392	1.396	1.421	1.460	1.479
0.010	0.015	-0.020	0.005	0.073	-0.005	1.167	2.026	1.401	1.396	1.392	1.416	1.426	1.450
0.029	0.024	-0.029	0.005	0.068	0.015	1.177	2.017	1.411	1.401	1.392	1.416	1.421	1.445
0.029	0.029	-0.029	0.005	0.059	0.000	1.187	2.007	1.406	1.406	1.392	1.411	1.416	1.436
-0.005	0.034	0.000	-0.010	0.039	-0.020	1.206	1.997	1.392	1.401	1.401	1.411	1.406	1.421
-0.029	0.039	0.024	-0.024	-0.010	-0.049	1.196	2.007	1.387	1.401	1.406	1.411	1.396	1.401
-0.039	0.020	0.005	-0.063	-0.010	-0.034	1.235	2.036	1.387	1.392	1.396	1.401	1.396	1.411
-0.059	0.015	0.024	-0.039	0.000	0.000	1.265	2.012	1.382	1.387	1.401	1.416	1.401	1.416
-0.049	0.000	0.020	0.010	-0.029	0.034	1.274	2.021	1.392	1.382	1.392	1.426	1.401	1.421
-0.029	-0.005	0.010	0.029	-0.049	0.039	1.284	2.017	1.396	1.387	1.392	1.426	1.401	1.416
-0.083	-0.005	0.005	0.029	-0.098	0.039	1.289	2.026	1.377	1.382	1.387	1.421	1.396	1.406
-0.151	-0.010	0.000	0.039	-0.098	0.044	1.274	2.129	1.372	1.377	1.382	1.416	1.396	1.411
-0.142	-0.015	-0.010	0.029	-0.103	0.098	1.289	1.992	1.377	1.372	1.372	1.406	1.401	1.416
-0.112	-0.010	-0.034	0.005	-0.117	0.127	1.299	1.973	1.387	1.382	1.372	1.396	1.396	1.421
-0.054	0.000	-0.020	0.015	-0.078	0.107	1.294	2.090	1.421	1.396	1.382	1.396	1.406	1.411
0.063	0.000	-0.029	0.034	0.005	0.093	1.318	2.056	1.450	1.411	1.387	1.406	1.431	1.411
0.151	-0.015	-0.020	0.039	0.181	0.059	1.338	1.968	1.455	1.421	1.401	1.416	1.470	1.426
0.205	-0.034	0.024	0.015	0.288	0.029	1.343	2.061	1.455	1.426	1.416	1.416	1.479	1.436
0.215	-0.029	0.024	0.000	0.303	-0.005	1.348	1.997	1.436	1.431	1.421	1.421	1.465	1.436
0.190	-0.024	0.005	-0.029	0.317	-0.034	1.357	1.948	1.411	1.426	1.416	1.416	1.450	1.431
0.112	0.000	0.010	-0.039	0.190	-0.034	1.367	1.953	1.372	1.421	1.416	1.416	1.401	1.421
0.000	0.049	0.015	-0.029	0.039	-0.029	1.372	2.026	1.348	1.411	1.416	1.421	1.367	1.401
-0.073	0.088	0.015	-0.034	-0.034	-0.015	1.387	2.046	1.338	1.396	1.406	1.421	1.362	1.396
-0.117	0.049	0.015	-0.049	-0.103	-0.024	1.406	2.012	1.333	1.367	1.396	1.416	1.357	1.382
-0.117	0.010	0.020	-0.005	-0.142	-0.039	1.406	2.061	1.353	1.353	1.387	1.421	1.367	1.372
-0.073	-0.015	0.015	0.015	-0.127	-0.059	1.411	1.997	1.367	1.353	1.377	1.421	1.382	1.367
-0.044	-0.029	0.000	-0.005	-0.107	-0.093	1.396	2.085	1.387	1.353	1.367	1.406	1.392	1.367
-0.010	-0.049	-0.010	0.000	-0.093	-0.088	1.392	2.007	1.387	1.362	1.362	1.401	1.396	1.377
-0.010	-0.044	-0.015	0.015	-0.088	-0.068	1.392	2.026	1.387	1.367	1.362	1.396	1.396	1.387
-0.024	-0.039	-0.010	0.010	-0.073	-0.078	1.401	2.012	1.377	1.372	1.362	1.392	1.401	1.387
-0.015	-0.039	-0.024	-0.005	-0.063	-0.039	1.421	2.002	1.377	1.372	1.362	1.382	1.396	1.401
0.000	-0.005	-0.024	-0.010	-0.044	-0.005	1.406	2.017	1.387	1.387	1.372	1.387	1.401	1.411
0.024	0.005	-0.005	-0.010	-0.039	0.000	1.426	2.026	1.392	1.392	1.382	1.387	1.396	1.406
0.010	0.000	0.024	-0.005	-0.029	0.020	1.455	2.007	1.377	1.387	1.392	1.396	1.396	1.411
0.005	0.000	0.020	0.005	-0.024	0.049	1.470	2.007	1.382	1.387	1.387	1.401	1.401	1.416
-0.005	0.020	0.015	0.005	-0.020	0.054	1.484	1.997	1.377	1.387	1.387	1.401	1.401	1.416
0.010	0.010	0.015	0.015	-0.005	0.059	1.484	2.021	1.382	1.382	1.387	1.401	1.406	1.416
0.010	0.029	-0.005	0.010	-0.010	0.054	1.484	2.007	1.382	1.387	1.382	1.401	1.401	1.411
0.010	0.015	0.005	0.000	-0.005	0.024	1.499	2.026	1.382	1.387	1.382	1.401	1.401	1.401
0.010	0.024	0.000	-0.005	-0.005	0.039	1.499	2.002	1.377	1.387	1.382	1.396	1.396	1.401
0.015	0.029	0.000	-0.005	-0.005	0.029	1.504	2.012	1.382	1.382	1.382	1.401	1.396	1.401
0.005	0.000	0.000	-0.005	-0.015	0.000	1.514	2.007	1.377	1.377	1.377	1.401	1.392	1.387
0.005	0.000	0.015	-0.005	-0.015	-0.015	1.523	2.036	1.377	1.377	1.382	1.396	1.396	1.387
0.015	-0.005	0.015	-0.005	-0.024	-0.015	1.533	2.021	1.377	1.372	1.382	1.396	1.387	1.387
-0.015	-0.010	-0.005	0.000	-0.063	-0.020	1.548	2.002	1.362	1.367	1.372	1.396	1.382	1.387
-0.063	-0.010	0.000	-0.005	-0.049	0.000	1.553	2.017	1.353	1.357	1.367	1.396	1.392	1.392
-0.054	-0.015	-0.005	-0.005	-0.024	0.063	1.548	2.002	1.357	1.357	1.362	1.392	1.396	1.411
-0.029	-0.010	-0.005	0.005	-0.010	0.103	1.558	2.021	1.372	1.362	1.362	1.396	1.401	1.411
0.010	-0.015	0.010	0.005	0.020	0.093	1.558	2.007	1.387	1.372	1.367	1.392	1.401	1.411
0.059	-0.005	0.000	0.005	0.010	0.029	1.558	2.017	1.396	1.382	1.372	1.387	1.392	1.392
0.083	-0.015	0.005	0.010	-0.005	0.005	1.558	1.997	1.396	1.387	1.372	1.392	1.387	1.382
0.103	0.000	0.000	0.000	0.034	-0.039	1.558	2.129	1.411	1.392	1.377	1.392	1.396	1.372
0.073	0.015	0.000	-0.005	0.098	-0.088	1.562	1.982	1.382	1.396	1.382	1.392	1.406	1.372
0.034	0.034	0.015	-0.020	0.200	-0.078	1.567	1.982	1.362	1.392	1.392	1.396	1.436	1.396
0.005	0.034	0.015	-0.020	0.249	-0.073	1.582	1.997	1.357	1.382	1.387	1.396	1.431	1.406
-0.005	0.020	0.020	-0.010	0.137	-0.010	1.572	2.056	1.362	1.372	1.382	1.396	1.392	1.416
-0.015	0.010	0.015	-0.010	-0.073	0.034	1.597	1.973	1.357	1.367	1.377	1.396	1.338	1.401
-0.029	0.005	0.020	-0.005	-0.176	0.054	1.616	1.982	1.357	1.362	1.372	1.396	1.328	1.387
-0.034	0.005	0.034	0.010	-0.215	0.083	1.616	2.051	1.362	1.362	1.372	1.396	1.338	1.377
-0.029	0.000	0.005	0.020	-0.146	0.083	1.626	2.061	1.367	1.357	1.362	1.396	1.372	1.382
-0.010	-0.010	0.000	0.015	-0.112	0.083	1.621	2.026	1.382	1.362	1.362	1.392	1.382	1.382
-0.010	-0.020	0.015	0.010	-0.093	0.024	1.621	1.992	1.367	1.362	1.367	1.392	1.387	1.372
-0.015	-0.020	0.024	0.000	0.049	0.010	1.621	2.065	1.372	1.362	1.367	1.392	1.421	1.382
0.005	-0.015	-0.015	-0.005	0.093	-0.034	1.597	2.012	1.377	1.367	1.357	1.387	1.421	1.382
0.005	-0.005	-0.024	-0.005	0.117	-0.049	1.602	2.070	1.382	1.372	1.357	1.382	1.416	1.387
0.010	-0.024	-0.015	-0.005	0.073	-0.054	1.597	2.017	1.372	1.367	1.362	1.382	1.392	1.387
0.015	-0.010	-0.005	0.000	-0.034	-0.073	1.636	2.085	1.377	1.377	1.367	1.382	1.357	1.372
0.000	0.000	-0.024	-0.005	-0.054	-0.073	1.592	2.007	1.367	1.372	1.362	1.377	1.357	1.367
-0.005	0.005	-0.054	0.000	0.029	-0.078	1.577	2.031	1.367	1.372	1.357	1.382	1.387	1.372
0.020	0.020	-0.078	0.005	0.146	-0.073	1.577	2.007	1.367	1.377	1.357	1.382	1.416	1.387
0.020	0.015	-0.049	0.005	0.278	-0.054	1.577	2.002	1.362	1.372	1.372	1.387	1.445	1.411
0.020	0.015	0.005	0.000	0.327	-0.015	1.577	2.012	1.367	1.372	1.387	1.392	1.445	1.431
0.010	0.010	0.029	0.015	0.312	-0.015	1.577	2.046	1.367	1.372	1.387	1.401	1.426	1.426
0.000	0.005	0.083	0.000	0.308	-0.010	1.572	2.007	1.362	1.372	1.392	1.401	1.416	1.426
-0.020	0.010	0.073	-0.020	0.229	0.010	1.577	2.026	1.357	1.367	1.382	1.392	1.387	1.421
-0.034	0.029	0.059	-0.039	0.127	0.034	1.582	2.007	1.362	1.367	1.372	1.387	1.357	1.406
-0.024	0.024	0.039	-0.029	0.073	0.063	1.597	1.997	1.362	1.367	1.367	1.387	1.357	1.401
-0.024	0.020	0.020	-0.020	0.005	0.083	1.597	2.012	1.357	1.362	1.362	1.387	1.343	1.387
-0.024	0.005	0.010	0.005	-0.098	0.117	1.602	2.026	1.357	1.357	1.357	1.387	1.328	1.377
0.029	0.010	0.010	0.039	-0.156	0.103	1.611	2.007	1.382	1.367	1.362	1.392	1.328	1.357
0.034	-0.024	-0.005	0.044	-0.273	0.098	1.611	2.017	1.367	1.357	1.353	1.387	1.313	1.338
-0.020	-0.020	-0.015	0.034	-0.337	0.034	1.616	2.002	1.338	1.348	1.348	1.372	1.309	1.309
-0.029	-0.029	-0.020	0.010	-0.322	-0.005	1.646	2.017	1.338	1.343	1.343	1.367	1.323	1.309
-0.034	0.005	-0.005	0.000	-0.293	-0.073	1.704	2.017	1.338	1.353	1.348	1.367	1.343	1.299
-0.029	0.020	-0.005	0.005	-0.259	-0.107	1.714	2.021	1.343	1.353	1.348	1.367	1.353	1.309
-0.039	0.034	-0.015	0.010	-0.220	-0.137	1.724	2.012	1.333	1.348	1.348	1.372	1.367	1.318
0.010	0.029	0.015	0.034	-0.142	-0.093	1.719	2.036	1.353	1.353	1.357	1.382	1.392	1.353
0.000	0.005	0.015	0.024	-0.078	-0.015	1.724	2.012	1.348	1.343	1.353	1.377	1.406	1.392
-0.005	0.005	-0.015	0.029	-0.068	0.044	1.729	2.012	1.348	1.343	1.343	1.377	1.401	1.411
-0.005	-0.005	-0.020	0.015	-0.054	0.073	1.729	2.026	1.357	1.343	1.338	1.367	1.396	1.411
-0.010	-0.020	-0.020	0.010	-0.039	0.088	1.724	2.021	1.353	1.343	1.343	1.362	1.392	1.411
-0.039	-0.020	-0.005	-0.010	-0.044	0.068	1.729	2.134	1.362	1.343	1.343	1.357	1.377	1.396
-0.049	-0.010	0.020	-0.034	-0.034	0.063	1.724	1.997	1.362	1.353	1.353	1.353	1.367	1.387
-0.010	-0.010	0.020	-0.039	-0.020	-0.010	1.733	1.987	1.367	1.362	1.353	1.362	1.367	1.362
0.015	0.000	0.015	-0.034	0.015	-0.039	1.729	2.002	1.367	1.362	1.353	1.367	1.377	1.362
0.039	-0.015	0.000	-0.020	0.063	-0.054	1.733	2.061	1.377	1.362	1.353	1.367	1.387	1.362
0.010	-0.015	-0.005	-0.010	0.112	-0.039	1.733	1.963	1.353	1.357	1.357	1.377	1.396	1.377
0.024	-0.015	0.000	0.005	0.200	0.015	1.738	2.080	1.367	1.362	1.362	1.382	1.421	1.401
0.039	0.000	0.005	-0.005	0.273	0.054	1.738	1.953	1.362	1.367	1.362	1.382	1.426	1.421
0.063	0.000	0.000	0.005	0.229	0.063	1.743	1.963	1.367	1.367	1.362	1.382	1.401	1.416
0.073	-0.005	-0.015	0.000	0.146	0.059	1.738	1.958	1.367	1.362	1.357	1.377	1.367	1.401
0.068	-0.005	-0.020	0.005	0.078	0.034	1.738	2.021	1.362	1.362	1.357	1.372	1.348	1.377
0.063	0.020	-0.029	0.005	-0.010	0.005	1.743	2.070	1.367	1.367	1.353	1.372	1.328	1.353
0.063	0.010	-0.049	0.000	-0.068	-0.068	1.743	2.017	1.362	1.362	1.353	1.367	1.318	1.323
0.039	0.010	-0.029	0.015	-0.088	-0.112	1.743	2.070	1.353	1.357	1.357	1.377	1.333	1.313
0.020	0.010	0.020	0.020	-0.083	-0.117	1.743	2.021	1.343	1.357	1.372	1.382	1.348	1.323
0.010	0.010	0.049	0.024	-0.039	-0.117	1.748	2.085	1.343	1.357	1.372	1.387	1.367	1.338
0.005	0.015	0.068	0.020	-0.044	-0.083	1.748	2.031	1.348	1.357	1.372	1.392	1.372	1.353
0.005	0.010	0.063	0.034	-0.078	-0.044	1.748	2.031	1.343	1.353	1.367	1.392	1.367	1.367
-0.098	0.010	0.054	0.039	-0.029	-0.044	1.743	2.041	1.313	1.338	1.357	1.392	1.387	1.377
-0.156	0.000	0.029	0.015	0.015	-0.005	1.748	2.012	1.309	1.323	1.338	1.372	1.396	1.392
-0.146	0.005	0.015	0.000	0.034	-0.005	1.748	2.017	1.323	1.323	1.333	1.362	1.392	1.392
-0.073	0.000	-0.010	0.024	0.098	-0.005	1.748	2.036	1.362	1.333	1.328	1.367	1.401	1.396
-0.010	-0.010	-0.024	0.024	0.132	0.034	1.748	2.021	1.377	1.343	1.328	1.362	1.396	1.406
0.073	-0.020	-0.005	0.010	0.112	0.049	1.748	2.026	1.396	1.362	1.343	1.353	1.382	1.401
0.122	-0.005	-0.005	0.000	0.176	0.093	1.748	2.002	1.396	1.372	1.348	1.357	1.396	1.411
0.137	-0.015	-0.020	-0.005	0.215	0.078	1.748	1.997	1.392	1.377	1.353	1.362	1.392	1.401
0.127	-0.005	-0.015	-0.005	0.117	0.127	1.753	2.002	1.377	1.377	1.357	1.362	1.353	1.401
0.073	0.005	-0.020	-0.010	-0.015	0.137	1.748	2.007	1.357	1.372	1.362	1.362	1.318	1.382
0.005	0.020	0.000	-0.005	-0.068	0.132	1.748	2.012	1.333	1.362	1.367	1.372	1.318	1.362
-0.059	0.010	-0.005	-0.005	-0.034	0.093	1.748	2.012	1.318	1.348	1.362	1.372	1.343	1.338
-0.093	0.005	0.010	-0.010	-0.049	0.010	1.748	2.031	1.313	1.333	1.357	1.372	1.338	1.323
-0.098	0.015	0.005	0.005	-0.088	-0.039	1.743	2.031	1.323	1.333	1.353	1.372	1.338	1.309
-0.054	0.015	0.000	0.005	-0.107	-0.112	1.743	2.046	1.338	1.333	1.343	1.372	1.338	1.299
-0.049	0.000	-0.005	0.000	-0.151	-0.190	1.743	2.036	1.338	1.333	1.338	1.362	1.328	1.284
-0.054	-0.010	-0.015	0.000	-0.161	-0.181	1.743	2.007	1.328	1.328	1.333	1.357	1.333	1.304
-0.068	-0.020	-0.010	-0.005	-0.195	-0.142	1.743	2.026	1.318	1.323	1.328	1.353	1.328	1.318
-0.059	-0.020	-0.015	-0.005	-0.220	-0.093	1.743	2.007	1.328	1.323	1.323	1.348	1.333	1.333
-0.029	-0.010	-0.029	0.000	-0.181	-0.034	1.738	2.017	1.338	1.328	1.323	1.353	1.348	1.357
-0.020	-0.010	-0.034	-0.024	-0.122	0.020	1.738	2.021	1.343	1.333	1.323	1.343	1.362	1.372
0.005	0.000	-0.029	-0.054	-0.059	0.078	1.738	2.012	1.353	1.338	1.328	1.338	1.377	1.392
0.029	-0.020	-0.020	-0.044	0.029	0.093	1.738	2.144	1.367	1.343	1.338	1.348	1.392	1.396
0.039	-0.015	0.005	0.000	0.122	0.093	1.733	1.992	1.367	1.353	1.348	1.367	1.411	1.401
0.029	0.015	0.015	0.034	0.225	0.093	1.738	1.992	1.357	1.367	1.357	1.382	1.426	1.411
0.020	0.020	0.015	0.044	0.215	0.103	1.738	2.119	1.367	1.362	1.357	1.382	1.411	1.411
0.015	0.010	0.005	0.044	0.215	0.068	1.733	2.080	1.367	1.362	1.357	1.382	1.401	1.401
0.020	0.034	0.000	0.054	0.317	0.054	1.733	1.953	1.357	1.367	1.362	1.387	1.426	1.401
0.039	0.029	0.010	0.034	0.293	0.044	1.729	2.007	1.372	1.367	1.362	1.377	1.401	1.401
0.068	0.029	0.005	0.015	0.254	0.015	1.733	1.997	1.367	1.367	1.362	1.372	1.382	1.387
0.059	0.024	0.020	0.005	0.190	0.000	1.729	1.978	1.362	1.367	1.362	1.367	1.357	1.372
0.020	0.015	0.015	0.015	0.103	0.005	1.729	2.061	1.353	1.357	1.362	1.372	1.338	1.362
-0.024	0.010	-0.020	0.015	0.039	-0.005	1.729	1.997	1.333	1.348	1.348	1.372	1.323	1.348
-0.039	0.005	-0.034	0.015	-0.039	-0.010	1.733	1.968	1.323	1.338	1.343	1.367	1.318	1.338
-0.029	0.010	-0.029	0.000	-0.073	0.015	1.724	2.017	1.328	1.333	1.338	1.362	1.318	1.338
-0.010	0.010	-0.010	-0.005	-0.112	0.020	1.729	2.065	1.333	1.333	1.343	1.357	1.318	1.333
-0.005	-0.005	0.005	-0.005	-0.190	0.024	1.719	2.002	1.333	1.333	1.343	1.357	1.309	1.323
-0.010	-0.005	0.024	-0.005	-0.195	-0.010	1.724	2.085	1.338	1.328	1.343	1.362	1.318	1.313
-0.005	0.000	0.024	0.000	-0.171	-0.024	1.724	2.021	1.333	1.333	1.338	1.357	1.333	1.313
-0.015	-0.010	0.010	-0.010	-0.166	0.005	1.724	2.031	1.328	1.328	1.328	1.353	1.338	1.328
-0.015	-0.005	-0.015	-0.010	-0.146	0.000	1.719	2.021	1.328	1.328	1.323	1.353	1.348	1.333
-0.005	0.000	-0.015	-0.010	-0.122	-0.020	1.719	2.017	1.333	1.333	1.323	1.348	1.353	1.333
-0.005	0.000	-0.020	-0.005	-0.083	-0.034	1.724	2.026	1.333	1.333	1.328	1.353	1.357	1.338
-0.005	0.000	0.000	-0.005	-0.083	-0.049	1.719	2.026	1.333	1.328	1.333	1.353	1.357	1.338
0.005	-0.010	0.000	0.000	-0.073	-0.049	1.724	2.021	1.333	1.328	1.333	1.353	1.357	1.348
0.005	-0.020	0.010	-0.005	-0.073	-0.039	1.719	2.007	1.333	1.328	1.333	1.353	1.353	1.348
0.010	-0.029	-0.010	0.000	-0.059	-0.063	1.719	1.997	1.333	1.323	1.323	1.353	1.357	1.343
0.015	-0.020	-0.010	0.005	-0.034	-0.063	1.719	2.002	1.328	1.328	1.328	1.348	1.357	1.353
-0.005	-0.010	-0.020	0.000	-0.020	-0.029	1.729	2.007	1.323	1.328	1.323	1.348	1.357	1.362
-0.005	-0.010	-0.044	-0.005	-0.029	-0.034	1.724	2.036	1.333	1.328	1.323	1.343	1.353	1.357
0.010	-0.005	-0.039	-0.005	-0.039	-0.020	1.724	2.007	1.338	1.333	1.323	1.343	1.348	1.357
0.020	0.005	-0.020	-0.005	0.015	0.000	1.719	2.012	1.338	1.338	1.333	1.348	1.362	1.367
0.020	0.000	0.010	-0.005	0.107	0.044	1.719	2.017	1.343	1.338	1.343	1.353	1.387	1.382
0.020	0.005	0.034	0.000	0.181	0.078	1.719	2.031	1.343	1.343	1.348	1.362	1.401	1.401
0.005	0.005	0.010	-0.005	0.244	0.103	1.719	2.012	1.338	1.338	1.343	1.362	1.401	1.406
0.010	0.015	0.005	-0.005	0.215	0.068	1.719	2.031	1.348	1.343	1.343	1.362	1.382	1.392
0.000	0.010	-0.005	0.000	0.205	0.059	1.719	2.017	1.343	1.343	1.338	1.357	1.372	1.382
0.015	0.010	-0.010	0.005	0.151	-0.020	1.714	2.017	1.353	1.343	1.333	1.357	1.348	1.348
0.039	0.015	-0.010	0.020	0.078	-0.063	1.714	2.012	1.348	1.348	1.338	1.357	1.328	1.328
0.034	0.015	0.020	0.020	-0.034	-0.078	1.709	2.026	1.343	1.348	1.348	1.357	1.304	1.318
0.015	0.010	0.024	0.010	-0.137	-0.083	1.709	2.017	1.333	1.338	1.343	1.353	1.289	1.304
0.005	0.005	0.039	0.005	-0.166	-0.059	1.714	2.007	1.323	1.333	1.348	1.353	1.299	1.309
0.010	0.015	0.063	0.015	-0.151	-0.020	1.714	2.129	1.343	1.338	1.353	1.362	1.323	1.323
0.000	0.024	0.063	0.015	-0.132	-0.015	1.714	1.982	1.328	1.333	1.343	1.362	1.338	1.333
-0.015	0.015	0.044	0.005	-0.107	0.029	1.714	1.987	1.318	1.328	1.333	1.357	1.353	1.348
-0.034	0.020	0.024	0.000	-0.093	0.010	1.714	2.002	1.318	1.323	1.328	1.357	1.353	1.343
