0.005	0.000	-0.005	0.005	-0.054	0.024	0.039	2.690	2.510	2.144	2.041	1.973	1.963	1.973
0.010	-0.005	-0.005	0.000	0.024	0.020	0.039	2.676	2.358	2.202	2.085	2.007	1.997	1.978
0.015	-0.010	0.000	0.005	0.063	0.005	0.044	2.695	2.251	2.222	2.124	2.046	2.012	1.982
0.000	-0.010	-0.005	0.000	0.063	0.000	0.044	2.676	2.168	2.207	2.144	2.075	2.026	1.997
0.010	-0.005	0.000	0.005	0.024	-0.010	0.044	2.676	2.114	2.183	2.158	2.104	2.031	2.002
0.000	0.010	0.000	0.000	-0.020	0.000	0.039	2.686	2.070	2.158	2.158	2.124	2.046	2.017
0.015	-0.005	0.000	0.005	-0.024	0.020	0.039	2.710	2.051	2.124	2.148	2.139	2.065	2.036
0.000	0.000	0.000	0.005	-0.005	0.015	0.044	2.705	2.026	2.100	2.139	2.144	2.095	2.051
-0.005	0.010	0.000	0.000	0.020	0.029	0.044	2.700	2.017	2.080	2.124	2.144	2.114	2.070
0.000	0.005	0.005	0.000	-0.034	0.024	0.039	2.676	2.007	2.056	2.104	2.139	2.104	2.080
-0.010	0.000	0.005	0.000	-0.024	0.024	0.039	2.695	2.002	2.041	2.090	2.129	2.114	2.085
0.000	-0.010	0.010	0.000	0.063	0.020	0.039	2.676	2.007	2.031	2.075	2.119	2.139	2.100
0.010	-0.005	0.015	0.000	0.166	0.000	0.039	2.690	2.007	2.026	2.065	2.114	2.158	2.114
-0.005	-0.010	0.005	-0.005	0.195	-0.034	0.039	2.681	2.002	2.021	2.046	2.100	2.148	2.114
0.005	-0.005	-0.005	0.000	0.132	-0.049	0.044	2.686	2.007	2.021	2.036	2.085	2.109	2.109
0.000	-0.005	0.000	0.005	0.024	-0.034	0.039	2.700	2.012	2.017	2.026	2.075	2.070	2.100
0.000	-0.010	0.000	0.000	-0.034	-0.020	0.039	2.695	2.012	2.012	2.026	2.065	2.056	2.090
-0.005	-0.005	0.005	0.000	-0.054	-0.015	0.039	2.705	2.007	2.012	2.021	2.056	2.046	2.080
-0.005	-0.010	0.000	0.000	-0.049	-0.005	0.044	2.690	2.007	2.007	2.017	2.051	2.046	2.075
0.000	-0.005	-0.005	0.000	-0.039	0.005	0.044	2.700	2.007	2.012	2.012	2.046	2.051	2.070
0.010	-0.010	-0.005	0.000	-0.034	-0.005	0.039	2.676	2.007	2.007	2.007	2.041	2.046	2.065
0.005	-0.005	0.000	0.005	-0.024	0.005	0.044	2.676	2.002	2.012	2.012	2.036	2.046	2.061
0.000	-0.005	-0.005	0.000	-0.020	0.005	0.044	2.739	2.007	2.012	2.007	2.031	2.041	2.056
0.005	0.005	0.000	0.000	-0.010	-0.015	0.044	2.642	1.997	2.007	2.007	2.031	2.036	2.046
0.000	0.020	0.000	0.000	-0.015	0.000	0.039	2.651	1.992	2.007	2.007	2.031	2.031	2.046
-0.005	0.010	-0.005	0.005	-0.020	0.000	0.044	2.676	1.992	1.997	2.007	2.026	2.026	2.041
-0.005	0.015	0.000	-0.005	-0.015	-0.005	0.039	2.656	1.992	1.997	2.002	2.026	2.026	2.036
-0.005	0.005	0.010	-0.005	-0.015	-0.015	0.044	2.637	1.982	1.997	2.002	2.026	2.026	2.031
0.000	0.010	0.005	0.000	-0.005	-0.010	0.044	2.837	2.007	1.997	1.997	2.021	2.026	2.036
0.000	0.010	0.010	0.000	0.034	-0.015	0.044	2.729	2.007	1.997	1.997	2.021	2.031	2.031
-0.005	0.015	0.005	0.000	0.039	-0.020	0.039	2.651	1.997	1.997	1.997	2.021	2.026	2.031
-0.010	0.005	0.005	0.000	0.112	-0.020	0.044	2.734	1.997	1.997	1.997	2.021	2.051	2.041
0.000	0.005	0.005	0.000	0.151	0.005	0.044	2.656	1.997	1.997	1.997	2.021	2.051	2.046
0.000	0.005	0.000	0.000	0.107	0.015	0.039	2.666	1.992	1.997	1.992	2.017	2.026	2.041
0.005	-0.010	0.000	0.000	0.054	0.020	0.039	2.632	1.987	1.987	1.992	2.012	2.012	2.031
0.010	-0.015	-0.005	0.000	0.029	0.020	0.044	2.632	1.982	1.987	1.987	2.012	2.002	2.026
0.005	-0.015	-0.005	0.000	-0.005	0.000	0.044	2.715	1.987	1.987	1.987	2.012	1.992	2.012
0.010	-0.010	-0.005	0.000	-0.029	0.010	0.044	2.666	1.982	1.982	1.987	2.007	1.987	2.007
0.000	0.005	0.000	0.005	-0.044	0.005	0.044	2.651	1.978	1.987	1.987	2.002	1.987	2.002
0.010	0.005	0.000	0.000	-0.020	-0.010	0.039	2.695	1.982	1.987	1.982	2.007	1.997	1.997
0.010	0.015	0.000	0.000	-0.005	-0.015	0.044	2.666	1.973	1.987	1.987	2.002	2.002	1.997
0.005	0.015	0.000	0.000	-0.024	-0.005	0.039	2.695	1.973	1.982	1.987	2.007	1.997	2.002
-0.010	0.015	0.005	0.000	-0.039	0.005	0.044	2.705	1.973	1.978	1.982	2.002	1.992	2.002
-0.010	0.015	0.010	0.005	-0.054	0.015	0.044	2.676	1.973	1.978	1.982	2.002	1.992	2.002
-0.005	0.015	0.005	0.005	-0.059	0.024	0.044	2.661	1.973	1.978	1.978	2.002	1.992	2.002
-0.010	0.000	0.010	0.005	-0.063	0.024	0.039	2.695	1.968	1.968	1.978	1.997	1.992	2.002
-0.005	0.005	0.005	0.000	-0.054	0.034	0.039	2.690	1.973	1.973	1.978	2.002	1.992	1.997
0.000	0.000	0.010	0.000	-0.039	-0.020	0.039	2.676	1.973	1.973	1.973	1.997	1.997	1.982
0.000	-0.010	0.005	0.000	-0.049	-0.020	0.044	2.666	1.963	1.968	1.968	1.992	1.992	1.987
0.010	-0.015	0.000	0.000	-0.049	-0.020	0.039	2.671	1.968	1.963	1.968	1.992	1.992	1.987
0.005	-0.010	0.000	0.000	-0.044	-0.020	0.039	2.700	1.968	1.963	1.968	1.992	1.987	1.987
0.000	-0.015	-0.005	0.000	-0.063	-0.010	0.039	2.681	1.968	1.963	1.963	1.987	1.982	1.992
0.005	-0.005	0.000	0.005	-0.073	0.000	0.039	2.690	1.963	1.968	1.963	1.982	1.978	1.992
0.015	-0.010	-0.005	0.000	-0.063	0.020	0.039	2.705	1.968	1.963	1.963	1.987	1.982	1.992
0.005	-0.010	-0.005	0.000	-0.063	0.039	0.044	2.700	1.968	1.963	1.963	1.982	1.982	1.992
0.005	-0.015	-0.005	0.000	-0.063	0.063	0.044	2.710	1.968	1.968	1.963	1.982	1.982	1.992
0.005	-0.005	0.000	0.000	-0.088	0.068	0.044	2.681	1.963	1.968	1.963	1.982	1.973	1.992
0.010	0.005	0.005	0.005	-0.044	0.044	0.039	2.676	1.963	1.968	1.968	1.987	1.987	1.982
0.000	0.010	0.005	-0.005	0.044	-0.034	0.044	2.710	1.963	1.968	1.968	1.987	2.007	1.973
-0.005	0.005	0.005	0.000	0.073	-0.103	0.044	2.690	1.958	1.968	1.963	1.987	2.007	1.968
-0.005	0.015	0.005	0.005	0.083	-0.088	0.039	2.676	1.953	1.963	1.968	1.987	2.007	1.982
0.000	0.005	0.005	0.000	0.137	-0.068	0.044	2.690	1.958	1.958	1.963	1.987	2.012	1.997
-0.005	0.020	0.010	-0.005	0.098	-0.024	0.039	2.817	1.978	1.968	1.963	1.987	1.992	2.007
-0.005	0.020	0.005	0.000	0.073	0.010	0.044	2.788	1.982	1.968	1.963	1.982	1.987	2.007
0.000	0.010	0.000	0.005	0.068	0.020	0.039	2.651	1.973	1.968	1.963	1.982	1.982	2.007
0.010	0.020	0.000	0.000	0.049	0.024	0.039	2.671	1.968	1.973	1.963	1.982	1.978	1.997
0.000	0.005	0.000	0.000	0.044	0.015	0.044	2.676	1.958	1.963	1.963	1.982	1.973	1.987
-0.005	-0.005	0.005	0.000	0.010	0.005	0.044	2.710	1.963	1.963	1.963	1.982	1.963	1.978
0.010	-0.015	-0.005	0.005	-0.020	0.000	0.039	2.832	1.978	1.958	1.958	1.982	1.958	1.973
0.005	-0.005	-0.005	0.005	-0.020	0.020	0.039	2.632	1.963	1.963	1.958	1.978	1.963	1.978
0.000	-0.010	0.000	0.005	-0.024	0.015	0.044	2.671	1.948	1.958	1.958	1.978	1.968	1.973
-0.005	-0.015	0.000	0.000	-0.024	0.034	0.039	2.739	1.943	1.953	1.953	1.978	1.968	1.978
0.005	-0.005	0.000	0.000	-0.010	0.029	0.039	2.666	1.943	1.953	1.953	1.973	1.973	1.973
0.000	-0.010	0.000	0.000	-0.010	0.020	0.039	2.637	1.953	1.953	1.953	1.978	1.973	1.973
0.005	-0.005	0.000	0.000	-0.010	0.020	0.039	2.744	1.958	1.953	1.953	1.973	1.973	1.973
0.000	0.005	0.000	0.005	-0.015	0.020	0.044	2.646	1.948	1.953	1.953	1.973	1.968	1.973
-0.010	0.010	0.005	0.000	-0.010	0.015	0.044	2.666	1.943	1.953	1.958	1.973	1.968	1.968
-0.005	0.010	0.000	0.000	-0.010	0.005	0.044	2.690	1.943	1.948	1.953	1.978	1.968	1.968
0.000	0.010	0.005	0.005	-0.010	0.010	0.044	2.734	1.943	1.948	1.948	1.973	1.973	1.968
0.000	-0.005	0.005	0.000	-0.010	0.005	0.039	2.690	1.938	1.943	1.948	1.973	1.968	1.968
-0.005	-0.020	0.010	0.000	-0.010	-0.020	0.039	2.681	1.938	1.938	1.943	1.968	1.968	1.958
0.000	0.000	0.000	0.005	-0.005	0.010	0.044	2.690	1.943	1.943	1.948	1.968	1.968	1.973
0.010	-0.010	0.000	0.005	-0.005	0.010	0.039	2.690	1.943	1.938	1.943	1.963	1.968	1.968
0.010	-0.005	0.000	0.005	0.000	0.015	0.039	2.700	1.948	1.943	1.943	1.963	1.963	1.973
0.000	0.010	-0.005	0.000	0.000	0.010	0.039	2.705	1.948	1.948	1.943	1.963	1.963	1.968
0.000	0.010	-0.005	0.000	0.000	0.000	0.044	2.671	1.943	1.948	1.943	1.958	1.958	1.963
-0.010	0.015	-0.005	0.000	-0.005	-0.020	0.044	2.681	1.938	1.943	1.943	1.963	1.958	1.953
-0.005	0.010	0.000	0.005	-0.005	-0.020	0.044	2.661	1.938	1.943	1.943	1.963	1.958	1.958
-0.010	0.005	0.000	0.000	-0.005	-0.015	0.044	2.695	1.938	1.938	1.943	1.963	1.958	1.958
0.005	-0.005	0.000	0.000	-0.005	-0.020	0.044	2.681	1.943	1.938	1.938	1.958	1.958	1.953
0.005	-0.005	0.000	0.005	0.000	-0.020	0.044	2.690	1.938	1.938	1.938	1.958	1.958	1.953
0.000	-0.005	0.005	0.000	0.005	0.005	0.039	2.661	1.934	1.938	1.938	1.958	1.958	1.963
0.000	0.000	0.000	0.000	0.005	0.005	0.039	2.676	1.934	1.934	1.938	1.958	1.958	1.963
-0.005	0.005	0.005	-0.005	0.005	0.000	0.039	2.705	1.938	1.938	1.938	1.958	1.958	1.958
0.000	0.010	0.010	0.000	0.005	-0.005	0.039	2.671	1.938	1.943	1.938	1.958	1.958	1.958
0.000	0.010	0.005	0.000	0.010	0.015	0.039	2.700	1.938	1.943	1.938	1.958	1.958	1.963
-0.010	0.005	0.005	0.000	0.010	-0.005	0.039	2.705	1.938	1.938	1.938	1.958	1.953	1.953
0.005	-0.005	0.010	0.005	0.015	0.005	0.044	2.695	1.938	1.938	1.938	1.958	1.958	1.958
0.000	0.000	0.000	0.005	0.015	0.010	0.044	2.690	1.938	1.938	1.934	1.958	1.958	1.958
0.005	-0.005	-0.005	0.005	0.015	-0.005	0.044	2.695	1.943	1.938	1.934	1.958	1.953	1.953
0.005	-0.010	-0.005	0.005	0.010	0.005	0.044	2.676	1.938	1.934	1.934	1.953	1.953	1.953
0.010	-0.010	-0.005	0.000	0.000	0.000	0.039	2.686	1.934	1.934	1.934	1.953	1.948	1.948
0.010	-0.020	0.000	0.005	-0.005	0.010	0.044	2.798	1.948	1.934	1.934	1.953	1.948	1.948
0.015	-0.005	0.000	0.005	-0.005	0.005	0.039	2.778	1.958	1.943	1.934	1.953	1.948	1.948
0.010	-0.005	-0.005	0.000	-0.005	0.000	0.039	2.656	1.943	1.943	1.938	1.953	1.948	1.948
0.015	0.000	0.000	0.000	-0.010	-0.005	0.039	2.690	1.938	1.943	1.938	1.953	1.943	1.943
0.005	-0.005	0.000	0.005	-0.005	0.005	0.039	2.788	1.929	1.938	1.938	1.953	1.948	1.948
0.005	0.015	0.000	0.005	-0.005	0.000	0.039	2.729	1.934	1.943	1.938	1.953	1.948	1.948
-0.010	0.015	0.005	0.000	-0.005	0.005	0.039	2.842	1.948	1.943	1.943	1.953	1.948	1.948
0.000	0.024	0.000	0.005	-0.005	-0.010	0.044	2.622	1.938	1.938	1.938	1.958	1.948	1.948
0.000	0.010	0.005	0.000	-0.005	-0.010	0.039	2.734	1.929	1.938	1.938	1.958	1.948	1.948
-0.010	0.005	0.010	0.000	0.005	0.005	0.044	2.617	1.919	1.934	1.938	1.958	1.958	1.953
-0.010	0.000	0.005	0.000	0.020	0.005	0.044	2.661	1.924	1.929	1.934	1.958	1.958	1.953
-0.005	-0.005	0.005	0.000	0.000	0.015	0.044	2.754	1.934	1.924	1.929	1.953	1.948	1.953
0.000	-0.010	0.005	0.000	-0.015	0.015	0.039	2.720	1.934	1.924	1.929	1.953	1.948	1.953
-0.005	-0.005	0.005	0.000	-0.010	0.005	0.039	2.646	1.929	1.929	1.929	1.948	1.948	1.948
0.000	-0.005	0.000	0.005	0.010	0.005	0.044	2.646	1.938	1.934	1.929	1.948	1.953	1.953
0.005	-0.005	0.000	0.005	0.024	-0.010	0.044	2.681	1.934	1.934	1.929	1.948	1.953	1.948
0.010	0.000	0.000	0.000	0.044	-0.005	0.039	2.739	1.929	1.929	1.929	1.948	1.953	1.953
0.015	-0.010	-0.005	0.000	0.005	-0.005	0.044	2.695	1.929	1.929	1.924	1.943	1.938	1.948
0.005	-0.005	-0.005	0.000	-0.039	0.000	0.039	2.681	1.929	1.929	1.924	1.943	1.924	1.938
0.005	-0.005	0.000	0.005	-0.054	0.015	0.039	2.700	1.929	1.929	1.929	1.948	1.934	1.943
0.015	-0.005	0.000	0.000	0.005	-0.005	0.044	2.666	1.924	1.929	1.924	1.943	1.948	1.938
0.010	0.015	0.000	0.000	0.049	0.024	0.039	2.690	1.929	1.934	1.929	1.948	1.958	1.953
0.005	0.010	0.000	0.000	0.049	0.010	0.039	2.676	1.924	1.924	1.929	1.948	1.953	1.953
-0.005	0.015	0.000	-0.005	0.029	0.015	0.039	2.686	1.924	1.929	1.929	1.943	1.943	1.948
-0.005	0.020	0.010	0.000	0.005	0.015	0.044	2.705	1.919	1.929	1.929	1.948	1.938	1.943
-0.010	0.020	0.005	0.000	-0.015	0.005	0.044	2.695	1.924	1.924	1.924	1.943	1.934	1.943
-0.010	0.029	0.010	-0.005	0.000	0.000	0.044	2.681	1.924	1.929	1.929	1.943	1.938	1.938
-0.005	0.024	0.005	0.000	0.015	-0.005	0.044	2.695	1.924	1.924	1.929	1.948	1.943	1.943
-0.005	0.015	0.010	0.000	0.024	-0.010	0.044	2.666	1.919	1.924	1.924	1.943	1.943	1.938
-0.010	0.005	-0.005	0.000	0.029	-0.034	0.039	2.671	1.919	1.914	1.919	1.943	1.943	1.938
0.000	0.015	0.000	0.000	-0.020	-0.005	0.039	2.695	1.924	1.924	1.919	1.943	1.929	1.938
0.000	-0.005	0.000	0.000	-0.044	-0.005	0.044	2.695	1.924	1.914	1.919	1.938	1.924	1.938
0.020	-0.010	-0.005	-0.005	-0.024	0.000	0.044	2.671	1.929	1.919	1.914	1.934	1.934	1.938
0.015	0.000	-0.005	-0.005	0.039	0.000	0.039	2.695	1.924	1.924	1.914	1.938	1.948	1.943
0.005	-0.024	-0.005	-0.010	0.068	0.000	0.039	2.676	1.919	1.914	1.914	1.934	1.953	1.943
-0.005	-0.020	-0.005	-0.005	0.054	0.000	0.039	2.700	1.919	1.914	1.914	1.934	1.943	1.943
0.010	-0.034	0.000	-0.005	0.059	0.000	0.039	2.695	1.924	1.914	1.914	1.934	1.938	1.943
0.000	-0.029	0.000	-0.005	0.029	0.000	0.044	2.695	1.924	1.919	1.914	1.934	1.929	1.938
0.000	-0.020	0.000	0.000	0.015	-0.015	0.044	2.681	1.924	1.919	1.914	1.934	1.924	1.929
0.005	0.010	0.000	0.010	0.010	0.000	0.044	2.695	1.924	1.929	1.919	1.938	1.924	1.934
0.000	0.010	0.005	0.010	-0.024	-0.005	0.044	2.749	1.929	1.929	1.924	1.938	1.914	1.929
0.000	0.015	0.005	0.010	-0.039	-0.034	0.044	2.646	1.924	1.929	1.924	1.938	1.919	1.919
-0.010	0.020	0.010	0.005	-0.010	0.010	0.044	2.646	1.914	1.924	1.929	1.938	1.938	1.934
-0.005	0.015	0.005	0.005	0.000	0.015	0.039	2.690	1.914	1.924	1.924	1.943	1.934	1.938
0.005	0.010	0.005	0.005	-0.020	0.020	0.044	2.764	1.929	1.919	1.919	1.943	1.934	1.938
0.005	0.010	0.000	0.005	-0.078	0.005	0.039	2.632	1.929	1.924	1.919	1.934	1.914	1.924
0.000	-0.005	0.005	0.005	-0.098	0.015	0.039	2.666	1.924	1.919	1.914	1.938	1.919	1.919
0.000	0.000	0.000	0.005	-0.068	0.010	0.039	2.720	1.924	1.919	1.919	1.938	1.929	1.929
0.010	-0.010	0.000	0.000	0.029	0.015	0.039	2.710	1.929	1.919	1.919	1.938	1.958	1.934
-0.005	-0.024	0.000	0.005	0.039	0.010	0.044	2.695	1.919	1.914	1.914	1.938	1.953	1.938
0.000	-0.010	-0.005	0.000	0.034	0.005	0.044	2.651	1.914	1.919	1.914	1.934	1.943	1.938
0.005	-0.005	-0.005	0.000	0.029	0.005	0.044	2.729	1.914	1.919	1.914	1.934	1.938	1.938
0.010	-0.020	-0.005	0.000	0.020	-0.005	0.044	2.642	1.909	1.914	1.914	1.929	1.934	1.934
0.010	-0.015	-0.005	0.000	0.010	-0.010	0.044	2.671	1.914	1.909	1.914	1.934	1.929	1.929
0.015	-0.010	0.000	0.000	0.000	0.000	0.039	2.715	1.919	1.919	1.914	1.929	1.924	1.934
0.010	0.010	0.005	0.000	-0.010	0.020	0.044	2.686	1.919	1.919	1.914	1.934	1.924	1.934
0.005	0.005	0.005	0.000	-0.015	0.024	0.039	2.715	1.919	1.919	1.919	1.934	1.924	1.934
0.015	-0.005	0.005	0.005	-0.005	0.020	0.039	2.690	1.919	1.919	1.919	1.934	1.929	1.934
0.005	0.010	0.005	0.000	-0.029	0.010	0.039	2.666	1.919	1.924	1.919	1.934	1.919	1.924
0.000	0.005	0.010	0.005	-0.044	0.005	0.044	2.695	1.919	1.919	1.919	1.934	1.919	1.924
0.000	0.020	0.005	0.000	-0.034	-0.020	0.044	2.695	1.919	1.924	1.919	1.934	1.924	1.919
-0.005	0.010	0.005	0.005	-0.020	-0.039	0.044	2.671	1.914	1.914	1.919	1.938	1.934	1.914
-0.005	0.015	0.005	0.000	0.005	-0.068	0.039	2.690	1.914	1.914	1.914	1.938	1.938	1.914
0.000	0.005	0.000	0.000	-0.005	-0.029	0.044	2.686	1.914	1.914	1.914	1.934	1.934	1.929
-0.005	0.005	0.005	0.005	0.068	-0.010	0.044	2.705	1.914	1.909	1.914	1.938	1.958	1.943
-0.005	0.000	0.000	0.000	0.117	0.000	0.039	2.681	1.914	1.909	1.909	1.934	1.963	1.953
0.000	0.000	-0.005	-0.005	0.083	0.029	0.039	2.695	1.919	1.914	1.909	1.929	1.943	1.958
0.010	-0.010	-0.005	-0.005	0.063	-0.005	0.039	2.690	1.924	1.914	1.909	1.929	1.934	1.943
0.005	-0.005	0.000	0.005	0.029	0.024	0.044	2.695	1.919	1.914	1.909	1.929	1.924	1.943
0.010	-0.005	0.000	0.000	0.020	0.005	0.039	2.666	1.919	1.914	1.909	1.929	1.919	1.929
0.005	0.000	0.000	0.000	0.010	0.020	0.039	2.690	1.919	1.919	1.909	1.929	1.919	1.934
0.000	-0.005	0.000	0.000	0.015	0.024	0.044	2.661	1.914	1.919	1.914	1.929	1.924	1.929
0.000	0.005	0.005	0.005	-0.010	0.024	0.044	2.695	1.914	1.919	1.914	1.929	1.914	1.924
0.000	0.010	0.005	0.005	-0.034	0.000	0.039	2.690	1.919	1.919	1.914	1.934	1.914	1.914
-0.010	0.015	0.005	0.005	-0.034	0.005	0.039	2.705	1.919	1.919	1.914	1.934	1.919	1.914
-0.015	0.015	0.015	0.000	-0.024	0.020	0.039	2.705	1.914	1.914	1.919	1.934	1.924	1.924
-0.010	0.005	0.010	0.005	-0.029	0.020	0.039	2.705	1.914	1.909	1.914	1.934	1.924	1.924
-0.010	0.015	0.000	0.000	-0.029	-0.005	0.039	2.700	1.919	1.919	1.914	1.929	1.924	1.914
-0.005	0.005	0.005	0.005	-0.034	0.000	0.039	2.681	1.914	1.914	1.914	1.934	1.924	1.919
-0.010	0.000	0.005	0.000	-0.034	-0.015	0.039	2.690	1.914	1.914	1.914	1.934	1.924	1.919
0.000	0.010	0.000	0.000	-0.020	-0.010	0.044	2.808	1.924	1.919	1.914	1.934	1.929	1.919
0.000	-0.005	0.000	0.005	-0.015	0.000	0.039	2.773	1.929	1.919	1.914	1.929	1.929	1.929
0.000	0.010	-0.005	0.005	-0.024	0.010	0.039	2.661	1.924	1.924	1.914	1.934	1.929	1.929
0.000	0.010	-0.010	0.000	-0.029	0.010	0.039	2.671	1.919	1.919	1.914	1.934	1.924	1.929
0.010	-0.005	-0.005	0.005	-0.024	-0.005	0.044	2.793	1.914	1.914	1.914	1.934	1.929	1.924
0.010	-0.005	-0.010	0.000	-0.015	0.010	0.044	2.725	1.914	1.914	1.914	1.929	1.934	1.934
0.015	-0.010	-0.005	0.000	0.005	0.010	0.044	2.832	1.934	1.914	1.914	1.929	1.934	1.934
0.000	-0.005	-0.005	0.000	-0.015	0.005	0.039	2.617	1.919	1.919	1.914	1.934	1.929	1.929
0.000	0.010	0.000	0.000	-0.020	0.000	0.039	2.734	1.909	1.919	1.919	1.934	1.924	1.924
0.000	0.005	0.000	0.005	-0.015	0.005	0.039	2.627	1.904	1.914	1.914	1.934	1.934	1.929
0.000	0.010	0.005	0.010	-0.005	-0.020	0.039	2.646	1.904	1.914	1.919	1.934	1.934	1.924
-0.005	0.015	0.005	0.000	0.000	0.000	0.044	2.646	1.899	1.909	1.914	1.934	1.934	1.934
-0.015	0.000	0.005	0.005	0.010	-0.005	0.039	2.632	1.895	1.904	1.909	1.934	1.934	1.934
-0.020	0.005	0.010	0.000	0.024	0.000	0.039	2.651	1.895	1.904	1.909	1.934	1.934	1.934
-0.015	0.020	0.005	0.010	0.010	-0.010	0.039	2.739	1.904	1.904	1.909	1.934	1.929	1.934
-0.010	-0.010	0.010	0.005	0.010	0.015	0.044	2.666	1.909	1.899	1.904	1.929	1.929	1.938
-0.010	-0.005	0.000	0.000	-0.015	0.024	0.044	2.725	1.914	1.904	1.899	1.924	1.919	1.934
0.000	-0.010	0.000	0.000	-0.005	0.024	0.044	2.661	1.909	1.904	1.904	1.919	1.924	1.929
0.000	-0.010	-0.005	-0.005	-0.005	0.020	0.039	2.690	1.914	1.909	1.904	1.919	1.919	1.924
0.000	0.000	-0.005	0.000	-0.005	-0.005	0.039	2.686	1.914	1.909	1.904	1.919	1.919	1.919
0.015	0.010	-0.005	-0.005	-0.029	0.010	0.039	2.695	1.919	1.914	1.904	1.919	1.909	1.919
0.010	0.010	-0.005	-0.005	-0.044	-0.005	0.044	2.676	1.909	1.909	1.909	1.919	1.909	1.909
0.010	0.000	0.000	-0.005	-0.024	-0.005	0.039	2.671	1.909	1.909	1.909	1.924	1.919	1.909
0.005	0.005	-0.005	0.000	0.005	0.000	0.039	2.695	1.904	1.909	1.904	1.924	1.929	1.914
0.010	0.005	-0.005	0.000	0.093	0.015	0.044	2.681	1.909	1.904	1.909	1.929	1.953	1.934
0.005	0.000	0.005	0.000	0.127	0.020	0.044	2.676	1.909	1.909	1.909	1.929	1.948	1.938
0.005	-0.005	0.005	0.000	0.098	-0.010	0.044	2.681	1.909	1.904	1.904	1.924	1.934	1.934
0.000	0.010	0.010	0.000	0.063	0.005	0.039	2.676	1.909	1.909	1.909	1.924	1.919	1.929
0.000	0.005	0.005	0.000	0.029	-0.010	0.044	2.671	1.909	1.909	1.909	1.924	1.909	1.924
-0.005	0.010	0.005	-0.005	0.010	-0.020	0.039	2.676	1.909	1.909	1.904	1.924	1.909	1.914
-0.010	0.000	0.000	-0.005	0.005	-0.029	0.044	2.700	1.909	1.904	1.904	1.924	1.909	1.909
0.005	0.005	0.005	0.000	0.000	-0.049	0.039	2.690	1.914	1.909	1.909	1.924	1.909	1.909
0.000	-0.005	0.005	0.005	0.000	-0.015	0.044	2.690	1.914	1.909	1.909	1.924	1.914	1.919
0.000	-0.010	0.005	0.005	0.000	-0.005	0.044	2.695	1.909	1.909	1.904	1.924	1.919	1.919
0.000	-0.010	0.000	0.000	0.000	-0.005	0.044	2.690	1.914	1.909	1.904	1.924	1.919	1.919
0.000	-0.024	-0.005	0.000	0.005	0.005	0.039	2.690	1.914	1.904	1.899	1.924	1.919	1.924
0.000	-0.015	0.000	0.005	0.000	-0.010	0.044	2.700	1.909	1.909	1.904	1.924	1.914	1.919
0.005	-0.010	-0.005	0.005	0.000	0.015	0.039	2.705	1.914	1.909	1.904	1.924	1.919	1.924
0.010	-0.020	-0.005	0.005	0.020	0.015	0.044	2.676	1.909	1.909	1.904	1.924	1.924	1.924
0.010	-0.010	-0.010	0.005	0.039	0.005	0.039	2.681	1.909	1.909	1.904	1.924	1.929	1.924
0.010	-0.010	-0.005	0.000	0.029	0.010	0.039	2.808	1.924	1.914	1.904	1.919	1.919	1.924
-0.005	-0.005	0.000	-0.005	0.015	0.000	0.039	2.783	1.929	1.914	1.909	1.924	1.914	1.919
0.000	0.005	0.005	0.000	-0.015	-0.015	0.039	2.661	1.919	1.919	1.914	1.924	1.909	1.914
-0.010	0.010	0.000	0.005	-0.020	0.020	0.044	2.681	1.909	1.919	1.914	1.929	1.914	1.919
-0.010	0.015	0.005	0.000	-0.034	0.000	0.039	2.725	1.904	1.919	1.914	1.929	1.914	1.909
-0.005	0.015	0.005	0.000	-0.015	-0.005	0.044	2.734	1.909	1.914	1.914	1.929	1.924	1.914
-0.010	0.005	0.005	0.000	0.015	-0.024	0.044	2.827	1.924	1.914	1.914	1.929	1.929	1.914
-0.010	0.020	0.005	0.005	0.024	-0.024	0.039	2.622	1.914	1.919	1.914	1.934	1.929	1.919
-0.015	0.015	0.005	0.000	-0.039	-0.010	0.039	2.686	1.904	1.914	1.914	1.929	1.914	1.924
-0.005	0.005	0.005	0.000	-0.049	-0.005	0.039	2.646	1.914	1.909	1.909	1.929	1.914	1.919
0.005	-0.005	0.005	0.000	0.020	0.015	0.044	2.651	1.909	1.909	1.909	1.934	1.938	1.929
0.010	-0.015	-0.005	0.000	0.073	0.005	0.039	2.705	1.914	1.904	1.909	1.929	1.948	1.938
0.010	-0.010	0.000	0.005	0.068	0.029	0.039	2.739	1.919	1.909	1.904	1.929	1.938	1.943
0.010	-0.005	0.000	0.000	0.049	0.020	0.039	2.642	1.914	1.914	1.904	1.929	1.929	1.938
0.010	-0.005	-0.005	0.005	0.015	0.034	0.039	2.642	1.904	1.909	1.909	1.929	1.919	1.934
0.015	-0.005	-0.005	0.005	-0.010	0.020	0.039	2.651	1.904	1.909	1.909	1.924	1.914	1.924
0.010	-0.005	0.000	0.000	-0.005	0.005	0.039	2.725	1.895	1.904	1.904	1.924	1.914	1.914
0.015	-0.005	0.000	0.000	-0.010	-0.015	0.039	2.700	1.899	1.899	1.904	1.924	1.914	1.909
0.010	0.000	0.000	0.000	-0.005	-0.005	0.039	2.700	1.899	1.899	1.904	1.924	1.919	1.914
0.000	0.000	0.005	0.005	-0.005	-0.005	0.044	2.681	1.904	1.904	1.904	1.924	1.919	1.914
0.000	0.010	0.000	0.000	-0.010	-0.024	0.044	2.681	1.899	1.904	1.904	1.919	1.914	1.909
-0.005	0.010	0.005	0.000	-0.020	-0.034	0.044	2.676	1.899	1.899	1.904	1.924	1.914	1.909
-0.015	0.010	0.010	0.000	-0.034	-0.029	0.039	2.681	1.899	1.899	1.904	1.924	1.909	1.909
-0.020	0.015	0.010	0.005	-0.044	0.005	0.044	2.671	1.899	1.904	1.904	1.924	1.914	1.919
-0.010	0.015	0.010	0.000	-0.078	-0.005	0.039	2.671	1.904	1.904	1.899	1.919	1.904	1.914
-0.010	0.005	0.005	0.000	-0.063	0.010	0.044	2.695	1.899	1.895	1.899	1.919	1.909	1.914
0.005	-0.010	0.005	-0.005	-0.020	0.010	0.039	2.700	1.914	1.899	1.895	1.919	1.924	1.919
0.010	-0.024	0.000	0.000	-0.029	0.010	0.044	2.666	1.909	1.899	1.895	1.919	1.914	1.919
0.005	-0.024	-0.010	0.000	-0.029	-0.010	0.039	2.686	1.909	1.895	1.895	1.914	1.914	1.909
0.005	-0.005	-0.005	0.000	-0.059	-0.010	0.039	2.676	1.909	1.904	1.895	1.914	1.904	1.909
0.010	-0.005	0.000	0.005	-0.039	-0.034	0.044	2.681	1.904	1.904	1.899	1.919	1.914	1.904
0.015	-0.005	-0.005	0.005	0.010	-0.015	0.044	2.690	1.904	1.904	1.899	1.919	1.929	1.919
0.005	-0.010	0.000	0.000	0.083	0.015	0.039	2.695	1.904	1.899	1.899	1.919	1.943	1.934
0.010	-0.005	0.000	0.005	0.137	0.015	0.039	2.695	1.909	1.904	1.899	1.919	1.953	1.938
0.015	0.000	-0.005	0.000	0.176	0.024	0.039	2.700	1.914	1.909	1.904	1.919	1.953	1.948
0.000	0.005	0.000	0.005	0.103	0.034	0.039	2.681	1.914	1.909	1.904	1.919	1.919	1.938
-0.010	0.005	0.005	0.000	-0.010	0.024	0.039	2.700	1.909	1.909	1.904	1.919	1.890	1.924
-0.010	0.029	0.005	-0.005	-0.005	0.024	0.044	2.686	1.914	1.914	1.909	1.919	1.899	1.914
-0.005	0.029	0.005	0.000	-0.005	0.024	0.039	2.681	1.909	1.914	1.909	1.919	1.904	1.914
-0.015	0.029	0.005	0.000	0.029	0.024	0.039	2.686	1.904	1.909	1.909	1.924	1.914	1.914
-0.005	0.020	0.000	0.000	0.000	0.010	0.039	2.749	1.919	1.909	1.909	1.924	1.909	1.909
0.000	0.020	0.005	-0.005	0.005	0.000	0.039	2.773	1.924	1.914	1.909	1.924	1.914	1.909
0.005	0.010	0.005	0.000	0.010	-0.015	0.044	2.646	1.909	1.909	1.909	1.924	1.914	1.909
0.010	0.005	0.000	0.005	-0.005	-0.020	0.039	2.671	1.909	1.909	1.904	1.929	1.914	1.904
0.005	-0.005	-0.005	0.000	-0.015	-0.034	0.044	2.764	1.904	1.904	1.904	1.924	1.914	1.904
0.005	-0.015	0.000	0.005	-0.005	-0.005	0.039	2.729	1.904	1.904	1.899	1.924	1.919	1.914
0.005	-0.010	0.000	0.000	0.000	0.000	0.039	2.837	1.924	1.909	1.904	1.924	1.919	1.919
0.015	-0.005	-0.005	0.000	0.000	0.005	0.039	2.632	1.909	1.909	1.904	1.924	1.919	1.919
0.005	-0.015	-0.005	0.000	-0.015	0.005	0.044	2.705	1.899	1.904	1.904	1.919	1.914	1.919
0.005	-0.010	-0.005	0.005	-0.015	0.015	0.044	2.739	1.899	1.904	1.899	1.924	1.914	1.919
0.005	-0.005	0.000	0.000	-0.015	0.010	0.044	2.651	1.899	1.904	1.904	1.924	1.914	1.914
0.000	0.000	0.000	0.000	-0.020	0.005	0.039	2.720	1.904	1.904	1.904	1.924	1.914	1.914
0.000	0.000	0.005	0.005	-0.020	0.015	0.044	2.646	1.904	1.904	1.904	1.924	1.914	1.914
-0.005	0.005	0.005	0.000	-0.024	-0.005	0.039	2.651	1.899	1.904	1.904	1.924	1.914	1.914
-0.005	0.000	0.005	0.010	-0.020	0.029	0.039	2.651	1.895	1.899	1.899	1.924	1.919	1.924
-0.010	0.020	0.005	0.000	-0.010	0.015	0.039	2.676	1.899	1.904	1.904	1.924	1.919	1.919
-0.005	0.024	0.010	0.005	-0.015	0.010	0.039	2.715	1.895	1.904	1.904	1.919	1.919	1.919
-0.005	0.020	0.010	0.000	-0.005	0.005	0.039	2.690	1.895	1.899	1.904	1.919	1.919	1.914
-0.005	0.005	0.000	0.000	0.000	-0.005	0.039	2.681	1.899	1.895	1.899	1.919	1.919	1.914
0.000	0.010	0.005	0.000	-0.005	-0.005	0.044	2.686	1.904	1.899	1.899	1.919	1.919	1.914
0.000	0.005	0.005	0.000	0.000	-0.005	0.044	2.666	1.904	1.899	1.899	1.919	1.919	1.919
0.005	0.000	-0.005	0.000	-0.005	-0.005	0.044	2.661	1.899	1.895	1.895	1.914	1.914	1.914
0.000	-0.010	-0.005	0.000	-0.010	-0.005	0.044	2.681	1.899	1.895	1.890	1.914	1.914	1.914
0.010	-0.005	-0.005	0.000	-0.010	-0.005	0.044	2.666	1.904	1.899	1.890	1.909	1.914	1.914
0.005	-0.015	-0.005	0.005	0.000	-0.010	0.044	2.700	1.904	1.895	1.895	1.914	1.914	1.914
0.005	-0.015	-0.005	0.005	0.010	-0.020	0.039	2.666	1.899	1.895	1.895	1.914	1.914	1.909
0.010	-0.005	-0.005	0.000	0.010	0.005	0.044	2.700	1.909	1.899	1.895	1.909	1.909	1.919
0.005	0.000	-0.005	0.000	0.015	0.010	0.039	2.666	1.904	1.904	1.899	1.914	1.914	1.919
0.010	-0.005	0.000	0.005	0.024	0.005	0.039	2.681	1.904	1.899	1.899	1.914	1.914	1.914
0.005	0.005	0.000	0.005	0.020	0.010	0.039	2.671	1.899	1.904	1.899	1.914	1.909	1.919
-0.005	0.000	0.005	0.000	0.020	0.010	0.039	2.705	1.904	1.904	1.899	1.914	1.914	1.914
0.005	0.010	0.000	0.000	0.020	0.005	0.039	2.700	1.909	1.904	1.904	1.914	1.914	1.914
0.005	0.005	0.005	0.000	0.015	0.000	0.039	2.695	1.909	1.904	1.904	1.919	1.914	1.909
0.000	0.005	0.010	0.005	0.015	-0.020	0.039	2.705	1.909	1.904	1.904	1.919	1.909	1.904
-0.005	0.010	0.010	0.005	0.010	0.005	0.039	2.671	1.904	1.904	1.904	1.924	1.914	1.914
-0.005	0.000	0.005	0.005	0.005	0.005	0.044	2.705	1.904	1.899	1.899	1.919	1.914	1.914
-0.005	0.000	-0.005	0.000	-0.005	0.005	0.044	2.700	1.909	1.904	1.899	1.919	1.909	1.914
0.000	-0.005	0.000	0.000	0.000	0.005	0.039	2.676	1.904	1.904	1.899	1.919	1.914	1.914
0.005	-0.005	-0.005	0.010	0.000	0.005	0.044	2.661	1.904	1.899	1.899	1.919	1.914	1.914
0.010	-0.010	-0.005	0.005	0.005	0.010	0.039	2.671	1.904	1.899	1.899	1.919	1.914	1.914
0.005	-0.005	-0.005	0.005	0.005	0.015	0.044	2.822	1.919	1.904	1.899	1.919	1.914	1.914
0.015	-0.005	0.000	0.005	0.000	0.010	0.039	2.778	1.929	1.909	1.904	1.919	1.914	1.914
0.005	-0.010	-0.005	0.000	0.000	0.000	0.039	2.646	1.909	1.909	1.899	1.919	1.914	1.909
0.005	-0.005	-0.005	0.000	-0.020	-0.024	0.044	2.671	1.904	1.909	1.904	1.919	1.904	1.904
0.000	0.000	0.000	0.000	-0.020	-0.005	0.039	2.788	1.904	1.909	1.904	1.919	1.909	1.909
0.000	0.010	0.000	0.005	-0.015	0.010	0.039	2.734	1.909	1.909	1.904	1.924	1.914	1.909
-0.005	0.000	0.000	0.000	0.010	0.020	0.044	2.827	1.919	1.909	1.909	1.924	1.924	1.924
-0.010	0.015	0.005	0.000	0.024	0.024	0.039	2.642	1.909	1.909	1.909	1.924	1.924	1.924
-0.005	0.010	0.005	0.005	0.039	0.020	0.039	2.739	1.899	1.909	1.909	1.929	1.929	1.924
-0.005	0.010	0.010	0.000	0.034	0.010	0.039	2.627	1.895	1.904	1.909	1.924	1.924	1.919
-0.010	0.015	0.010	0.005	0.024	0.005	0.039	2.651	1.895	1.899	1.904	1.924	1.919	1.919
0.000	0.000	0.000	0.005	0.000	0.005	0.044	2.744	1.904	1.899	1.899	1.924	1.914	1.914
-0.005	-0.010	0.000	0.000	-0.010	-0.010	0.039	2.734	1.909	1.895	1.899	1.919	1.909	1.909
0.005	0.005	0.005	0.005	-0.044	-0.020	0.044	2.646	1.904	1.904	1.899	1.919	1.899	1.909
0.005	0.000	-0.005	0.000	-0.059	-0.024	0.039	2.729	1.904	1.904	1.899	1.919	1.899	1.899
0.005	0.010	0.000	-0.005	-0.034	-0.020	0.044	2.661	1.899	1.904	1.899	1.919	1.914	1.909
0.010	-0.005	-0.005	0.000	-0.010	-0.015	0.044	2.720	1.909	1.904	1.899	1.919	1.919	1.909
0.010	-0.010	-0.005	-0.005	-0.015	-0.005	0.044	2.695	1.909	1.899	1.895	1.914	1.914	1.914
0.005	-0.020	0.000	0.000	-0.024	-0.020	0.039	2.676	1.904	1.899	1.895	1.914	1.909	1.909
0.010	-0.005	0.000	0.005	-0.039	-0.005	0.044	2.671	1.899	1.904	1.899	1.919	1.904	1.914
0.000	0.005	-0.005	0.005	-0.015	0.005	0.039	2.676	1.899	1.904	1.899	1.919	1.914	1.919
0.000	0.005	0.000	0.000	0.005	0.015	0.039	2.700	1.904	1.904	1.899	1.919	1.924	1.924
0.000	0.015	0.000	0.005	0.015	0.000	0.039	2.681	1.899	1.904	1.899	1.919	1.924	1.919
0.000	0.010	0.000	0.005	0.015	0.024	0.044	2.676	1.899	1.899	1.904	1.919	1.919	1.924
-0.010	0.015	0.010	0.000	0.010	0.029	0.039	2.705	1.904	1.904	1.904	1.924	1.914	1.924
-0.010	0.010	0.005	0.000	0.005	0.015	0.044	2.681	1.904	1.904	1.899	1.919	1.919	1.919
-0.010	0.010	0.005	0.005	0.020	0.015	0.044	2.671	1.899	1.899	1.899	1.924	1.924	1.919
0.000	0.010	0.005	0.000	0.020	0.010	0.044	2.671	1.899	1.899	1.904	1.919	1.919	1.919
-0.005	0.005	0.010	0.000	0.010	0.029	0.039	2.681	1.904	1.899	1.899	1.919	1.914	1.924
0.000	0.000	0.005	0.005	0.000	0.034	0.039	2.671	1.904	1.899	1.895	1.919	1.914	1.919
0.005	0.000	0.000	0.005	-0.005	0.020	0.039	2.681	1.904	1.899	1.899	1.914	1.909	1.914
0.005	0.015	-0.005	0.000	0.000	0.000	0.039	2.700	1.909	1.904	1.899	1.914	1.909	1.909
0.005	-0.020	0.000	0.000	0.005	-0.015	0.039	2.700	1.909	1.895	1.895	1.919	1.914	1.904
0.005	-0.024	-0.005	0.000	0.010	-0.020	0.039	2.705	1.909	1.899	1.895	1.914	1.914	1.904
0.000	-0.015	-0.005	0.005	0.015	-0.039	0.039	2.676	1.904	1.899	1.895	1.914	1.914	1.904
0.010	-0.010	-0.005	0.000	0.015	-0.015	0.044	2.705	1.909	1.899	1.899	1.914	1.909	1.909
0.010	-0.005	-0.005	0.000	-0.010	-0.029	0.044	2.686	1.904	1.904	1.899	1.914	1.904	1.904
0.010	-0.015	0.000	0.005	-0.015	-0.020	0.044	2.671	1.899	1.899	1.899	1.914	1.904	1.909
0.005	0.000	0.000	0.000	-0.068	-0.010	0.044	2.676	1.895	1.904	1.899	1.914	1.890	1.909
0.000	0.000	0.000	0.000	-0.103	0.020	0.039	2.686	1.895	1.899	1.899	1.914	1.890	1.909
0.000	0.015	0.005	0.005	-0.088	0.034	0.044	2.808	1.914	1.909	1.904	1.919	1.899	1.909
-0.005	0.034	0.010	0.000	-0.073	0.034	0.039	2.778	1.919	1.914	1.904	1.919	1.909	1.909
-0.010	0.034	0.000	0.000	-0.044	0.039	0.039	2.661	1.909	1.909	1.909	1.924	1.919	1.914
0.005	0.034	0.005	0.005	-0.010	0.024	0.039	2.681	1.909	1.909	1.909	1.924	1.929	1.919
-0.005	0.015	0.010	0.000	0.005	0.020	0.039	2.793	1.899	1.904	1.904	1.924	1.929	1.919
-0.005	0.015	0.005	0.000	-0.010	-0.005	0.039	2.725	1.909	1.904	1.904	1.924	1.924	1.914
0.000	0.000	0.005	-0.005	0.020	-0.029	0.039	2.847	1.924	1.904	1.899	1.924	1.929	1.909
0.000	0.000	0.000	-0.005	0.000	-0.034	0.044	2.632	1.909	1.904	1.904	1.924	1.919	1.909
0.005	0.000	-0.005	-0.005	0.015	-0.044	0.044	2.734	1.904	1.904	1.899	1.924	1.924	1.909
0.005	-0.015	-0.005	-0.005	0.029	-0.029	0.044	2.651	1.899	1.899	1.899	1.919	1.929	1.924
0.010	-0.020	-0.005	-0.005	0.171	-0.015	0.039	2.651	1.895	1.899	1.899	1.924	1.963	1.938
0.010	-0.005	-0.010	-0.005	0.215	0.000	0.044	2.622	1.890	1.899	1.899	1.919	1.958	1.948
0.005	-0.010	-0.005	0.000	0.171	0.000	0.044	2.744	1.909	1.899	1.899	1.919	1.938	1.943
-0.005	-0.005	0.000	0.000	0.088	0.005	0.039	2.651	1.904	1.899	1.899	1.919	1.904	1.934
-0.005	-0.005	0.000	0.005	0.029	-0.015	0.039	2.715	1.904	1.904	1.899	1.914	1.890	1.914
0.000	0.020	0.005	0.005	-0.005	0.010	0.039	2.671	1.904	1.909	1.904	1.919	1.890	1.914
0.000	0.015	0.005	0.000	-0.039	0.015	0.039	2.744	1.904	1.904	1.899	1.919	1.890	1.909
-0.010	0.010	0.000	0.000	-0.044	0.015	0.044	2.671	1.899	1.899	1.904	1.919	1.895	1.904
0.000	0.015	0.005	0.000	-0.044	0.000	0.039	2.690	1.904	1.899	1.904	1.919	1.899	1.899
0.000	0.005	0.000	0.005	-0.049	-0.005	0.044	2.676	1.899	1.899	1.899	1.919	1.904	1.899
-0.005	0.005	0.010	0.000	-0.039	0.015	0.039	2.676	1.899	1.895	1.899	1.919	1.909	1.909
0.000	0.005	0.005	0.005	-0.029	0.024	0.039	2.695	1.904	1.899	1.899	1.919	1.914	1.909
0.000	-0.005	0.005	0.000	-0.029	0.005	0.039	2.676	1.904	1.895	1.899	1.919	1.914	1.909
0.005	-0.010	0.000	0.000	-0.020	0.000	0.039	2.700	1.904	1.895	1.895	1.919	1.914	1.909
0.005	-0.010	0.000	0.000	-0.020	0.005	0.039	2.681	1.904	1.899	1.895	1.914	1.914	1.909
0.005	-0.015	0.000	0.000	-0.010	0.005	0.039	2.690	1.904	1.899	1.895	1.914	1.919	1.914
0.005	-0.010	-0.005	0.000	-0.005	-0.024	0.044	2.671	1.899	1.899	1.895	1.914	1.914	1.904
0.010	-0.015	-0.005	0.000	0.000	0.000	0.044	2.661	1.899	1.899	1.895	1.914	1.914	1.919
0.000	-0.015	-0.005	0.000	0.005	0.015	0.044	2.690	1.899	1.899	1.895	1.914	1.914	1.919
0.005	-0.015	0.000	0.000	0.010	0.020	0.044	2.671	1.904	1.899	1.895	1.914	1.914	1.919
0.005	-0.005	-0.005	0.000	0.010	0.005	0.039	2.676	1.899	1.899	1.895	1.914	1.914	1.909
0.005	-0.005	0.000	0.000	0.010	0.015	0.044	2.705	1.899	1.904	1.899	1.914	1.914	1.914
-0.005	0.015	0.000	0.000	0.005	0.010	0.039	2.700	1.904	1.904	1.899	1.919	1.909	1.909
0.005	0.000	0.000	0.010	0.005	0.005	0.039	2.715	1.909	1.904	1.899	1.919	1.914	1.909
0.000	0.015	0.005	0.005	0.010	0.000	0.039	2.676	1.904	1.904	1.904	1.919	1.914	1.909
-0.005	0.020	0.015	0.010	0.020	-0.010	0.044	2.710	1.904	1.909	1.904	1.919	1.914	1.904
-0.010	0.010	0.005	0.005	0.015	-0.005	0.044	2.705	1.904	1.899	1.904	1.919	1.914	1.914
-0.015	0.010	0.010	0.000	0.015	-0.005	0.044	2.695	1.904	1.899	1.899	1.919	1.914	1.914
-0.005	0.010	0.000	-0.005	0.010	-0.015	0.039	2.681	1.904	1.899	1.899	1.914	1.909	1.909
0.000	0.000	0.005	-0.005	0.010	0.000	0.044	2.686	1.904	1.899	1.899	1.919	1.914	1.914
-0.005	0.010	0.000	0.000	-0.010	-0.005	0.039	2.749	1.909	1.904	1.899	1.919	1.909	1.914
-0.005	0.005	0.000	-0.005	-0.029	-0.005	0.039	2.642	1.904	1.904	1.899	1.919	1.904	1.909
-0.005	0.000	0.000	0.000	-0.015	-0.010	0.039	2.656	1.899	1.899	1.899	1.914	1.909	1.909
0.010	-0.010	-0.005	0.000	-0.005	0.000	0.039	2.690	1.899	1.895	1.895	1.919	1.914	1.909
0.005	-0.010	-0.005	0.000	0.000	0.000	0.039	2.651	1.914	1.899	1.899	1.919	1.914	1.914
0.010	-0.005	-0.010	0.000	0.020	0.000	0.044	2.617	1.904	1.904	1.899	1.914	1.919	1.919
0.015	0.000	0.000	0.005	0.024	0.005	0.044	2.671	1.904	1.904	1.899	1.919	1.919	1.919
0.010	0.000	0.005	0.005	0.029	-0.010	0.039	2.715	1.904	1.904	1.904	1.919	1.914	1.914
0.000	0.000	0.000	0.000	0.024	0.005	0.039	2.627	1.914	1.904	1.904	1.919	1.919	1.919
0.000	0.010	0.005	0.000	0.005	0.010	0.039	2.739	1.919	1.909	1.904	1.919	1.909	1.914
-0.010	0.005	0.005	0.000	0.000	0.000	0.044	2.749	1.919	1.909	1.904	1.919	1.909	1.914
-0.005	0.005	0.005	-0.005	0.000	0.000	0.039	2.651	1.909	1.909	1.909	1.919	1.909	1.914
0.000	0.020	0.005	0.005	0.010	-0.005	0.039	2.754	1.919	1.919	1.909	1.924	1.919	1.909
-0.005	0.005	0.005	0.000	0.005	0.000	0.044	2.651	1.914	1.909	1.909	1.924	1.919	1.914
-0.010	0.005	0.005	0.000	0.005	0.015	0.039	2.715	1.904	1.909	1.909	1.924	1.914	1.919
-0.010	0.005	0.010	0.005	-0.005	0.005	0.039	2.671	1.899	1.904	1.909	1.924	1.919	1.914
0.015	-0.005	0.010	0.005	-0.005	0.005	0.039	2.617	1.909	1.904	1.904	1.929	1.919	1.914
0.005	-0.015	0.005	0.005	-0.015	-0.015	0.039	2.676	1.909	1.899	1.904	1.929	1.914	1.909
-0.005	-0.015	0.005	0.010	-0.010	0.005	0.044	2.695	1.899	1.899	1.899	1.924	1.919	1.919
0.010	-0.020	-0.005	0.005	-0.005	0.005	0.044	2.676	1.904	1.895	1.899	1.919	1.919	1.914
0.005	-0.015	-0.005	0.005	-0.005	0.005	0.044	2.695	1.899	1.899	1.895	1.919	1.919	1.919
0.010	-0.015	-0.005	0.000	0.015	-0.005	0.039	2.695	1.904	1.899	1.899	1.919	1.919	1.919
0.010	-0.010	-0.010	0.000	0.024	0.000	0.039	2.690	1.904	1.904	1.895	1.919	1.924	1.919
0.005	-0.010	-0.005	0.000	0.034	0.005	0.039	2.676	1.909	1.904	1.899	1.914	1.924	1.924
0.005	0.000	0.000	0.000	0.039	0.000	0.039	2.690	1.909	1.909	1.904	1.919	1.919	1.919
0.005	0.010	0.000	0.000	0.005	-0.020	0.039	2.676	1.904	1.909	1.904	1.919	1.909	1.914
-0.005	0.024	0.000	0.000	-0.005	-0.005	0.044	2.671	1.899	1.909	1.904	1.919	1.909	1.914
-0.015	0.044	0.010	0.005	-0.005	-0.010	0.039	2.690	1.899	1.914	1.909	1.924	1.909	1.909
-0.010	0.020	0.005	0.000	-0.015	-0.015	0.044	2.676	1.899	1.904	1.904	1.919	1.909	1.909
-0.005	0.015	0.000	0.000	0.020	-0.010	0.039	2.676	1.904	1.899	1.904	1.924	1.924	1.914
-0.005	0.010	0.010	0.000	0.010	0.000	0.044	2.676	1.904	1.899	1.904	1.924	1.919	1.919
0.000	0.000	0.005	0.005	-0.010	-0.005	0.044	2.686	1.904	1.895	1.899	1.924	1.909	1.919
0.000	0.005	0.010	0.005	-0.010	0.010	0.044	2.671	1.904	1.899	1.899	1.924	1.914	1.919
-0.010	-0.010	0.005	0.000	0.005	-0.005	0.039	2.676	1.904	1.895	1.895	1.919	1.919	1.914
0.005	0.000	0.000	0.005	0.005	0.010	0.039	2.666	1.904	1.899	1.895	1.919	1.919	1.919
0.000	-0.015	0.000	0.000	-0.015	-0.010	0.044	2.695	1.904	1.895	1.895	1.914	1.909	1.914
0.010	-0.015	0.005	-0.005	-0.039	0.015	0.044	2.700	1.909	1.899	1.895	1.914	1.904	1.914
0.000	-0.020	-0.005	-0.005	-0.054	0.024	0.044	2.700	1.904	1.899	1.895	1.914	1.899	1.909
0.010	-0.049	-0.005	0.000	-0.063	0.010	0.044	2.681	1.904	1.890	1.895	1.914	1.895	1.904
0.000	-0.010	-0.005	0.000	-0.083	0.015	0.039	2.690	1.899	1.899	1.895	1.909	1.895	1.904
0.000	-0.010	-0.005	0.000	-0.059	0.010	0.039	2.808	1.909	1.904	1.895	1.914	1.904	1.904
0.005	0.000	0.000	-0.005	-0.024	0.000	0.039	2.773	1.919	1.909	1.899	1.914	1.914	1.904
0.000	0.000	0.005	-0.005	-0.015	0.015	0.039	2.651	1.914	1.909	1.904	1.919	1.919	1.914
0.000	0.005	0.005	0.000	-0.010	0.005	0.039	2.686	1.909	1.909	1.904	1.919	1.914	1.909
-0.005	0.034	0.005	0.000	-0.005	0.000	0.039	2.788	1.890	1.914	1.909	1.919	1.919	1.919
-0.010	0.063	0.005	0.000	0.039	0.000	0.039	2.725	1.904	1.919	1.914	1.929	1.934	1.919
-0.005	0.034	0.005	0.000	0.078	0.015	0.044	2.837	1.919	1.909	1.909	1.929	1.943	1.929
-0.005	0.010	0.005	0.000	0.073	0.010	0.039	2.637	1.909	1.904	1.909	1.929	1.934	1.929
0.005	-0.015	0.000	0.000	0.034	-0.015	0.044	2.734	1.914	1.899	1.904	1.924	1.914	1.919
0.015	-0.015	0.005	0.000	-0.015	-0.029	0.039	2.754	1.919	1.904	1.904	1.924	1.904	1.909
0.010	-0.015	0.000	0.000	-0.020	-0.005	0.044	2.744	1.924	1.909	1.904	1.924	1.909	1.914
0.015	-0.024	-0.010	0.000	0.005	-0.005	0.039	2.646	1.909	1.904	1.899	1.924	1.914	1.919
0.015	-0.029	-0.005	0.000	-0.020	-0.015	0.039	2.705	1.909	1.909	1.904	1.924	1.909	1.909
0.010	-0.020	-0.005	0.000	-0.024	0.005	0.039	2.656	1.904	1.909	1.904	1.919	1.909	1.914
0.005	-0.010	0.000	0.000	-0.010	-0.020	0.039	2.632	1.895	1.909	1.904	1.924	1.914	1.909
0.010	-0.010	-0.005	0.000	0.029	-0.020	0.039	2.686	1.895	1.904	1.904	1.924	1.929	1.914
0.010	0.000	-0.005	-0.005	0.049	-0.020	0.039	2.720	1.904	1.904	1.904	1.924	1.929	1.919
0.000	0.005	0.000	-0.005	0.049	-0.044	0.044	2.690	1.909	1.904	1.904	1.924	1.924	1.914
0.005	-0.005	0.000	0.005	0.020	-0.015	0.044	2.681	1.904	1.904	1.904	1.924	1.919	1.919
-0.005	0.005	0.000	0.005	-0.020	0.024	0.039	2.695	1.904	1.904	1.904	1.924	1.904	1.929
-0.005	0.015	0.000	0.005	-0.078	0.034	0.039	2.676	1.904	1.909	1.904	1.919	1.895	1.924
-0.010	0.010	0.005	0.000	-0.068	0.034	0.039	2.681	1.904	1.904	1.904	1.924	1.909	1.914
-0.005	0.015	0.010	0.005	0.059	0.029	0.039	2.666	1.904	1.909	1.904	1.929	1.948	1.929
0.000	0.034	0.010	0.005	0.205	0.010	0.039	2.700	1.909	1.914	1.909	1.934	1.978	1.938
-0.010	0.034	0.010	0.005	0.186	0.015	0.039	2.710	1.909	1.909	1.909	1.929	1.953	1.943
0.000	-0.005	0.005	0.000	0.078	0.005	0.039	2.705	1.914	1.899	1.904	1.924	1.914	1.934
0.000	-0.005	0.000	0.000	0.010	-0.010	0.044	2.690	1.914	1.904	1.899	1.919	1.899	1.914
0.005	-0.005	0.000	0.000	-0.010	-0.010	0.044	2.671	1.909	1.909	1.904	1.919	1.899	1.914
0.005	-0.005	0.000	0.000	0.034	-0.005	0.039	2.666	1.909	1.904	1.904	1.924	1.919	1.914
0.005	0.005	-0.005	0.000	0.073	0.000	0.039	2.676	1.904	1.909	1.899	1.919	1.929	1.919
0.000	-0.005	-0.005	0.000	0.093	-0.005	0.039	2.695	1.904	1.904	1.904	1.924	1.929	1.924
0.000	0.005	-0.005	-0.005	0.088	0.005	0.039	2.700	1.909	1.909	1.899	1.919	1.924	1.924
0.000	0.000	0.000	0.005	0.073	-0.010	0.039	2.695	1.904	1.904	1.904	1.919	1.919	1.919
0.010	0.000	0.000	0.005	0.034	-0.005	0.039	2.695	1.909	1.904	1.904	1.919	1.904	1.914
0.010	0.000	0.000	0.005	-0.005	-0.005	0.044	2.690	1.909	1.904	1.904	1.924	1.899	1.909
0.000	0.005	0.005	0.000	-0.015	-0.034	0.044	2.690	1.904	1.909	1.904	1.919	1.899	1.899
0.000	0.005	0.005	0.005	-0.039	-0.010	0.044	2.700	1.904	1.904	1.904	1.924	1.899	1.904
-0.005	0.015	0.005	0.005	-0.049	-0.020	0.039	2.700	1.904	1.904	1.904	1.924	1.899	1.899
-0.005	0.000	0.005	0.005	-0.068	0.005	0.044	2.686	1.904	1.904	1.904	1.924	1.904	1.904
0.000	0.010	0.010	0.005	-0.063	-0.005	0.039	2.686	1.899	1.904	1.904	1.924	1.909	1.904
0.000	0.005	0.000	0.005	-0.059	0.005	0.044	2.822	1.914	1.904	1.899	1.924	1.909	1.909
0.000	-0.005	0.005	0.005	-0.054	-0.005	0.039	2.773	1.924	1.909	1.904	1.924	1.914	1.909
-0.005	-0.015	0.005	0.005	-0.049	0.005	0.039	2.661	1.914	1.904	1.899	1.924	1.919	1.914
-0.010	-0.005	0.005	0.005	-0.039	0.010	0.044	2.681	1.909	1.909	1.904	1.919	1.919	1.914
0.005	-0.015	0.000	0.000	-0.010	0.010	0.044	2.773	1.904	1.904	1.904	1.924	1.929	1.919
0.010	-0.015	0.000	0.005	-0.024	-0.005	0.039	2.729	1.909	1.904	1.904	1.919	1.919	1.914
0.005	-0.010	0.000	0.005	-0.024	0.005	0.044	2.827	1.924	1.909	1.904	1.919	1.919	1.924
0.010	-0.005	-0.010	0.005	-0.024	0.020	0.044	2.720	1.924	1.914	1.904	1.919	1.914	1.924
0.005	-0.005	-0.005	0.000	-0.034	0.015	0.039	2.734	1.909	1.909	1.909	1.924	1.914	1.919
0.005	-0.005	-0.005	0.005	-0.029	0.020	0.039	2.617	1.899	1.909	1.909	1.924	1.919	1.919
0.000	0.000	0.000	0.010	-0.015	0.010	0.039	2.749	1.909	1.909	1.909	1.924	1.924	1.914
0.000	0.000	0.000	0.005	0.005	0.015	0.044	2.651	1.899	1.904	1.909	1.924	1.929	1.924
-0.005	0.005	0.000	0.000	0.024	-0.005	0.039	2.651	1.895	1.904	1.904	1.929	1.929	1.919
-0.005	0.010	0.000	0.005	0.044	0.005	0.039	2.676	1.895	1.899	1.909	1.929	1.934	1.929
-0.005	0.005	0.005	0.005	0.034	0.015	0.044	2.622	1.895	1.904	1.904	1.929	1.929	1.929
-0.005	0.020	0.010	0.000	0.024	0.005	0.039	2.686	1.899	1.904	1.904	1.924	1.924	1.924
-0.005	0.024	0.005	0.000	0.010	-0.005	0.044	2.744	1.909	1.904	1.904	1.924	1.919	1.919
-0.010	0.000	0.005	0.000	0.000	-0.010	0.039	2.666	1.899	1.899	1.899	1.924	1.914	1.919
-0.005	0.000	0.000	0.005	0.000	-0.015	0.044	2.700	1.909	1.899	1.899	1.924	1.914	1.914
-0.005	-0.005	0.005	0.005	-0.005	-0.010	0.039	2.686	1.904	1.895	1.899	1.919	1.914	1.919
-0.005	-0.010	0.000	0.005	0.005	-0.005	0.039	2.676	1.904	1.899	1.899	1.919	1.919	1.919
0.005	-0.015	-0.005	0.000	0.010	-0.010	0.039	2.671	1.904	1.899	1.895	1.914	1.919	1.919
0.010	-0.010	-0.005	0.000	0.010	0.000	0.039	2.671	1.904	1.899	1.895	1.919	1.914	1.919
0.000	0.020	-0.005	0.000	0.015	0.000	0.039	2.681	1.904	1.909	1.899	1.919	1.914	1.914
-0.005	0.029	0.000	0.005	0.010	0.005	0.044	2.690	1.904	1.909	1.904	1.919	1.914	1.919
-0.010	0.034	-0.005	0.005	0.010	0.015	0.039	2.671	1.899	1.904	1.904	1.919	1.914	1.924
-0.020	0.010	-0.005	-0.005	0.015	0.024	0.044	2.666	1.899	1.895	1.899	1.919	1.914	1.919
-0.005	-0.005	0.000	0.005	0.005	0.034	0.044	2.661	1.904	1.895	1.899	1.914	1.914	1.924
0.005	-0.010	-0.005	0.000	-0.005	0.024	0.039	2.681	1.904	1.895	1.895	1.919	1.909	1.914
0.005	0.005	0.000	0.000	-0.034	0.010	0.039	2.671	1.904	1.899	1.899	1.914	1.899	1.904
0.010	0.010	0.005	0.000	-0.054	-0.005	0.039	2.695	1.909	1.904	1.899	1.914	1.899	1.899
-0.005	0.005	0.005	0.000	-0.059	0.010	0.039	2.700	1.904	1.899	1.899	1.914	1.899	1.904
-0.005	0.015	0.005	-0.005	-0.122	0.005	0.039	2.671	1.904	1.904	1.899	1.914	1.885	1.899
0.000	0.005	0.005	-0.005	-0.151	0.015	0.044	2.705	1.909	1.899	1.899	1.914	1.885	1.895
0.005	-0.010	0.005	0.005	-0.142	0.000	0.039	2.695	1.904	1.899	1.899	1.919	1.895	1.890
0.005	-0.015	0.005	0.000	-0.078	0.020	0.044	2.695	1.909	1.899	1.899	1.919	1.919	1.909
0.010	-0.010	0.005	-0.005	-0.049	-0.015	0.044	2.690	1.904	1.899	1.899	1.919	1.924	1.899
0.005	0.005	-0.005	0.000	-0.020	-0.044	0.044	2.695	1.904	1.904	1.899	1.919	1.929	1.899
0.010	0.005	-0.005	0.000	0.020	-0.059	0.044	2.671	1.899	1.904	1.899	1.919	1.934	1.904
0.005	0.015	0.000	0.000	0.034	-0.054	0.044	2.690	1.899	1.904	1.904	1.919	1.934	1.914
0.010	0.020	0.005	0.000	0.029	-0.054	0.039	2.749	1.909	1.904	1.899	1.919	1.929	1.919
-0.005	0.015	0.000	-0.005	0.049	-0.015	0.039	2.773	1.909	1.904	1.904	1.919	1.934	1.934
0.000	0.015	0.000	-0.005	0.063	0.005	0.039	2.656	1.909	1.904	1.899	1.919	1.929	1.938
0.005	0.000	0.000	-0.005	0.078	0.049	0.044	2.686	1.909	1.899	1.899	1.919	1.934	1.948
0.000	-0.010	0.000	-0.005	0.107	0.059	0.044	2.783	1.904	1.899	1.899	1.919	1.934	1.953
0.010	-0.005	0.000	-0.005	0.137	0.063	0.044	2.734	1.914	1.904	1.899	1.919	1.938	1.948
0.010	-0.020	0.005	-0.005	0.151	0.024	0.039	2.822	1.929	1.909	1.904	1.919	1.934	1.934
0.010	-0.029	0.000	0.000	0.146	0.034	0.044	2.651	1.938	1.914	1.904	1.924	1.929	1.934
0.005	-0.029	0.010	0.000	0.098	-0.005	0.039	2.749	1.924	1.914	1.909	1.924	1.909	1.919
0.010	-0.020	0.005	0.005	0.039	-0.029	0.039	2.637	1.909	1.919	1.909	1.924	1.899	1.904
0.000	0.000	0.000	0.000	0.000	-0.063	0.039	2.734	1.914	1.924	1.909	1.924	1.895	1.890
-0.005	0.000	0.005	0.000	-0.034	-0.039	0.039	2.617	1.899	1.914	1.909	1.924	1.890	1.899
0.005	-0.005	0.005	0.005	-0.059	-0.020	0.039	2.749	1.909	1.909	1.909	1.924	1.895	1.904
0.020	-0.010	0.000	0.000	-0.078	0.000	0.039	2.637	1.904	1.904	1.904	1.924	1.895	1.904
0.010	-0.024	0.000	0.005	-0.098	-0.020	0.044	2.617	1.890	1.899	1.904	1.924	1.895	1.895
-0.005	-0.005	0.000	0.005	-0.107	0.005	0.039	2.681	1.890	1.899	1.899	1.924	1.899	1.904
0.010	-0.015	0.000	-0.005	-0.112	0.010	0.039	2.710	1.899	1.895	1.899	1.919	1.904	1.909
0.010	-0.005	0.000	0.000	-0.049	0.015	0.044	2.671	1.895	1.899	1.899	1.919	1.924	1.914
0.000	0.000	0.005	0.005	-0.005	0.020	0.044	2.705	1.899	1.899	1.899	1.924	1.934	1.924
-0.005	0.010	0.005	0.000	-0.010	0.020	0.044	2.710	1.904	1.899	1.899	1.919	1.929	1.924
0.005	0.049	0.000	0.005	-0.034	0.029	0.044	2.666	1.904	1.914	1.904	1.919	1.914	1.924
0.010	0.054	0.000	0.005	-0.044	0.015	0.039	2.690	1.904	1.909	1.904	1.924	1.914	1.919
-0.005	0.044	0.000	0.000	-0.044	0.005	0.039	2.700	1.904	1.904	1.904	1.924	1.914	1.914
-0.020	0.010	0.005	0.000	-0.039	0.005	0.039	2.671	1.899	1.895	1.899	1.919	1.919	1.914
-0.015	0.020	0.005	0.010	-0.020	0.000	0.044	2.676	1.899	1.904	1.904	1.919	1.924	1.914
-0.015	0.044	0.005	0.000	0.039	-0.005	0.039	2.700	1.899	1.904	1.904	1.924	1.934	1.919
-0.020	0.015	0.005	0.000	0.059	0.029	0.039	2.681	1.904	1.895	1.899	1.924	1.938	1.934
-0.010	-0.015	0.010	0.000	0.034	0.063	0.039	2.666	1.904	1.890	1.895	1.919	1.929	1.943
0.005	-0.020	0.005	0.005	0.020	0.063	0.039	2.695	1.909	1.895	1.895	1.919	1.919	1.938
0.000	0.000	0.005	0.000	0.029	0.044	0.039	2.681	1.909	1.904	1.895	1.919	1.919	1.924
0.000	-0.005	0.000	0.000	0.044	0.059	0.039	2.705	1.909	1.904	1.895	1.914	1.924	1.929
0.005	0.000	-0.005	0.000	0.093	0.024	0.039	2.695	1.914	1.904	1.899	1.919	1.934	1.924
0.015	-0.005	0.000	0.000	0.186	0.010	0.044	2.695	1.909	1.904	1.899	1.919	1.953	1.929
0.010	-0.029	0.000	0.000	0.269	0.000	0.039	2.700	1.909	1.899	1.899	1.919	1.963	1.934
0.010	-0.024	-0.005	0.005	0.151	-0.010	0.039	2.661	1.909	1.904	1.899	1.919	1.914	1.924
0.005	-0.015	-0.005	0.000	0.015	-0.005	0.039	2.700	1.909	1.904	1.899	1.914	1.875	1.909
0.005	0.000	0.005	0.000	-0.039	-0.010	0.039	2.705	1.914	1.909	1.899	1.914	1.875	1.899
0.010	0.000	0.005	0.000	-0.049	-0.020	0.039	2.686	1.904	1.914	1.904	1.914	1.880	1.890
-0.005	0.010	0.000	0.005	-0.059	-0.010	0.044	2.681	1.899	1.904	1.904	1.919	1.885	1.890
-0.005	0.010	0.000	0.005	-0.054	-0.010	0.039	2.681	1.899	1.904	1.904	1.919	1.895	1.895
-0.005	0.000	0.010	0.005	-0.063	-0.015	0.044	2.817	1.914	1.904	1.904	1.919	1.899	1.890
-0.005	0.015	0.005	0.005	-0.063	-0.024	0.044	2.788	1.919	1.909	1.904	1.924	1.904	1.895
-0.005	0.000	0.005	0.005	-0.049	-0.020	0.044	2.656	1.909	1.909	1.904	1.924	1.914	1.899
0.000	-0.005	0.005	0.005	-0.029	0.005	0.039	2.686	1.909	1.904	1.904	1.924	1.919	1.909
0.005	0.005	0.000	0.010	-0.039	0.010	0.039	2.783	1.919	1.914	1.904	1.919	1.914	1.914
0.005	0.000	0.000	0.000	-0.054	-0.010	0.039	2.729	1.919	1.914	1.909	1.924	1.914	1.909
0.000	0.015	-0.005	0.000	-0.034	0.010	0.039	2.832	1.929	1.919	1.909	1.924	1.919	1.919
0.005	0.010	-0.005	0.000	-0.024	0.000	0.039	2.622	1.914	1.919	1.909	1.924	1.924	1.919
0.005	0.010	-0.005	0.000	-0.020	0.000	0.044	2.734	1.899	1.914	1.909	1.924	1.924	1.919
0.010	-0.015	0.000	0.000	-0.020	-0.005	0.039	2.656	1.899	1.904	1.909	1.924	1.919	1.919
0.010	-0.010	-0.005	0.005	0.000	-0.015	0.044	2.749	1.909	1.899	1.904	1.924	1.929	1.919
0.015	-0.020	-0.005	0.005	0.000	-0.005	0.039	2.734	1.914	1.904	1.904	1.924	1.929	1.924
0.010	-0.010	-0.005	0.005	0.005	-0.024	0.044	2.651	1.904	1.904	1.904	1.924	1.924	1.919
0.010	-0.010	-0.005	0.000	-0.010	-0.010	0.039	2.666	1.904	1.904	1.904	1.919	1.919	1.924
0.005	-0.029	0.000	0.005	-0.005	0.005	0.039	2.637	1.895	1.895	1.899	1.924	1.919	1.924
0.005	-0.034	0.000	0.000	-0.010	0.015	0.039	2.666	1.895	1.895	1.899	1.919	1.919	1.929
0.005	-0.010	0.000	-0.005	-0.005	0.015	0.039	2.739	1.904	1.904	1.899	1.919	1.919	1.924
-0.005	0.039	0.005	-0.005	0.010	0.000	0.039	2.700	1.904	1.919	1.909	1.919	1.919	1.919
-0.010	0.039	0.015	0.000	-0.005	-0.024	0.044	2.686	1.899	1.914	1.909	1.924	1.914	1.909
-0.020	0.024	0.015	-0.005	-0.010	-0.034	0.039	2.710	1.904	1.909	1.909	1.924	1.914	1.909
-0.020	0.049	0.005	0.005	-0.024	-0.029	0.044	2.700	1.904	1.914	1.909	1.924	1.909	1.909
-0.005	0.039	0.000	0.005	-0.059	-0.024	0.039	2.700	1.909	1.904	1.904	1.924	1.904	1.909
0.005	-0.015	0.000	0.005	-0.132	-0.020	0.044	2.681	1.904	1.895	1.899	1.924	1.885	1.904
0.010	-0.029	0.000	0.005	-0.190	-0.029	0.044	2.686	1.904	1.890	1.895	1.919	1.880	1.895
0.005	-0.024	-0.005	0.005	-0.181	0.005	0.039	2.705	1.904	1.895	1.895	1.919	1.895	1.899
0.015	-0.005	0.000	0.005	-0.103	0.000	0.044	2.695	1.904	1.899	1.895	1.914	1.919	1.909
0.005	0.024	-0.005	0.010	-0.034	0.005	0.039	2.676	1.899	1.909	1.899	1.919	1.938	1.919
-0.005	0.015	-0.010	0.005	0.000	-0.005	0.044	2.661	1.899	1.899	1.899	1.919	1.943	1.924
-0.015	0.000	0.000	0.010	0.010	0.005	0.044	2.690	1.899	1.895	1.899	1.919	1.938	1.929
0.000	-0.010	-0.005	0.010	0.044	0.010	0.039	2.666	1.904	1.895	1.895	1.919	1.938	1.934
0.000	-0.024	0.000	0.005	0.083	-0.015	0.039	2.690	1.909	1.895	1.895	1.914	1.943	1.929
0.005	-0.015	0.000	0.000	0.103	0.024	0.044	2.690	1.914	1.899	1.895	1.914	1.938	1.943
-0.005	-0.015	0.000	0.000	0.098	0.039	0.039	2.705	1.914	1.904	1.899	1.914	1.934	1.943
-0.005	0.000	0.005	0.000	0.093	0.044	0.039	2.700	1.914	1.909	1.899	1.919	1.924	1.943
0.000	-0.005	0.010	0.010	0.068	0.034	0.039	2.700	1.919	1.909	1.904	1.919	1.914	1.934
-0.005	0.010	0.010	0.000	0.073	0.034	0.039	2.695	1.919	1.914	1.909	1.919	1.919	1.929
0.010	0.000	0.010	0.005	0.063	0.034	0.039	2.705	1.924	1.914	1.909	1.924	1.914	1.924
0.005	0.010	0.000	0.005	0.059	0.010	0.039	2.700	1.919	1.919	1.909	1.924	1.914	1.914
-0.005	0.024	0.000	0.000	0.044	0.010	0.039	2.671	1.909	1.919	1.914	1.924	1.909	1.909
-0.005	0.029	-0.005	0.005	0.068	-0.010	0.039	2.686	1.909	1.919	1.914	1.929	1.924	1.909
0.015	0.020	-0.005	0.005	0.098	-0.010	0.039	2.812	1.929	1.919	1.914	1.929	1.929	1.914
0.010	-0.010	-0.005	0.000	0.098	-0.020	0.044	2.734	1.929	1.914	1.909	1.929	1.929	1.914
0.000	0.010	-0.005	0.000	0.068	-0.015	0.039	2.656	1.914	1.919	1.909	1.929	1.919	1.919
-0.005	0.000	0.000	-0.005	0.020	-0.005	0.044	2.671	1.909	1.909	1.909	1.929	1.909	1.919
0.005	-0.005	-0.005	0.000	0.020	-0.020	0.044	2.773	1.924	1.914	1.909	1.929	1.914	1.909
0.005	-0.010	-0.005	0.000	0.015	-0.034	0.044	2.744	1.919	1.909	1.909	1.929	1.909	1.904
0.005	-0.020	-0.005	0.000	-0.020	-0.054	0.044	2.773	1.924	1.909	1.909	1.924	1.904	1.899
0.010	-0.015	0.000	0.005	-0.024	-0.073	0.039	2.646	1.914	1.914	1.909	1.929	1.909	1.895
0.000	0.005	0.000	0.000	-0.024	-0.068	0.039	2.729	1.909	1.914	1.909	1.929	1.909	1.899
-0.005	0.000	-0.005	0.000	-0.029	-0.039	0.039	2.632	1.899	1.909	1.909	1.929	1.914	1.914
-0.005	0.005	0.010	-0.005	-0.049	-0.005	0.044	2.749	1.904	1.909	1.909	1.924	1.914	1.919
-0.020	0.000	0.005	-0.005	-0.039	0.015	0.039	2.651	1.899	1.904	1.909	1.929	1.919	1.929
-0.010	-0.010	0.005	-0.005	-0.015	0.010	0.044	2.632	1.914	1.904	1.909	1.929	1.929	1.929
-0.029	0.015	0.005	-0.005	-0.024	0.010	0.044	2.651	1.904	1.909	1.909	1.929	1.924	1.929
-0.015	0.024	0.005	0.000	-0.010	-0.024	0.044	2.734	1.914	1.914	1.909	1.929	1.929	1.919
-0.005	0.005	0.005	0.005	0.000	-0.015	0.044	2.681	1.919	1.909	1.909	1.929	1.929	1.919
0.000	-0.015	-0.005	-0.005	-0.015	-0.015	0.039	2.725	1.919	1.904	1.904	1.924	1.924	1.924
0.010	-0.005	-0.005	-0.005	0.000	-0.015	0.039	2.671	1.914	1.914	1.909	1.924	1.929	1.929
0.005	-0.010	-0.005	-0.005	0.015	0.005	0.039	2.681	1.909	1.909	1.904	1.924	1.929	1.934
0.015	-0.049	-0.005	-0.005	0.039	0.010	0.044	2.700	1.914	1.899	1.904	1.924	1.934	1.934
0.029	-0.034	-0.005	0.000	0.044	0.039	0.039	2.690	1.914	1.904	1.904	1.924	1.934	1.943
0.024	-0.024	0.000	0.005	0.068	0.015	0.039	2.671	1.914	1.914	1.909	1.929	1.934	1.934
0.015	-0.005	0.000	0.005	0.059	0.020	0.039	2.666	1.904	1.914	1.909	1.929	1.929	1.934
0.010	0.005	0.005	0.005	0.034	0.024	0.044	2.695	1.909	1.914	1.909	1.929	1.919	1.929
0.005	0.024	0.000	0.000	-0.005	0.024	0.044	2.681	1.909	1.914	1.909	1.924	1.909	1.924
-0.005	0.039	0.005	-0.005	-0.063	0.034	0.039	2.705	1.904	1.914	1.914	1.924	1.895	1.919
0.005	-0.005	0.005	-0.005	-0.049	0.049	0.039	2.681	1.904	1.899	1.909	1.924	1.909	1.919
0.000	-0.020	0.005	-0.010	-0.059	0.034	0.044	2.671	1.899	1.899	1.904	1.924	1.909	1.914
-0.005	0.000	0.010	-0.005	-0.039	0.005	0.044	2.666	1.895	1.904	1.909	1.924	1.919	1.909
-0.010	-0.005	0.010	0.000	-0.020	0.005	0.039	2.676	1.895	1.899	1.904	1.929	1.924	1.909
-0.005	-0.005	0.000	0.005	-0.015	-0.029	0.039	2.700	1.904	1.899	1.899	1.929	1.924	1.904
0.000	0.000	0.010	0.005	0.010	-0.029	0.039	2.681	1.904	1.904	1.899	1.924	1.929	1.914
-0.020	0.063	0.000	0.005	0.005	-0.034	0.039	2.686	1.904	1.919	1.904	1.924	1.929	1.914
-0.015	0.073	-0.005	0.005	0.000	-0.020	0.044	2.705	1.909	1.919	1.909	1.924	1.924	1.924
0.005	-0.005	0.000	0.000	-0.010	0.010	0.039	2.700	1.909	1.890	1.899	1.924	1.924	1.929
0.010	-0.039	0.000	0.000	0.010	0.010	0.044	2.700	1.914	1.890	1.895	1.919	1.924	1.929
0.005	-0.024	0.000	0.005	0.010	0.029	0.044	2.695	1.914	1.899	1.899	1.919	1.924	1.929
0.010	-0.034	0.000	0.000	0.073	-0.005	0.044	2.676	1.909	1.899	1.899	1.919	1.938	1.924
0.010	-0.029	-0.005	0.000	0.117	-0.020	0.039	2.686	1.909	1.904	1.899	1.919	1.938	1.929
0.010	-0.024	-0.005	0.000	0.039	-0.015	0.039	2.676	1.909	1.909	1.899	1.914	1.909	1.919
0.024	0.010	-0.005	0.000	0.010	-0.010	0.039	2.759	1.924	1.924	1.904	1.914	1.904	1.914
0.010	0.010	0.005	-0.005	-0.044	-0.020	0.039	2.646	1.909	1.914	1.909	1.919	1.890	1.904
0.005	-0.005	0.005	0.005	-0.039	-0.044	0.039	2.661	1.904	1.909	1.904	1.924	1.899	1.899
-0.010	0.000	0.005	0.000	-0.044	-0.054	0.039	2.695	1.895	1.909	1.909	1.919	1.904	1.895
-0.010	0.034	0.000	0.000	-0.044	-0.054	0.039	2.646	1.909	1.914	1.909	1.924	1.909	1.899
-0.015	0.029	0.010	0.000	-0.059	-0.020	0.044	2.627	1.899	1.909	1.909	1.924	1.909	1.909
-0.010	0.015	0.015	0.000	-0.029	0.000	0.044	2.671	1.899	1.899	1.909	1.924	1.919	1.924
-0.010	0.015	0.005	0.000	-0.015	0.005	0.039	2.622	1.895	1.899	1.904	1.929	1.924	1.924
-0.010	0.024	0.010	0.005	-0.024	0.000	0.044	2.715	1.909	1.904	1.904	1.929	1.919	1.919
-0.005	0.020	0.005	-0.005	-0.029	-0.015	0.044	2.632	1.904	1.904	1.904	1.924	1.914	1.919
-0.010	0.020	0.005	-0.005	-0.034	0.015	0.039	2.744	1.909	1.899	1.899	1.924	1.919	1.924
0.000	-0.005	0.005	0.000	-0.029	0.010	0.039	2.632	1.899	1.895	1.899	1.919	1.919	1.919
0.000	-0.024	-0.005	0.000	-0.034	0.034	0.044	2.739	1.914	1.895	1.895	1.919	1.919	1.929
0.005	-0.010	-0.005	0.000	-0.015	0.034	0.039	2.666	1.909	1.899	1.895	1.919	1.924	1.924
0.010	-0.034	-0.010	-0.005	0.010	0.044	0.044	2.646	1.904	1.895	1.895	1.914	1.924	1.934
0.005	-0.015	-0.010	-0.005	0.039	0.054	0.039	2.681	1.904	1.904	1.895	1.914	1.929	1.934
0.000	-0.005	-0.005	0.000	0.054	0.049	0.044	2.617	1.899	1.904	1.899	1.919	1.929	1.929
0.000	0.005	-0.005	0.000	0.054	0.054	0.039	2.666	1.899	1.904	1.899	1.914	1.924	1.934
0.000	0.010	-0.005	0.000	0.039	0.044	0.044	2.666	1.899	1.904	1.899	1.919	1.914	1.924
-0.010	0.029	-0.005	0.005	0.020	0.020	0.039	2.676	1.899	1.909	1.904	1.919	1.909	1.914
-0.015	0.034	-0.005	0.000	0.005	0.010	0.039	2.676	1.899	1.904	1.904	1.914	1.904	1.909
-0.005	0.020	0.000	0.000	0.005	-0.005	0.039	2.700	1.904	1.899	1.904	1.919	1.909	1.904
-0.005	0.005	0.010	0.005	0.005	-0.010	0.039	2.700	1.909	1.895	1.899	1.924	1.909	1.904
-0.010	-0.010	0.005	0.010	0.005	-0.020	0.039	2.690	1.899	1.895	1.899	1.924	1.914	1.904
0.010	-0.020	0.010	0.005	0.000	-0.010	0.044	2.671	1.909	1.895	1.895	1.919	1.909	1.914
0.005	-0.010	0.005	0.000	-0.005	0.010	0.044	2.676	1.904	1.904	1.895	1.919	1.909	1.914
0.010	-0.020	0.005	-0.005	0.000	0.005	0.044	2.686	1.909	1.899	1.899	1.914	1.909	1.914
0.020	-0.010	0.005	0.000	-0.005	-0.020	0.039	2.686	1.909	1.904	1.899	1.914	1.909	1.904
0.020	-0.029	0.000	0.005	0.000	-0.020	0.044	2.695	1.904	1.895	1.895	1.914	1.914	1.909
0.020	-0.029	0.000	0.005	0.005	-0.010	0.039	2.676	1.904	1.899	1.899	1.914	1.914	1.914
0.020	0.029	0.005	0.010	0.000	-0.010	0.039	2.671	1.904	1.914	1.904	1.919	1.909	1.914
0.005	-0.005	0.000	0.010	0.005	0.005	0.039	2.661	1.895	1.899	1.899	1.914	1.914	1.919
0.010	-0.020	0.000	0.015	0.000	0.020	0.044	2.676	1.899	1.895	1.895	1.919	1.909	1.919
0.015	-0.034	0.000	0.005	0.000	0.015	0.039	2.676	1.904	1.890	1.895	1.914	1.909	1.914
0.010	-0.010	0.005	0.005	0.000	0.015	0.044	2.666	1.899	1.904	1.899	1.914	1.909	1.914
-0.005	0.044	0.000	0.010	0.005	0.020	0.039	2.695	1.899	1.914	1.899	1.914	1.914	1.914
-0.010	0.049	0.005	0.015	0.005	0.020	0.044	2.686	1.899	1.914	1.904	1.919	1.914	1.914
-0.024	0.063	0.010	0.005	-0.020	0.020	0.039	2.690	1.899	1.909	1.909	1.919	1.909	1.909
-0.020	0.015	0.010	0.000	-0.039	0.029	0.039	2.681	1.895	1.895	1.899	1.914	1.904	1.914
0.000	0.029	0.005	0.000	-0.034	0.020	0.039	2.700	1.904	1.904	1.904	1.914	1.904	1.909
0.000	-0.005	0.005	0.000	-0.044	0.015	0.039	2.808	1.919	1.895	1.899	1.919	1.904	1.904
-0.005	0.015	0.005	0.005	-0.010	0.015	0.044	2.681	1.924	1.909	1.904	1.924	1.919	1.909
0.005	-0.005	0.000	0.005	0.000	0.015	0.044	2.651	1.914	1.904	1.899	1.919	1.919	1.914
0.000	-0.015	-0.005	0.005	-0.005	0.015	0.044	2.671	1.909	1.904	1.899	1.919	1.919	1.914
0.005	0.029	-0.005	0.000	0.020	0.010	0.039	2.773	1.919	1.919	1.904	1.919	1.924	1.914
0.005	0.010	-0.005	0.000	0.024	0.010	0.044	2.729	1.924	1.909	1.904	1.919	1.924	1.914
0.000	-0.015	-0.005	0.005	0.034	-0.024	0.044	2.734	1.924	1.904	1.904	1.919	1.924	1.909
-0.005	-0.034	-0.005	0.000	0.044	-0.010	0.044	2.646	1.914	1.904	1.904	1.919	1.924	1.919
-0.005	-0.029	0.000	0.005	0.059	-0.020	0.039	2.739	1.914	1.904	1.904	1.924	1.924	1.919
0.005	-0.034	0.000	0.000	0.059	-0.010	0.044	2.734	1.919	1.909	1.904	1.924	1.924	1.924
0.000	-0.024	0.005	0.005	0.039	0.000	0.039	2.661	1.914	1.909	1.909	1.924	1.919	1.924
-0.005	0.034	0.010	0.005	0.015	0.010	0.044	2.734	1.914	1.929	1.914	1.924	1.914	1.919
0.000	0.024	0.010	0.010	-0.020	0.024	0.044	2.739	1.919	1.924	1.914	1.929	1.904	1.919
0.015	0.000	0.015	0.010	-0.029	0.020	0.044	2.671	1.919	1.914	1.914	1.929	1.909	1.914
0.010	0.020	0.005	0.000	-0.029	0.029	0.039	2.744	1.919	1.919	1.914	1.929	1.914	1.914
0.005	0.049	0.005	0.000	-0.029	0.015	0.039	2.651	1.909	1.924	1.914	1.929	1.914	1.914
0.000	0.020	0.005	-0.005	-0.024	0.010	0.039	2.734	1.909	1.914	1.914	1.929	1.924	1.914
-0.015	0.005	-0.005	-0.005	-0.015	0.015	0.039	2.700	1.909	1.909	1.909	1.929	1.924	1.919
0.000	0.020	-0.015	-0.005	-0.015	0.020	0.039	2.676	1.914	1.909	1.904	1.929	1.924	1.919
0.015	-0.010	-0.020	-0.005	-0.015	0.015	0.044	2.661	1.909	1.904	1.904	1.924	1.924	1.924
0.015	-0.034	-0.024	0.000	-0.024	-0.005	0.039	2.661	1.904	1.895	1.899	1.924	1.919	1.914
0.024	-0.034	-0.020	-0.005	-0.029	-0.005	0.044	2.676	1.904	1.899	1.899	1.919	1.914	1.914
0.024	0.000	-0.010	-0.005	-0.024	-0.020	0.039	2.690	1.909	1.909	1.904	1.924	1.919	1.914
0.029	0.020	-0.005	-0.015	0.000	-0.039	0.039	2.671	1.909	1.914	1.909	1.924	1.924	1.909
0.010	0.029	-0.005	-0.010	0.000	-0.034	0.044	2.690	1.899	1.914	1.909	1.924	1.924	1.914
-0.020	0.024	0.000	0.000	0.005	-0.034	0.039	2.695	1.895	1.909	1.909	1.929	1.924	1.914
-0.020	0.015	0.005	0.010	-0.005	-0.024	0.039	2.676	1.895	1.899	1.904	1.929	1.919	1.924
-0.024	0.015	0.015	0.020	-0.020	-0.005	0.044	2.676	1.895	1.899	1.904	1.934	1.919	1.924
-0.029	0.039	0.015	0.024	-0.005	0.034	0.039	2.666	1.895	1.904	1.904	1.929	1.929	1.938
-0.034	0.049	0.015	0.024	-0.015	0.034	0.044	2.671	1.899	1.899	1.904	1.929	1.924	1.934
-0.020	0.015	0.015	0.020	-0.015	0.039	0.044	2.676	1.904	1.895	1.899	1.929	1.924	1.929
-0.005	-0.010	0.015	0.020	0.029	0.034	0.039	2.686	1.909	1.895	1.895	1.924	1.934	1.934
0.005	0.000	0.015	0.010	0.024	0.024	0.039	2.676	1.909	1.899	1.899	1.919	1.924	1.929
-0.005	0.000	0.010	0.005	0.029	0.010	0.039	2.710	1.914	1.904	1.895	1.919	1.924	1.924
-0.005	-0.015	0.005	0.000	0.020	-0.010	0.039	2.666	1.909	1.899	1.895	1.914	1.919	1.914
0.005	-0.049	0.005	0.005	0.029	-0.039	0.039	2.690	1.909	1.895	1.895	1.914	1.914	1.909
0.010	-0.005	0.000	0.000	0.024	-0.039	0.044	2.700	1.914	1.909	1.895	1.914	1.909	1.909
0.010	0.005	-0.005	0.000	0.000	-0.044	0.044	2.681	1.909	1.914	1.899	1.914	1.904	1.904
0.015	-0.063	-0.005	0.000	-0.015	-0.054	0.039	2.676	1.904	1.890	1.895	1.909	1.904	1.904
0.020	-0.093	0.000	-0.005	-0.020	-0.044	0.044	2.690	1.904	1.880	1.895	1.909	1.899	1.904
0.015	-0.044	0.000	-0.015	-0.039	-0.024	0.044	2.822	1.919	1.909	1.899	1.909	1.895	1.904
0.020	0.034	-0.005	-0.010	-0.063	0.005	0.044	2.769	1.929	1.938	1.904	1.909	1.895	1.909
0.005	0.000	0.000	-0.005	-0.068	0.024	0.044	2.646	1.909	1.914	1.904	1.919	1.899	1.909
-0.005	-0.024	0.005	-0.005	-0.083	0.010	0.039	2.676	1.899	1.904	1.909	1.919	1.895	1.904
-0.005	0.024	0.000	0.000	-0.093	0.010	0.039	2.783	1.914	1.924	1.914	1.924	1.899	1.904
0.000	0.093	0.000	0.005	-0.083	0.000	0.039	2.725	1.919	1.938	1.919	1.929	1.909	1.904
-0.005	0.063	-0.010	0.010	-0.063	0.015	0.044	2.808	1.929	1.924	1.919	1.934	1.919	1.914
-0.010	-0.010	-0.010	0.005	-0.029	0.020	0.044	2.612	1.904	1.895	1.909	1.929	1.934	1.919
0.005	-0.020	-0.010	-0.005	0.000	0.000	0.039	2.734	1.914	1.899	1.909	1.929	1.934	1.919
0.000	-0.010	-0.005	-0.010	0.015	0.005	0.044	2.651	1.904	1.904	1.909	1.929	1.938	1.924
-0.005	-0.005	-0.005	0.000	0.049	-0.005	0.039	2.656	1.904	1.909	1.904	1.934	1.943	1.934
0.005	-0.005	0.005	0.000	0.049	0.005	0.044	2.656	1.899	1.904	1.909	1.929	1.938	1.938
-0.005	0.000	0.005	0.005	0.044	0.015	0.039	2.734	1.904	1.904	1.904	1.929	1.934	1.938
0.000	0.005	0.010	-0.005	0.034	0.005	0.039	2.651	1.909	1.909	1.909	1.929	1.929	1.934
0.000	-0.015	0.010	-0.010	0.020	-0.015	0.039	2.734	1.909	1.904	1.904	1.924	1.919	1.924
-0.005	-0.015	0.010	-0.015	0.020	-0.010	0.039	2.681	1.909	1.904	1.904	1.919	1.919	1.924
0.005	-0.010	0.005	-0.010	0.010	0.000	0.039	2.715	1.914	1.909	1.899	1.919	1.914	1.929
0.015	-0.015	-0.005	0.005	0.000	0.015	0.039	2.661	1.914	1.909	1.904	1.924	1.914	1.924
0.005	-0.005	-0.005	0.005	-0.010	0.005	0.044	2.681	1.909	1.909	1.904	1.924	1.909	1.919
0.000	0.015	-0.015	0.005	0.000	-0.005	0.039	2.700	1.904	1.914	1.899	1.919	1.914	1.914
-0.005	0.010	-0.020	-0.005	-0.005	-0.015	0.039	2.700	1.904	1.904	1.904	1.919	1.914	1.914
0.000	0.010	-0.010	-0.010	0.000	-0.024	0.044	2.681	1.904	1.904	1.904	1.919	1.914	1.909
-0.010	0.010	-0.005	-0.010	0.005	-0.034	0.044	2.705	1.899	1.904	1.904	1.919	1.919	1.909
-0.010	0.015	0.005	0.005	0.010	-0.010	0.039	2.676	1.899	1.904	1.904	1.924	1.919	1.919
-0.010	0.024	0.005	0.010	0.005	0.010	0.039	2.690	1.899	1.904	1.909	1.929	1.919	1.929
-0.005	0.005	0.020	0.015	0.000	0.010	0.039	2.705	1.909	1.899	1.909	1.929	1.919	1.924
0.000	0.024	0.020	0.020	-0.005	0.010	0.039	2.700	1.909	1.909	1.904	1.929	1.919	1.924
-0.010	0.015	0.020	0.020	0.005	0.020	0.044	2.656	1.904	1.904	1.909	1.929	1.924	1.929
-0.005	0.024	0.010	0.020	0.005	-0.015	0.044	2.690	1.909	1.904	1.904	1.929	1.924	1.919
-0.005	-0.010	0.010	0.010	0.010	-0.005	0.039	2.676	1.904	1.895	1.899	1.919	1.924	1.919
0.005	-0.029	0.010	0.000	0.005	-0.020	0.039	2.681	1.909	1.895	1.895	1.919	1.919	1.919
0.015	-0.020	0.010	-0.005	0.005	-0.010	0.044	2.676	1.909	1.899	1.895	1.914	1.919	1.919
0.015	-0.024	-0.005	-0.010	-0.010	0.005	0.044	2.666	1.904	1.899	1.895	1.909	1.909	1.919
0.024	-0.020	-0.010	-0.010	-0.010	0.000	0.039	2.690	1.909	1.904	1.895	1.914	1.909	1.914
0.034	-0.020	-0.015	-0.005	-0.010	-0.020	0.039	2.700	1.914	1.904	1.895	1.914	1.909	1.909
0.034	-0.005	0.000	0.000	0.000	0.020	0.039	2.690	1.909	1.914	1.904	1.914	1.914	1.919
-0.010	0.020	0.010	0.005	0.010	0.015	0.044	2.686	1.895	1.914	1.909	1.919	1.914	1.914
-0.024	0.000	0.005	0.000	0.015	0.020	0.039	2.705	1.899	1.899	1.904	1.924	1.914	1.919
0.005	-0.024	0.005	0.010	0.000	0.000	0.039	2.686	1.909	1.899	1.899	1.924	1.914	1.909
0.010	-0.020	0.000	0.010	0.015	0.010	0.044	2.681	1.909	1.899	1.899	1.919	1.919	1.919
0.010	0.000	0.005	0.005	0.010	-0.005	0.044	2.744	1.909	1.909	1.904	1.919	1.914	1.914
-0.015	0.034	0.000	0.005	0.005	0.020	0.044	2.788	1.919	1.919	1.904	1.924	1.919	1.919
-0.029	0.068	0.000	0.005	-0.005	0.024	0.039	2.661	1.909	1.924	1.909	1.924	1.914	1.919
-0.049	0.068	0.010	-0.005	-0.015	0.015	0.039	2.686	1.899	1.919	1.914	1.924	1.914	1.914
-0.034	0.039	0.010	-0.015	0.005	0.005	0.039	2.793	1.919	1.909	1.909	1.924	1.919	1.909
-0.010	0.005	0.010	-0.010	0.015	0.015	0.044	2.739	1.924	1.904	1.909	1.924	1.924	1.919
0.005	-0.034	0.000	-0.010	0.015	-0.015	0.044	2.842	1.943	1.904	1.904	1.924	1.919	1.909
0.029	-0.029	0.000	-0.010	0.024	0.005	0.044	2.739	1.943	1.919	1.904	1.924	1.924	1.919
0.029	-0.029	-0.005	-0.005	0.029	0.005	0.044	2.725	1.934	1.919	1.904	1.924	1.924	1.924
0.020	-0.034	-0.020	-0.015	0.029	0.000	0.039	2.627	1.914	1.919	1.904	1.919	1.924	1.924
-0.049	-0.020	-0.029	-0.015	0.024	-0.010	0.039	2.734	1.899	1.914	1.904	1.924	1.919	1.919
-0.015	-0.005	-0.020	0.000	0.034	0.000	0.039	2.637	1.909	1.914	1.909	1.924	1.924	1.924
-0.015	-0.005	-0.005	0.015	0.034	0.015	0.039	2.651	1.904	1.909	1.914	1.934	1.924	1.929
0.005	0.000	-0.005	0.015	0.034	0.005	0.039	2.651	1.904	1.909	1.914	1.929	1.924	1.924
0.039	0.005	0.000	0.010	0.034	0.015	0.044	2.646	1.909	1.914	1.914	1.929	1.924	1.929
0.054	0.024	0.010	0.000	0.034	0.010	0.039	2.671	1.914	1.919	1.919	1.929	1.924	1.924
0.068	0.029	0.020	0.000	0.039	-0.005	0.039	2.705	1.914	1.919	1.919	1.934	1.929	1.924
0.068	0.020	0.020	0.010	0.034	0.015	0.039	2.705	1.919	1.919	1.919	1.938	1.929	1.929
0.054	0.020	0.015	0.000	0.029	0.010	0.039	2.681	1.909	1.909	1.914	1.934	1.929	1.929
0.010	0.000	0.015	0.000	0.029	-0.015	0.039	2.695	1.899	1.904	1.909	1.934	1.924	1.924
-0.005	-0.005	0.020	0.000	0.024	0.015	0.039	2.676	1.895	1.899	1.909	1.934	1.929	1.929
-0.010	-0.020	0.010	0.000	0.034	-0.010	0.039	2.695	1.895	1.890	1.899	1.929	1.929	1.919
-0.024	0.015	0.005	0.000	0.039	0.000	0.039	2.700	1.899	1.904	1.899	1.924	1.929	1.924
-0.073	0.039	0.010	-0.005	0.034	-0.010	0.044	2.710	1.890	1.904	1.899	1.924	1.924	1.924
-0.137	0.034	0.005	-0.005	0.029	-0.024	0.039	2.695	1.875	1.895	1.895	1.919	1.919	1.914
-0.122	0.020	-0.005	-0.010	0.024	-0.034	0.044	2.671	1.885	1.890	1.890	1.914	1.914	1.914
-0.083	0.024	-0.005	-0.005	0.034	-0.020	0.044	2.705	1.909	1.895	1.890	1.914	1.919	1.919
-0.010	-0.010	0.000	0.015	0.015	-0.024	0.044	2.661	1.924	1.895	1.890	1.919	1.909	1.914
0.054	-0.020	0.005	0.015	0.000	-0.015	0.044	2.681	1.938	1.904	1.895	1.914	1.909	1.914
0.107	-0.029	0.000	0.000	0.005	-0.005	0.044	2.681	1.943	1.914	1.899	1.914	1.909	1.914
0.122	-0.020	0.000	0.005	0.010	-0.015	0.039	2.700	1.938	1.919	1.904	1.919	1.909	1.914
0.103	-0.020	0.005	0.015	0.000	0.010	0.039	2.705	1.929	1.919	1.909	1.924	1.914	1.919
0.083	0.005	0.010	0.010	-0.024	-0.005	0.044	2.681	1.914	1.929	1.914	1.924	1.904	1.909
0.044	0.005	0.010	0.000	-0.015	-0.015	0.039	2.710	1.899	1.919	1.914	1.924	1.909	1.909
0.000	0.000	0.005	-0.005	0.000	0.029	0.039	2.686	1.890	1.904	1.909	1.924	1.919	1.924
-0.020	0.010	0.005	-0.010	0.005	0.029	0.039	2.700	1.890	1.904	1.909	1.924	1.919	1.924
-0.039	0.020	0.005	0.005	0.010	0.000	0.044	2.700	1.895	1.904	1.909	1.929	1.924	1.919
-0.034	0.029	0.005	0.005	0.015	0.020	0.044	2.676	1.899	1.904	1.909	1.929	1.924	1.924
-0.034	0.010	0.005	-0.010	0.015	0.010	0.044	2.671	1.899	1.895	1.904	1.919	1.924	1.924
-0.029	-0.005	-0.010	-0.010	0.005	-0.015	0.044	2.681	1.904	1.895	1.895	1.919	1.914	1.914
-0.034	-0.005	-0.010	-0.010	-0.005	0.000	0.044	2.817	1.914	1.895	1.895	1.919	1.914	1.919
-0.039	-0.024	-0.005	-0.015	0.005	0.005	0.039	2.788	1.924	1.895	1.895	1.914	1.914	1.919
-0.015	-0.010	-0.010	-0.005	0.005	0.015	0.039	2.651	1.919	1.909	1.899	1.919	1.914	1.919
-0.010	0.000	-0.005	0.015	0.005	0.005	0.039	2.686	1.919	1.919	1.904	1.924	1.914	1.919
0.000	-0.005	-0.005	0.010	0.005	0.024	0.039	2.788	1.924	1.914	1.904	1.924	1.919	1.924
0.005	-0.015	-0.005	0.000	0.005	-0.005	0.044	2.725	1.924	1.914	1.909	1.924	1.919	1.914
0.010	-0.005	0.005	0.020	0.015	0.024	0.044	2.808	1.938	1.924	1.914	1.929	1.919	1.924
0.010	0.015	0.005	0.015	0.020	0.024	0.044	2.627	1.919	1.929	1.919	1.929	1.924	1.919
0.010	-0.005	0.005	0.005	0.049	-0.010	0.039	2.725	1.919	1.919	1.914	1.929	1.929	1.919
0.010	-0.010	0.010	0.000	0.049	0.029	0.039	2.744	1.919	1.919	1.914	1.934	1.929	1.934
0.005	0.020	0.010	0.010	0.049	0.010	0.039	2.661	1.914	1.929	1.919	1.934	1.929	1.924
0.000	0.020	0.010	0.015	0.039	-0.005	0.039	2.646	1.904	1.919	1.919	1.934	1.929	1.924
-0.029	0.010	0.010	0.000	0.034	0.015	0.044	2.666	1.895	1.909	1.914	1.934	1.924	1.929
-0.024	0.000	0.010	0.005	0.034	0.020	0.039	2.676	1.899	1.904	1.914	1.934	1.929	1.929
-0.010	-0.005	0.010	0.000	0.020	0.005	0.039	2.715	1.904	1.904	1.909	1.929	1.924	1.924
-0.010	0.005	0.005	0.010	0.020	0.010	0.044	2.690	1.909	1.909	1.909	1.934	1.924	1.924
0.005	-0.005	0.005	0.024	0.010	-0.005	0.044	2.729	1.919	1.909	1.909	1.934	1.924	1.919
0.010	-0.005	0.000	0.015	-0.005	0.010	0.044	2.661	1.909	1.909	1.904	1.924	1.919	1.924
0.020	-0.029	-0.010	0.005	-0.034	-0.005	0.044	2.695	1.909	1.899	1.899	1.919	1.909	1.914
0.015	-0.015	-0.010	0.000	-0.029	0.010	0.044	2.686	1.909	1.909	1.899	1.919	1.914	1.919
0.000	0.024	-0.010	0.005	-0.029	0.015	0.039	2.695	1.909	1.919	1.904	1.919	1.914	1.919
0.005	0.015	0.000	0.010	-0.068	-0.005	0.039	2.676	1.909	1.914	1.909	1.924	1.904	1.909
0.015	0.005	0.005	0.005	-0.073	0.010	0.039	2.690	1.909	1.909	1.909	1.924	1.904	1.909
0.010	0.005	0.000	0.005	-0.068	0.010	0.039	2.686	1.909	1.909	1.904	1.924	1.909	1.909
0.015	0.000	0.005	0.010	-0.059	0.000	0.039	2.705	1.909	1.904	1.904	1.929	1.919	1.909
0.005	0.000	0.010	0.015	-0.039	0.005	0.044	2.686	1.904	1.904	1.909	1.929	1.924	1.914
0.015	-0.010	0.005	0.015	-0.020	0.005	0.044	2.700	1.904	1.899	1.904	1.929	1.929	1.919
0.010	0.005	0.005	0.010	-0.010	0.000	0.044	2.676	1.904	1.904	1.904	1.924	1.929	1.919
-0.015	0.005	-0.005	0.010	0.005	-0.005	0.044	2.686	1.899	1.904	1.899	1.924	1.929	1.924
-0.015	0.020	-0.005	0.000	0.024	0.000	0.039	2.681	1.899	1.904	1.904	1.924	1.934	1.929
-0.015	0.029	0.000	0.000	0.034	-0.015	0.044	2.695	1.904	1.909	1.904	1.924	1.929	1.924
-0.015	0.005	0.000	0.010	0.034	0.010	0.039	2.671	1.904	1.899	1.904	1.924	1.929	1.934
0.000	-0.010	0.005	0.010	0.034	0.000	0.044	2.690	1.909	1.899	1.904	1.924	1.924	1.929
0.015	-0.010	0.000	0.000	0.024	-0.005	0.039	2.700	1.914	1.904	1.899	1.919	1.919	1.924
0.024	0.000	0.005	-0.005	0.024	0.005	0.044	2.695	1.914	1.909	1.899	1.919	1.919	1.924
0.015	-0.044	0.005	-0.005	0.015	0.010	0.044	2.705	1.914	1.895	1.899	1.914	1.914	1.924
0.020	-0.068	-0.005	-0.005	0.000	0.005	0.039	2.700	1.914	1.895	1.890	1.914	1.909	1.914
0.015	-0.015	0.005	0.005	0.005	0.000	0.044	2.676	1.909	1.914	1.899	1.919	1.909	1.914
0.010	0.010	0.005	0.010	0.015	-0.005	0.044	2.671	1.904	1.914	1.904	1.924	1.919	1.914
0.020	-0.015	0.005	0.010	0.020	-0.005	0.044	2.695	1.909	1.904	1.904	1.924	1.914	1.914
0.015	0.020	-0.005	0.015	0.029	-0.015	0.044	2.812	1.924	1.919	1.909	1.924	1.919	1.909
-0.015	0.088	0.005	0.020	0.024	0.005	0.039	2.642	1.914	1.938	1.919	1.929	1.924	1.924
-0.024	0.073	0.005	0.010	0.024	-0.010	0.039	2.661	1.904	1.924	1.914	1.929	1.919	1.919
-0.020	0.029	0.000	0.005	0.015	0.015	0.044	2.690	1.909	1.909	1.909	1.924	1.919	1.924
-0.005	0.010	0.000	0.015	0.024	-0.005	0.039	2.788	1.924	1.904	1.909	1.929	1.924	1.919
-0.005	0.015	0.005	0.029	0.015	-0.010	0.039	2.734	1.924	1.914	1.909	1.938	1.924	1.919
0.024	0.020	0.000	0.034	0.005	-0.010	0.039	2.671	1.943	1.924	1.914	1.934	1.924	1.919
0.000	0.029	0.005	0.020	0.000	-0.015	0.044	2.617	1.919	1.924	1.914	1.929	1.919	1.919
0.005	0.005	0.000	0.005	-0.005	-0.034	0.039	2.734	1.924	1.914	1.914	1.924	1.919	1.914
-0.005	-0.015	0.005	-0.010	-0.020	-0.010	0.039	2.632	1.909	1.909	1.909	1.924	1.919	1.919
-0.015	-0.024	0.005	-0.015	-0.034	-0.029	0.044	2.661	1.904	1.904	1.909	1.919	1.909	1.914
0.010	-0.024	0.000	-0.015	-0.029	-0.039	0.044	2.627	1.904	1.904	1.904	1.924	1.914	1.909
0.005	-0.039	0.000	-0.005	-0.054	-0.049	0.039	2.651	1.895	1.899	1.904	1.924	1.909	1.904
0.024	-0.034	0.000	0.005	-0.059	-0.049	0.039	2.651	1.895	1.899	1.899	1.924	1.909	1.904
0.015	-0.020	-0.010	0.005	-0.059	-0.024	0.039	2.627	1.885	1.895	1.899	1.924	1.914	1.914
0.010	-0.005	0.000	0.005	-0.059	-0.010	0.044	2.686	1.890	1.904	1.899	1.919	1.914	1.919
-0.015	0.029	-0.010	-0.005	-0.044	0.000	0.044	2.705	1.890	1.904	1.899	1.914	1.914	1.924
-0.024	0.024	-0.005	-0.005	-0.029	0.029	0.039	2.666	1.890	1.899	1.899	1.919	1.924	1.929
-0.005	0.010	0.000	-0.010	-0.020	0.034	0.044	2.671	1.899	1.890	1.899	1.914	1.919	1.929
-0.005	-0.010	0.015	-0.039	-0.029	0.034	0.044	2.705	1.904	1.890	1.899	1.909	1.914	1.924
-0.010	0.005	0.015	-0.034	-0.015	0.039	0.039	2.656	1.899	1.899	1.899	1.909	1.919	1.924
-0.024	0.015	0.020	-0.034	-0.010	0.044	0.039	2.700	1.899	1.899	1.904	1.914	1.914	1.924
-0.015	0.020	0.020	-0.029	-0.024	0.049	0.044	2.671	1.904	1.904	1.899	1.919	1.909	1.924
-0.010	0.005	0.015	-0.010	-0.034	0.044	0.039	2.686	1.909	1.899	1.899	1.924	1.914	1.919
-0.005	-0.015	0.010	0.010	-0.029	0.034	0.044	2.695	1.914	1.899	1.899	1.924	1.914	1.914
0.010	0.005	0.005	0.015	-0.020	0.034	0.039	2.700	1.919	1.909	1.899	1.929	1.919	1.914
0.015	0.015	-0.010	0.024	-0.005	0.020	0.044	2.666	1.914	1.914	1.895	1.929	1.924	1.914
0.015	0.010	-0.015	0.020	0.010	0.010	0.044	2.666	1.909	1.909	1.899	1.924	1.924	1.914
0.020	-0.020	-0.024	0.024	0.029	0.005	0.039	2.671	1.909	1.895	1.899	1.924	1.929	1.914
0.029	-0.034	-0.020	0.029	0.034	-0.010	0.044	2.671	1.909	1.899	1.895	1.919	1.929	1.919
0.020	-0.015	-0.020	0.010	0.029	-0.020	0.044	2.661	1.899	1.904	1.899	1.914	1.919	1.914
0.015	-0.005	-0.015	0.000	0.039	-0.034	0.039	2.681	1.899	1.904	1.899	1.914	1.919	1.919
0.010	0.024	-0.010	0.015	0.044	0.000	0.039	2.681	1.899	1.909	1.904	1.919	1.919	1.924
0.000	0.005	-0.005	0.034	0.049	0.010	0.039	2.690	1.899	1.904	1.904	1.924	1.924	1.924
-0.005	-0.010	0.005	0.000	0.063	0.015	0.039	2.695	1.899	1.895	1.904	1.914	1.924	1.929
-0.015	0.005	0.010	-0.039	0.063	0.024	0.039	2.695	1.899	1.899	1.899	1.909	1.919	1.924
-0.020	-0.044	0.015	-0.044	0.044	0.020	0.044	2.695	1.899	1.890	1.899	1.904	1.909	1.919
-0.020	-0.044	0.010	-0.039	0.044	0.005	0.039	2.671	1.899	1.890	1.899	1.914	1.909	1.914
-0.010	-0.049	0.010	-0.015	0.039	-0.010	0.039	2.671	1.904	1.890	1.895	1.919	1.904	1.909
0.029	-0.044	0.005	0.024	0.015	0.010	0.044	2.681	1.919	1.904	1.899	1.929	1.909	1.914
0.059	0.034	-0.005	0.029	0.000	0.000	0.044	2.769	1.934	1.929	1.904	1.924	1.904	1.909
0.044	0.039	0.000	0.010	-0.024	0.000	0.039	2.651	1.919	1.929	1.909	1.924	1.904	1.904
0.024	-0.005	-0.005	0.005	-0.024	0.020	0.039	2.646	1.899	1.904	1.909	1.924	1.909	1.909
0.024	0.063	0.000	-0.005	-0.029	0.005	0.039	2.686	1.904	1.924	1.914	1.919	1.909	1.904
0.029	0.015	-0.005	-0.015	-0.029	0.000	0.039	2.642	1.899	1.899	1.909	1.919	1.909	1.904
0.015	-0.054	-0.010	0.000	-0.039	0.010	0.039	2.617	1.885	1.880	1.899	1.924	1.909	1.909
0.010	-0.024	-0.010	0.020	-0.024	-0.020	0.044	2.671	1.885	1.890	1.899	1.924	1.914	1.904
-0.005	0.039	0.005	0.005	-0.020	0.000	0.044	2.637	1.885	1.904	1.904	1.919	1.919	1.914
-0.020	0.063	-0.005	-0.020	0.000	-0.010	0.039	2.729	1.895	1.904	1.899	1.914	1.919	1.914
-0.054	0.063	0.000	-0.024	-0.010	-0.010	0.044	2.651	1.880	1.895	1.899	1.914	1.914	1.914
-0.024	0.024	0.000	0.010	-0.029	-0.010	0.039	2.739	1.904	1.890	1.895	1.924	1.909	1.909
-0.015	-0.005	0.000	0.024	-0.029	0.005	0.044	2.651	1.895	1.880	1.890	1.924	1.914	1.914
0.020	-0.024	0.000	0.015	-0.020	-0.010	0.039	2.656	1.909	1.885	1.890	1.914	1.914	1.914
0.024	-0.044	0.010	-0.005	-0.010	-0.010	0.039	2.646	1.904	1.885	1.885	1.909	1.914	1.909
0.010	-0.039	0.010	-0.010	0.000	0.000	0.039	2.666	1.899	1.890	1.890	1.909	1.914	1.919
0.015	-0.010	0.005	-0.005	0.000	-0.010	0.039	2.676	1.899	1.899	1.890	1.909	1.909	1.914
0.024	0.049	0.000	0.005	0.000	-0.015	0.044	2.646	1.904	1.924	1.899	1.914	1.909	1.914
-0.024	0.098	0.000	0.029	0.000	-0.029	0.039	2.681	1.890	1.924	1.909	1.924	1.914	1.909
-0.073	0.107	0.000	0.029	0.000	-0.010	0.044	2.690	1.880	1.909	1.904	1.924	1.914	1.919
-0.059	0.059	0.000	0.010	0.010	-0.015	0.039	2.690	1.885	1.890	1.899	1.919	1.914	1.914
-0.034	0.010	-0.005	0.000	-0.005	-0.034	0.039	2.681	1.899	1.880	1.890	1.914	1.909	1.909
-0.010	-0.039	0.000	0.015	-0.010	-0.005	0.039	2.695	1.904	1.870	1.885	1.914	1.914	1.914
0.015	-0.044	0.000	0.024	0.000	-0.015	0.039	2.666	1.904	1.880	1.880	1.909	1.914	1.914
0.029	-0.039	-0.005	0.020	-0.005	-0.015	0.039	2.671	1.909	1.890	1.885	1.909	1.909	1.909
0.029	-0.054	-0.005	0.005	-0.015	-0.005	0.039	2.695	1.909	1.890	1.885	1.899	1.904	1.909
0.020	-0.049	-0.010	-0.010	-0.010	-0.015	0.039	2.690	1.909	1.895	1.885	1.895	1.899	1.904
0.020	-0.029	-0.005	-0.020	-0.010	-0.029	0.044	2.676	1.899	1.899	1.890	1.899	1.895	1.899
0.020	-0.010	0.000	0.005	-0.005	-0.015	0.044	2.695	1.904	1.904	1.895	1.909	1.899	1.904
0.029	-0.034	0.000	0.000	0.000	-0.015	0.039	2.671	1.904	1.899	1.895	1.909	1.904	1.904
0.020	-0.034	0.005	-0.005	0.010	-0.005	0.044	2.656	1.899	1.899	1.895	1.909	1.904	1.904
0.010	-0.015	0.000	0.010	0.000	-0.024	0.039	2.695	1.899	1.904	1.899	1.919	1.904	1.899
0.005	0.020	0.005	0.010	-0.005	-0.010	0.039	2.681	1.895	1.909	1.904	1.919	1.909	1.904
-0.005	0.049	0.000	0.015	-0.005	-0.015	0.039	2.681	1.895	1.914	1.904	1.919	1.909	1.904
-0.024	0.039	0.005	0.015	0.005	-0.010	0.039	2.666	1.890	1.904	1.904	1.924	1.914	1.909
-0.039	0.015	0.000	0.000	0.005	-0.029	0.039	2.695	1.890	1.890	1.899	1.919	1.914	1.904
-0.010	-0.020	0.000	-0.005	0.000	-0.010	0.044	2.700	1.899	1.885	1.895	1.914	1.909	1.909
-0.005	-0.005	-0.005	0.005	-0.005	-0.010	0.044	2.700	1.904	1.895	1.895	1.914	1.909	1.914
-0.024	0.024	0.000	-0.005	-0.005	-0.005	0.039	2.700	1.904	1.904	1.895	1.914	1.909	1.909
0.000	0.010	0.000	-0.010	0.000	-0.005	0.039	2.681	1.909	1.899	1.899	1.914	1.914	1.914
0.020	0.015	0.000	0.010	0.020	-0.005	0.039	2.686	1.909	1.904	1.899	1.919	1.919	1.914
0.039	0.000	0.000	0.015	0.024	-0.010	0.044	2.808	1.924	1.899	1.899	1.919	1.919	1.914
0.015	0.005	0.000	0.000	0.015	-0.015	0.039	2.646	1.919	1.909	1.899	1.914	1.914	1.914
-0.010	-0.010	0.000	0.000	0.020	0.000	0.039	2.651	1.899	1.899	1.899	1.914	1.914	1.914
-0.010	-0.015	0.000	-0.010	0.005	-0.010	0.044	2.681	1.899	1.899	1.895	1.914	1.909	1.914
0.015	0.010	0.000	-0.005	0.015	0.005	0.044	2.778	1.919	1.909	1.899	1.914	1.914	1.914
0.000	0.034	0.005	0.015	0.000	0.000	0.044	2.715	1.914	1.919	1.909	1.924	1.914	1.914
-0.010	0.054	0.005	0.015	-0.005	0.015	0.039	2.666	1.934	1.924	1.909	1.924	1.909	1.919
0.005	0.000	0.005	0.015	0.000	0.005	0.039	2.646	1.919	1.909	1.909	1.924	1.914	1.914
0.029	-0.010	0.005	0.034	-0.005	0.005	0.044	2.754	1.929	1.909	1.914	1.929	1.919	1.914
0.024	0.000	0.000	0.029	-0.005	0.000	0.039	2.637	1.914	1.914	1.909	1.929	1.919	1.914
0.015	-0.005	0.005	0.000	0.000	0.000	0.039	2.666	1.904	1.909	1.909	1.919	1.924	1.919
-0.005	0.015	0.015	-0.010	0.015	0.010	0.044	2.646	1.890	1.909	1.914	1.919	1.924	1.924
-0.010	0.010	0.010	-0.010	0.000	0.005	0.039	2.646	1.890	1.904	1.909	1.924	1.914	1.924
-0.010	0.020	0.000	-0.005	-0.005	0.015	0.044	2.661	1.890	1.899	1.904	1.924	1.919	1.919
-0.024	-0.005	0.000	-0.015	0.000	0.005	0.039	2.720	1.895	1.890	1.899	1.924	1.919	1.914
-0.020	-0.024	-0.005	-0.010	0.000	0.005	0.044	2.690	1.895	1.885	1.895	1.919	1.914	1.919
-0.024	-0.010	0.005	-0.005	-0.005	-0.005	0.039	2.744	1.904	1.895	1.895	1.919	1.914	1.914
-0.020	-0.005	0.000	0.000	0.005	0.000	0.044	2.695	1.909	1.899	1.895	1.919	1.919	1.919
-0.005	0.000	-0.005	0.010	0.000	0.020	0.039	2.671	1.909	1.904	1.895	1.919	1.914	1.924
0.015	-0.029	0.000	0.005	0.000	0.005	0.044	2.676	1.909	1.895	1.899	1.919	1.914	1.919
0.005	-0.039	0.005	0.000	-0.005	-0.005	0.044	2.686	1.904	1.895	1.895	1.914	1.909	1.909
0.005	-0.034	0.005	0.015	-0.015	0.015	0.044	2.695	1.904	1.899	1.895	1.919	1.909	1.914
0.005	-0.005	0.005	0.015	-0.015	0.005	0.039	2.671	1.904	1.909	1.904	1.914	1.909	1.914
0.000	0.000	0.005	0.000	-0.005	0.010	0.039	2.681	1.899	1.909	1.904	1.914	1.914	1.914
0.005	0.024	0.005	-0.010	0.000	0.010	0.039	2.705	1.904	1.914	1.904	1.914	1.914	1.914
0.000	0.029	0.015	0.005	-0.005	0.000	0.044	2.676	1.904	1.914	1.909	1.919	1.914	1.909
-0.015	0.000	0.005	-0.010	0.015	-0.010	0.039	2.686	1.895	1.899	1.904	1.914	1.919	1.914
0.010	-0.029	0.005	-0.015	0.039	0.020	0.044	2.676	1.904	1.890	1.899	1.919	1.924	1.924
0.015	-0.024	0.005	0.015	0.044	0.005	0.044	2.715	1.909	1.899	1.899	1.924	1.924	1.919
0.010	-0.010	0.005	0.000	0.024	0.000	0.044	2.666	1.904	1.904	1.899	1.914	1.914	1.919
0.010	-0.024	0.000	-0.010	-0.005	-0.015	0.044	2.661	1.904	1.899	1.895	1.914	1.909	1.909
0.005	-0.015	-0.005	-0.005	-0.005	0.000	0.039	2.676	1.904	1.899	1.895	1.914	1.904	1.909
0.000	0.024	-0.005	-0.020	0.000	0.015	0.044	2.705	1.909	1.914	1.899	1.914	1.909	1.914
0.005	0.005	-0.005	-0.005	0.005	0.020	0.039	2.695	1.909	1.904	1.899	1.919	1.914	1.919
0.015	-0.005	-0.005	-0.029	0.015	0.010	0.039	2.671	1.904	1.899	1.899	1.909	1.909	1.914
0.005	-0.010	-0.005	-0.029	0.015	-0.015	0.039	2.700	1.899	1.899	1.899	1.914	1.909	1.909
0.010	0.000	0.000	-0.005	0.010	0.010	0.044	2.690	1.899	1.904	1.904	1.924	1.914	1.914
0.020	0.029	-0.005	0.024	-0.005	-0.015	0.044	2.676	1.904	1.914	1.904	1.929	1.909	1.904
0.010	0.034	0.005	0.039	-0.010	0.020	0.039	2.681	1.904	1.909	1.909	1.934	1.919	1.919
-0.029	0.020	0.005	0.029	0.000	0.015	0.044	2.686	1.890	1.899	1.904	1.929	1.919	1.919
-0.049	0.049	0.005	-0.005	0.010	0.000	0.044	2.817	1.904	1.904	1.904	1.914	1.919	1.914
-0.063	0.049	0.010	0.000	0.005	0.005	0.039	2.744	1.909	1.904	1.904	1.924	1.919	1.919
-0.015	-0.015	0.015	0.044	0.005	0.005	0.039	2.661	1.919	1.890	1.904	1.934	1.924	1.919
0.020	-0.054	0.020	0.034	0.005	0.005	0.039	2.686	1.924	1.890	1.895	1.924	1.924	1.919
0.015	-0.024	0.010	0.015	0.010	0.000	0.039	2.783	1.929	1.909	1.895	1.919	1.924	1.919
0.015	-0.005	0.000	-0.005	-0.005	0.020	0.039	2.725	1.924	1.914	1.899	1.909	1.914	1.924
0.015	0.000	0.000	0.005	-0.010	0.020	0.039	2.788	1.934	1.924	1.904	1.919	1.909	1.919
0.015	0.024	0.000	-0.015	-0.010	0.005	0.044	2.627	1.919	1.929	1.909	1.914	1.909	1.914
-0.010	0.005	0.000	-0.024	-0.005	-0.015	0.039	2.739	1.909	1.914	1.909	1.919	1.909	1.909
0.010	0.000	0.000	-0.020	-0.015	-0.015	0.044	2.725	1.924	1.919	1.914	1.924	1.909	1.909
0.010	0.044	0.005	-0.005	-0.010	0.020	0.044	2.734	1.924	1.929	1.919	1.929	1.914	1.919
-0.005	-0.015	0.000	0.000	-0.005	0.010	0.044	2.720	1.914	1.904	1.914	1.934	1.919	1.919
-0.005	-0.020	-0.015	-0.005	-0.005	0.000	0.044	2.646	1.904	1.904	1.909	1.924	1.924	1.919
0.000	-0.005	-0.015	-0.015	0.000	0.010	0.044	2.646	1.909	1.909	1.909	1.924	1.919	1.919
0.000	-0.015	-0.005	-0.015	0.015	-0.010	0.039	2.661	1.899	1.904	1.909	1.924	1.924	1.914
0.020	-0.020	0.005	-0.029	0.015	0.015	0.044	2.686	1.904	1.904	1.904	1.924	1.924	1.924
0.024	-0.024	0.005	-0.029	0.005	0.020	0.039	2.734	1.909	1.904	1.904	1.924	1.919	1.924
0.015	-0.015	0.010	-0.024	-0.010	0.015	0.044	2.695	1.909	1.909	1.909	1.924	1.914	1.919
0.020	-0.005	0.010	-0.029	-0.005	-0.015	0.044	2.681	1.909	1.909	1.904	1.924	1.919	1.909
-0.005	0.044	0.005	-0.020	0.010	-0.005	0.039	2.681	1.904	1.929	1.914	1.929	1.924	1.919
-0.005	0.078	0.010	0.000	0.015	-0.015	0.044	2.700	1.904	1.929	1.919	1.938	1.929	1.914
-0.010	0.044	0.005	0.010	0.005	-0.015	0.044	2.676	1.895	1.909	1.909	1.938	1.929	1.919
-0.034	0.015	0.000	0.010	0.005	0.005	0.044	2.676	1.890	1.895	1.909	1.934	1.929	1.929
-0.010	0.015	0.005	0.020	0.005	-0.005	0.044	2.690	1.904	1.899	1.904	1.934	1.929	1.929
-0.029	0.029	0.005	0.010	0.000	0.005	0.039	2.695	1.899	1.899	1.904	1.929	1.929	1.929
-0.010	0.005	-0.005	0.015	0.000	-0.005	0.044	2.695	1.909	1.895	1.899	1.924	1.924	1.924
-0.039	-0.029	-0.005	0.020	0.015	0.005	0.044	2.661	1.890	1.885	1.890	1.924	1.929	1.929
-0.078	-0.044	-0.010	0.000	0.010	0.010	0.044	2.676	1.885	1.880	1.885	1.914	1.919	1.929
-0.083	-0.029	0.000	-0.015	0.005	0.005	0.044	2.690	1.890	1.885	1.885	1.904	1.914	1.924
-0.059	-0.029	0.000	-0.044	-0.005	0.020	0.044	2.666	1.899	1.890	1.890	1.895	1.904	1.919
-0.020	-0.015	-0.005	-0.044	0.005	0.015	0.044	2.690	1.909	1.899	1.890	1.899	1.904	1.914
0.034	-0.005	0.005	0.000	0.000	0.029	0.044	2.666	1.924	1.909	1.899	1.919	1.909	1.914
0.059	0.000	0.005	0.034	0.000	0.005	0.044	2.700	1.929	1.919	1.904	1.929	1.909	1.909
0.112	0.005	0.000	0.024	-0.044	0.024	0.039	2.700	1.943	1.924	1.909	1.924	1.899	1.909
0.137	0.005	0.000	0.005	-0.068	0.015	0.044	2.695	1.938	1.929	1.909	1.919	1.899	1.904
0.137	-0.010	0.000	0.000	-0.083	0.000	0.039	2.710	1.934	1.924	1.914	1.924	1.899	1.895
0.107	-0.005	0.020	0.029	-0.088	-0.020	0.039	2.700	1.914	1.924	1.924	1.938	1.904	1.895
0.068	-0.005	0.015	0.049	-0.063	0.010	0.044	2.676	1.899	1.914	1.919	1.943	1.924	1.909
0.039	-0.005	0.010	0.059	-0.029	-0.015	0.044	2.681	1.890	1.904	1.914	1.943	1.938	1.909
-0.020	0.000	0.015	0.049	0.000	-0.049	0.044	2.686	1.875	1.899	1.909	1.938	1.938	1.909
-0.083	0.034	0.034	0.034	0.020	-0.054	0.044	2.744	1.870	1.899	1.914	1.934	1.943	1.919
-0.107	0.034	0.020	0.020	0.044	-0.054	0.039	2.778	1.885	1.895	1.904	1.924	1.943	1.929
-0.078	0.015	0.005	0.000	0.073	-0.005	0.039	2.656	1.895	1.885	1.895	1.919	1.943	1.943
-0.054	-0.010	-0.010	0.015	0.063	0.005	0.039	2.671	1.904	1.885	1.885	1.914	1.934	1.943
-0.029	-0.024	-0.015	0.024	0.044	0.010	0.039	2.769	1.919	1.895	1.885	1.914	1.924	1.938
0.005	-0.020	-0.015	0.015	0.034	0.020	0.039	2.734	1.934	1.904	1.890	1.909	1.914	1.934
0.024	-0.010	-0.005	-0.015	0.049	0.010	0.039	2.832	1.948	1.914	1.899	1.904	1.909	1.929
0.015	0.000	0.020	-0.015	0.034	0.005	0.044	2.666	1.934	1.924	1.909	1.909	1.909	1.919
0.005	0.015	0.015	-0.024	0.029	0.010	0.044	2.744	1.929	1.929	1.914	1.909	1.904	1.914
-0.020	0.024	-0.005	-0.039	0.010	0.000	0.044	2.637	1.909	1.924	1.909	1.909	1.899	1.909
-0.059	0.024	-0.015	-0.063	0.020	0.005	0.039	2.661	1.895	1.914	1.909	1.909	1.904	1.909
-0.039	0.029	0.000	-0.044	0.015	0.015	0.044	2.642	1.899	1.914	1.914	1.924	1.909	1.909
-0.024	0.024	0.010	-0.034	0.039	0.015	0.039	2.661	1.904	1.909	1.914	1.929	1.919	1.914
0.005	0.005	0.010	-0.020	0.039	0.005	0.039	2.671	1.909	1.904	1.909	1.934	1.924	1.914
0.039	-0.010	0.000	-0.024	0.020	0.015	0.044	2.729	1.924	1.909	1.904	1.934	1.919	1.914
0.059	-0.005	0.005	0.000	0.000	0.015	0.039	2.661	1.924	1.909	1.909	1.934	1.919	1.914
0.059	-0.005	0.000	0.024	-0.039	-0.005	0.039	2.739	1.919	1.909	1.909	1.943	1.909	1.909
0.063	-0.020	-0.005	0.024	-0.044	0.015	0.044	2.661	1.914	1.909	1.909	1.934	1.914	1.914
0.044	-0.010	0.000	0.005	-0.049	0.000	0.039	2.671	1.904	1.909	1.904	1.924	1.914	1.909
0.015	-0.015	-0.005	-0.024	-0.044	0.000	0.044	2.676	1.895	1.899	1.904	1.919	1.914	1.914
0.005	-0.010	-0.024	-0.015	-0.029	0.010	0.044	2.690	1.895	1.899	1.895	1.919	1.919	1.914
-0.024	-0.010	-0.024	0.010	-0.020	0.010	0.044	2.666	1.885	1.895	1.895	1.929	1.924	1.919
-0.039	-0.015	-0.020	0.024	-0.010	0.005	0.044	2.676	1.885	1.890	1.895	1.924	1.924	1.919
-0.059	-0.005	-0.029	0.024	-0.010	-0.005	0.039	2.695	1.885	1.890	1.890	1.924	1.924	1.914
-0.059	-0.005	-0.015	0.034	0.000	-0.015	0.039	2.710	1.895	1.890	1.895	1.924	1.924	1.914
-0.073	0.010	-0.005	0.024	0.005	0.005	0.044	2.676	1.890	1.890	1.895	1.914	1.924	1.924
-0.127	0.015	0.005	0.020	0.015	0.005	0.044	2.671	1.880	1.890	1.899	1.914	1.919	1.924
-0.112	0.034	0.005	0.044	0.015	-0.029	0.044	2.681	1.895	1.899	1.895	1.924	1.919	1.914
-0.078	0.044	-0.005	0.059	-0.005	-0.005	0.044	2.700	1.909	1.899	1.895	1.924	1.919	1.924
-0.010	0.010	0.000	0.054	-0.039	0.010	0.044	2.671	1.924	1.904	1.899	1.919	1.904	1.919
0.073	0.010	0.015	0.000	-0.034	0.015	0.044	2.676	1.948	1.919	1.904	1.904	1.904	1.919
0.146	-0.029	0.024	-0.054	-0.034	0.000	0.044	2.695	1.958	1.924	1.909	1.895	1.899	1.909
0.190	-0.039	0.020	-0.059	-0.044	-0.010	0.044	2.700	1.958	1.929	1.909	1.904	1.899	1.904
0.205	-0.034	0.020	-0.034	-0.029	0.005	0.044	2.690	1.943	1.938	1.919	1.919	1.909	1.909
0.186	-0.005	0.020	-0.010	-0.034	0.010	0.039	2.700	1.929	1.943	1.924	1.929	1.909	1.909
0.127	0.034	0.000	-0.015	-0.020	0.015	0.044	2.700	1.909	1.938	1.924	1.934	1.924	1.914
0.039	0.044	0.000	0.005	0.000	-0.005	0.044	2.695	1.880	1.919	1.924	1.943	1.929	1.914
-0.029	0.044	-0.005	0.015	0.010	0.010	0.044	2.695	1.870	1.904	1.919	1.943	1.938	1.924
-0.098	0.024	0.000	0.005	0.005	-0.005	0.044	2.686	1.855	1.885	1.909	1.934	1.929	1.919
-0.122	-0.005	-0.010	0.000	-0.005	-0.005	0.044	2.690	1.865	1.870	1.895	1.929	1.924	1.919
-0.103	-0.029	0.005	-0.005	-0.010	-0.024	0.039	2.812	1.895	1.870	1.890	1.919	1.919	1.919
-0.083	-0.039	0.000	0.000	-0.005	-0.020	0.029	2.773	1.909	1.875	1.880	1.919	1.924	1.919
-0.059	-0.029	-0.010	0.005	0.024	-0.005	0.029	2.656	1.914	1.890	1.880	1.914	1.929	1.929
-0.049	-0.020	-0.020	-0.005	0.068	0.020	0.029	2.681	1.914	1.895	1.880	1.909	1.934	1.938
-0.044	-0.034	0.020	-0.005	0.078	0.015	0.044	2.788	1.924	1.904	1.899	1.909	1.929	1.938
-0.029	-0.010	0.029	-0.010	0.059	0.034	0.039	2.725	1.934	1.919	1.904	1.914	1.919	1.934
0.000	-0.010	0.010	-0.005	0.063	0.024	0.039	2.803	1.948	1.924	1.904	1.914	1.919	1.929
0.005	-0.005	0.005	0.005	0.068	0.024	0.044	2.637	1.938	1.934	1.914	1.924	1.919	1.924
0.010	0.034	0.010	0.005	0.107	0.024	0.039	2.744	1.938	1.943	1.919	1.929	1.934	1.929
0.000	0.073	0.010	0.015	0.098	0.010	0.044	2.642	1.919	1.948	1.929	1.934	1.929	1.924
-0.044	0.059	0.010	-0.005	0.059	0.005	0.039	2.651	1.899	1.929	1.929	1.934	1.919	1.919
-0.005	0.015	-0.005	-0.015	0.044	0.015	0.044	2.627	1.904	1.914	1.919	1.929	1.919	1.919
0.020	-0.015	-0.034	-0.010	0.039	0.000	0.044	2.642	1.904	1.899	1.904	1.929	1.914	1.914
0.010	-0.029	0.010	0.000	-0.010	-0.020	0.044	2.651	1.895	1.895	1.914	1.934	1.904	1.909
0.015	-0.024	0.015	-0.005	-0.005	-0.010	0.044	2.729	1.904	1.899	1.909	1.929	1.909	1.909
0.034	-0.015	-0.015	-0.005	-0.029	0.005	0.044	2.686	1.909	1.899	1.899	1.924	1.904	1.914
0.039	-0.010	-0.010	0.000	-0.107	-0.005	0.044	2.720	1.914	1.909	1.904	1.924	1.890	1.899
0.024	0.010	0.010	-0.005	-0.186	-0.020	0.044	2.705	1.909	1.914	1.909	1.924	1.875	1.885
-0.010	0.049	0.020	0.005	-0.200	-0.039	0.044	2.666	1.895	1.919	1.914	1.924	1.880	1.880
0.010	0.020	0.015	0.000	-0.171	-0.034	0.044	2.676	1.895	1.899	1.909	1.929	1.899	1.890
0.005	0.005	-0.005	-0.010	-0.127	-0.039	0.044	2.686	1.899	1.895	1.899	1.919	1.919	1.895
0.020	-0.010	-0.020	-0.010	-0.098	-0.015	0.044	2.681	1.899	1.895	1.895	1.919	1.929	1.914
0.024	0.005	-0.020	-0.005	-0.093	-0.005	0.044	2.700	1.904	1.899	1.895	1.919	1.924	1.919
0.034	0.005	-0.039	0.005	-0.049	-0.005	0.044	2.676	1.904	1.899	1.895	1.919	1.934	1.924
0.029	0.000	-0.010	-0.010	-0.010	0.015	0.044	2.690	1.909	1.904	1.904	1.914	1.938	1.934
-0.020	0.000	-0.005	-0.034	0.000	-0.005	0.044	2.661	1.885	1.895	1.899	1.909	1.934	1.929
-0.029	-0.015	0.000	0.005	0.000	0.010	0.044	2.710	1.890	1.890	1.899	1.924	1.929	1.934
-0.068	0.000	0.010	0.044	0.010	0.024	0.044	2.686	1.885	1.890	1.899	1.934	1.934	1.938
-0.088	-0.020	0.010	0.054	0.029	0.010	0.044	2.690	1.885	1.880	1.895	1.934	1.938	1.934
-0.098	-0.020	0.010	0.049	0.137	0.034	0.044	2.676	1.890	1.880	1.890	1.929	1.963	1.953
-0.083	-0.005	0.010	0.029	0.244	0.049	0.044	2.676	1.899	1.890	1.890	1.919	1.982	1.968
-0.039	0.020	-0.020	0.020	0.366	0.059	0.044	2.666	1.924	1.909	1.890	1.919	1.997	1.982
-0.010	0.005	-0.005	0.000	0.449	0.073	0.044	2.700	1.934	1.909	1.899	1.914	1.997	1.987
-0.107	0.015	-0.010	-0.024	0.469	0.054	0.044	2.710	1.899	1.909	1.895	1.904	1.973	1.978
-0.122	0.024	0.005	-0.029	0.322	0.054	0.044	2.671	1.904	1.909	1.904	1.904	1.909	1.953
-0.044	0.010	0.049	-0.024	0.059	0.034	0.044	2.695	1.938	1.914	1.914	1.909	1.836	1.909
0.034	0.015	0.049	-0.010	-0.098	0.020	0.044	2.700	1.958	1.929	1.914	1.914	1.816	1.880
0.142	-0.005	0.024	-0.020	-0.215	0.000	0.049	2.686	1.968	1.934	1.914	1.914	1.812	1.855
0.200	-0.015	0.020	-0.015	-0.239	-0.020	0.425	2.690	1.968	1.943	1.919	1.919	1.841	1.860
0.225	-0.005	0.020	-0.029	-0.205	-0.020	0.420	2.705	1.963	1.948	1.929	1.929	1.870	1.860
0.259	-0.005	-0.005	-0.034	-0.176	-0.020	0.127	2.808	1.968	1.953	1.924	1.929	1.890	1.860
0.249	-0.010	-0.039	-0.029	-0.137	-0.054	0.273	2.646	1.938	1.943	1.924	1.934	1.909	1.870
0.186	-0.015	-0.010	-0.024	-0.054	-0.034	0.049	2.661	1.904	1.934	1.934	1.943	1.943	1.890
0.112	-0.010	0.015	-0.005	-0.039	-0.024	0.127	2.676	1.880	1.919	1.938	1.953	1.948	1.909
0.020	0.000	0.015	0.015	-0.103	-0.015	0.400	2.793	1.875	1.904	1.929	1.958	1.934	1.929
-0.039	-0.010	0.015	0.029	-0.142	-0.054	0.059	2.729	1.875	1.890	1.914	1.953	1.924	1.904
-0.107	-0.005	0.034	0.015	-0.088	-0.024	0.073	2.671	1.860	1.880	1.909	1.943	1.948	1.924
-0.132	-0.024	-0.024	0.020	-0.054	-0.059	0.088	2.627	1.860	1.870	1.885	1.934	1.943	1.919
-0.122	-0.034	-0.015	0.015	-0.068	-0.083	0.098	2.729	1.875	1.870	1.875	1.919	1.934	1.924
-0.103	0.000	-0.024	0.015	-0.049	-0.020	0.459	2.725	1.890	1.885	1.880	1.914	1.938	1.953
-0.112	0.005	-0.015	0.005	-0.020	0.020	0.469	2.759	1.904	1.885	1.880	1.909	1.938	1.963
-0.137	-0.005	-0.039	-0.005	-0.044	0.044	0.425	2.754	1.914	1.890	1.880	1.899	1.914	1.953
-0.117	0.010	-0.034	-0.010	-0.127	0.015	0.498	2.725	1.929	1.909	1.880	1.895	1.890	1.929
-0.083	0.029	-0.010	-0.010	-0.151	-0.005	0.522	2.646	1.934	1.919	1.899	1.904	1.880	1.909
-0.068	0.015	0.015	-0.005	-0.176	-0.034	0.537	1.362	1.782	1.885	1.904	1.909	1.875	1.890
-0.024	0.010	0.029	0.000	-0.195	-0.044	0.034	1.177	1.660	1.836	1.885	1.909	1.875	1.870
-0.020	0.010	0.034	0.000	-0.166	-0.015	0.034	1.221	1.567	1.772	1.860	1.899	1.895	1.885
0.010	0.015	0.010	-0.005	-0.039	0.054	0.034	1.138	1.509	1.704	1.816	1.885	1.929	1.919
0.029	0.029	-0.020	-0.005	0.078	0.156	0.034	1.177	1.465	1.650	1.768	1.865	1.948	1.958
0.000	0.024	-0.005	-0.015	0.127	0.225	0.034	1.157	1.431	1.592	1.724	1.831	1.929	1.968
-0.029	0.015	0.015	0.005	0.186	0.229	0.034	1.162	1.411	1.543	1.680	1.802	1.909	1.953
-0.034	-0.005	-0.005	0.005	0.244	0.176	0.029	1.157	1.396	1.504	1.631	1.763	1.880	1.924
-0.005	-0.010	0.034	-0.005	0.337	0.093	0.034	1.157	1.401	1.479	1.597	1.724	1.865	1.880
0.020	-0.024	0.029	-0.010	0.435	-0.024	0.034	1.152	1.396	1.460	1.558	1.680	1.831	1.836
0.044	-0.020	0.029	-0.024	0.410	-0.151	0.034	1.167	1.396	1.445	1.523	1.636	1.768	1.787
0.093	0.000	0.039	-0.020	0.435	-0.254	0.034	1.152	1.401	1.445	1.504	1.611	1.733	1.748
0.117	0.000	0.005	0.000	0.479	-0.244	0.034	1.177	1.392	1.431	1.479	1.582	1.699	1.738
0.078	0.010	0.020	0.005	0.381	-0.239	0.034	1.157	1.367	1.421	1.465	1.558	1.636	1.709
0.054	0.015	0.010	0.000	0.220	-0.186	0.034	1.152	1.348	1.401	1.445	1.523	1.558	1.680
0.029	0.024	0.015	-0.005	0.029	-0.107	0.034	1.987	1.431	1.406	1.436	1.499	1.494	1.646
0.029	0.029	0.010	-0.005	-0.195	-0.029	0.034	1.978	1.484	1.431	1.426	1.479	1.436	1.606
0.020	0.029	-0.024	-0.010	-0.283	0.083	0.034	1.982	1.519	1.450	1.421	1.465	1.421	1.587
-0.024	0.024	-0.039	-0.020	-0.278	0.112	0.034	1.992	1.533	1.470	1.431	1.460	1.436	1.548
-0.039	0.020	-0.049	0.005	-0.254	0.142	0.034	2.012	1.548	1.489	1.445	1.465	1.450	1.533
-0.044	0.005	-0.034	0.000	-0.269	0.107	0.034	2.012	1.553	1.499	1.460	1.465	1.445	1.499
-0.039	0.000	-0.010	-0.010	-0.269	0.073	0.039	2.012	1.558	1.514	1.484	1.475	1.450	1.475
-0.068	-0.005	-0.005	-0.010	-0.225	-0.010	0.039	2.012	1.548	1.519	1.489	1.489	1.465	1.450
-0.054	-0.020	-0.024	-0.005	-0.215	-0.093	0.615	1.997	1.543	1.523	1.494	1.494	1.475	1.450
-0.020	-0.010	-0.029	-0.010	-0.283	-0.151	0.039	1.992	1.548	1.528	1.504	1.499	1.450	1.421
-0.049	-0.010	0.010	-0.005	-0.317	-0.181	0.503	1.997	1.528	1.528	1.519	1.509	1.455	1.421
-0.078	-0.015	0.044	-0.010	-0.303	-0.127	0.044	2.046	1.514	1.523	1.528	1.519	1.479	1.455
-0.063	-0.005	0.039	-0.015	-0.220	-0.063	0.054	1.943	1.509	1.523	1.528	1.528	1.519	1.489
-0.029	-0.010	0.073	-0.015	-0.137	0.024	0.039	1.978	1.514	1.519	1.533	1.538	1.548	1.533
0.005	-0.015	0.073	-0.010	-0.044	0.112	0.688	2.002	1.528	1.523	1.533	1.543	1.572	1.587
0.059	-0.005	0.039	0.000	-0.015	0.190	0.322	1.968	1.548	1.528	1.523	1.548	1.572	1.592
0.107	0.005	0.039	0.005	-0.034	0.195	0.039	1.943	1.543	1.538	1.528	1.548	1.558	1.577
0.122	0.005	-0.005	0.005	-0.044	0.156	0.039	1.987	1.538	1.538	1.519	1.543	1.548	1.558
0.137	0.015	-0.034	0.005	-0.063	0.107	0.747	2.061	1.543	1.543	1.519	1.543	1.543	1.562
0.107	0.010	-0.059	0.000	-0.034	0.083	0.552	2.017	1.523	1.533	1.514	1.538	1.543	1.533
0.054	0.005	-0.044	0.005	-0.063	0.078	0.220	2.061	1.514	1.523	1.523	1.538	1.533	1.533
0.020	0.000	-0.020	0.005	0.000	0.059	0.640	2.061	1.504	1.519	1.528	1.543	1.558	1.553
-0.024	0.000	-0.044	0.005	0.029	0.049	0.771	2.056	1.489	1.509	1.519	1.543	1.558	1.553
-0.083	-0.015	-0.020	0.005	0.132	0.005	0.723	1.987	1.479	1.494	1.519	1.543	1.582	1.548
-0.078	0.005	0.000	0.000	0.332	-0.059	0.786	1.963	1.484	1.499	1.519	1.548	1.621	1.553
-0.078	-0.010	-0.010	0.005	0.562	-0.137	0.557	2.046	1.479	1.489	1.504	1.548	1.660	1.558
-0.039	-0.015	-0.054	0.005	0.718	-0.205	0.044	2.002	1.494	1.489	1.489	1.538	1.655	1.553
-0.015	-0.034	-0.044	0.005	0.747	-0.234	0.654	1.968	1.499	1.489	1.489	1.533	1.631	1.587
0.034	-0.034	-0.024	0.005	0.654	-0.220	0.605	2.007	1.514	1.499	1.499	1.523	1.577	1.582
0.034	-0.020	0.005	0.005	0.430	-0.151	0.850	2.007	1.509	1.509	1.504	1.519	1.499	1.582
0.059	-0.005	0.029	0.015	0.239	-0.088	0.889	1.997	1.519	1.514	1.514	1.519	1.455	1.562
0.088	0.020	0.029	0.024	0.088	-0.020	0.903	2.017	1.523	1.523	1.519	1.523	1.440	1.548
0.098	0.020	0.015	0.015	-0.044	0.059	0.908	2.021	1.523	1.523	1.509	1.519	1.421	1.523
0.083	0.039	0.005	0.015	-0.288	0.073	0.923	2.021	1.509	1.523	1.514	1.514	1.382	1.484
0.059	0.034	0.024	0.020	-0.366	0.098	0.928	2.002	1.489	1.514	1.519	1.523	1.401	1.470
0.049	0.029	0.039	0.015	-0.435	0.107	0.942	2.026	1.484	1.504	1.514	1.523	1.416	1.455
0.010	0.010	0.029	0.015	-0.425	0.083	0.991	2.002	1.465	1.484	1.504	1.523	1.450	1.450
-0.010	0.000	-0.078	0.015	-0.366	0.093	0.967	1.997	1.455	1.475	1.465	1.514	1.479	1.460
-0.015	0.005	-0.107	0.015	-0.264	0.083	0.981	2.007	1.455	1.465	1.465	1.509	1.514	1.475
-0.044	-0.005	-0.044	0.010	-0.186	0.083	1.011	1.997	1.450	1.460	1.479	1.509	1.533	1.494
-0.059	-0.015	0.020	0.015	-0.186	0.034	1.025	1.992	1.450	1.455	1.489	1.509	1.523	1.489
-0.068	-0.015	0.068	0.005	-0.166	0.005	1.035	2.021	1.450	1.455	1.489	1.509	1.523	1.489
-0.142	-0.020	0.107	0.005	-0.137	0.020	1.035	2.002	1.431	1.445	1.489	1.514	1.528	1.504
-0.132	-0.020	0.127	0.010	-0.107	0.020	1.045	2.017	1.440	1.445	1.484	1.509	1.528	1.514
-0.156	-0.015	0.122	-0.005	-0.078	0.039	1.055	2.007	1.445	1.445	1.470	1.499	1.523	1.523
-0.176	-0.015	0.093	-0.015	-0.078	0.083	1.069	2.002	1.445	1.445	1.450	1.489	1.514	1.533
-0.078	-0.010	0.024	-0.015	-0.068	0.098	1.074	2.012	1.484	1.455	1.436	1.479	1.509	1.533
0.005	-0.005	-0.039	-0.005	-0.010	0.093	1.094	2.021	1.509	1.470	1.426	1.475	1.514	1.528
0.010	0.000	-0.078	0.000	0.029	0.093	1.094	2.036	1.494	1.475	1.431	1.465	1.509	1.519
-0.098	-0.005	-0.107	0.005	0.024	0.044	1.108	2.007	1.460	1.470	1.431	1.460	1.494	1.499
-0.024	0.010	-0.107	0.005	0.039	0.010	1.128	2.012	1.475	1.479	1.450	1.465	1.484	1.489
0.054	0.020	-0.098	0.005	0.044	-0.078	1.128	2.114	1.509	1.489	1.460	1.470	1.475	1.465
0.161	0.010	-0.103	0.005	0.020	-0.156	1.108	1.968	1.514	1.494	1.470	1.475	1.465	1.440
0.229	0.005	-0.063	0.005	-0.005	-0.156	1.152	2.002	1.509	1.504	1.489	1.484	1.460	1.450
0.283	0.039	-0.010	0.000	0.010	-0.161	1.157	1.997	1.504	1.514	1.509	1.494	1.475	1.455
0.303	0.044	0.024	0.005	0.024	-0.098	1.167	2.119	1.504	1.514	1.523	1.509	1.489	1.484
0.283	0.024	0.054	-0.005	0.029	-0.024	1.191	2.056	1.484	1.499	1.523	1.519	1.499	1.509
0.220	0.010	0.078	0.015	0.039	0.044	1.235	1.997	1.455	1.484	1.519	1.528	1.514	1.528
0.098	0.054	0.068	0.010	0.078	0.073	1.250	1.987	1.416	1.475	1.504	1.528	1.528	1.538
-0.024	0.049	0.059	0.015	0.117	0.059	1.255	2.061	1.396	1.445	1.484	1.523	1.533	1.533
-0.112	0.029	0.049	0.015	0.103	0.044	1.245	2.046	1.392	1.421	1.465	1.514	1.519	1.523
-0.161	0.005	0.049	0.044	0.068	-0.015	1.245	2.080	1.396	1.401	1.450	1.504	1.504	1.499
-0.181	-0.024	0.063	0.039	0.044	-0.073	1.230	2.065	1.406	1.396	1.436	1.489	1.489	1.479
-0.166	-0.034	0.054	-0.005	0.034	-0.068	1.235	1.973	1.416	1.401	1.421	1.460	1.479	1.484
-0.137	-0.034	0.034	-0.044	0.034	-0.034	1.240	1.968	1.426	1.406	1.411	1.445	1.470	1.489
-0.151	-0.020	0.010	-0.024	0.039	0.020	1.245	1.968	1.421	1.411	1.406	1.440	1.465	1.494
-0.107	-0.015	-0.015	-0.020	0.034	0.059	1.245	1.997	1.440	1.421	1.401	1.440	1.460	1.494
-0.073	-0.020	-0.024	0.005	0.015	0.044	1.265	2.051	1.460	1.436	1.411	1.440	1.440	1.479
-0.034	0.000	-0.039	0.015	-0.078	0.054	1.250	2.007	1.460	1.445	1.416	1.440	1.416	1.460
-0.005	0.000	-0.039	0.020	-0.142	0.000	1.255	2.031	1.465	1.450	1.421	1.440	1.401	1.426
0.029	0.005	-0.039	0.034	-0.151	-0.073	1.284	2.017	1.460	1.460	1.436	1.445	1.411	1.401
0.044	0.010	-0.024	0.029	-0.161	-0.137	1.289	2.026	1.450	1.455	1.445	1.450	1.416	1.396
0.044	-0.005	-0.049	0.024	-0.117	-0.107	1.299	2.031	1.440	1.445	1.436	1.450	1.436	1.416
0.020	-0.010	-0.059	0.020	-0.039	-0.073	1.299	2.012	1.426	1.440	1.436	1.455	1.465	1.436
-0.005	-0.020	-0.049	0.015	0.078	-0.059	1.309	2.012	1.411	1.431	1.440	1.455	1.494	1.460
-0.044	-0.010	-0.054	0.015	0.142	-0.024	1.304	1.997	1.401	1.421	1.431	1.455	1.499	1.484
-0.059	-0.015	-0.059	0.020	0.127	0.000	1.313	2.021	1.406	1.416	1.426	1.450	1.479	1.484
-0.039	0.000	-0.083	0.010	0.039	-0.005	1.318	2.007	1.416	1.421	1.411	1.440	1.445	1.470
-0.146	0.000	-0.142	0.010	-0.005	0.039	1.323	2.017	1.387	1.406	1.401	1.436	1.431	1.470
-0.142	0.010	-0.112	0.015	-0.020	0.044	1.323	2.007	1.396	1.401	1.406	1.431	1.426	1.460
-0.093	-0.010	-0.078	-0.015	-0.044	0.093	1.328	1.997	1.416	1.401	1.416	1.426	1.421	1.465
-0.020	-0.015	-0.010	-0.034	0.005	0.186	1.323	2.026	1.440	1.416	1.431	1.431	1.440	1.484
0.063	-0.010	0.034	-0.049	0.117	0.249	1.323	1.997	1.455	1.436	1.445	1.436	1.475	1.499
0.117	0.005	0.107	-0.010	0.239	0.288	1.323	1.997	1.465	1.455	1.470	1.465	1.504	1.514
0.142	0.024	0.186	0.024	0.186	0.234	1.333	2.031	1.460	1.465	1.489	1.484	1.479	1.484
0.146	0.039	0.161	0.029	0.142	0.122	1.338	2.021	1.455	1.465	1.475	1.489	1.465	1.450
0.156	0.024	0.093	0.015	0.220	0.054	1.367	2.012	1.445	1.455	1.450	1.479	1.489	1.440
0.127	0.005	0.049	0.024	0.239	-0.039	1.372	2.026	1.426	1.440	1.436	1.475	1.484	1.431
0.083	-0.005	0.049	0.010	0.137	-0.103	1.377	2.021	1.406	1.426	1.431	1.460	1.445	1.416
0.020	0.000	0.034	0.010	0.078	-0.151	1.382	2.012	1.392	1.411	1.421	1.450	1.431	1.406
-0.020	0.015	0.044	0.000	0.078	-0.142	1.372	2.012	1.377	1.406	1.421	1.445	1.436	1.416
-0.044	-0.005	0.044	-0.005	0.029	-0.137	1.362	2.119	1.387	1.396	1.411	1.440	1.421	1.416
-0.024	-0.020	0.005	0.010	-0.044	-0.117	1.367	1.958	1.401	1.392	1.392	1.436	1.401	1.416
0.005	-0.024	-0.005	0.029	-0.078	-0.112	1.367	2.002	1.411	1.392	1.392	1.431	1.401	1.411
-0.005	-0.024	-0.010	0.029	-0.142	-0.088	1.362	2.002	1.401	1.396	1.392	1.421	1.392	1.411
-0.044	-0.020	-0.044	0.010	-0.166	-0.068	1.372	2.119	1.396	1.392	1.382	1.411	1.387	1.406
-0.063	-0.010	-0.044	0.005	-0.166	-0.059	1.387	2.056	1.392	1.396	1.387	1.401	1.392	1.406
-0.088	-0.005	-0.063	0.010	-0.186	-0.039	1.396	2.002	1.401	1.392	1.382	1.406	1.392	1.406
-0.088	0.005	-0.073	0.015	-0.171	-0.010	1.401	1.943	1.387	1.396	1.387	1.401	1.396	1.416
-0.034	0.005	-0.024	0.010	-0.171	-0.010	1.401	2.056	1.406	1.401	1.401	1.411	1.401	1.411
0.005	0.020	-0.005	0.000	-0.142	0.034	1.406	2.080	1.421	1.411	1.411	1.411	1.411	1.421
-0.029	0.039	0.010	-0.010	-0.083	0.039	1.411	1.992	1.396	1.411	1.416	1.416	1.431	1.426
-0.073	0.044	0.015	-0.005	0.000	0.044	1.411	2.070	1.377	1.401	1.411	1.426	1.450	1.436
-0.020	0.029	0.015	0.005	0.015	0.083	1.401	2.056	1.401	1.401	1.411	1.426	1.445	1.450
0.054	0.029	0.005	0.005	0.044	0.107	1.401	2.017	1.426	1.406	1.406	1.431	1.450	1.455
0.142	0.024	-0.039	0.010	0.029	0.098	1.401	1.963	1.436	1.416	1.396	1.426	1.436	1.445
0.225	-0.015	-0.010	0.015	-0.034	0.088	1.401	2.021	1.445	1.416	1.406	1.426	1.416	1.436
0.288	-0.015	-0.137	0.044	-0.059	0.049	1.396	2.070	1.455	1.421	1.372	1.421	1.411	1.416
0.293	-0.020	-0.171	0.083	-0.073	0.020	1.396	2.007	1.436	1.421	1.387	1.431	1.406	1.406
0.205	-0.020	-0.098	0.049	0.005	-0.005	1.387	2.007	1.392	1.416	1.416	1.421	1.431	1.411
0.063	-0.024	0.000	-0.005	0.034	0.000	1.387	2.012	1.348	1.392	1.431	1.416	1.431	1.416
-0.059	-0.015	0.088	0.005	0.073	0.044	1.377	2.012	1.323	1.377	1.436	1.436	1.445	1.436
-0.078	-0.005	0.161	-0.005	0.059	0.068	1.377	2.012	1.328	1.367	1.440	1.440	1.436	1.445
-0.469	0.020	0.225	-0.010	-0.005	0.098	1.372	2.026	1.230	1.328	1.421	1.436	1.421	1.445
-0.649	0.015	0.205	-0.005	-0.024	0.093	1.392	2.021	1.226	1.294	1.382	1.426	1.416	1.431
-0.537	0.029	0.161	0.005	-0.024	0.005	1.396	2.026	1.309	1.299	1.353	1.411	1.406	1.401
-0.332	0.029	0.088	0.005	-0.010	-0.132	1.406	2.007	1.387	1.328	1.323	1.392	1.401	1.367
-0.083	0.015	0.054	0.015	0.015	-0.186	1.421	2.002	1.450	1.362	1.323	1.382	1.401	1.367
0.117	0.015	0.000	0.034	0.005	-0.225	1.421	2.021	1.494	1.401	1.333	1.382	1.392	1.362
0.327	0.010	-0.005	0.044	-0.020	-0.176	1.426	2.031	1.523	1.440	1.357	1.377	1.382	1.382
0.459	0.005	-0.020	0.010	-0.024	-0.112	1.431	2.007	1.514	1.460	1.382	1.372	1.377	1.401
0.464	-0.024	-0.054	-0.015	-0.034	-0.039	1.426	1.997	1.475	1.455	1.392	1.377	1.377	1.411
0.347	-0.039	-0.078	-0.029	0.005	-0.005	1.445	2.007	1.406	1.436	1.396	1.382	1.392	1.416
0.132	-0.049	-0.127	-0.049	0.024	0.020	1.494	2.007	1.333	1.396	1.382	1.382	1.392	1.416
-0.044	-0.029	-0.181	-0.020	0.020	0.020	1.523	2.041	1.299	1.367	1.367	1.392	1.392	1.406
-0.117	-0.020	-0.142	-0.015	0.054	0.015	1.523	2.012	1.299	1.353	1.377	1.396	1.401	1.406
-0.103	-0.024	-0.073	-0.015	0.117	0.029	1.528	2.021	1.333	1.348	1.387	1.401	1.411	1.411
0.005	-0.005	0.005	-0.005	0.078	0.044	1.533	2.026	1.382	1.367	1.401	1.411	1.401	1.411
-0.063	0.005	0.073	0.015	0.093	0.059	1.533	2.012	1.343	1.362	1.406	1.421	1.411	1.416
-0.146	0.010	0.059	0.020	0.156	0.063	1.519	2.017	1.338	1.357	1.392	1.416	1.431	1.421
-0.142	0.029	-0.020	0.020	0.117	0.044	1.509	2.021	1.353	1.357	1.357	1.406	1.406	1.411
-0.078	0.034	-0.029	0.020	0.059	0.020	1.489	2.061	1.387	1.367	1.357	1.396	1.392	1.396
0.000	0.034	0.000	0.024	0.020	0.034	1.450	2.109	1.411	1.382	1.372	1.396	1.377	1.396
0.083	0.049	0.049	0.034	0.000	0.024	1.455	2.007	1.426	1.401	1.396	1.401	1.377	1.387
0.146	0.034	0.103	0.020	-0.073	0.063	1.455	2.007	1.426	1.406	1.406	1.401	1.367	1.392
0.186	0.020	0.088	-0.010	-0.078	0.132	1.450	2.109	1.431	1.411	1.401	1.401	1.377	1.401
0.151	-0.005	0.073	-0.024	-0.059	0.161	1.465	2.065	1.406	1.401	1.396	1.401	1.387	1.406
0.088	-0.029	0.049	-0.039	-0.049	0.103	1.460	2.085	1.382	1.387	1.387	1.396	1.387	1.382
0.005	-0.024	0.015	-0.054	-0.063	0.000	1.455	2.056	1.357	1.377	1.372	1.392	1.382	1.353
-0.088	-0.029	-0.005	-0.034	-0.078	-0.132	1.455	1.973	1.318	1.353	1.367	1.392	1.372	1.323
-0.176	-0.010	-0.010	-0.024	-0.137	-0.205	1.455	2.070	1.304	1.343	1.357	1.387	1.357	1.313
-0.161	-0.020	-0.024	-0.020	-0.132	-0.278	1.470	2.090	1.328	1.333	1.348	1.387	1.362	1.309
-0.093	-0.029	-0.034	-0.005	-0.127	-0.293	1.479	2.065	1.343	1.338	1.343	1.382	1.367	1.318
-0.068	-0.029	-0.020	0.010	-0.107	-0.239	1.494	1.978	1.343	1.338	1.348	1.382	1.382	1.353
-0.054	-0.039	-0.024	0.010	-0.068	-0.166	1.499	1.992	1.343	1.338	1.343	1.377	1.396	1.387
-0.068	-0.034	-0.039	0.005	0.010	-0.073	1.514	2.075	1.353	1.343	1.338	1.377	1.411	1.421
-0.044	-0.005	-0.049	0.010	0.034	0.000	1.509	2.036	1.367	1.357	1.343	1.372	1.406	1.440
-0.020	0.010	-0.054	0.000	0.083	0.073	1.494	2.075	1.382	1.367	1.343	1.367	1.411	1.445
-0.010	0.024	-0.054	-0.005	0.142	0.073	1.514	2.017	1.387	1.377	1.353	1.367	1.411	1.440
-0.054	0.034	-0.029	-0.015	0.098	0.063	1.558	2.026	1.367	1.377	1.367	1.367	1.387	1.426
-0.127	0.029	-0.005	-0.024	0.054	0.107	1.587	2.021	1.353	1.367	1.372	1.372	1.372	1.416
-0.098	0.024	0.024	-0.020	0.005	0.098	1.621	2.026	1.367	1.367	1.377	1.377	1.362	1.401
-0.034	0.024	-0.083	-0.029	0.029	0.112	1.626	2.036	1.387	1.367	1.348	1.372	1.367	1.396
0.034	0.010	-0.161	-0.024	0.039	0.117	1.621	2.031	1.401	1.372	1.333	1.367	1.372	1.387
0.098	0.015	-0.132	-0.024	0.049	0.117	1.631	2.017	1.416	1.392	1.362	1.372	1.372	1.382
0.107	0.010	-0.039	-0.015	0.107	0.083	1.626	2.031	1.406	1.396	1.396	1.387	1.392	1.382
0.107	0.015	0.049	-0.015	0.200	0.068	1.626	2.012	1.392	1.401	1.416	1.401	1.421	1.387
0.063	0.024	0.132	0.000	0.225	0.034	1.626	2.007	1.372	1.396	1.436	1.421	1.421	1.387
-0.005	0.010	0.107	0.015	0.190	0.010	1.621	2.012	1.353	1.377	1.411	1.426	1.411	1.387
0.010	0.005	0.034	-0.005	0.156	0.015	1.621	2.007	1.357	1.367	1.382	1.411	1.401	1.392
0.039	0.000	0.049	-0.005	0.117	0.020	1.631	1.997	1.367	1.367	1.382	1.406	1.392	1.396
0.059	-0.005	0.054	-0.010	-0.024	0.000	1.626	2.031	1.377	1.367	1.372	1.396	1.353	1.372
0.083	0.010	-0.005	-0.020	-0.156	-0.015	1.621	2.031	1.382	1.372	1.353	1.382	1.323	1.348
0.083	0.015	-0.015	-0.015	-0.195	-0.010	1.631	2.007	1.372	1.372	1.357	1.382	1.328	1.348
0.005	0.010	0.034	-0.005	-0.244	0.005	1.602	2.031	1.338	1.357	1.377	1.387	1.333	1.348
0.024	0.010	0.083	-0.005	-0.225	0.034	1.587	2.017	1.348	1.357	1.382	1.396	1.357	1.357
0.024	-0.005	0.112	0.005	-0.176	0.044	1.602	2.026	1.348	1.353	1.382	1.396	1.377	1.367
0.000	0.010	0.112	0.005	-0.122	-0.005	1.602	2.031	1.343	1.353	1.372	1.401	1.396	1.362
0.005	0.015	0.068	0.005	-0.039	-0.015	1.562	2.012	1.348	1.353	1.353	1.396	1.416	1.372
0.005	0.015	0.034	0.005	0.029	-0.034	1.548	2.026	1.353	1.353	1.343	1.387	1.426	1.382
0.024	0.015	0.034	0.000	0.063	-0.024	1.567	2.017	1.357	1.357	1.348	1.377	1.421	1.401
0.010	0.005	-0.005	-0.005	0.107	0.015	1.558	2.119	1.367	1.348	1.338	1.372	1.421	1.411
0.010	-0.005	-0.010	-0.005	0.063	0.000	1.572	2.100	1.377	1.353	1.338	1.367	1.392	1.401
0.029	-0.010	-0.049	-0.015	0.068	0.015	1.582	2.007	1.377	1.357	1.333	1.362	1.387	1.401
0.010	-0.010	-0.059	-0.010	0.034	0.015	1.553	2.007	1.362	1.357	1.338	1.357	1.362	1.392
-0.010	-0.020	-0.054	-0.010	-0.010	0.010	1.587	2.124	1.367	1.357	1.343	1.357	1.353	1.377
0.000	-0.024	-0.049	-0.005	0.049	0.015	1.606	2.046	1.367	1.357	1.348	1.362	1.372	1.382
-0.024	0.000	-0.049	-0.005	0.146	0.024	1.602	2.144	1.372	1.367	1.357	1.367	1.396	1.392
-0.024	-0.015	-0.049	-0.005	0.176	0.059	1.602	2.036	1.367	1.362	1.357	1.372	1.396	1.396
-0.063	-0.010	-0.044	-0.010	0.127	0.073	1.606	1.987	1.353	1.357	1.357	1.372	1.372	1.396
-0.049	0.005	-0.024	-0.005	0.083	0.063	1.606	2.070	1.367	1.362	1.362	1.372	1.357	1.387
0.024	0.010	0.000	0.000	-0.020	0.039	1.606	1.987	1.382	1.372	1.372	1.377	1.333	1.357
0.068	0.010	0.015	0.000	-0.098	-0.020	1.606	2.061	1.387	1.377	1.377	1.382	1.323	1.333
0.024	0.020	0.029	-0.005	-0.137	-0.068	1.606	1.948	1.353	1.372	1.377	1.382	1.323	1.313
-0.029	0.020	-0.010	0.020	-0.142	-0.122	1.611	2.026	1.333	1.357	1.362	1.387	1.343	1.309
-0.063	0.005	-0.039	0.010	-0.117	-0.156	1.592	1.953	1.313	1.338	1.348	1.377	1.357	1.313
-0.049	-0.005	-0.078	-0.005	-0.078	-0.142	1.548	2.031	1.323	1.328	1.333	1.367	1.367	1.328
0.049	-0.005	-0.083	-0.010	-0.024	-0.117	1.616	2.080	1.367	1.343	1.333	1.362	1.382	1.353
0.063	-0.015	-0.059	-0.010	-0.044	-0.112	1.626	2.012	1.357	1.348	1.343	1.362	1.367	1.357
-0.015	-0.005	0.020	-0.010	-0.029	-0.088	1.621	2.012	1.328	1.343	1.367	1.372	1.372	1.372
-0.059	-0.005	0.093	0.010	-0.005	-0.029	1.602	2.021	1.328	1.338	1.377	1.387	1.382	1.392
-0.107	-0.005	0.137	0.005	-0.034	0.005	1.606	2.026	1.323	1.333	1.377	1.387	1.377	1.392
-0.117	-0.015	0.205	0.005	-0.039	0.000	1.616	2.026	1.318	1.328	1.382	1.392	1.377	1.387
-0.107	-0.005	0.146	0.000	-0.010	0.039	1.606	2.031	1.333	1.333	1.348	1.382	1.392	1.401
-0.049	-0.010	0.044	-0.005	0.015	0.073	1.602	2.017	1.357	1.333	1.313	1.367	1.387	1.401
-0.024	-0.005	-0.049	-0.005	0.000	0.083	1.597	2.026	1.362	1.343	1.304	1.348	1.372	1.401
0.020	-0.015	-0.039	-0.005	-0.034	0.078	1.597	2.012	1.377	1.348	1.318	1.348	1.353	1.387
0.049	-0.015	-0.020	0.000	-0.049	0.093	1.597	2.021	1.372	1.357	1.328	1.348	1.348	1.377
0.024	-0.020	-0.005	0.005	-0.029	0.112	1.592	2.007	1.357	1.357	1.343	1.353	1.357	1.377
0.010	-0.029	0.005	0.005	-0.044	0.112	1.602	2.026	1.353	1.353	1.348	1.353	1.348	1.367
-0.010	-0.010	0.010	0.000	-0.020	0.083	1.606	2.017	1.343	1.353	1.353	1.362	1.357	1.357
-0.132	0.015	0.000	0.010	0.024	0.034	1.606	2.026	1.309	1.343	1.343	1.362	1.367	1.348
-0.200	0.020	0.005	0.010	0.024	-0.015	1.602	2.017	1.304	1.333	1.348	1.362	1.362	1.338
-0.107	0.024	0.020	0.010	0.049	-0.049	1.597	2.041	1.348	1.338	1.348	1.367	1.367	1.338
0.078	0.005	-0.020	0.010	0.015	-0.044	1.587	2.031	1.396	1.353	1.333	1.357	1.357	1.343
0.186	0.015	-0.073	0.010	0.005	-0.049	1.597	2.007	1.411	1.372	1.333	1.357	1.353	1.348
0.210	0.024	-0.073	0.010	0.039	-0.088	1.592	2.031	1.401	1.382	1.348	1.357	1.362	1.343
0.176	0.024	-0.039	0.010	0.044	-0.122	1.602	2.036	1.377	1.382	1.367	1.367	1.362	1.333
0.151	0.015	-0.024	0.005	0.093	-0.107	1.611	2.021	1.357	1.372	1.372	1.372	1.377	1.353
0.112	0.010	-0.015	-0.005	0.054	-0.142	1.621	2.017	1.338	1.357	1.367	1.372	1.362	1.348
0.049	0.005	-0.024	-0.005	0.024	-0.068	1.636	2.026	1.323	1.343	1.357	1.372	1.362	1.367
0.010	0.005	-0.029	0.000	0.073	0.015	1.646	2.114	1.323	1.338	1.353	1.377	1.382	1.396
-0.015	0.000	-0.005	0.005	0.063	0.083	1.650	2.070	1.338	1.328	1.353	1.377	1.377	1.406
-0.039	-0.015	0.044	0.000	0.137	0.132	1.655	2.012	1.333	1.333	1.357	1.377	1.396	1.416
0.020	0.005	0.054	0.005	0.186	0.137	1.655	2.002	1.357	1.348	1.357	1.382	1.401	1.416
-0.005	0.015	0.044	0.005	0.068	0.112	1.650	2.124	1.362	1.348	1.353	1.377	1.362	1.392
-0.044	0.020	0.000	0.010	0.078	0.083	1.650	2.051	1.353	1.348	1.333	1.367	1.362	1.377
-0.039	0.020	-0.063	0.010	0.015	0.029	1.650	2.139	1.367	1.348	1.323	1.357	1.343	1.348
-0.063	0.015	-0.049	0.005	0.024	0.010	1.650	2.080	1.357	1.353	1.333	1.357	1.348	1.343
-0.020	0.015	-0.024	0.005	-0.044	0.000	1.646	1.992	1.362	1.357	1.348	1.357	1.328	1.338
-0.049	0.010	0.020	0.000	-0.171	0.034	1.650	2.051	1.348	1.353	1.357	1.357	1.304	1.338
-0.142	-0.005	0.063	-0.005	-0.181	0.034	1.646	2.090	1.323	1.343	1.362	1.367	1.318	1.328
-0.146	-0.005	0.068	-0.005	-0.142	0.010	1.646	2.061	1.333	1.343	1.357	1.367	1.343	1.328
-0.107	-0.020	0.068	-0.005	-0.078	-0.020	1.636	2.056	1.353	1.338	1.353	1.372	1.362	1.328
0.044	-0.020	0.049	-0.010	-0.049	-0.063	1.636	2.017	1.392	1.353	1.348	1.372	1.372	1.333
0.132	-0.010	0.049	-0.010	-0.044	-0.088	1.616	2.065	1.401	1.372	1.353	1.367	1.367	1.333
0.107	-0.015	0.024	-0.015	-0.015	-0.093	1.597	2.036	1.382	1.372	1.353	1.367	1.377	1.343
0.078	-0.020	-0.005	-0.005	0.059	-0.083	1.606	2.090	1.362	1.362	1.343	1.372	1.396	1.362
0.034	-0.015	-0.010	0.005	0.107	-0.049	1.606	2.031	1.343	1.357	1.348	1.372	1.401	1.382
0.093	-0.015	-0.073	0.005	0.054	0.029	1.616	2.036	1.362	1.357	1.333	1.367	1.377	1.401
0.088	-0.005	-0.059	0.005	-0.015	0.049	1.616	2.021	1.357	1.362	1.343	1.367	1.357	1.392
0.078	0.015	0.015	0.010	-0.078	0.029	1.616	2.041	1.357	1.367	1.372	1.372	1.338	1.367
0.088	0.020	0.073	0.010	-0.176	-0.015	1.621	2.026	1.357	1.367	1.382	1.377	1.318	1.343
0.107	0.034	0.083	0.015	-0.171	-0.039	1.626	2.012	1.348	1.367	1.377	1.387	1.343	1.338
-0.010	0.029	-0.020	0.015	-0.063	-0.054	1.626	2.021	1.309	1.348	1.343	1.382	1.377	1.343
-0.073	0.029	-0.024	0.020	0.020	-0.063	1.621	2.007	1.294	1.328	1.338	1.377	1.401	1.357
-0.210	0.034	0.000	0.024	0.054	-0.098	1.621	2.026	1.270	1.309	1.343	1.377	1.401	1.362
-0.146	0.005	0.024	0.010	0.112	-0.059	1.626	2.036	1.313	1.304	1.333	1.367	1.406	1.387
-0.024	0.010	0.034	0.000	0.063	-0.063	1.616	2.012	1.353	1.323	1.333	1.357	1.377	1.382
0.039	-0.005	0.020	-0.005	0.034	-0.020	1.626	1.997	1.372	1.333	1.328	1.353	1.367	1.387
0.093	-0.020	0.000	0.000	0.034	0.039	1.621	2.017	1.382	1.343	1.323	1.353	1.362	1.396
0.117	-0.020	-0.015	-0.020	-0.020	0.098	1.626	2.041	1.382	1.353	1.328	1.343	1.343	1.396
0.068	-0.029	-0.039	-0.024	-0.049	0.151	1.631	2.017	1.357	1.348	1.328	1.343	1.338	1.396
-0.020	-0.024	-0.024	-0.005	0.000	0.166	1.641	2.017	1.333	1.343	1.333	1.353	1.353	1.387
-0.063	-0.024	-0.010	0.005	0.063	0.142	1.641	2.031	1.323	1.338	1.343	1.357	1.367	1.372
-0.098	-0.034	-0.020	0.005	0.034	0.083	1.641	2.007	1.318	1.328	1.333	1.353	1.353	1.353
-0.103	-0.015	-0.005	0.005	0.034	0.024	1.641	2.026	1.318	1.333	1.338	1.353	1.353	1.333
-0.088	-0.010	-0.005	0.005	0.078	-0.024	1.641	2.031	1.333	1.333	1.333	1.357	1.357	1.333
-0.044	0.005	-0.029	0.010	0.049	-0.078	1.641	2.007	1.348	1.338	1.328	1.353	1.348	1.323
-0.029	0.005	-0.049	0.010	0.059	-0.063	1.646	2.017	1.343	1.343	1.328	1.353	1.348	1.333
-0.015	0.029	-0.054	0.000	0.127	-0.054	1.646	2.026	1.348	1.348	1.333	1.353	1.372	1.343
0.024	0.029	0.015	0.005	0.127	-0.024	1.641	2.065	1.362	1.357	1.357	1.357	1.367	1.357
0.029	0.029	0.034	0.010	0.117	0.020	1.646	1.997	1.353	1.357	1.362	1.367	1.367	1.372
0.034	0.020	0.020	0.010	0.073	0.054	1.636	1.997	1.353	1.353	1.357	1.367	1.353	1.377
0.054	0.024	0.015	-0.005	0.010	0.063	1.641	2.021	1.353	1.353	1.353	1.362	1.338	1.367
0.034	0.005	0.020	0.000	-0.054	0.054	1.646	1.982	1.338	1.343	1.353	1.362	1.323	1.353
0.078	-0.015	0.039	-0.010	-0.142	0.024	1.650	1.968	1.348	1.338	1.353	1.362	1.309	1.328
0.098	-0.024	0.039	-0.020	-0.151	0.020	1.650	2.012	1.343	1.338	1.343	1.357	1.318	1.323
0.083	-0.024	0.005	-0.020	-0.142	0.005	1.655	2.061	1.338	1.338	1.333	1.357	1.328	1.318
0.068	-0.015	0.039	-0.010	-0.132	-0.010	1.655	1.958	1.328	1.338	1.348	1.362	1.343	1.323
0.024	0.000	0.044	-0.005	-0.112	-0.020	1.655	2.065	1.318	1.333	1.343	1.362	1.348	1.328
-0.015	0.000	0.010	0.000	-0.127	-0.059	1.650	1.987	1.309	1.323	1.323	1.357	1.348	1.323
-0.049	-0.005	-0.024	0.005	-0.098	-0.078	1.650	1.973	1.294	1.313	1.318	1.353	1.353	1.323
-0.093	0.005	-0.020	0.005	-0.054	-0.098	1.650	1.992	1.289	1.309	1.313	1.348	1.362	1.333
-0.059	0.015	-0.015	0.010	-0.063	-0.054	1.655	2.021	1.309	1.309	1.313	1.343	1.353	1.353
0.044	0.010	0.005	0.015	-0.078	-0.039	1.655	2.065	1.348	1.323	1.323	1.343	1.348	1.353
0.059	0.024	-0.005	0.010	-0.029	0.015	1.660	2.046	1.353	1.333	1.318	1.343	1.362	1.372
0.029	0.024	0.000	0.005	-0.010	0.073	1.665	2.051	1.343	1.333	1.328	1.343	1.362	1.387
0.005	0.029	-0.024	0.010	0.020	0.112	1.665	2.041	1.338	1.333	1.323	1.343	1.362	1.387
-0.049	0.015	-0.029	0.010	0.049	0.083	1.670	2.026	1.323	1.323	1.323	1.343	1.367	1.372
-0.078	0.020	-0.010	0.010	0.103	0.059	1.665	2.036	1.323	1.328	1.328	1.348	1.377	1.372
-0.088	0.015	-0.020	0.010	0.156	0.029	1.675	2.007	1.323	1.323	1.323	1.348	1.377	1.362
-0.078	0.015	0.000	0.010	0.161	-0.029	1.675	2.031	1.338	1.328	1.328	1.348	1.372	1.353
-0.029	0.005	0.005	0.005	0.176	-0.054	1.680	2.026	1.353	1.333	1.333	1.348	1.362	1.348
0.005	-0.010	0.005	0.000	0.142	-0.059	1.675	2.041	1.362	1.333	1.333	1.348	1.348	1.343
0.044	-0.020	-0.005	0.000	0.083	-0.063	1.675	2.036	1.367	1.343	1.328	1.348	1.328	1.338
0.024	-0.029	-0.020	0.000	0.029	-0.073	1.675	2.031	1.348	1.338	1.328	1.343	1.318	1.328
0.005	-0.005	-0.054	0.000	0.044	-0.029	1.675	2.031	1.338	1.343	1.323	1.343	1.333	1.343
-0.020	-0.020	-0.039	0.000	0.093	0.024	1.675	2.012	1.328	1.333	1.328	1.348	1.348	1.357
-0.029	-0.020	-0.005	0.000	0.073	0.054	1.675	2.031	1.328	1.333	1.338	1.348	1.338	1.357
-0.034	-0.010	0.005	0.010	0.024	0.044	1.675	2.007	1.328	1.333	1.343	1.353	1.328	1.348
-0.015	-0.015	0.020	0.005	0.059	0.010	1.680	2.012	1.338	1.333	1.343	1.353	1.348	1.343
0.005	-0.010	0.063	0.005	0.107	-0.005	1.680	2.012	1.338	1.343	1.353	1.362	1.362	1.343
