0.000	-0.010	-0.005	0.005	-0.034	0.010	0.039	2.627	2.383	2.075	2.002	1.938	1.934	1.934
0.010	-0.005	-0.005	0.000	-0.029	0.005	0.044	2.686	2.261	2.129	2.031	1.968	1.938	1.934
0.010	-0.010	-0.005	0.000	-0.024	0.005	0.039	2.661	2.168	2.144	2.065	1.997	1.958	1.938
-0.005	0.005	0.000	0.000	-0.010	-0.005	0.039	2.695	2.104	2.139	2.085	2.026	1.978	1.948
0.000	0.010	0.010	0.005	-0.010	-0.024	0.039	2.666	2.056	2.119	2.100	2.051	1.992	1.953
0.000	0.010	0.005	0.000	-0.049	-0.029	0.039	2.661	2.026	2.095	2.095	2.065	2.002	1.963
-0.010	0.010	0.000	0.005	-0.063	-0.015	0.039	2.681	1.997	2.065	2.090	2.080	2.021	1.982
-0.005	0.010	0.005	0.000	-0.054	-0.005	0.044	2.690	1.987	2.046	2.075	2.085	2.036	1.997
-0.005	0.010	0.005	0.005	-0.015	0.000	0.044	2.671	1.973	2.026	2.065	2.085	2.061	2.021
-0.005	0.005	0.000	0.005	-0.005	-0.005	0.039	2.681	1.968	2.007	2.046	2.080	2.065	2.031
0.000	0.000	0.005	0.010	-0.015	-0.020	0.039	2.676	1.968	1.997	2.036	2.075	2.065	2.036
-0.005	0.000	0.005	0.000	0.010	0.000	0.039	2.681	1.968	1.987	2.021	2.065	2.075	2.056
0.010	-0.005	0.000	0.000	-0.005	0.029	0.039	2.686	1.968	1.982	2.007	2.056	2.061	2.061
0.000	-0.010	0.000	0.005	0.078	0.020	0.044	2.651	1.968	1.978	2.002	2.046	2.085	2.065
0.005	-0.015	0.005	0.000	0.161	0.010	0.039	2.690	1.968	1.973	1.992	2.041	2.090	2.070
0.010	-0.015	0.000	0.000	0.142	0.005	0.039	2.686	1.973	1.973	1.987	2.026	2.065	2.070
0.000	-0.015	-0.005	0.000	0.132	0.005	0.039	2.676	1.973	1.973	1.982	2.021	2.051	2.065
0.000	0.000	-0.005	0.000	0.059	0.005	0.039	2.690	1.978	1.978	1.978	2.012	2.017	2.051
0.010	0.000	0.000	0.005	-0.015	0.000	0.039	2.690	1.978	1.978	1.978	2.007	1.992	2.026
0.000	0.005	0.000	0.000	-0.024	0.015	0.044	2.671	1.973	1.973	1.978	2.002	1.992	2.021
-0.005	0.000	0.000	0.000	-0.024	0.015	0.044	2.671	1.968	1.973	1.973	1.997	1.992	2.017
0.000	0.000	0.005	0.000	0.000	0.005	0.044	2.661	1.968	1.973	1.978	1.997	1.997	2.007
0.000	0.000	0.005	0.000	-0.010	0.010	0.044	2.676	1.963	1.968	1.973	1.997	1.997	2.007
0.000	0.015	0.005	0.000	-0.044	0.005	0.039	2.681	1.963	1.973	1.973	1.992	1.982	1.997
-0.010	0.000	0.005	0.000	-0.063	0.000	0.044	2.686	1.963	1.963	1.968	1.992	1.978	1.992
-0.005	0.000	0.000	0.000	-0.063	-0.010	0.039	2.686	1.963	1.963	1.968	1.992	1.982	1.982
-0.005	-0.005	0.000	0.005	-0.063	-0.010	0.039	2.681	1.958	1.963	1.968	1.987	1.982	1.987
0.005	0.000	0.005	0.005	-0.059	-0.039	0.039	2.681	1.958	1.963	1.963	1.987	1.987	1.978
0.000	0.000	0.000	0.005	-0.005	-0.029	0.039	2.681	1.958	1.963	1.963	1.987	1.997	1.987
0.005	0.010	-0.005	0.000	0.024	0.000	0.039	2.681	1.963	1.963	1.963	1.982	2.002	1.997
0.005	0.010	0.000	0.000	0.005	0.010	0.039	2.695	1.968	1.963	1.963	1.982	1.987	1.997
0.000	-0.005	-0.005	0.000	-0.015	0.015	0.039	2.676	1.958	1.958	1.958	1.982	1.978	1.992
0.005	-0.010	-0.005	0.005	-0.005	0.015	0.039	2.676	1.958	1.958	1.958	1.978	1.982	1.992
0.005	-0.015	-0.005	0.000	0.010	0.015	0.039	2.676	1.958	1.953	1.953	1.978	1.982	1.987
0.005	-0.015	-0.005	0.000	0.005	0.005	0.044	2.681	1.953	1.953	1.953	1.973	1.978	1.982
0.000	0.000	0.000	0.000	0.000	0.005	0.039	2.676	1.953	1.958	1.953	1.973	1.973	1.982
0.005	0.005	0.000	0.000	0.049	0.010	0.044	2.686	1.953	1.953	1.953	1.978	1.987	1.987
-0.005	0.020	0.000	0.000	0.054	-0.005	0.039	2.681	1.953	1.958	1.958	1.978	1.982	1.978
-0.005	0.015	0.005	0.005	0.034	0.010	0.039	2.686	1.953	1.958	1.953	1.978	1.973	1.982
-0.010	0.010	0.005	0.000	-0.015	0.015	0.044	2.676	1.948	1.953	1.953	1.973	1.958	1.973
-0.005	0.020	0.005	-0.005	-0.039	-0.005	0.039	2.686	1.948	1.953	1.953	1.973	1.953	1.968
-0.015	0.010	0.005	0.000	-0.034	-0.015	0.039	2.681	1.948	1.948	1.953	1.973	1.958	1.963
-0.010	0.000	0.005	0.000	-0.005	0.010	0.039	2.671	1.948	1.948	1.948	1.973	1.968	1.973
-0.005	0.015	0.005	0.000	0.010	0.000	0.039	2.686	1.943	1.948	1.948	1.973	1.973	1.968
0.005	0.005	0.000	0.000	0.000	-0.010	0.044	2.671	1.943	1.948	1.948	1.973	1.968	1.968
-0.005	-0.010	0.005	0.005	-0.005	-0.015	0.039	2.651	1.943	1.938	1.943	1.968	1.968	1.968
0.005	-0.005	0.000	0.000	0.000	0.010	0.039	2.681	1.943	1.938	1.943	1.963	1.963	1.973
0.015	0.000	0.000	0.000	-0.010	0.015	0.039	2.681	1.943	1.943	1.943	1.963	1.963	1.968
0.015	-0.015	-0.005	0.000	-0.005	0.015	0.039	2.690	1.943	1.938	1.938	1.963	1.963	1.968
0.000	-0.010	-0.005	0.000	0.000	0.010	0.039	2.681	1.938	1.943	1.943	1.958	1.963	1.963
0.010	-0.010	0.000	0.000	-0.010	0.005	0.039	2.661	1.938	1.938	1.938	1.958	1.958	1.958
0.005	-0.005	-0.005	0.005	-0.010	0.000	0.044	2.681	1.934	1.934	1.938	1.958	1.953	1.958
0.005	-0.005	0.000	0.000	-0.010	0.005	0.039	2.681	1.934	1.938	1.938	1.958	1.953	1.958
-0.005	0.000	-0.005	0.000	-0.024	0.010	0.039	2.676	1.934	1.934	1.938	1.958	1.948	1.958
0.010	0.000	0.005	0.000	-0.005	0.015	0.039	2.676	1.934	1.934	1.938	1.958	1.958	1.958
0.000	0.000	0.000	0.005	0.054	0.015	0.039	2.666	1.934	1.934	1.934	1.958	1.973	1.963
-0.010	0.015	0.005	0.005	0.020	0.010	0.044	2.676	1.934	1.938	1.934	1.958	1.958	1.958
-0.010	0.015	0.000	0.000	0.010	-0.010	0.044	2.695	1.934	1.934	1.938	1.953	1.953	1.953
-0.005	0.015	0.005	0.005	0.010	0.000	0.039	2.681	1.934	1.934	1.934	1.958	1.948	1.953
-0.010	0.005	0.005	0.000	0.010	-0.005	0.044	2.681	1.934	1.929	1.934	1.953	1.953	1.953
0.005	0.010	0.000	0.005	-0.010	0.000	0.039	2.651	1.934	1.934	1.929	1.953	1.948	1.953
0.000	-0.005	0.000	0.005	-0.015	0.000	0.039	2.637	1.929	1.929	1.929	1.948	1.943	1.948
0.000	0.000	0.000	0.000	-0.005	-0.005	0.039	2.681	1.929	1.924	1.929	1.948	1.948	1.948
0.010	0.000	0.000	0.000	-0.010	-0.005	0.039	2.676	1.929	1.929	1.929	1.948	1.943	1.943
0.000	-0.010	0.000	-0.005	-0.010	-0.015	0.039	2.676	1.924	1.924	1.924	1.948	1.943	1.943
0.005	-0.010	-0.005	0.000	0.005	0.000	0.039	2.661	1.924	1.924	1.924	1.943	1.948	1.948
0.010	-0.005	-0.005	0.005	0.015	0.010	0.039	2.676	1.924	1.924	1.924	1.943	1.948	1.948
0.005	0.000	-0.005	0.000	0.015	-0.005	0.039	2.671	1.924	1.924	1.919	1.943	1.948	1.943
0.005	-0.010	-0.005	0.000	0.020	0.015	0.044	2.681	1.924	1.924	1.919	1.938	1.948	1.953
0.000	0.000	0.000	0.000	0.010	0.015	0.044	2.681	1.929	1.929	1.924	1.938	1.938	1.948
0.000	0.005	0.000	0.000	0.005	0.000	0.039	2.681	1.924	1.924	1.924	1.943	1.938	1.943
0.000	0.005	0.005	0.000	0.005	0.010	0.044	2.671	1.919	1.924	1.924	1.943	1.934	1.943
0.000	0.015	0.000	0.000	0.005	0.005	0.039	2.681	1.919	1.924	1.924	1.943	1.934	1.934
-0.010	0.005	0.005	0.000	-0.010	-0.005	0.044	2.671	1.919	1.919	1.924	1.943	1.934	1.938
-0.010	0.015	0.005	0.000	-0.005	0.005	0.039	2.681	1.914	1.919	1.924	1.943	1.938	1.938
-0.010	0.010	0.010	0.005	-0.020	0.005	0.039	2.681	1.919	1.919	1.924	1.943	1.934	1.934
-0.005	0.005	0.005	0.000	-0.020	0.010	0.039	2.666	1.919	1.919	1.919	1.938	1.934	1.934
-0.005	0.005	0.000	0.000	-0.039	0.005	0.039	2.681	1.919	1.919	1.919	1.938	1.929	1.934
0.005	-0.005	0.005	0.000	-0.034	-0.005	0.044	2.700	1.924	1.914	1.919	1.938	1.934	1.929
0.000	-0.010	0.000	0.000	-0.024	0.005	0.039	2.686	1.919	1.914	1.914	1.934	1.934	1.929
0.000	-0.010	0.000	0.000	-0.024	-0.015	0.039	2.671	1.919	1.914	1.914	1.934	1.934	1.929
0.005	-0.015	-0.005	0.005	-0.010	-0.020	0.044	2.666	1.914	1.914	1.914	1.934	1.934	1.929
0.000	-0.005	-0.005	0.005	0.005	-0.015	0.039	2.686	1.914	1.914	1.914	1.934	1.938	1.934
0.015	-0.005	-0.005	0.005	0.005	0.005	0.044	2.681	1.919	1.914	1.914	1.934	1.934	1.938
0.000	-0.005	0.000	0.005	0.034	0.029	0.039	2.671	1.909	1.914	1.914	1.934	1.943	1.943
0.010	0.005	-0.005	0.005	0.103	0.020	0.044	2.651	1.914	1.919	1.914	1.934	1.958	1.948
0.000	0.005	0.005	0.005	0.107	0.005	0.039	2.666	1.909	1.914	1.914	1.934	1.948	1.943
0.000	0.005	0.000	0.000	0.073	0.005	0.039	2.686	1.909	1.914	1.914	1.934	1.934	1.943
-0.005	0.010	0.000	0.005	0.054	0.005	0.039	2.695	1.914	1.914	1.914	1.934	1.929	1.934
-0.005	0.015	0.000	0.000	0.029	-0.005	0.039	2.671	1.919	1.914	1.914	1.934	1.919	1.929
-0.010	0.015	0.000	0.000	0.000	-0.010	0.039	2.681	1.914	1.914	1.914	1.929	1.914	1.924
-0.005	0.015	0.000	0.000	-0.020	0.005	0.039	2.686	1.914	1.914	1.914	1.934	1.914	1.924
-0.005	0.010	0.005	0.005	-0.015	0.000	0.044	2.676	1.914	1.914	1.914	1.934	1.919	1.919
-0.010	0.010	0.005	0.000	-0.010	0.000	0.039	2.681	1.909	1.909	1.914	1.929	1.919	1.919
-0.005	0.000	0.000	0.000	-0.020	-0.020	0.044	2.686	1.914	1.909	1.909	1.929	1.919	1.919
0.000	0.000	0.005	0.000	-0.010	0.000	0.039	2.695	1.914	1.909	1.909	1.929	1.924	1.924
0.005	0.005	-0.005	0.000	0.005	-0.005	0.039	2.671	1.909	1.909	1.909	1.929	1.929	1.924
0.010	-0.015	-0.005	0.000	-0.029	0.005	0.044	2.656	1.909	1.904	1.904	1.924	1.914	1.924
0.010	-0.010	-0.005	0.005	-0.029	0.000	0.039	2.671	1.909	1.904	1.904	1.924	1.919	1.919
0.005	-0.005	-0.005	0.000	-0.010	-0.005	0.039	2.671	1.904	1.904	1.904	1.924	1.924	1.919
0.000	-0.010	0.000	0.000	-0.005	0.000	0.039	2.676	1.904	1.904	1.904	1.924	1.924	1.919
0.010	-0.005	0.005	0.005	-0.010	0.005	0.039	2.651	1.909	1.904	1.904	1.924	1.919	1.924
-0.010	-0.005	-0.005	0.000	-0.024	0.005	0.039	2.676	1.899	1.899	1.904	1.924	1.914	1.919
0.005	0.000	0.000	0.000	-0.024	-0.005	0.039	2.686	1.904	1.904	1.904	1.924	1.914	1.914
0.005	0.005	0.005	0.000	0.005	-0.015	0.039	2.656	1.904	1.904	1.904	1.924	1.924	1.919
-0.005	0.005	0.010	0.000	-0.020	0.015	0.039	2.681	1.904	1.904	1.904	1.924	1.914	1.924
-0.010	0.005	0.005	0.005	-0.059	0.015	0.039	2.686	1.904	1.904	1.904	1.924	1.909	1.919
-0.005	0.020	0.010	0.000	-0.078	0.010	0.044	2.686	1.909	1.904	1.904	1.924	1.904	1.914
0.000	0.015	0.010	0.000	-0.068	0.020	0.044	2.671	1.904	1.909	1.904	1.924	1.914	1.914
0.000	0.010	0.005	0.005	-0.034	0.015	0.039	2.676	1.904	1.904	1.904	1.924	1.924	1.914
0.000	0.005	0.000	0.000	0.015	-0.015	0.039	2.686	1.904	1.904	1.904	1.924	1.934	1.914
0.000	0.005	0.000	0.005	0.005	0.000	0.039	2.686	1.904	1.899	1.899	1.924	1.929	1.919
-0.005	-0.005	0.000	0.000	0.005	-0.029	0.039	2.671	1.904	1.899	1.904	1.919	1.924	1.919
0.005	-0.005	0.000	-0.005	0.044	-0.005	0.039	2.686	1.904	1.899	1.899	1.919	1.934	1.929
-0.005	-0.015	-0.005	0.000	0.112	0.015	0.039	2.681	1.904	1.895	1.895	1.919	1.948	1.938
0.010	-0.015	-0.005	0.000	0.146	0.010	0.039	2.681	1.909	1.899	1.899	1.919	1.948	1.943
0.015	-0.015	-0.005	0.000	0.127	0.000	0.039	2.666	1.904	1.899	1.899	1.919	1.934	1.938
0.005	-0.015	-0.005	0.000	0.049	-0.005	0.039	2.690	1.909	1.904	1.899	1.914	1.904	1.924
0.005	-0.010	-0.005	0.000	0.034	0.005	0.039	2.690	1.904	1.904	1.895	1.914	1.904	1.919
0.000	0.000	0.000	0.005	0.015	0.005	0.044	2.676	1.904	1.904	1.899	1.914	1.899	1.914
0.005	0.005	0.000	0.000	-0.020	0.005	0.039	2.666	1.899	1.909	1.904	1.914	1.895	1.904
-0.005	-0.005	0.005	0.000	-0.010	0.000	0.039	2.690	1.899	1.899	1.899	1.919	1.904	1.904
0.000	0.005	0.005	0.000	0.020	0.005	0.039	2.686	1.899	1.899	1.904	1.919	1.914	1.909
0.000	0.000	0.000	0.005	0.010	0.005	0.044	2.686	1.899	1.899	1.899	1.919	1.909	1.909
-0.005	0.000	0.005	0.000	-0.024	-0.005	0.039	2.676	1.899	1.899	1.899	1.919	1.899	1.904
0.000	0.010	0.010	0.005	-0.034	-0.005	0.044	2.651	1.899	1.904	1.899	1.919	1.904	1.904
-0.005	0.010	0.010	0.005	-0.049	-0.020	0.039	2.686	1.899	1.899	1.899	1.919	1.904	1.899
0.000	0.010	0.010	0.010	-0.063	-0.020	0.039	2.686	1.899	1.899	1.899	1.919	1.899	1.904
0.010	0.010	0.010	0.000	-0.068	0.000	0.039	2.686	1.899	1.895	1.895	1.914	1.904	1.904
0.010	-0.005	0.000	0.000	-0.049	0.005	0.039	2.676	1.899	1.895	1.890	1.914	1.909	1.904
0.000	0.000	0.000	0.000	-0.039	0.000	0.039	2.681	1.895	1.895	1.890	1.914	1.914	1.909
0.015	0.015	-0.005	0.000	-0.049	-0.010	0.044	2.666	1.899	1.899	1.895	1.914	1.909	1.904
0.005	0.005	-0.005	-0.005	-0.044	0.005	0.044	2.676	1.895	1.895	1.890	1.914	1.909	1.914
0.005	-0.005	-0.005	0.000	-0.039	0.005	0.044	2.681	1.895	1.890	1.890	1.909	1.909	1.909
0.010	0.005	-0.005	0.000	-0.010	0.010	0.044	2.686	1.899	1.895	1.890	1.909	1.919	1.914
0.005	0.005	0.000	-0.005	0.049	0.024	0.039	2.681	1.895	1.895	1.895	1.914	1.934	1.924
0.005	0.000	0.000	0.000	0.083	0.024	0.044	2.690	1.899	1.895	1.890	1.914	1.934	1.929
0.000	0.005	0.000	0.005	0.054	-0.010	0.039	2.671	1.895	1.895	1.895	1.914	1.919	1.914
-0.010	0.005	0.005	0.000	0.034	0.000	0.039	2.686	1.895	1.890	1.890	1.914	1.914	1.914
-0.005	0.010	0.010	0.000	0.063	0.015	0.039	2.695	1.899	1.895	1.895	1.914	1.919	1.919
-0.010	0.010	0.005	0.005	0.088	0.000	0.039	2.666	1.895	1.895	1.895	1.909	1.924	1.914
-0.010	0.000	0.005	0.010	0.039	0.015	0.039	2.637	1.890	1.895	1.890	1.909	1.904	1.919
-0.010	0.005	0.005	0.000	-0.015	0.010	0.039	2.681	1.895	1.890	1.895	1.909	1.890	1.904
-0.015	0.000	0.005	0.000	-0.024	0.005	0.039	2.695	1.899	1.890	1.890	1.909	1.890	1.904
-0.005	0.000	0.000	0.000	-0.020	0.005	0.044	2.700	1.899	1.895	1.890	1.909	1.899	1.899
-0.005	0.005	0.000	0.000	-0.020	0.000	0.044	2.676	1.899	1.895	1.890	1.909	1.899	1.899
-0.005	-0.015	-0.005	0.000	-0.010	0.000	0.044	2.681	1.899	1.890	1.890	1.909	1.904	1.899
0.000	-0.005	-0.005	0.005	0.000	0.000	0.039	2.686	1.899	1.895	1.890	1.909	1.904	1.899
0.024	-0.020	0.005	0.005	-0.024	-0.010	0.039	2.671	1.899	1.890	1.890	1.909	1.899	1.895
0.010	-0.010	-0.005	0.000	-0.029	-0.005	0.039	2.681	1.895	1.890	1.890	1.909	1.895	1.899
0.010	-0.015	-0.010	0.005	-0.049	-0.005	0.044	2.671	1.895	1.890	1.890	1.904	1.890	1.895
0.000	-0.020	0.000	0.005	-0.059	0.010	0.044	2.676	1.890	1.890	1.890	1.904	1.895	1.895
0.005	-0.010	0.000	0.000	-0.083	0.005	0.039	2.666	1.890	1.890	1.890	1.904	1.890	1.895
0.000	-0.015	-0.010	0.000	-0.049	-0.010	0.039	2.681	1.890	1.890	1.885	1.904	1.899	1.895
0.005	-0.005	0.000	0.005	-0.044	-0.015	0.044	2.681	1.890	1.890	1.890	1.909	1.899	1.890
-0.015	0.015	0.005	0.000	-0.005	0.000	0.039	2.676	1.885	1.895	1.895	1.909	1.914	1.904
-0.005	0.005	0.005	0.005	0.054	0.010	0.044	2.656	1.885	1.890	1.895	1.909	1.929	1.914
-0.005	0.029	0.005	0.005	0.088	-0.005	0.039	2.686	1.890	1.895	1.895	1.914	1.929	1.914
-0.005	0.034	0.005	0.000	0.063	-0.010	0.039	2.671	1.895	1.895	1.890	1.909	1.919	1.919
-0.005	0.020	0.010	0.000	0.039	0.010	0.039	2.681	1.895	1.890	1.895	1.909	1.909	1.919
-0.010	0.015	0.015	0.000	0.039	-0.005	0.039	2.681	1.895	1.890	1.890	1.909	1.909	1.909
0.005	0.000	0.000	0.000	0.015	-0.015	0.044	2.681	1.899	1.890	1.885	1.909	1.899	1.904
-0.005	0.005	0.005	0.000	-0.005	0.005	0.039	2.661	1.890	1.890	1.890	1.904	1.895	1.904
0.010	-0.005	-0.005	0.000	-0.015	0.005	0.044	2.671	1.895	1.885	1.885	1.904	1.895	1.904
0.015	-0.010	-0.005	0.005	-0.010	-0.020	0.039	2.646	1.890	1.885	1.885	1.904	1.899	1.895
0.010	-0.005	-0.010	0.000	0.000	0.000	0.039	2.686	1.890	1.885	1.885	1.904	1.899	1.899
0.000	0.000	-0.005	0.000	-0.010	0.024	0.039	2.676	1.890	1.890	1.885	1.904	1.899	1.909
0.005	-0.010	-0.005	0.000	0.005	0.015	0.039	2.671	1.890	1.885	1.885	1.904	1.904	1.904
0.015	0.000	-0.005	0.005	0.024	0.020	0.039	2.686	1.890	1.890	1.885	1.904	1.904	1.904
0.015	0.000	-0.005	0.000	0.010	0.005	0.039	2.666	1.885	1.890	1.885	1.899	1.899	1.899
-0.005	0.000	0.000	0.005	-0.005	0.010	0.039	2.661	1.885	1.890	1.885	1.904	1.895	1.899
0.000	0.005	0.000	0.000	-0.015	-0.005	0.044	2.690	1.890	1.890	1.890	1.904	1.895	1.895
-0.005	0.015	0.005	0.005	0.024	-0.005	0.044	2.676	1.885	1.890	1.890	1.909	1.909	1.899
-0.015	0.010	0.005	0.000	0.034	-0.005	0.039	2.686	1.885	1.885	1.890	1.909	1.909	1.904
0.000	0.000	0.005	0.000	0.034	-0.029	0.039	2.681	1.890	1.885	1.885	1.909	1.904	1.895
-0.005	0.005	0.005	0.000	-0.024	-0.020	0.039	2.671	1.890	1.885	1.885	1.904	1.885	1.895
0.000	0.000	0.000	0.000	-0.054	0.000	0.039	2.681	1.890	1.885	1.885	1.899	1.885	1.895
-0.005	-0.010	0.005	0.000	-0.039	0.020	0.039	2.686	1.890	1.885	1.885	1.904	1.895	1.899
-0.005	-0.015	0.005	0.000	0.015	0.015	0.039	2.676	1.890	1.880	1.880	1.904	1.909	1.899
0.000	-0.020	-0.005	0.000	0.029	0.010	0.039	2.676	1.895	1.885	1.880	1.904	1.909	1.904
0.010	-0.010	0.005	0.000	0.015	0.005	0.039	2.642	1.890	1.890	1.885	1.904	1.899	1.899
0.010	0.000	-0.005	0.000	-0.010	-0.005	0.039	2.690	1.890	1.890	1.880	1.899	1.890	1.895
0.005	-0.015	-0.005	0.000	-0.005	0.000	0.039	2.690	1.890	1.885	1.885	1.899	1.895	1.895
0.005	-0.005	-0.005	0.000	0.010	-0.015	0.044	2.676	1.890	1.885	1.885	1.899	1.899	1.895
0.010	-0.005	-0.005	0.005	0.010	0.010	0.044	2.676	1.890	1.885	1.880	1.899	1.899	1.899
0.010	0.000	0.000	0.000	0.005	-0.005	0.039	2.676	1.890	1.890	1.885	1.899	1.895	1.895
0.005	0.005	0.000	0.005	0.005	-0.010	0.039	2.686	1.890	1.890	1.885	1.904	1.895	1.895
0.000	0.005	0.000	0.000	-0.005	0.005	0.039	2.686	1.885	1.885	1.885	1.899	1.895	1.899
-0.010	-0.005	0.005	0.000	-0.010	0.005	0.039	2.686	1.885	1.885	1.885	1.904	1.895	1.895
-0.005	0.005	0.005	0.000	-0.010	0.005	0.039	2.681	1.885	1.890	1.885	1.904	1.895	1.899
-0.005	0.010	0.010	0.005	-0.005	0.005	0.039	2.695	1.885	1.885	1.885	1.904	1.899	1.895
0.000	0.000	0.015	-0.005	-0.010	-0.005	0.039	2.676	1.890	1.885	1.885	1.904	1.899	1.895
0.000	0.015	0.010	0.000	0.000	-0.005	0.039	2.690	1.890	1.890	1.885	1.909	1.899	1.895
0.000	0.005	0.010	0.000	0.005	0.000	0.039	2.686	1.890	1.890	1.885	1.909	1.904	1.895
0.010	-0.005	0.000	0.000	0.000	0.000	0.044	2.681	1.890	1.885	1.885	1.904	1.899	1.899
0.005	-0.010	0.000	0.005	-0.005	-0.020	0.044	2.666	1.890	1.880	1.880	1.904	1.899	1.895
0.000	0.000	-0.005	0.000	-0.005	0.000	0.044	2.681	1.890	1.885	1.880	1.899	1.899	1.899
0.010	-0.010	-0.005	0.000	0.000	-0.015	0.039	2.690	1.890	1.885	1.880	1.904	1.899	1.899
0.005	-0.015	-0.005	-0.005	0.005	0.010	0.039	2.681	1.890	1.880	1.880	1.899	1.899	1.904
0.010	-0.010	0.000	0.000	-0.005	0.000	0.044	2.671	1.890	1.885	1.880	1.899	1.895	1.895
0.010	0.005	-0.005	0.000	-0.005	-0.015	0.044	2.671	1.885	1.885	1.885	1.899	1.895	1.895
0.010	0.010	0.000	0.000	0.020	0.010	0.039	2.681	1.885	1.890	1.885	1.899	1.904	1.899
0.015	0.000	0.000	0.000	0.010	0.000	0.039	2.686	1.885	1.885	1.885	1.899	1.899	1.899
0.000	0.010	0.005	-0.005	0.000	0.015	0.039	2.671	1.885	1.885	1.885	1.904	1.895	1.899
-0.005	0.015	0.005	0.005	0.024	0.015	0.039	2.666	1.885	1.890	1.885	1.904	1.904	1.899
-0.010	0.024	0.005	0.000	0.020	-0.010	0.044	2.686	1.885	1.885	1.885	1.904	1.899	1.890
-0.010	0.024	0.005	0.005	0.034	0.000	0.039	2.671	1.880	1.885	1.885	1.904	1.904	1.899
-0.005	0.015	0.005	0.000	0.034	0.010	0.044	2.690	1.885	1.885	1.885	1.904	1.904	1.904
-0.010	0.024	0.000	0.005	0.015	0.005	0.039	2.681	1.890	1.890	1.885	1.904	1.899	1.899
-0.005	0.010	0.005	0.005	0.039	0.000	0.039	2.671	1.890	1.885	1.885	1.904	1.904	1.899
0.000	0.010	0.005	0.005	-0.015	-0.005	0.044	2.661	1.885	1.885	1.885	1.899	1.885	1.895
0.000	0.010	0.000	0.000	-0.010	-0.015	0.039	2.676	1.890	1.885	1.880	1.899	1.890	1.890
-0.005	0.005	-0.005	0.000	-0.024	0.005	0.044	2.676	1.890	1.880	1.880	1.899	1.885	1.895
0.005	-0.005	-0.005	0.000	-0.063	0.000	0.044	2.681	1.885	1.880	1.880	1.895	1.880	1.890
0.005	-0.010	-0.005	0.000	-0.034	-0.020	0.039	2.681	1.885	1.880	1.880	1.899	1.890	1.885
0.010	-0.015	-0.005	0.000	-0.010	0.029	0.044	2.686	1.885	1.880	1.875	1.899	1.895	1.895
0.000	-0.010	-0.005	0.000	-0.005	0.015	0.039	2.773	1.899	1.880	1.880	1.899	1.899	1.895
0.000	-0.020	0.000	0.005	0.010	0.005	0.039	2.690	1.895	1.885	1.880	1.899	1.899	1.890
0.015	-0.010	0.005	0.000	0.010	-0.010	0.039	2.681	1.890	1.885	1.880	1.895	1.899	1.895
0.010	-0.010	0.000	0.000	0.020	-0.015	0.039	2.676	1.890	1.885	1.885	1.899	1.899	1.895
-0.005	0.005	0.000	0.005	0.024	0.000	0.044	2.661	1.885	1.890	1.885	1.899	1.899	1.895
-0.005	0.010	0.000	0.005	-0.005	-0.020	0.044	2.686	1.880	1.885	1.885	1.904	1.890	1.890
-0.010	0.005	0.010	0.005	-0.015	-0.010	0.044	2.676	1.880	1.885	1.885	1.899	1.895	1.895
0.000	0.005	0.005	0.000	0.049	-0.005	0.039	2.686	1.885	1.885	1.885	1.904	1.909	1.904
-0.005	0.005	0.005	0.000	0.044	0.029	0.039	2.686	1.885	1.885	1.885	1.904	1.904	1.909
0.005	0.005	-0.005	0.000	0.029	0.024	0.044	2.676	1.885	1.885	1.880	1.899	1.899	1.904
0.000	0.000	0.005	0.005	0.024	0.010	0.039	2.671	1.890	1.885	1.880	1.904	1.899	1.899
0.005	0.005	0.005	-0.005	0.015	0.000	0.039	2.686	1.890	1.885	1.885	1.899	1.895	1.895
0.000	-0.005	0.005	0.000	0.010	0.000	0.039	2.686	1.890	1.885	1.885	1.904	1.895	1.895
0.005	-0.010	0.005	0.000	-0.020	-0.010	0.039	2.681	1.885	1.885	1.880	1.899	1.885	1.885
0.005	-0.010	0.000	-0.005	0.000	0.000	0.039	2.686	1.885	1.880	1.880	1.899	1.895	1.895
0.005	-0.020	-0.005	0.000	0.010	-0.005	0.039	2.676	1.890	1.880	1.880	1.899	1.895	1.895
0.005	-0.015	-0.005	0.000	-0.029	-0.005	0.044	2.686	1.890	1.880	1.880	1.899	1.880	1.890
0.005	-0.010	-0.005	0.000	-0.044	0.005	0.044	2.686	1.890	1.885	1.880	1.895	1.885	1.885
0.010	-0.005	-0.005	0.000	-0.024	0.000	0.044	2.666	1.880	1.890	1.880	1.895	1.890	1.890
0.005	0.005	-0.005	0.005	0.000	0.005	0.044	2.661	1.880	1.885	1.880	1.899	1.899	1.895
-0.005	0.005	-0.005	0.000	0.005	-0.005	0.044	2.681	1.880	1.885	1.885	1.899	1.899	1.895
0.000	0.010	0.000	0.000	-0.015	0.010	0.044	2.681	1.880	1.885	1.885	1.899	1.890	1.899
0.005	0.015	0.000	0.000	-0.029	0.010	0.044	2.690	1.885	1.885	1.885	1.899	1.890	1.895
0.000	0.010	0.005	0.000	-0.034	0.015	0.039	2.690	1.885	1.885	1.880	1.899	1.890	1.895
-0.010	0.015	0.005	0.000	-0.010	0.015	0.039	2.676	1.880	1.885	1.885	1.899	1.899	1.895
0.000	0.010	0.005	0.005	0.024	-0.024	0.039	2.681	1.885	1.885	1.885	1.899	1.909	1.890
0.000	0.010	0.005	0.000	0.049	-0.005	0.039	2.681	1.885	1.880	1.885	1.904	1.914	1.899
-0.010	0.005	0.010	0.000	0.093	-0.020	0.039	2.686	1.885	1.880	1.880	1.904	1.919	1.904
0.000	0.000	0.000	0.005	0.049	-0.020	0.039	2.671	1.890	1.880	1.880	1.904	1.899	1.904
0.000	0.005	0.000	0.000	-0.029	-0.010	0.044	2.686	1.885	1.880	1.875	1.895	1.875	1.895
0.005	-0.005	0.000	0.000	-0.039	0.000	0.044	2.671	1.885	1.880	1.880	1.895	1.880	1.890
0.000	-0.015	0.000	0.005	-0.015	0.005	0.039	2.666	1.880	1.880	1.875	1.895	1.890	1.895
0.000	-0.010	-0.005	0.000	-0.024	-0.005	0.039	2.671	1.885	1.880	1.875	1.899	1.885	1.890
0.005	-0.024	0.000	0.005	-0.005	0.020	0.039	2.686	1.885	1.875	1.875	1.895	1.895	1.899
0.010	-0.020	-0.005	0.000	0.005	0.015	0.039	2.676	1.885	1.880	1.875	1.895	1.895	1.895
0.000	-0.005	-0.005	0.005	-0.005	0.010	0.044	2.681	1.880	1.885	1.875	1.895	1.890	1.890
0.015	0.005	0.000	0.005	-0.020	0.000	0.039	2.686	1.890	1.890	1.880	1.895	1.885	1.885
0.000	0.010	0.000	0.000	-0.020	0.000	0.039	2.686	1.885	1.885	1.880	1.895	1.890	1.890
0.000	0.005	0.000	0.005	-0.010	0.000	0.039	2.681	1.880	1.885	1.885	1.899	1.895	1.890
-0.005	0.000	0.005	0.000	0.015	0.000	0.039	2.686	1.880	1.880	1.880	1.899	1.899	1.895
-0.010	0.000	0.010	0.000	0.024	0.005	0.044	2.700	1.885	1.880	1.880	1.899	1.904	1.895
-0.005	0.005	0.000	0.000	0.005	-0.005	0.044	2.666	1.885	1.885	1.880	1.899	1.895	1.895
-0.005	0.010	0.000	0.000	-0.020	0.000	0.039	2.666	1.880	1.880	1.880	1.899	1.890	1.890
-0.005	0.015	0.005	0.000	-0.029	0.015	0.039	2.676	1.885	1.885	1.880	1.899	1.885	1.895
-0.005	0.015	0.000	0.000	-0.034	0.020	0.039	2.656	1.885	1.885	1.880	1.899	1.890	1.895
-0.010	0.010	-0.005	0.005	-0.029	0.015	0.044	2.681	1.885	1.880	1.880	1.899	1.890	1.890
0.000	-0.005	0.000	0.005	-0.020	0.015	0.039	2.676	1.885	1.880	1.880	1.899	1.895	1.890
0.000	-0.010	-0.005	0.005	-0.005	-0.005	0.044	2.671	1.880	1.880	1.880	1.899	1.899	1.890
0.015	-0.010	-0.005	0.005	-0.005	-0.029	0.039	2.681	1.885	1.880	1.875	1.895	1.895	1.880
0.000	0.000	-0.005	0.005	-0.015	-0.015	0.039	2.671	1.880	1.880	1.880	1.895	1.890	1.890
0.015	0.000	-0.005	0.005	-0.015	-0.015	0.039	2.681	1.885	1.880	1.880	1.895	1.895	1.890
0.010	0.000	-0.010	0.005	-0.005	-0.010	0.039	2.671	1.880	1.880	1.875	1.895	1.895	1.890
0.005	-0.005	0.000	0.000	0.000	0.015	0.039	2.695	1.885	1.880	1.880	1.895	1.895	1.899
0.005	0.005	0.000	0.000	-0.005	0.010	0.039	2.671	1.880	1.880	1.880	1.895	1.895	1.895
0.000	0.010	0.000	0.000	-0.024	0.015	0.039	2.695	1.885	1.885	1.880	1.895	1.885	1.895
0.000	0.005	0.005	0.000	-0.054	0.015	0.039	2.695	1.885	1.885	1.880	1.895	1.880	1.890
-0.005	0.005	0.005	0.005	-0.054	-0.005	0.039	2.666	1.880	1.885	1.880	1.899	1.885	1.885
-0.010	0.020	0.005	0.005	-0.059	-0.010	0.044	2.681	1.880	1.885	1.880	1.899	1.885	1.885
0.000	0.015	0.005	0.005	-0.059	0.024	0.044	2.671	1.880	1.880	1.880	1.899	1.890	1.895
-0.005	0.000	0.000	0.010	-0.020	0.024	0.044	2.676	1.880	1.875	1.880	1.899	1.904	1.895
-0.010	0.015	0.005	0.005	0.059	0.010	0.044	2.686	1.885	1.880	1.880	1.904	1.924	1.904
-0.010	0.010	0.005	0.000	0.137	0.015	0.039	2.690	1.885	1.880	1.880	1.899	1.938	1.914
0.000	-0.005	0.000	0.000	0.137	0.005	0.039	2.686	1.890	1.880	1.880	1.899	1.919	1.914
0.005	-0.010	-0.005	0.000	0.083	0.015	0.039	2.671	1.890	1.880	1.875	1.895	1.899	1.909
0.000	-0.010	-0.005	0.000	0.078	0.000	0.039	2.686	1.890	1.880	1.875	1.895	1.899	1.904
0.000	-0.020	-0.005	0.000	0.078	-0.015	0.039	2.671	1.890	1.880	1.875	1.895	1.895	1.895
0.000	-0.005	0.000	0.000	0.034	-0.005	0.044	2.681	1.885	1.885	1.880	1.895	1.880	1.895
0.005	-0.005	0.000	0.000	0.000	-0.015	0.044	2.681	1.885	1.885	1.880	1.895	1.875	1.880
0.000	-0.005	-0.005	-0.005	-0.010	-0.020	0.044	2.617	1.875	1.885	1.880	1.895	1.875	1.880
0.000	0.000	0.005	0.000	-0.015	-0.029	0.044	2.656	1.875	1.880	1.880	1.895	1.880	1.875
0.005	0.020	0.000	0.000	-0.015	-0.039	0.044	2.661	1.875	1.885	1.880	1.895	1.885	1.875
0.000	0.010	0.005	0.000	-0.010	-0.044	0.044	2.783	1.890	1.880	1.880	1.899	1.885	1.875
-0.005	0.015	0.000	0.000	0.000	-0.029	0.044	2.798	1.895	1.885	1.885	1.899	1.890	1.885
-0.010	0.020	0.005	0.000	0.005	-0.044	0.039	2.739	1.899	1.890	1.885	1.904	1.895	1.885
-0.010	0.010	0.005	0.000	0.010	0.005	0.044	2.656	1.890	1.885	1.880	1.899	1.899	1.899
-0.010	0.005	0.005	0.000	0.034	0.005	0.039	2.646	1.880	1.880	1.885	1.904	1.904	1.904
-0.005	0.000	0.005	0.000	0.024	0.005	0.039	2.729	1.880	1.880	1.880	1.899	1.899	1.899
-0.010	0.000	0.005	0.000	0.020	0.000	0.039	2.764	1.890	1.880	1.885	1.899	1.899	1.899
0.000	-0.005	0.000	0.000	0.024	-0.020	0.039	2.637	1.885	1.880	1.880	1.899	1.899	1.890
-0.005	-0.010	0.000	0.000	0.024	0.000	0.039	2.734	1.890	1.880	1.880	1.899	1.895	1.899
0.005	-0.010	0.005	0.000	0.015	0.005	0.039	2.695	1.890	1.885	1.875	1.899	1.895	1.899
0.005	-0.020	0.005	0.000	0.000	0.005	0.039	2.656	1.885	1.880	1.880	1.899	1.890	1.895
0.005	-0.015	0.005	0.000	-0.010	-0.010	0.039	2.705	1.880	1.880	1.880	1.895	1.885	1.890
0.015	-0.005	-0.010	0.005	-0.024	0.000	0.044	2.646	1.875	1.880	1.875	1.899	1.885	1.890
0.005	-0.005	-0.005	0.000	-0.024	0.005	0.039	2.759	1.885	1.880	1.875	1.895	1.885	1.890
0.010	-0.015	0.000	0.000	-0.010	0.005	0.044	2.651	1.880	1.880	1.880	1.895	1.890	1.890
0.010	0.000	0.000	0.000	-0.005	0.005	0.039	2.651	1.880	1.880	1.880	1.895	1.895	1.890
0.000	0.000	0.000	0.005	-0.005	-0.010	0.039	2.788	1.895	1.885	1.880	1.895	1.890	1.890
0.015	0.005	0.000	0.005	-0.015	0.010	0.039	2.739	1.899	1.890	1.885	1.899	1.890	1.895
-0.010	0.005	0.005	0.000	-0.024	-0.005	0.039	2.695	1.895	1.890	1.885	1.899	1.890	1.890
-0.010	0.015	0.010	0.005	-0.015	0.015	0.039	2.646	1.885	1.890	1.885	1.899	1.895	1.895
0.000	0.020	0.005	0.005	0.005	0.015	0.044	2.808	1.904	1.890	1.885	1.904	1.899	1.895
-0.010	0.000	0.005	0.000	-0.005	0.024	0.039	2.646	1.895	1.885	1.885	1.904	1.899	1.899
-0.010	-0.005	0.005	0.000	-0.029	0.024	0.039	2.637	1.885	1.885	1.885	1.899	1.890	1.895
-0.010	-0.005	0.010	0.000	-0.049	0.010	0.039	2.749	1.895	1.885	1.885	1.899	1.885	1.890
0.005	0.000	0.005	0.005	-0.063	0.024	0.044	2.681	1.895	1.890	1.885	1.899	1.885	1.895
0.000	-0.005	-0.005	0.000	-0.044	0.049	0.044	2.700	1.895	1.890	1.885	1.904	1.895	1.899
0.010	-0.005	0.000	0.005	-0.049	0.054	0.044	2.632	1.890	1.890	1.885	1.899	1.895	1.895
0.010	-0.005	-0.005	0.000	-0.034	0.029	0.039	2.651	1.880	1.885	1.885	1.899	1.899	1.895
0.010	-0.010	-0.010	0.000	-0.005	0.024	0.044	2.744	1.890	1.885	1.885	1.899	1.904	1.895
0.015	-0.010	-0.010	0.000	0.000	0.010	0.039	2.671	1.890	1.890	1.885	1.899	1.904	1.895
0.020	-0.010	0.000	0.000	0.005	-0.024	0.039	2.690	1.890	1.885	1.885	1.899	1.904	1.885
-0.005	0.000	-0.005	0.005	0.015	-0.059	0.039	2.676	1.880	1.890	1.885	1.904	1.899	1.880
-0.005	0.005	0.000	0.000	0.000	-0.034	0.039	2.700	1.885	1.885	1.885	1.904	1.895	1.890
0.000	0.005	0.000	0.000	0.015	-0.044	0.039	2.700	1.885	1.885	1.885	1.904	1.904	1.895
0.000	0.010	0.005	0.000	0.029	-0.029	0.044	2.710	1.890	1.885	1.890	1.904	1.904	1.899
0.000	0.015	0.005	0.000	0.044	-0.015	0.044	2.700	1.890	1.885	1.890	1.904	1.909	1.909
-0.010	0.010	0.010	-0.005	0.059	0.005	0.039	2.676	1.890	1.885	1.890	1.904	1.914	1.914
-0.005	0.020	0.010	0.005	0.044	0.000	0.039	2.661	1.890	1.890	1.890	1.909	1.904	1.909
-0.005	0.024	0.000	0.005	0.015	0.015	0.044	2.671	1.890	1.890	1.885	1.904	1.899	1.909
-0.010	0.005	0.005	0.000	0.005	0.020	0.039	2.676	1.890	1.880	1.885	1.904	1.895	1.904
0.000	0.005	0.000	0.000	0.015	0.029	0.044	2.671	1.885	1.880	1.880	1.904	1.899	1.904
0.005	-0.005	0.000	0.000	0.029	0.020	0.039	2.710	1.890	1.880	1.880	1.904	1.904	1.904
0.015	-0.005	0.000	0.005	-0.010	0.029	0.039	2.681	1.895	1.885	1.880	1.899	1.890	1.899
0.005	-0.010	0.005	0.000	-0.020	0.020	0.039	2.700	1.895	1.885	1.880	1.899	1.890	1.895
0.005	0.005	0.000	0.000	-0.015	0.015	0.039	2.705	1.895	1.890	1.880	1.899	1.890	1.890
0.010	-0.024	-0.005	0.000	-0.015	-0.010	0.039	2.686	1.890	1.880	1.880	1.899	1.890	1.885
0.005	-0.015	-0.005	0.000	-0.044	0.000	0.039	2.700	1.890	1.885	1.880	1.899	1.885	1.885
0.005	-0.010	-0.005	0.000	-0.059	0.000	0.039	2.695	1.890	1.885	1.885	1.899	1.885	1.885
0.010	0.010	0.000	0.000	-0.049	-0.005	0.039	2.700	1.890	1.890	1.885	1.899	1.890	1.885
0.005	0.020	0.000	0.000	-0.020	-0.010	0.044	2.676	1.885	1.895	1.885	1.899	1.899	1.885
-0.005	0.015	-0.005	0.005	0.024	-0.010	0.039	2.700	1.885	1.890	1.885	1.904	1.914	1.895
-0.010	0.010	0.005	0.005	0.039	-0.029	0.044	2.681	1.885	1.885	1.890	1.904	1.909	1.890
0.000	0.010	0.010	0.000	0.024	0.000	0.039	2.676	1.885	1.885	1.890	1.904	1.904	1.909
0.000	0.015	0.010	0.005	0.020	0.005	0.044	2.769	1.895	1.890	1.885	1.904	1.899	1.909
-0.005	0.020	0.000	0.000	0.010	-0.005	0.044	2.651	1.895	1.890	1.885	1.904	1.899	1.899
-0.010	0.005	0.005	0.000	0.000	0.005	0.044	2.793	1.904	1.885	1.885	1.904	1.895	1.904
-0.005	0.005	0.005	0.000	0.054	0.029	0.039	2.764	1.904	1.895	1.890	1.904	1.914	1.914
0.005	0.000	0.000	0.000	0.093	0.010	0.039	2.632	1.899	1.895	1.890	1.909	1.919	1.909
0.000	-0.010	0.000	0.005	0.063	0.024	0.039	2.700	1.899	1.890	1.890	1.909	1.909	1.909
0.005	-0.010	0.000	0.000	0.024	0.015	0.039	2.651	1.895	1.890	1.890	1.904	1.895	1.904
0.010	-0.010	0.000	0.000	0.000	0.000	0.039	2.778	1.904	1.895	1.890	1.904	1.890	1.890
0.010	-0.020	-0.010	0.000	-0.020	0.005	0.039	2.734	1.899	1.890	1.890	1.904	1.885	1.895
0.000	-0.034	-0.005	0.005	-0.024	0.015	0.039	2.749	1.904	1.890	1.890	1.904	1.890	1.895
0.015	-0.015	-0.005	0.005	-0.024	0.005	0.044	2.744	1.909	1.899	1.890	1.904	1.895	1.895
0.010	0.010	-0.005	0.000	-0.010	0.015	0.039	2.754	1.909	1.909	1.895	1.909	1.899	1.895
0.005	0.000	-0.005	0.005	-0.010	0.005	0.039	2.666	1.895	1.904	1.899	1.909	1.899	1.895
0.005	0.015	0.005	0.005	-0.029	-0.010	0.039	2.749	1.904	1.904	1.899	1.914	1.895	1.890
0.000	0.024	0.005	0.005	-0.029	0.000	0.039	2.681	1.895	1.904	1.899	1.914	1.899	1.895
0.000	0.015	0.010	0.000	-0.054	0.000	0.044	2.729	1.899	1.899	1.899	1.914	1.899	1.895
-0.010	0.020	0.005	0.005	-0.049	0.005	0.044	2.666	1.890	1.899	1.899	1.914	1.904	1.899
-0.005	0.020	0.000	0.000	-0.034	-0.024	0.044	2.700	1.890	1.895	1.899	1.914	1.904	1.895
-0.010	0.010	0.010	0.000	-0.044	-0.039	0.044	2.710	1.895	1.890	1.895	1.919	1.904	1.890
-0.005	0.020	0.005	0.005	-0.073	-0.015	0.044	2.671	1.890	1.895	1.895	1.914	1.899	1.899
-0.005	0.005	0.005	0.000	-0.044	-0.010	0.039	2.671	1.885	1.890	1.895	1.909	1.909	1.904
0.005	-0.010	0.000	0.000	0.010	-0.015	0.039	2.695	1.895	1.880	1.890	1.914	1.924	1.914
-0.005	-0.010	0.000	0.000	0.044	0.020	0.039	2.700	1.890	1.885	1.885	1.909	1.934	1.924
0.005	-0.015	-0.005	0.000	0.107	0.015	0.039	2.666	1.895	1.885	1.885	1.909	1.938	1.929
0.005	-0.010	-0.005	0.000	0.103	0.000	0.039	2.671	1.890	1.890	1.885	1.909	1.929	1.924
0.015	-0.020	0.000	0.000	0.107	0.024	0.039	2.681	1.899	1.880	1.885	1.909	1.924	1.929
0.005	-0.024	-0.005	0.000	0.068	0.034	0.039	2.705	1.899	1.890	1.885	1.904	1.904	1.924
0.015	-0.010	-0.010	0.005	0.029	0.020	0.044	2.661	1.895	1.895	1.885	1.899	1.895	1.914
0.005	-0.005	-0.005	0.005	0.039	0.015	0.039	2.676	1.890	1.895	1.885	1.904	1.899	1.904
0.005	0.015	-0.005	0.000	0.049	0.010	0.044	2.700	1.899	1.899	1.890	1.904	1.899	1.904
0.000	0.015	0.005	0.000	0.020	0.000	0.039	2.695	1.899	1.899	1.890	1.904	1.895	1.895
0.010	0.010	0.000	0.005	0.000	-0.010	0.039	2.690	1.895	1.899	1.895	1.904	1.890	1.890
0.000	0.010	0.000	0.000	0.020	-0.010	0.039	2.681	1.890	1.895	1.895	1.909	1.899	1.895
-0.010	0.005	0.010	0.000	0.010	-0.005	0.039	2.686	1.890	1.890	1.895	1.909	1.899	1.895
-0.010	-0.015	0.005	0.000	-0.024	-0.005	0.039	2.690	1.890	1.885	1.890	1.909	1.890	1.895
-0.005	0.010	0.000	0.005	-0.049	-0.005	0.039	2.671	1.890	1.890	1.890	1.909	1.890	1.890
-0.005	0.010	0.010	0.000	-0.059	-0.010	0.039	2.686	1.890	1.890	1.890	1.909	1.890	1.890
0.000	-0.005	0.005	0.005	-0.078	-0.024	0.044	2.705	1.895	1.890	1.890	1.909	1.890	1.885
0.000	-0.010	0.000	0.000	-0.093	0.000	0.039	2.686	1.890	1.885	1.885	1.904	1.885	1.890
0.010	0.000	0.000	0.000	-0.059	0.010	0.039	2.666	1.895	1.890	1.890	1.909	1.899	1.899
0.005	-0.005	0.000	0.000	-0.078	0.000	0.044	2.617	1.880	1.885	1.885	1.904	1.895	1.890
0.000	0.000	0.000	0.000	-0.039	-0.005	0.039	2.651	1.880	1.880	1.885	1.904	1.904	1.895
0.000	-0.005	-0.005	0.005	-0.029	-0.034	0.044	2.783	1.895	1.885	1.885	1.904	1.904	1.895
0.010	-0.015	-0.005	0.000	-0.020	-0.020	0.039	2.793	1.904	1.885	1.880	1.899	1.904	1.899
0.015	0.000	0.000	0.005	-0.005	-0.005	0.044	2.627	1.895	1.890	1.885	1.904	1.909	1.909
0.015	0.005	-0.010	0.005	0.024	0.020	0.039	2.666	1.890	1.890	1.885	1.904	1.914	1.914
0.005	0.000	0.000	0.000	0.059	0.034	0.039	2.739	1.895	1.890	1.890	1.904	1.924	1.924
0.000	0.005	0.005	0.000	0.117	0.044	0.039	2.769	1.904	1.895	1.895	1.909	1.934	1.929
0.000	0.015	0.000	0.000	0.161	0.024	0.039	2.646	1.895	1.895	1.890	1.909	1.934	1.924
-0.010	0.029	0.005	0.005	0.181	0.010	0.039	2.720	1.890	1.899	1.895	1.909	1.929	1.924
-0.015	0.024	0.005	0.000	0.083	0.015	0.039	2.715	1.880	1.895	1.895	1.909	1.899	1.919
-0.005	0.015	0.005	0.005	0.054	-0.010	0.039	2.612	1.875	1.885	1.890	1.909	1.895	1.904
-0.005	0.005	0.010	0.000	-0.015	0.005	0.039	2.681	1.885	1.885	1.890	1.909	1.880	1.899
0.000	0.000	0.005	0.000	-0.044	0.020	0.044	2.720	1.899	1.885	1.885	1.904	1.875	1.895
-0.005	-0.005	0.000	0.005	-0.034	0.010	0.039	2.651	1.890	1.880	1.885	1.904	1.885	1.890
0.000	-0.005	0.000	0.000	-0.029	-0.005	0.044	2.661	1.895	1.885	1.885	1.904	1.890	1.885
0.005	0.005	0.000	0.005	-0.039	0.000	0.044	2.676	1.890	1.885	1.885	1.904	1.890	1.890
0.005	0.005	-0.005	0.005	-0.034	-0.024	0.044	2.690	1.890	1.890	1.880	1.899	1.890	1.880
-0.005	0.000	-0.005	0.005	-0.020	-0.039	0.044	2.676	1.885	1.885	1.885	1.899	1.895	1.880
0.000	-0.005	-0.005	-0.005	-0.015	-0.054	0.039	2.676	1.885	1.880	1.885	1.899	1.895	1.885
-0.005	-0.010	0.005	0.000	-0.010	-0.039	0.044	2.671	1.880	1.880	1.880	1.899	1.899	1.890
0.005	0.000	0.000	0.000	-0.020	-0.020	0.039	2.700	1.890	1.885	1.880	1.899	1.895	1.895
0.000	-0.010	0.000	0.005	-0.044	-0.015	0.039	2.695	1.885	1.885	1.880	1.899	1.890	1.895
-0.005	0.005	0.000	-0.005	-0.020	0.000	0.039	2.681	1.885	1.880	1.880	1.899	1.899	1.904
-0.005	0.000	0.005	0.000	-0.029	0.020	0.039	2.700	1.890	1.885	1.880	1.899	1.899	1.904
0.005	0.005	0.000	0.000	-0.044	-0.015	0.039	2.671	1.890	1.890	1.885	1.899	1.890	1.890
-0.005	0.015	0.005	0.000	-0.034	0.015	0.039	2.695	1.890	1.890	1.885	1.904	1.899	1.899
-0.005	0.020	0.010	0.000	0.005	0.015	0.039	2.686	1.890	1.890	1.890	1.904	1.909	1.904
0.000	0.005	0.005	0.005	0.010	0.015	0.039	2.681	1.885	1.885	1.885	1.904	1.904	1.904
-0.005	0.005	0.005	0.005	-0.015	0.005	0.039	2.700	1.890	1.885	1.885	1.904	1.899	1.899
0.000	-0.005	0.005	0.000	0.000	0.010	0.039	2.671	1.895	1.885	1.885	1.904	1.904	1.899
-0.005	0.000	0.005	0.005	0.000	0.015	0.039	2.710	1.895	1.890	1.885	1.904	1.904	1.904
0.005	-0.010	0.005	0.010	0.020	0.020	0.044	2.671	1.890	1.885	1.885	1.904	1.909	1.909
0.005	-0.005	0.000	0.005	0.010	0.024	0.039	2.700	1.895	1.885	1.885	1.904	1.899	1.904
0.005	-0.010	0.000	0.000	0.005	0.029	0.039	2.705	1.895	1.885	1.885	1.899	1.899	1.904
0.010	-0.005	0.000	0.005	0.000	0.029	0.039	2.666	1.895	1.890	1.890	1.899	1.899	1.904
0.024	-0.015	0.000	0.000	-0.010	0.039	0.039	2.676	1.895	1.890	1.885	1.899	1.895	1.904
0.010	-0.010	-0.005	0.005	-0.020	0.034	0.044	2.700	1.890	1.890	1.890	1.904	1.890	1.899
0.010	0.000	0.000	0.000	-0.020	0.034	0.039	2.681	1.890	1.890	1.890	1.904	1.895	1.895
-0.005	0.010	0.000	0.005	0.034	0.000	0.039	2.661	1.885	1.890	1.890	1.904	1.909	1.890
-0.005	0.010	-0.005	0.000	0.044	-0.024	0.044	2.637	1.880	1.885	1.885	1.904	1.909	1.890
-0.005	0.010	-0.005	0.000	0.049	-0.049	0.039	2.656	1.875	1.885	1.885	1.904	1.904	1.890
-0.005	0.010	0.000	0.000	0.015	-0.063	0.039	2.788	1.890	1.885	1.885	1.904	1.895	1.890
-0.010	0.005	0.000	0.000	0.000	-0.044	0.039	2.798	1.904	1.885	1.885	1.904	1.890	1.890
0.005	0.010	0.005	0.000	0.000	-0.020	0.039	2.642	1.899	1.890	1.890	1.904	1.895	1.899
0.000	0.005	0.005	0.000	0.024	-0.005	0.039	2.705	1.895	1.890	1.890	1.909	1.904	1.904
-0.005	0.000	0.000	0.005	0.015	0.010	0.039	2.749	1.899	1.890	1.885	1.904	1.904	1.909
-0.010	0.010	0.005	0.000	-0.005	0.010	0.039	2.773	1.909	1.895	1.890	1.904	1.895	1.904
0.005	0.005	0.005	0.000	-0.005	0.015	0.039	2.749	1.914	1.899	1.890	1.904	1.899	1.904
0.010	0.005	0.000	0.000	-0.010	0.010	0.039	2.632	1.899	1.899	1.890	1.909	1.899	1.895
0.000	-0.005	0.000	0.000	-0.015	0.005	0.039	2.710	1.895	1.895	1.890	1.909	1.899	1.895
0.010	0.000	-0.005	0.000	-0.010	0.005	0.039	2.646	1.890	1.895	1.895	1.909	1.899	1.899
0.010	-0.015	-0.005	0.000	-0.015	0.015	0.044	2.690	1.890	1.890	1.890	1.909	1.899	1.899
0.005	-0.015	-0.005	0.000	-0.005	-0.010	0.039	2.617	1.895	1.890	1.890	1.909	1.904	1.895
0.010	-0.010	-0.005	0.005	-0.005	0.020	0.044	2.656	1.890	1.890	1.890	1.909	1.904	1.904
0.000	-0.010	-0.005	0.000	-0.005	0.015	0.044	2.622	1.890	1.890	1.890	1.909	1.904	1.904
0.015	0.000	0.000	0.005	-0.005	0.005	0.044	2.690	1.890	1.890	1.890	1.909	1.904	1.899
0.000	0.015	0.000	0.000	0.000	0.005	0.044	2.700	1.890	1.895	1.890	1.909	1.904	1.899
0.005	0.015	0.005	0.000	-0.010	0.010	0.044	2.676	1.890	1.895	1.890	1.909	1.904	1.904
-0.005	0.010	0.005	0.005	-0.005	0.010	0.039	2.700	1.890	1.890	1.890	1.909	1.904	1.904
0.000	0.005	0.010	0.000	-0.024	0.000	0.039	2.676	1.890	1.890	1.890	1.909	1.899	1.895
-0.005	0.024	0.005	0.000	-0.010	-0.005	0.039	2.715	1.890	1.895	1.890	1.909	1.904	1.899
0.000	0.020	0.000	0.005	0.000	-0.010	0.044	2.666	1.895	1.890	1.890	1.909	1.909	1.904
-0.005	-0.005	0.005	0.000	-0.020	-0.020	0.044	2.686	1.895	1.885	1.890	1.909	1.899	1.895
-0.005	-0.020	0.000	0.005	-0.039	-0.010	0.039	2.700	1.890	1.885	1.885	1.909	1.895	1.899
-0.005	-0.005	0.000	-0.005	-0.049	-0.010	0.044	2.671	1.890	1.885	1.885	1.904	1.895	1.895
0.000	-0.005	0.000	0.000	-0.054	-0.005	0.044	2.681	1.890	1.890	1.885	1.904	1.895	1.895
0.000	-0.005	-0.005	-0.005	-0.020	0.010	0.044	2.666	1.890	1.885	1.885	1.904	1.909	1.904
0.005	-0.010	-0.005	0.005	0.034	0.020	0.044	2.690	1.885	1.885	1.885	1.904	1.919	1.914
0.010	0.000	-0.005	0.000	0.073	0.015	0.039	2.705	1.895	1.890	1.885	1.909	1.924	1.914
0.010	-0.024	0.000	0.000	0.093	0.029	0.039	2.695	1.895	1.885	1.885	1.904	1.924	1.919
0.010	-0.020	0.000	0.005	0.073	0.015	0.039	2.695	1.895	1.885	1.885	1.904	1.909	1.914
0.015	-0.015	0.000	0.005	0.039	-0.010	0.044	2.671	1.895	1.890	1.885	1.904	1.899	1.904
0.005	0.010	0.000	0.005	0.020	0.015	0.039	2.705	1.890	1.895	1.890	1.904	1.895	1.904
-0.005	-0.005	0.005	0.000	0.010	0.015	0.039	2.681	1.890	1.890	1.885	1.904	1.895	1.899
-0.005	0.015	0.005	0.000	-0.024	0.005	0.039	2.671	1.890	1.899	1.890	1.904	1.885	1.890
0.005	0.010	0.005	0.000	-0.029	0.005	0.044	2.676	1.890	1.890	1.890	1.904	1.890	1.890
-0.005	0.029	0.005	0.000	-0.010	-0.005	0.039	2.676	1.890	1.890	1.890	1.909	1.895	1.890
-0.010	0.015	0.010	0.000	-0.005	0.005	0.039	2.695	1.890	1.890	1.890	1.909	1.899	1.895
-0.005	0.015	0.000	0.005	0.005	-0.005	0.044	2.661	1.890	1.890	1.890	1.909	1.904	1.899
-0.005	0.015	0.005	0.000	0.029	-0.034	0.044	2.783	1.899	1.890	1.890	1.909	1.914	1.895
0.000	0.010	0.000	0.005	0.029	0.000	0.039	2.651	1.890	1.885	1.890	1.909	1.909	1.909
0.005	0.005	0.000	0.000	0.010	-0.005	0.039	2.764	1.890	1.890	1.890	1.904	1.904	1.904
0.000	0.005	-0.005	0.005	0.015	-0.005	0.044	2.798	1.904	1.890	1.885	1.904	1.904	1.899
0.010	0.000	-0.005	0.000	0.044	-0.020	0.039	2.734	1.904	1.895	1.890	1.904	1.909	1.899
0.015	-0.010	0.000	0.000	0.044	-0.015	0.044	2.666	1.899	1.890	1.890	1.904	1.909	1.904
0.005	-0.005	-0.005	0.005	0.020	-0.015	0.039	2.646	1.885	1.890	1.890	1.904	1.899	1.904
0.010	-0.010	0.000	0.000	-0.005	0.005	0.039	2.773	1.899	1.890	1.890	1.904	1.895	1.904
0.000	0.000	0.000	0.000	-0.024	0.015	0.039	2.749	1.904	1.895	1.890	1.904	1.890	1.899
0.005	-0.005	0.000	0.005	-0.024	0.010	0.039	2.671	1.909	1.895	1.890	1.904	1.890	1.895
0.000	0.005	0.005	0.005	-0.068	0.010	0.039	2.744	1.909	1.899	1.895	1.904	1.885	1.895
-0.010	0.015	0.000	0.000	-0.107	0.005	0.039	2.725	1.904	1.899	1.895	1.904	1.880	1.885
0.000	0.010	0.005	0.000	-0.054	-0.029	0.039	2.695	1.899	1.899	1.895	1.914	1.899	1.880
-0.010	0.010	0.005	0.000	-0.063	-0.005	0.039	2.646	1.890	1.899	1.895	1.914	1.899	1.890
-0.005	0.010	0.010	0.000	-0.103	0.005	0.044	2.671	1.890	1.895	1.895	1.914	1.890	1.895
-0.010	0.000	0.000	0.000	-0.127	0.034	0.044	2.749	1.895	1.890	1.895	1.909	1.890	1.904
0.000	0.000	0.005	0.005	-0.054	0.044	0.044	2.686	1.895	1.895	1.895	1.914	1.919	1.909
0.000	0.010	0.005	0.005	0.078	0.039	0.039	2.690	1.895	1.895	1.895	1.919	1.953	1.924
0.000	0.005	0.000	0.000	0.127	0.005	0.044	2.676	1.895	1.890	1.895	1.914	1.948	1.924
0.010	0.015	-0.005	0.005	0.112	-0.015	0.039	2.666	1.895	1.895	1.895	1.914	1.934	1.919
0.000	0.000	-0.005	0.000	0.127	-0.029	0.039	2.690	1.890	1.890	1.885	1.909	1.934	1.919
0.020	-0.005	0.000	-0.005	0.137	-0.034	0.039	2.695	1.899	1.890	1.890	1.909	1.929	1.919
0.010	0.005	0.000	0.000	0.098	-0.034	0.044	2.666	1.890	1.895	1.890	1.909	1.909	1.914
0.015	0.005	-0.010	0.000	0.054	-0.024	0.044	2.676	1.890	1.890	1.885	1.904	1.895	1.914
0.015	0.000	-0.005	0.000	0.044	0.000	0.044	2.671	1.890	1.890	1.890	1.904	1.895	1.909
0.005	0.000	0.000	0.000	0.024	0.020	0.039	2.676	1.890	1.890	1.890	1.904	1.895	1.909
0.010	-0.020	0.000	0.000	0.000	0.005	0.039	2.671	1.890	1.880	1.885	1.904	1.885	1.899
0.005	-0.024	0.005	0.000	-0.005	0.015	0.044	2.676	1.890	1.885	1.885	1.904	1.890	1.899
-0.005	0.000	0.010	0.000	-0.005	0.005	0.039	2.695	1.890	1.895	1.890	1.904	1.890	1.895
0.000	0.029	0.005	0.000	-0.015	0.010	0.039	2.676	1.890	1.895	1.890	1.909	1.890	1.895
-0.005	0.020	0.005	0.005	-0.024	0.005	0.044	2.671	1.885	1.890	1.890	1.909	1.895	1.895
-0.005	0.015	0.010	0.005	-0.034	-0.015	0.044	2.695	1.885	1.890	1.890	1.909	1.890	1.890
0.000	0.010	0.005	0.000	-0.034	0.005	0.039	2.671	1.885	1.890	1.890	1.904	1.899	1.895
-0.005	-0.010	0.005	0.000	-0.029	0.005	0.039	2.710	1.890	1.880	1.885	1.904	1.904	1.895
-0.005	-0.015	0.000	-0.005	-0.020	0.010	0.039	2.681	1.890	1.880	1.880	1.904	1.899	1.895
0.000	-0.015	0.005	0.000	-0.020	-0.005	0.044	2.705	1.895	1.880	1.880	1.904	1.904	1.899
0.000	-0.005	-0.005	0.000	-0.015	0.005	0.039	2.671	1.890	1.890	1.885	1.899	1.899	1.899
0.005	-0.020	0.000	0.000	-0.015	0.005	0.039	2.671	1.885	1.880	1.880	1.899	1.899	1.899
0.000	-0.020	-0.005	0.000	-0.010	0.005	0.044	2.676	1.885	1.885	1.880	1.899	1.899	1.899
0.000	-0.010	0.000	0.000	-0.020	0.005	0.044	2.661	1.885	1.885	1.880	1.899	1.895	1.899
0.000	-0.015	0.000	0.000	-0.044	0.005	0.044	2.651	1.880	1.880	1.880	1.899	1.890	1.895
0.005	-0.010	0.000	0.000	-0.063	0.000	0.039	2.651	1.880	1.885	1.880	1.899	1.885	1.890
0.000	0.000	-0.005	0.000	-0.068	0.005	0.039	2.778	1.890	1.890	1.880	1.895	1.885	1.890
-0.005	0.010	0.005	0.000	-0.049	0.000	0.044	2.783	1.899	1.890	1.885	1.899	1.895	1.890
0.000	0.010	0.010	-0.005	-0.020	-0.015	0.039	2.642	1.895	1.895	1.890	1.899	1.899	1.890
0.005	0.020	0.005	0.005	-0.020	-0.005	0.044	2.700	1.890	1.895	1.885	1.904	1.904	1.895
-0.005	0.000	0.005	0.000	-0.020	0.005	0.039	2.642	1.880	1.885	1.885	1.904	1.904	1.899
-0.005	0.000	0.010	0.000	-0.020	0.015	0.039	2.778	1.895	1.885	1.890	1.904	1.904	1.904
-0.010	0.010	0.010	0.000	0.005	0.000	0.039	2.651	1.890	1.890	1.890	1.909	1.909	1.904
0.000	0.000	0.010	0.000	0.059	0.010	0.039	2.637	1.890	1.885	1.890	1.909	1.924	1.909
0.000	-0.005	0.005	0.000	0.083	0.005	0.039	2.725	1.895	1.890	1.885	1.909	1.924	1.909
0.000	-0.005	0.000	0.005	0.112	0.005	0.044	2.627	1.885	1.885	1.885	1.909	1.929	1.919
0.000	-0.005	-0.005	0.005	0.122	0.005	0.039	2.666	1.890	1.885	1.885	1.904	1.919	1.919
0.005	-0.010	-0.005	0.005	0.142	0.015	0.039	2.627	1.895	1.885	1.880	1.904	1.919	1.924
0.015	-0.010	-0.010	0.005	0.083	0.015	0.039	2.656	1.890	1.890	1.880	1.899	1.899	1.914
0.015	-0.005	-0.010	0.000	0.010	0.010	0.039	2.627	1.890	1.885	1.880	1.899	1.875	1.899
0.005	-0.010	-0.005	0.005	-0.044	0.020	0.039	2.666	1.885	1.885	1.885	1.895	1.870	1.895
0.000	-0.010	-0.005	0.005	-0.063	0.015	0.039	2.695	1.885	1.885	1.880	1.899	1.870	1.885
0.005	0.000	-0.005	0.000	-0.063	0.015	0.039	2.700	1.890	1.890	1.885	1.899	1.875	1.880
0.010	0.010	0.000	0.000	-0.054	0.015	0.039	2.681	1.890	1.890	1.885	1.899	1.885	1.885
0.000	0.000	0.000	0.000	-0.029	-0.005	0.044	2.700	1.890	1.885	1.885	1.904	1.895	1.885
-0.005	0.020	0.000	0.000	-0.020	-0.024	0.039	2.700	1.890	1.890	1.890	1.904	1.899	1.880
-0.015	0.024	0.005	0.000	-0.015	-0.029	0.044	2.705	1.885	1.885	1.890	1.904	1.899	1.885
-0.010	0.024	0.005	0.005	-0.010	-0.034	0.039	2.666	1.885	1.890	1.890	1.904	1.899	1.890
-0.005	0.010	0.005	0.010	0.000	-0.034	0.044	2.666	1.885	1.880	1.890	1.904	1.904	1.895
-0.005	0.010	0.005	0.010	-0.010	-0.029	0.044	2.666	1.885	1.885	1.885	1.904	1.899	1.895
0.000	0.005	0.005	0.005	0.000	-0.029	0.044	2.700	1.885	1.880	1.885	1.904	1.904	1.899
0.000	-0.024	0.005	0.000	0.005	0.015	0.039	2.676	1.885	1.875	1.880	1.904	1.904	1.909
-0.005	0.015	0.000	0.005	0.000	0.024	0.039	2.705	1.895	1.890	1.885	1.904	1.899	1.909
0.000	-0.005	0.000	0.000	0.000	0.034	0.039	2.705	1.895	1.885	1.880	1.899	1.899	1.909
0.005	-0.005	-0.005	0.000	0.000	0.034	0.039	2.700	1.895	1.885	1.880	1.899	1.895	1.904
0.010	-0.005	0.000	0.000	-0.005	0.034	0.039	2.700	1.895	1.890	1.885	1.899	1.895	1.904
0.005	-0.005	-0.005	0.000	-0.005	0.020	0.039	2.676	1.895	1.890	1.885	1.899	1.895	1.895
0.005	-0.010	-0.005	0.000	-0.005	0.020	0.039	2.695	1.890	1.890	1.880	1.899	1.890	1.895
0.010	-0.010	-0.005	0.000	-0.044	-0.024	0.039	2.695	1.890	1.890	1.885	1.899	1.880	1.880
0.015	0.000	0.000	0.000	-0.063	-0.020	0.044	2.666	1.890	1.890	1.885	1.899	1.880	1.880
0.010	0.010	0.000	0.000	-0.049	-0.015	0.044	2.686	1.885	1.890	1.890	1.899	1.890	1.880
0.005	0.015	0.000	0.000	-0.044	-0.049	0.044	2.676	1.880	1.890	1.890	1.904	1.890	1.880
-0.005	0.024	0.005	-0.005	-0.029	-0.034	0.039	2.686	1.880	1.890	1.890	1.904	1.895	1.885
-0.005	0.015	0.005	-0.005	-0.059	-0.029	0.044	2.671	1.880	1.885	1.885	1.904	1.890	1.890
-0.005	0.015	0.005	0.000	-0.039	-0.039	0.044	2.651	1.875	1.880	1.885	1.904	1.899	1.890
-0.015	0.015	0.005	0.000	-0.010	-0.049	0.039	2.656	1.875	1.875	1.885	1.904	1.909	1.895
-0.010	0.005	0.000	0.000	0.005	-0.039	0.039	2.788	1.890	1.875	1.880	1.904	1.909	1.899
-0.005	-0.005	0.010	0.000	0.034	-0.024	0.039	2.798	1.899	1.880	1.885	1.904	1.919	1.909
-0.005	-0.010	0.005	0.000	0.093	0.005	0.039	2.637	1.895	1.880	1.880	1.904	1.929	1.924
0.000	-0.020	0.000	0.000	0.186	0.020	0.044	2.671	1.895	1.880	1.880	1.904	1.948	1.938
-0.005	-0.010	0.005	0.000	0.195	0.049	0.039	2.651	1.890	1.885	1.880	1.904	1.934	1.943
0.010	-0.020	0.000	0.005	0.161	0.054	0.044	2.754	1.904	1.890	1.880	1.899	1.919	1.934
0.005	-0.020	0.000	0.000	0.142	0.054	0.044	2.734	1.899	1.890	1.880	1.899	1.904	1.924
0.005	-0.015	-0.005	0.000	0.054	0.044	0.039	2.627	1.890	1.890	1.885	1.895	1.875	1.909
0.010	-0.005	-0.005	0.000	0.010	0.029	0.039	2.700	1.895	1.895	1.885	1.899	1.870	1.890
0.000	-0.015	0.000	0.000	-0.044	0.034	0.039	2.651	1.885	1.890	1.885	1.899	1.865	1.885
0.000	0.000	-0.005	0.000	-0.093	-0.005	0.044	2.671	1.885	1.890	1.885	1.899	1.860	1.865
-0.005	0.000	0.000	0.000	-0.088	0.010	0.044	2.642	1.885	1.885	1.885	1.899	1.870	1.870
0.000	-0.005	0.005	0.000	-0.059	-0.005	0.044	2.671	1.880	1.880	1.890	1.899	1.885	1.870
-0.005	-0.005	0.005	0.010	-0.083	-0.029	0.044	2.627	1.880	1.885	1.885	1.904	1.880	1.870
-0.015	-0.005	0.010	0.005	-0.112	-0.015	0.039	2.700	1.880	1.885	1.885	1.904	1.880	1.875
-0.005	0.005	0.000	0.005	-0.093	-0.005	0.039	2.705	1.885	1.885	1.885	1.904	1.890	1.880
-0.005	0.010	0.010	0.000	-0.078	0.015	0.039	2.710	1.890	1.885	1.885	1.904	1.895	1.890
-0.005	0.000	0.005	0.000	-0.044	0.000	0.039	2.661	1.885	1.885	1.885	1.904	1.909	1.890
-0.005	0.000	0.005	0.000	0.020	0.015	0.044	2.700	1.890	1.880	1.885	1.904	1.924	1.904
-0.010	-0.005	0.000	0.005	0.049	0.005	0.039	2.695	1.885	1.880	1.880	1.904	1.924	1.909
0.005	-0.010	0.000	0.005	0.078	0.010	0.044	2.690	1.890	1.885	1.880	1.904	1.924	1.914
0.000	0.000	-0.005	0.000	0.078	0.024	0.039	2.676	1.890	1.885	1.880	1.899	1.914	1.919
0.010	0.005	-0.005	0.000	0.073	0.034	0.044	2.690	1.895	1.890	1.880	1.899	1.909	1.919
0.005	0.005	0.000	0.000	0.034	0.054	0.044	2.666	1.895	1.890	1.880	1.899	1.895	1.919
0.010	0.020	-0.005	0.000	0.024	0.015	0.044	2.690	1.895	1.895	1.885	1.899	1.890	1.899
0.010	0.024	0.000	0.000	-0.034	0.020	0.044	2.671	1.890	1.895	1.885	1.899	1.875	1.890
0.000	0.054	0.005	0.005	-0.029	-0.005	0.039	2.666	1.885	1.899	1.890	1.904	1.885	1.885
0.005	0.044	0.000	0.010	-0.010	-0.020	0.039	2.700	1.885	1.890	1.890	1.909	1.895	1.880
0.010	0.039	0.000	0.015	0.000	-0.020	0.039	2.705	1.895	1.890	1.890	1.909	1.899	1.885
0.005	0.034	0.005	0.015	-0.049	-0.005	0.039	2.686	1.885	1.890	1.890	1.909	1.890	1.890
-0.005	0.020	0.005	0.005	-0.049	0.010	0.044	2.676	1.880	1.885	1.885	1.904	1.890	1.895
-0.005	0.005	0.005	0.000	-0.005	0.015	0.039	2.695	1.885	1.880	1.885	1.904	1.904	1.899
-0.010	0.000	0.005	-0.015	0.010	0.015	0.044	2.715	1.890	1.880	1.880	1.899	1.909	1.904
0.000	-0.005	0.010	-0.015	0.029	0.015	0.044	2.695	1.890	1.880	1.880	1.899	1.909	1.904
-0.010	-0.010	0.000	-0.015	0.034	0.010	0.039	2.671	1.885	1.880	1.880	1.899	1.904	1.904
-0.010	-0.010	0.005	-0.020	0.034	0.010	0.039	2.676	1.890	1.880	1.880	1.899	1.899	1.904
-0.005	-0.005	0.005	-0.010	0.034	0.005	0.044	2.686	1.895	1.885	1.880	1.899	1.899	1.899
0.015	0.000	-0.005	0.000	0.020	-0.005	0.044	2.656	1.890	1.885	1.880	1.899	1.895	1.895
0.010	-0.010	-0.005	0.000	0.005	-0.005	0.039	2.642	1.885	1.885	1.880	1.904	1.890	1.895
0.015	-0.005	-0.005	0.005	-0.005	-0.010	0.039	2.651	1.885	1.885	1.880	1.904	1.890	1.895
0.029	-0.005	0.000	0.005	0.000	-0.005	0.039	2.793	1.895	1.885	1.880	1.904	1.895	1.890
0.000	-0.034	-0.005	0.015	-0.010	-0.005	0.039	2.798	1.895	1.875	1.880	1.899	1.890	1.890
0.015	-0.044	0.000	0.010	-0.005	0.005	0.039	2.642	1.895	1.880	1.880	1.899	1.895	1.895
0.000	-0.020	0.000	0.005	-0.005	0.000	0.039	2.681	1.890	1.885	1.880	1.899	1.895	1.890
0.005	-0.015	0.000	0.000	-0.010	0.005	0.039	2.749	1.895	1.890	1.880	1.899	1.895	1.895
0.020	-0.020	0.005	0.000	-0.005	-0.005	0.044	2.773	1.904	1.890	1.885	1.899	1.895	1.895
0.005	0.005	0.000	0.000	-0.005	0.000	0.044	2.749	1.904	1.899	1.890	1.899	1.895	1.895
-0.005	0.020	0.010	0.005	-0.005	0.000	0.039	2.725	1.895	1.899	1.895	1.904	1.899	1.895
-0.005	0.015	0.005	0.005	-0.005	-0.005	0.039	2.720	1.895	1.895	1.895	1.909	1.899	1.895
-0.005	0.020	0.005	0.000	-0.010	-0.005	0.039	2.637	1.885	1.895	1.895	1.909	1.899	1.895
-0.005	0.005	0.010	0.000	-0.015	-0.010	0.039	2.681	1.885	1.890	1.895	1.909	1.899	1.895
0.005	-0.005	0.000	0.000	-0.005	-0.010	0.044	2.690	1.895	1.890	1.890	1.909	1.904	1.899
0.000	-0.020	0.000	-0.005	0.000	-0.020	0.039	2.666	1.890	1.885	1.885	1.909	1.904	1.895
0.005	-0.015	0.000	0.000	0.020	-0.015	0.039	2.627	1.890	1.885	1.885	1.904	1.909	1.904
0.000	-0.010	0.000	0.005	0.005	0.000	0.044	2.695	1.890	1.890	1.885	1.904	1.904	1.904
0.000	-0.015	-0.005	0.005	-0.005	-0.015	0.039	2.671	1.890	1.885	1.885	1.904	1.899	1.899
0.005	-0.015	-0.010	0.005	-0.029	0.005	0.044	2.690	1.890	1.885	1.885	1.904	1.895	1.904
0.015	-0.015	-0.005	0.000	-0.024	-0.005	0.044	2.686	1.890	1.885	1.885	1.899	1.895	1.895
0.005	-0.010	-0.005	0.000	0.005	0.010	0.044	2.671	1.890	1.885	1.885	1.904	1.904	1.904
0.000	-0.005	-0.005	-0.005	0.034	0.005	0.044	2.700	1.890	1.890	1.885	1.904	1.909	1.904
0.005	0.005	0.000	0.000	0.039	0.000	0.039	2.671	1.890	1.895	1.885	1.904	1.909	1.899
0.005	0.010	0.000	0.005	0.029	-0.005	0.044	2.676	1.890	1.890	1.890	1.904	1.904	1.904
0.005	0.020	0.000	0.000	0.029	0.005	0.039	2.700	1.890	1.895	1.890	1.909	1.904	1.904
-0.010	0.020	0.005	0.005	0.024	0.000	0.039	2.676	1.890	1.890	1.890	1.909	1.904	1.904
-0.005	0.024	0.010	0.000	0.010	0.005	0.039	2.710	1.890	1.895	1.890	1.909	1.899	1.904
0.000	0.024	0.005	0.005	-0.005	0.000	0.039	2.676	1.890	1.890	1.890	1.909	1.895	1.899
0.000	0.015	0.000	0.005	-0.005	-0.020	0.039	2.676	1.890	1.890	1.885	1.909	1.895	1.895
-0.005	0.015	0.000	0.005	0.000	0.010	0.044	2.715	1.895	1.890	1.890	1.909	1.904	1.899
-0.005	0.010	0.005	0.005	-0.005	0.010	0.044	2.671	1.890	1.885	1.890	1.909	1.899	1.904
0.000	-0.005	0.000	0.000	-0.005	0.005	0.039	2.705	1.895	1.885	1.885	1.909	1.899	1.899
0.000	-0.010	0.005	0.000	-0.005	0.015	0.039	2.681	1.890	1.885	1.885	1.904	1.899	1.904
0.005	-0.015	0.000	0.000	-0.010	-0.015	0.044	2.681	1.890	1.885	1.885	1.904	1.895	1.890
0.000	-0.005	-0.005	0.000	-0.005	0.020	0.039	2.700	1.890	1.885	1.885	1.904	1.899	1.904
0.010	-0.005	0.000	-0.005	0.000	0.000	0.044	2.710	1.895	1.890	1.885	1.904	1.899	1.895
0.005	-0.005	-0.005	0.005	0.000	0.010	0.039	2.666	1.885	1.890	1.885	1.904	1.899	1.904
0.010	0.000	-0.005	0.005	0.005	0.005	0.039	2.666	1.890	1.890	1.885	1.904	1.899	1.899
0.005	0.015	0.000	0.005	0.000	0.000	0.039	2.695	1.890	1.890	1.885	1.904	1.899	1.895
0.005	0.010	0.000	0.005	0.000	0.005	0.039	2.661	1.885	1.890	1.885	1.904	1.899	1.899
0.000	0.015	0.000	0.005	-0.005	0.000	0.039	2.646	1.880	1.885	1.885	1.904	1.899	1.899
-0.010	0.015	0.000	0.005	0.005	0.005	0.039	2.656	1.875	1.885	1.885	1.904	1.899	1.899
-0.015	0.020	0.010	0.000	0.000	-0.020	0.039	2.793	1.895	1.890	1.885	1.904	1.895	1.895
-0.005	0.015	0.010	0.005	0.005	0.000	0.044	2.788	1.904	1.890	1.890	1.904	1.899	1.899
-0.005	0.010	0.005	0.000	0.010	0.010	0.039	2.632	1.895	1.885	1.885	1.904	1.904	1.904
-0.005	0.015	0.005	0.000	0.010	-0.005	0.044	2.666	1.895	1.890	1.890	1.904	1.899	1.899
-0.005	0.029	0.005	0.000	-0.010	0.005	0.044	2.744	1.899	1.895	1.890	1.904	1.895	1.899
0.000	0.015	0.005	-0.005	-0.010	0.010	0.044	2.788	1.909	1.895	1.885	1.904	1.899	1.899
0.000	0.015	-0.005	-0.005	0.000	-0.005	0.039	2.642	1.895	1.895	1.890	1.904	1.899	1.899
0.005	0.000	0.000	0.000	-0.005	-0.005	0.039	2.637	1.890	1.890	1.890	1.904	1.899	1.895
0.005	-0.015	0.000	0.000	-0.020	-0.005	0.039	2.715	1.895	1.885	1.885	1.904	1.895	1.895
0.005	-0.005	0.000	-0.005	-0.020	-0.020	0.044	2.671	1.890	1.890	1.885	1.904	1.895	1.895
0.000	0.000	-0.005	0.000	-0.015	0.010	0.039	2.676	1.880	1.885	1.885	1.904	1.899	1.899
0.010	-0.020	0.000	0.000	-0.020	0.020	0.039	2.651	1.885	1.880	1.885	1.904	1.899	1.904
0.000	-0.020	0.000	0.000	-0.010	0.020	0.044	2.686	1.880	1.880	1.885	1.904	1.899	1.899
0.000	-0.010	0.000	0.005	-0.010	0.005	0.044	2.646	1.880	1.880	1.880	1.904	1.899	1.899
-0.005	-0.005	0.005	-0.005	-0.005	0.005	0.039	2.676	1.875	1.880	1.880	1.899	1.899	1.895
-0.005	0.005	0.005	0.000	0.034	0.010	0.044	2.671	1.880	1.885	1.880	1.899	1.909	1.904
-0.005	0.010	0.005	0.000	0.034	0.015	0.039	2.666	1.885	1.885	1.885	1.899	1.909	1.904
-0.005	0.029	0.005	-0.005	0.029	0.024	0.044	2.666	1.885	1.890	1.885	1.899	1.904	1.909
-0.010	0.049	0.005	0.000	0.015	0.010	0.044	2.666	1.885	1.895	1.885	1.904	1.899	1.899
0.005	0.034	0.005	0.000	0.015	0.010	0.039	2.710	1.895	1.885	1.890	1.904	1.899	1.899
-0.020	0.000	0.010	-0.005	0.020	-0.010	0.044	2.695	1.885	1.880	1.885	1.904	1.899	1.890
-0.005	0.005	0.010	0.005	-0.010	-0.005	0.039	2.671	1.890	1.885	1.885	1.899	1.890	1.895
-0.010	-0.005	0.005	0.000	-0.029	-0.005	0.039	2.676	1.885	1.880	1.880	1.899	1.885	1.890
-0.010	-0.015	0.010	-0.005	-0.015	0.005	0.044	2.676	1.885	1.875	1.880	1.904	1.895	1.895
-0.005	-0.034	0.000	0.000	0.024	-0.010	0.039	2.671	1.885	1.875	1.875	1.899	1.904	1.895
0.010	-0.020	-0.005	0.000	0.029	0.000	0.039	2.676	1.890	1.885	1.875	1.899	1.904	1.899
0.015	-0.010	-0.005	0.000	0.024	0.010	0.044	2.690	1.890	1.885	1.875	1.895	1.899	1.904
0.005	0.000	-0.005	-0.005	0.020	0.029	0.039	2.695	1.890	1.890	1.880	1.899	1.899	1.909
0.010	0.005	-0.005	0.000	0.024	0.068	0.044	2.666	1.890	1.890	1.885	1.899	1.899	1.914
0.010	-0.005	0.000	-0.005	0.000	0.103	0.039	2.705	1.895	1.890	1.880	1.899	1.890	1.914
0.005	-0.010	0.005	0.000	-0.063	0.103	0.044	2.681	1.890	1.885	1.885	1.899	1.875	1.904
0.000	-0.024	0.000	0.000	-0.137	0.063	0.039	2.705	1.890	1.885	1.880	1.899	1.860	1.875
0.000	-0.005	0.005	0.005	-0.103	0.015	0.044	2.676	1.890	1.890	1.880	1.899	1.880	1.865
0.010	0.005	0.005	0.005	-0.078	-0.034	0.044	2.671	1.885	1.890	1.890	1.899	1.885	1.860
-0.010	-0.005	0.010	0.000	-0.132	-0.059	0.044	2.686	1.885	1.880	1.885	1.904	1.875	1.855
-0.005	0.010	0.010	0.005	-0.127	-0.127	0.039	2.676	1.880	1.885	1.885	1.904	1.880	1.846
-0.005	0.005	0.010	0.005	-0.088	-0.151	0.044	2.690	1.880	1.880	1.885	1.904	1.895	1.855
0.000	0.000	0.010	0.000	-0.034	-0.151	0.039	2.666	1.875	1.880	1.880	1.904	1.914	1.870
0.000	0.015	0.005	-0.005	0.112	-0.127	0.039	2.651	1.875	1.880	1.880	1.904	1.953	1.899
0.000	0.005	0.000	-0.005	0.205	-0.083	0.039	2.651	1.870	1.875	1.880	1.904	1.963	1.934
0.010	0.000	-0.005	0.000	0.176	-0.073	0.039	2.783	1.895	1.880	1.875	1.904	1.934	1.934
0.010	-0.015	-0.005	0.005	0.083	-0.020	0.039	2.798	1.909	1.880	1.875	1.899	1.899	1.938
0.005	-0.015	0.000	0.000	0.112	0.015	0.039	2.646	1.899	1.885	1.880	1.899	1.914	1.943
0.000	-0.010	-0.005	0.000	0.239	0.054	0.039	2.671	1.895	1.890	1.880	1.904	1.948	1.953
0.015	-0.015	-0.010	0.000	0.347	0.093	0.039	2.744	1.909	1.895	1.885	1.904	1.958	1.963
0.000	-0.005	-0.005	0.000	0.273	0.059	0.044	2.773	1.914	1.899	1.885	1.899	1.919	1.943
0.000	-0.020	0.000	0.005	0.088	0.078	0.044	2.646	1.904	1.895	1.885	1.899	1.865	1.924
0.005	-0.005	-0.005	0.000	-0.010	0.063	0.044	2.637	1.914	1.904	1.890	1.899	1.846	1.895
0.000	0.005	0.000	0.000	-0.054	0.054	0.044	2.754	1.914	1.909	1.895	1.899	1.851	1.875
0.005	0.010	0.005	0.000	-0.078	0.059	0.044	2.749	1.914	1.909	1.899	1.904	1.855	1.870
0.010	0.044	0.000	0.000	-0.117	0.063	0.039	2.690	1.909	1.924	1.904	1.909	1.860	1.870
-0.005	0.059	0.005	0.000	-0.107	0.054	0.044	2.646	1.899	1.914	1.909	1.914	1.875	1.870
0.000	-0.005	0.005	0.000	-0.127	0.015	0.039	2.666	1.890	1.890	1.904	1.914	1.880	1.865
0.000	-0.034	0.000	0.000	-0.137	0.010	0.039	2.632	1.895	1.885	1.895	1.914	1.885	1.865
0.000	-0.010	0.005	0.005	-0.103	-0.020	0.039	2.671	1.885	1.890	1.895	1.914	1.904	1.870
0.000	0.010	0.005	0.005	-0.078	-0.049	0.044	2.671	1.880	1.895	1.895	1.914	1.909	1.875
-0.005	-0.015	0.005	0.000	-0.054	-0.039	0.039	2.676	1.880	1.885	1.890	1.914	1.919	1.890
-0.005	-0.005	0.000	0.000	-0.039	-0.039	0.039	2.705	1.885	1.885	1.890	1.914	1.914	1.895
0.005	-0.020	0.000	0.000	-0.044	-0.034	0.039	2.676	1.885	1.880	1.885	1.909	1.914	1.904
0.015	-0.015	-0.005	-0.005	-0.034	-0.005	0.039	2.705	1.885	1.880	1.880	1.904	1.914	1.914
0.005	-0.010	-0.010	0.000	-0.015	0.000	0.039	2.666	1.885	1.885	1.880	1.904	1.914	1.914
0.015	-0.005	-0.010	-0.005	-0.005	0.015	0.039	2.686	1.890	1.885	1.880	1.899	1.914	1.919
0.015	0.000	0.000	-0.005	0.005	0.005	0.039	2.700	1.895	1.890	1.885	1.904	1.909	1.914
0.015	0.010	0.000	0.000	0.010	0.000	0.039	2.676	1.890	1.890	1.885	1.904	1.909	1.909
0.005	0.010	0.000	0.000	-0.005	0.015	0.044	2.671	1.885	1.890	1.890	1.904	1.904	1.914
0.000	0.015	0.005	0.000	0.000	0.000	0.039	2.661	1.885	1.890	1.890	1.904	1.904	1.904
0.000	0.029	0.000	0.005	0.005	-0.015	0.044	2.695	1.890	1.895	1.890	1.909	1.904	1.899
0.000	0.020	0.005	0.005	0.000	-0.015	0.044	2.710	1.890	1.890	1.890	1.904	1.899	1.899
0.005	0.020	0.005	0.000	0.000	0.005	0.039	2.681	1.890	1.890	1.890	1.904	1.904	1.904
-0.005	0.029	0.010	0.000	0.010	0.005	0.044	2.705	1.890	1.890	1.890	1.904	1.904	1.909
-0.010	-0.010	0.005	0.005	0.010	0.010	0.039	2.681	1.890	1.880	1.885	1.909	1.909	1.909
0.000	-0.010	0.010	0.000	0.010	-0.005	0.039	2.700	1.895	1.880	1.885	1.904	1.904	1.899
0.000	-0.015	0.005	0.000	0.010	0.015	0.039	2.676	1.890	1.885	1.880	1.904	1.904	1.909
-0.005	-0.015	-0.005	0.000	0.005	0.005	0.039	2.676	1.899	1.885	1.880	1.904	1.899	1.904
0.000	-0.010	-0.005	0.005	0.010	-0.010	0.039	2.676	1.895	1.890	1.885	1.899	1.899	1.899
0.010	0.000	-0.010	0.005	0.005	0.010	0.039	2.661	1.890	1.890	1.885	1.899	1.899	1.904
0.010	-0.005	-0.005	0.005	0.015	0.005	0.044	2.671	1.890	1.890	1.885	1.904	1.899	1.899
0.010	-0.015	-0.005	0.005	0.010	0.015	0.039	2.651	1.885	1.885	1.885	1.899	1.899	1.904
0.010	-0.015	-0.005	0.005	0.010	0.000	0.044	2.783	1.899	1.890	1.885	1.899	1.895	1.899
0.010	-0.005	-0.005	0.000	0.000	0.010	0.044	2.651	1.890	1.890	1.885	1.899	1.895	1.899
0.005	0.000	-0.005	0.005	-0.005	0.015	0.039	2.793	1.904	1.890	1.890	1.904	1.895	1.895
0.000	0.000	0.000	0.005	0.000	-0.020	0.044	2.803	1.914	1.895	1.890	1.904	1.895	1.885
0.005	0.015	0.000	0.005	0.005	-0.020	0.039	2.642	1.895	1.904	1.895	1.904	1.899	1.890
-0.015	0.020	0.005	0.005	-0.005	-0.010	0.039	2.676	1.890	1.899	1.895	1.909	1.899	1.895
-0.005	0.024	0.005	0.005	0.010	0.000	0.039	2.661	1.890	1.895	1.895	1.909	1.904	1.899
-0.010	0.020	0.005	0.005	0.015	0.000	0.044	2.793	1.899	1.895	1.895	1.909	1.904	1.904
-0.020	0.015	0.005	0.000	0.000	0.005	0.039	2.651	1.895	1.895	1.895	1.909	1.904	1.904
-0.010	0.005	0.010	0.005	-0.005	-0.015	0.039	2.734	1.899	1.890	1.895	1.914	1.904	1.895
-0.005	-0.005	0.000	0.005	0.005	0.015	0.039	2.744	1.904	1.890	1.890	1.909	1.904	1.909
-0.005	-0.005	0.000	0.000	0.010	0.024	0.039	2.744	1.909	1.895	1.890	1.909	1.909	1.909
0.000	-0.010	0.000	0.005	0.015	0.020	0.039	2.676	1.904	1.899	1.890	1.909	1.909	1.909
-0.005	0.005	0.000	0.000	0.020	0.039	0.039	2.749	1.899	1.899	1.895	1.909	1.909	1.914
-0.005	0.010	-0.005	0.000	0.010	0.049	0.039	2.656	1.895	1.899	1.890	1.909	1.904	1.914
0.005	0.005	-0.005	0.000	0.005	0.044	0.044	2.739	1.904	1.895	1.895	1.909	1.904	1.909
0.010	0.005	-0.005	0.000	0.005	0.034	0.039	2.676	1.899	1.899	1.895	1.909	1.904	1.909
0.000	0.005	0.000	0.000	-0.005	0.029	0.044	2.666	1.895	1.895	1.895	1.909	1.899	1.904
0.005	0.015	0.005	0.000	-0.020	0.000	0.039	2.681	1.895	1.899	1.895	1.914	1.895	1.890
0.010	0.015	0.000	0.000	-0.039	-0.020	0.044	2.700	1.895	1.895	1.895	1.909	1.895	1.890
0.000	0.005	0.005	0.000	-0.010	-0.049	0.044	2.705	1.890	1.885	1.895	1.914	1.904	1.885
0.000	-0.024	0.005	0.000	-0.005	-0.068	0.044	2.681	1.880	1.880	1.890	1.909	1.904	1.890
0.000	0.010	0.005	0.000	0.010	-0.088	0.039	2.705	1.885	1.890	1.890	1.909	1.909	1.890
0.000	0.020	0.000	0.005	0.020	-0.049	0.039	2.676	1.890	1.890	1.890	1.909	1.914	1.909
-0.005	0.010	0.005	0.005	0.029	-0.005	0.044	2.671	1.885	1.885	1.890	1.909	1.919	1.919
-0.005	0.005	0.005	0.005	0.054	0.015	0.044	2.695	1.890	1.885	1.890	1.909	1.924	1.929
0.010	0.005	0.005	0.000	0.059	0.054	0.039	2.695	1.899	1.890	1.885	1.909	1.919	1.934
0.005	0.010	0.005	0.000	0.029	0.068	0.039	2.666	1.899	1.895	1.890	1.909	1.909	1.929
-0.005	0.005	0.005	0.000	0.029	0.059	0.044	2.700	1.899	1.890	1.890	1.904	1.904	1.919
0.005	-0.024	0.000	0.000	0.000	0.000	0.039	2.671	1.899	1.885	1.885	1.904	1.895	1.895
0.005	-0.024	0.000	-0.005	-0.029	-0.020	0.039	2.681	1.895	1.885	1.885	1.904	1.885	1.885
0.010	-0.024	-0.005	0.000	-0.039	-0.073	0.039	2.690	1.895	1.890	1.880	1.904	1.885	1.870
0.015	-0.005	0.000	0.000	-0.059	-0.073	0.039	2.676	1.895	1.890	1.885	1.904	1.885	1.875
0.024	-0.029	-0.005	0.000	-0.073	-0.103	0.044	2.700	1.895	1.885	1.885	1.904	1.880	1.870
0.015	-0.029	-0.005	0.000	-0.034	-0.034	0.039	2.695	1.890	1.885	1.885	1.904	1.899	1.895
0.020	-0.005	0.000	0.005	0.000	-0.010	0.044	2.705	1.890	1.890	1.890	1.904	1.909	1.904
0.015	0.000	0.000	0.005	-0.029	0.005	0.039	2.671	1.890	1.890	1.890	1.904	1.895	1.909
0.005	0.000	-0.005	0.005	-0.093	0.020	0.039	2.671	1.880	1.890	1.890	1.904	1.885	1.904
-0.005	0.024	0.000	0.005	-0.107	0.010	0.039	2.686	1.885	1.895	1.890	1.904	1.885	1.895
-0.010	0.020	0.005	0.005	-0.088	0.034	0.039	2.661	1.880	1.890	1.890	1.904	1.895	1.904
-0.020	0.010	0.005	0.000	-0.044	0.024	0.039	2.646	1.880	1.880	1.890	1.909	1.909	1.899
-0.015	-0.010	0.005	0.010	-0.049	0.034	0.039	2.651	1.875	1.875	1.885	1.904	1.909	1.909
-0.005	-0.010	0.000	0.005	-0.020	0.024	0.044	2.788	1.895	1.880	1.880	1.904	1.914	1.904
-0.005	-0.020	0.000	0.000	0.020	0.015	0.039	2.778	1.904	1.885	1.880	1.904	1.919	1.909
-0.020	-0.020	0.000	0.000	0.068	0.059	0.039	2.642	1.895	1.885	1.885	1.904	1.929	1.924
-0.010	-0.020	0.000	-0.005	0.088	0.049	0.044	2.700	1.899	1.890	1.885	1.904	1.929	1.924
0.000	-0.015	0.005	-0.005	0.093	0.024	0.039	2.642	1.895	1.895	1.885	1.904	1.919	1.914
-0.005	0.005	0.000	0.005	0.112	0.010	0.044	2.759	1.904	1.904	1.890	1.904	1.919	1.909
0.000	0.024	0.005	0.000	0.117	0.020	0.044	2.661	1.899	1.904	1.895	1.909	1.919	1.914
0.010	0.054	0.000	0.000	0.166	0.015	0.044	2.725	1.904	1.914	1.899	1.909	1.929	1.914
0.010	0.103	0.000	0.000	0.142	0.015	0.039	2.720	1.909	1.919	1.904	1.914	1.909	1.919
0.010	0.044	0.000	0.000	0.103	0.015	0.039	2.661	1.904	1.899	1.904	1.914	1.904	1.909
0.010	0.005	-0.005	0.000	0.078	-0.020	0.044	2.686	1.899	1.890	1.895	1.909	1.895	1.899
0.005	-0.039	0.005	-0.005	0.020	-0.015	0.044	2.651	1.904	1.880	1.895	1.909	1.880	1.890
0.010	-0.024	0.005	0.000	-0.029	0.000	0.044	2.681	1.895	1.885	1.890	1.909	1.875	1.890
0.010	-0.063	0.005	0.005	-0.073	-0.020	0.039	2.632	1.890	1.880	1.885	1.909	1.875	1.880
0.000	-0.010	0.010	0.010	-0.063	-0.010	0.039	2.686	1.890	1.895	1.890	1.909	1.885	1.885
0.010	0.010	0.000	0.005	-0.049	-0.005	0.039	2.671	1.885	1.899	1.890	1.904	1.895	1.885
0.010	0.005	-0.005	0.000	-0.044	0.005	0.039	2.700	1.890	1.895	1.890	1.904	1.899	1.895
0.000	0.005	-0.005	-0.010	-0.044	0.000	0.039	2.676	1.890	1.890	1.890	1.909	1.899	1.895
-0.020	0.010	0.005	-0.010	-0.034	0.005	0.044	2.686	1.885	1.890	1.890	1.909	1.904	1.895
-0.010	0.000	0.000	-0.005	-0.029	0.005	0.044	2.666	1.885	1.885	1.890	1.909	1.904	1.899
-0.005	0.020	0.005	0.005	0.000	0.000	0.039	2.690	1.890	1.890	1.890	1.914	1.914	1.904
0.000	0.034	-0.005	0.010	0.029	0.020	0.044	2.681	1.890	1.895	1.890	1.914	1.919	1.914
0.005	0.010	0.000	0.010	0.024	0.015	0.039	2.700	1.895	1.885	1.890	1.909	1.914	1.909
0.010	-0.010	-0.005	0.010	0.000	-0.020	0.044	2.666	1.890	1.880	1.885	1.904	1.904	1.899
0.015	-0.020	-0.005	0.015	-0.010	-0.005	0.039	2.695	1.895	1.880	1.885	1.904	1.899	1.904
0.010	-0.034	0.000	0.010	-0.005	0.000	0.039	2.676	1.890	1.880	1.880	1.904	1.899	1.904
0.005	-0.010	0.005	0.015	-0.015	-0.020	0.044	2.676	1.890	1.895	1.885	1.904	1.899	1.895
0.005	-0.005	-0.005	0.000	-0.010	-0.024	0.039	2.700	1.890	1.890	1.885	1.899	1.895	1.895
-0.005	0.005	0.005	-0.005	-0.015	-0.024	0.039	2.690	1.885	1.890	1.885	1.899	1.895	1.895
-0.005	0.020	0.005	0.000	-0.005	-0.024	0.044	2.705	1.890	1.895	1.890	1.904	1.899	1.895
-0.015	0.029	0.005	0.005	-0.024	-0.039	0.039	2.681	1.890	1.890	1.890	1.904	1.890	1.885
-0.005	0.015	0.005	0.010	-0.107	-0.024	0.039	2.710	1.895	1.890	1.885	1.904	1.875	1.890
-0.010	0.024	0.000	0.000	-0.132	0.015	0.039	2.671	1.885	1.890	1.890	1.899	1.875	1.899
-0.005	0.005	0.005	0.000	-0.083	0.039	0.039	2.700	1.890	1.885	1.890	1.904	1.895	1.904
-0.005	-0.024	0.010	0.000	-0.054	0.049	0.039	2.686	1.890	1.875	1.885	1.904	1.904	1.904
0.000	-0.034	0.005	0.000	-0.024	0.029	0.039	2.676	1.890	1.875	1.880	1.904	1.914	1.904
-0.005	-0.034	0.000	0.005	-0.005	0.029	0.044	2.681	1.885	1.875	1.880	1.904	1.914	1.909
0.005	-0.005	0.000	-0.005	0.000	0.029	0.039	2.666	1.890	1.890	1.880	1.899	1.909	1.904
0.010	0.000	-0.005	0.000	0.029	0.049	0.039	2.642	1.890	1.890	1.880	1.899	1.914	1.914
0.015	-0.020	-0.005	0.000	0.068	0.059	0.039	2.642	1.890	1.880	1.880	1.899	1.919	1.919
0.015	-0.039	-0.005	0.000	0.068	0.103	0.039	2.798	1.904	1.880	1.880	1.904	1.914	1.929
0.010	-0.005	-0.005	0.005	0.078	0.098	0.044	2.788	1.909	1.899	1.885	1.904	1.914	1.924
0.015	0.010	-0.005	0.000	0.054	0.078	0.039	2.642	1.904	1.904	1.890	1.904	1.899	1.914
0.005	0.015	0.000	0.005	0.020	0.029	0.039	2.690	1.899	1.904	1.895	1.904	1.890	1.890
0.005	0.015	0.005	0.000	0.020	-0.039	0.039	2.744	1.899	1.904	1.895	1.904	1.890	1.870
0.005	0.039	0.005	0.000	0.020	-0.093	0.039	2.798	1.909	1.909	1.899	1.909	1.895	1.865
-0.005	0.020	0.005	0.000	0.020	-0.161	0.039	2.642	1.890	1.899	1.899	1.909	1.895	1.855
0.000	0.005	0.005	0.005	0.000	-0.156	0.044	2.642	1.880	1.890	1.895	1.914	1.895	1.865
-0.005	0.015	0.010	0.000	-0.020	-0.132	0.039	2.754	1.895	1.895	1.895	1.914	1.890	1.880
0.000	0.020	0.010	0.005	-0.034	-0.098	0.039	2.646	1.885	1.895	1.895	1.914	1.895	1.890
-0.020	0.015	0.010	0.000	-0.054	-0.034	0.044	2.690	1.880	1.885	1.890	1.914	1.895	1.909
-0.020	-0.010	0.005	0.000	-0.039	-0.005	0.039	2.637	1.880	1.875	1.885	1.909	1.904	1.919
0.000	-0.024	-0.005	-0.005	-0.039	0.015	0.044	2.690	1.890	1.875	1.880	1.904	1.904	1.919
0.010	-0.020	-0.005	-0.005	-0.010	0.015	0.039	2.656	1.890	1.880	1.880	1.904	1.914	1.914
0.005	-0.029	-0.010	-0.005	-0.039	0.024	0.044	2.666	1.885	1.880	1.875	1.899	1.895	1.914
0.010	-0.015	-0.015	0.000	-0.073	0.039	0.044	2.671	1.890	1.885	1.875	1.899	1.890	1.909
0.015	0.010	-0.005	0.000	-0.068	0.024	0.039	2.700	1.895	1.890	1.885	1.904	1.890	1.899
0.010	0.010	0.000	0.005	-0.078	0.054	0.039	2.671	1.890	1.890	1.885	1.899	1.890	1.904
0.015	0.015	0.000	0.005	-0.107	0.034	0.039	2.671	1.890	1.895	1.885	1.899	1.885	1.890
0.020	0.015	0.000	0.005	-0.049	0.039	0.039	2.671	1.885	1.885	1.890	1.904	1.904	1.899
0.015	-0.020	-0.005	0.005	0.010	0.054	0.039	2.700	1.890	1.875	1.885	1.904	1.919	1.909
0.000	-0.015	0.000	0.005	0.059	0.029	0.039	2.686	1.890	1.885	1.885	1.904	1.924	1.909
0.005	0.034	0.005	0.005	0.098	0.034	0.039	2.671	1.890	1.899	1.890	1.904	1.929	1.914
-0.005	0.015	0.005	0.005	0.103	0.005	0.039	2.676	1.890	1.890	1.890	1.909	1.924	1.909
0.005	0.000	0.010	0.000	0.093	0.010	0.039	2.695	1.895	1.885	1.890	1.904	1.914	1.909
0.000	0.000	0.010	0.000	0.107	-0.029	0.044	2.671	1.890	1.890	1.885	1.909	1.914	1.899
0.000	0.029	0.005	0.010	0.112	-0.005	0.039	2.681	1.895	1.899	1.890	1.909	1.914	1.914
-0.010	0.015	0.010	0.005	0.107	-0.024	0.044	2.686	1.895	1.890	1.890	1.909	1.909	1.909
-0.015	0.010	0.000	0.005	0.088	-0.029	0.044	2.705	1.890	1.890	1.885	1.904	1.904	1.904
-0.005	-0.010	-0.005	0.010	0.078	-0.034	0.044	2.695	1.895	1.880	1.885	1.904	1.895	1.899
-0.015	-0.020	-0.005	0.000	0.073	-0.020	0.044	2.686	1.890	1.880	1.880	1.904	1.899	1.904
-0.005	-0.024	-0.005	0.000	0.063	-0.010	0.044	2.700	1.899	1.885	1.880	1.899	1.895	1.904
0.005	-0.005	-0.005	0.000	0.044	-0.005	0.044	2.686	1.899	1.895	1.885	1.899	1.890	1.899
0.005	0.039	-0.005	0.000	0.024	0.020	0.044	2.700	1.899	1.904	1.890	1.904	1.890	1.904
0.010	0.020	-0.005	0.005	0.054	0.005	0.039	2.676	1.895	1.895	1.890	1.904	1.899	1.899
-0.005	-0.088	0.000	0.000	0.063	0.029	0.039	2.666	1.885	1.860	1.880	1.904	1.899	1.904
0.010	-0.088	-0.010	0.000	0.059	-0.005	0.039	2.690	1.890	1.870	1.875	1.899	1.899	1.895
0.015	0.010	0.000	0.000	0.083	0.029	0.039	2.666	1.890	1.904	1.885	1.899	1.909	1.904
0.005	0.015	0.010	0.000	0.049	0.020	0.044	2.637	1.885	1.895	1.890	1.904	1.895	1.899
0.010	-0.005	0.005	0.005	-0.029	0.010	0.039	2.651	1.885	1.885	1.890	1.904	1.870	1.890
0.000	0.015	0.005	0.000	-0.063	-0.005	0.039	2.793	1.895	1.899	1.890	1.904	1.870	1.880
0.010	0.034	0.005	0.000	-0.078	0.010	0.044	2.783	1.904	1.899	1.895	1.904	1.875	1.880
0.000	0.073	0.005	0.005	-0.068	-0.005	0.044	2.637	1.890	1.909	1.899	1.909	1.885	1.880
-0.020	0.068	0.005	0.005	-0.088	0.010	0.039	2.690	1.890	1.899	1.899	1.914	1.890	1.885
-0.029	0.000	0.005	-0.005	-0.093	0.005	0.044	2.744	1.890	1.875	1.890	1.909	1.890	1.885
-0.010	-0.005	0.000	-0.005	-0.078	0.000	0.039	2.803	1.904	1.885	1.885	1.904	1.899	1.885
0.000	-0.020	-0.005	-0.005	-0.049	-0.020	0.039	2.759	1.909	1.885	1.885	1.904	1.904	1.890
0.000	0.005	-0.005	-0.005	-0.010	-0.005	0.039	2.632	1.899	1.895	1.890	1.904	1.914	1.899
0.000	-0.015	-0.005	-0.005	-0.005	-0.010	0.039	2.744	1.904	1.890	1.885	1.904	1.914	1.899
0.010	-0.020	-0.005	-0.005	0.000	-0.010	0.039	2.651	1.895	1.890	1.885	1.904	1.909	1.904
0.015	-0.024	-0.005	0.000	-0.010	-0.020	0.039	2.681	1.895	1.890	1.885	1.904	1.904	1.899
0.015	0.005	-0.005	0.010	-0.029	-0.034	0.039	2.651	1.890	1.899	1.890	1.909	1.895	1.895
0.015	0.024	0.000	0.005	-0.044	-0.063	0.044	2.661	1.890	1.899	1.895	1.904	1.895	1.885
0.005	-0.005	-0.005	0.015	-0.063	-0.063	0.039	2.646	1.875	1.885	1.890	1.909	1.890	1.885
0.010	-0.015	0.000	0.010	-0.093	-0.034	0.044	2.666	1.880	1.880	1.885	1.904	1.890	1.899
0.000	-0.005	0.005	0.005	-0.054	-0.005	0.044	2.661	1.875	1.880	1.885	1.904	1.904	1.904
-0.010	0.005	-0.005	-0.005	-0.010	-0.005	0.039	2.676	1.875	1.880	1.885	1.904	1.914	1.909
0.000	0.005	0.005	-0.005	-0.010	0.005	0.039	2.700	1.885	1.880	1.885	1.904	1.909	1.909
0.005	0.005	0.010	0.000	0.039	0.000	0.044	2.695	1.885	1.885	1.885	1.904	1.924	1.914
0.000	0.063	0.010	0.000	0.063	0.005	0.039	2.666	1.890	1.904	1.890	1.904	1.924	1.919
-0.005	0.054	0.010	0.000	0.107	0.010	0.039	2.676	1.890	1.895	1.890	1.909	1.934	1.924
-0.005	-0.005	0.005	0.000	0.142	0.029	0.039	2.666	1.890	1.875	1.885	1.909	1.934	1.934
0.005	-0.034	0.005	0.005	0.171	0.029	0.044	2.686	1.890	1.870	1.880	1.904	1.934	1.934
0.000	-0.010	0.005	0.000	0.229	0.049	0.044	2.671	1.895	1.885	1.880	1.904	1.943	1.943
-0.010	0.000	0.000	0.005	0.264	0.068	0.044	2.705	1.899	1.890	1.880	1.904	1.943	1.948
0.000	0.005	0.000	0.010	0.239	0.063	0.039	2.671	1.899	1.890	1.885	1.904	1.924	1.938
0.005	-0.015	0.005	0.000	0.161	0.063	0.039	2.676	1.899	1.890	1.885	1.899	1.890	1.924
0.010	-0.020	0.005	0.000	0.044	0.039	0.039	2.700	1.904	1.890	1.885	1.899	1.860	1.895
0.000	-0.020	0.005	0.005	-0.029	0.005	0.039	2.700	1.899	1.895	1.885	1.899	1.855	1.875
0.005	-0.029	0.000	0.010	-0.059	-0.049	0.044	2.690	1.895	1.890	1.890	1.899	1.855	1.855
0.005	0.000	0.000	0.005	-0.107	-0.049	0.044	2.681	1.885	1.895	1.890	1.899	1.855	1.851
-0.005	0.015	0.000	-0.005	-0.117	-0.029	0.039	2.710	1.880	1.895	1.890	1.899	1.865	1.860
0.000	0.039	-0.010	-0.005	-0.122	-0.020	0.044	2.656	1.880	1.904	1.890	1.899	1.870	1.865
0.005	0.039	-0.015	-0.010	-0.054	0.005	0.039	2.676	1.875	1.890	1.890	1.904	1.899	1.880
0.000	0.005	-0.005	-0.020	-0.024	0.039	0.039	2.686	1.875	1.875	1.885	1.904	1.909	1.899
0.005	-0.010	0.000	-0.005	-0.024	0.054	0.039	2.676	1.880	1.875	1.885	1.909	1.904	1.904
0.000	0.015	0.000	0.005	-0.054	0.034	0.039	2.686	1.885	1.885	1.890	1.909	1.895	1.899
0.000	0.024	0.015	0.010	-0.088	0.044	0.039	2.666	1.885	1.885	1.885	1.909	1.890	1.895
-0.005	0.010	0.010	0.005	-0.078	0.015	0.039	2.637	1.875	1.880	1.885	1.904	1.895	1.885
-0.005	-0.034	0.010	0.005	-0.059	-0.010	0.039	2.661	1.875	1.870	1.880	1.904	1.899	1.885
-0.005	-0.024	0.000	0.010	-0.039	-0.039	0.039	2.793	1.890	1.875	1.875	1.904	1.904	1.880
0.000	-0.015	0.000	0.010	-0.029	-0.059	0.039	2.778	1.899	1.885	1.875	1.899	1.904	1.885
0.010	0.005	0.000	0.010	-0.024	-0.078	0.039	2.642	1.890	1.890	1.880	1.899	1.899	1.885
0.005	-0.005	0.000	0.005	-0.029	-0.059	0.044	2.671	1.885	1.885	1.880	1.899	1.899	1.895
0.000	-0.010	0.000	0.000	-0.039	-0.044	0.044	2.646	1.880	1.880	1.880	1.895	1.895	1.895
0.010	-0.005	-0.005	0.000	-0.029	-0.020	0.039	2.739	1.890	1.885	1.880	1.895	1.895	1.904
0.005	-0.010	0.000	0.005	-0.039	0.000	0.039	2.651	1.885	1.880	1.880	1.899	1.890	1.904
0.005	-0.005	0.005	0.000	-0.049	0.005	0.044	2.725	1.890	1.885	1.885	1.899	1.895	1.904
-0.010	-0.005	0.005	0.000	-0.044	0.029	0.039	2.725	1.890	1.890	1.885	1.899	1.895	1.909
-0.010	0.015	0.000	-0.005	0.000	0.039	0.039	2.749	1.899	1.895	1.885	1.899	1.909	1.909
-0.005	0.029	0.000	0.005	0.098	0.039	0.039	2.695	1.899	1.899	1.890	1.909	1.934	1.919
0.005	-0.015	0.010	0.000	0.107	0.039	0.039	2.739	1.909	1.885	1.890	1.904	1.924	1.919
0.005	-0.034	0.015	0.000	0.039	0.044	0.039	2.690	1.904	1.890	1.890	1.904	1.899	1.914
-0.010	0.015	0.010	-0.005	-0.034	0.039	0.039	2.651	1.895	1.904	1.895	1.904	1.880	1.904
0.000	0.034	0.010	-0.005	-0.044	0.034	0.044	2.671	1.895	1.904	1.895	1.904	1.885	1.895
0.010	0.005	0.010	-0.005	-0.059	0.024	0.039	2.681	1.895	1.890	1.890	1.909	1.885	1.885
0.000	-0.015	-0.005	-0.005	-0.059	-0.005	0.039	2.705	1.890	1.885	1.890	1.909	1.890	1.875
0.010	-0.005	0.000	0.000	-0.024	-0.024	0.044	2.700	1.890	1.890	1.890	1.909	1.899	1.880
0.000	0.000	0.000	0.000	-0.024	-0.054	0.039	2.700	1.885	1.890	1.890	1.909	1.899	1.880
-0.005	0.010	0.005	-0.005	-0.029	-0.073	0.044	2.661	1.880	1.890	1.890	1.904	1.899	1.880
0.000	0.005	0.000	0.000	-0.020	-0.068	0.044	2.695	1.885	1.885	1.890	1.909	1.904	1.890
0.005	0.063	0.000	0.005	-0.029	-0.063	0.039	2.676	1.890	1.899	1.890	1.909	1.899	1.890
0.020	-0.005	-0.005	0.005	-0.029	-0.024	0.039	2.671	1.885	1.875	1.885	1.904	1.904	1.904
0.020	-0.024	-0.010	0.000	-0.020	-0.005	0.039	2.676	1.885	1.875	1.880	1.904	1.904	1.909
0.005	-0.020	0.000	0.000	-0.024	0.024	0.044	2.700	1.890	1.880	1.880	1.899	1.904	1.914
0.000	-0.015	0.005	0.000	-0.034	0.029	0.039	2.681	1.885	1.880	1.880	1.904	1.899	1.909
0.000	0.020	0.010	0.005	-0.044	0.015	0.039	2.676	1.885	1.890	1.885	1.904	1.895	1.904
-0.005	0.020	0.005	0.005	-0.049	0.034	0.044	2.710	1.890	1.890	1.885	1.904	1.895	1.904
-0.005	0.029	0.005	0.005	-0.054	0.020	0.039	2.686	1.890	1.895	1.885	1.904	1.895	1.899
0.005	0.020	0.005	0.005	-0.054	0.024	0.039	2.700	1.895	1.890	1.885	1.904	1.899	1.899
0.010	0.000	0.005	0.005	-0.039	0.020	0.044	2.686	1.890	1.885	1.885	1.904	1.899	1.899
-0.005	-0.005	0.010	0.000	-0.029	0.015	0.044	2.705	1.890	1.885	1.885	1.904	1.899	1.899
0.000	0.020	0.005	-0.005	-0.024	0.015	0.039	2.705	1.895	1.890	1.885	1.904	1.904	1.904
-0.005	-0.005	-0.005	0.000	-0.010	0.010	0.039	2.671	1.890	1.880	1.880	1.904	1.904	1.904
0.015	-0.039	-0.015	-0.005	0.000	0.005	0.039	2.661	1.885	1.875	1.875	1.899	1.904	1.899
0.029	-0.049	-0.015	0.000	0.005	0.010	0.044	2.671	1.890	1.875	1.875	1.899	1.904	1.904
0.029	-0.024	-0.010	0.005	0.010	-0.005	0.039	2.681	1.890	1.890	1.880	1.899	1.904	1.899
0.015	0.000	-0.015	0.010	0.015	0.005	0.044	2.651	1.885	1.890	1.880	1.899	1.904	1.904
0.005	0.029	-0.010	0.005	0.024	0.005	0.039	2.695	1.880	1.895	1.885	1.899	1.904	1.904
-0.034	0.024	0.000	0.005	0.024	-0.024	0.044	2.656	1.870	1.885	1.890	1.904	1.899	1.895
-0.039	0.005	0.005	0.000	0.039	0.000	0.039	2.778	1.885	1.880	1.885	1.904	1.904	1.904
-0.010	0.020	0.010	0.000	0.049	0.005	0.039	2.788	1.909	1.890	1.885	1.904	1.904	1.904
0.005	0.049	0.010	0.010	0.054	0.000	0.039	2.725	1.904	1.899	1.895	1.904	1.909	1.904
0.010	0.024	0.015	0.010	0.049	0.010	0.044	2.676	1.899	1.895	1.895	1.909	1.904	1.909
0.000	0.020	0.010	0.005	0.044	-0.005	0.044	2.651	1.895	1.895	1.890	1.904	1.899	1.899
-0.010	0.029	0.005	0.000	0.039	0.000	0.039	2.773	1.895	1.895	1.895	1.904	1.899	1.904
-0.020	0.005	0.005	0.000	0.034	0.000	0.039	2.661	1.890	1.880	1.890	1.909	1.899	1.899
-0.010	-0.039	0.000	0.005	0.034	0.000	0.044	2.637	1.880	1.870	1.880	1.904	1.899	1.899
-0.005	-0.029	0.000	0.005	0.034	-0.010	0.039	2.744	1.890	1.880	1.880	1.904	1.899	1.899
-0.010	0.015	0.000	0.000	0.034	-0.010	0.039	2.734	1.904	1.895	1.885	1.904	1.899	1.895
0.005	-0.015	0.010	0.000	0.029	-0.020	0.039	2.695	1.895	1.885	1.885	1.904	1.899	1.895
0.024	-0.049	0.000	-0.005	0.039	-0.015	0.044	2.744	1.904	1.885	1.885	1.899	1.904	1.899
0.029	-0.034	0.000	-0.005	0.039	-0.034	0.039	2.681	1.895	1.890	1.885	1.899	1.899	1.895
0.000	-0.029	0.000	-0.015	0.049	-0.034	0.039	2.637	1.885	1.890	1.885	1.899	1.899	1.895
0.020	-0.059	-0.005	-0.005	0.049	-0.010	0.044	2.686	1.885	1.880	1.880	1.899	1.899	1.899
0.005	-0.049	0.000	-0.005	0.054	0.000	0.039	2.676	1.880	1.880	1.880	1.899	1.899	1.904
0.015	-0.010	-0.005	-0.005	0.054	0.010	0.039	2.700	1.890	1.895	1.885	1.899	1.899	1.904
0.005	0.015	-0.015	0.000	0.049	0.005	0.039	2.690	1.890	1.899	1.885	1.904	1.895	1.899
0.010	0.000	-0.005	0.000	0.024	0.015	0.044	2.705	1.890	1.895	1.890	1.904	1.895	1.904
0.000	0.029	0.005	0.005	0.020	0.015	0.039	2.666	1.890	1.899	1.895	1.904	1.895	1.899
0.000	0.054	0.005	0.010	0.024	0.000	0.044	2.681	1.890	1.904	1.899	1.909	1.899	1.895
-0.005	0.010	0.010	0.005	0.015	0.015	0.039	2.676	1.885	1.885	1.895	1.909	1.895	1.899
-0.005	0.020	0.010	0.000	0.020	0.024	0.039	2.681	1.895	1.890	1.890	1.909	1.904	1.899
-0.005	0.020	0.005	0.005	0.015	0.005	0.039	2.676	1.890	1.890	1.890	1.909	1.904	1.895
-0.005	0.015	0.000	0.010	0.020	-0.005	0.039	2.695	1.895	1.890	1.885	1.909	1.904	1.895
-0.015	0.020	-0.005	0.005	0.010	-0.044	0.039	2.681	1.890	1.890	1.885	1.904	1.899	1.885
-0.010	0.010	-0.010	0.005	0.010	-0.029	0.044	2.700	1.885	1.885	1.885	1.904	1.899	1.895
-0.005	-0.005	0.000	0.000	-0.010	-0.015	0.044	2.676	1.890	1.880	1.885	1.904	1.895	1.899
0.000	-0.020	-0.005	0.005	-0.024	-0.010	0.039	2.671	1.890	1.880	1.880	1.904	1.890	1.895
0.000	-0.034	0.000	0.005	-0.063	-0.010	0.044	2.690	1.890	1.875	1.880	1.899	1.880	1.890
0.000	-0.039	0.000	0.000	-0.054	0.005	0.044	2.676	1.885	1.880	1.880	1.895	1.890	1.895
0.000	-0.020	0.000	0.005	-0.034	0.015	0.039	2.695	1.890	1.890	1.880	1.899	1.895	1.899
0.005	0.005	0.000	0.000	-0.020	0.005	0.044	2.690	1.885	1.890	1.885	1.899	1.899	1.895
-0.010	0.000	0.005	0.000	-0.015	0.024	0.044	2.671	1.880	1.885	1.885	1.899	1.899	1.899
0.005	0.049	0.000	0.000	0.020	0.024	0.039	2.676	1.890	1.904	1.890	1.904	1.909	1.904
0.029	0.029	0.010	0.005	0.020	0.005	0.039	2.676	1.890	1.890	1.890	1.909	1.904	1.899
0.015	-0.005	0.015	0.000	0.005	0.015	0.039	2.695	1.890	1.880	1.890	1.904	1.904	1.904
0.015	0.010	0.020	0.005	0.005	0.029	0.039	2.666	1.890	1.890	1.890	1.909	1.904	1.909
0.005	0.000	0.020	0.000	0.010	0.020	0.039	2.793	1.899	1.885	1.890	1.909	1.904	1.904
-0.005	0.068	0.015	0.000	-0.005	-0.010	0.039	2.661	1.890	1.904	1.895	1.904	1.899	1.895
-0.020	0.034	0.005	0.000	-0.005	0.000	0.039	2.783	1.899	1.890	1.885	1.904	1.899	1.899
-0.010	0.039	-0.005	-0.005	0.005	0.005	0.044	2.783	1.904	1.899	1.890	1.904	1.904	1.899
-0.010	0.039	-0.010	-0.005	0.024	0.005	0.039	2.637	1.895	1.895	1.890	1.904	1.904	1.899
-0.005	-0.005	-0.010	0.005	0.020	0.015	0.039	2.695	1.895	1.880	1.885	1.909	1.904	1.909
0.005	-0.010	0.000	0.005	0.039	0.005	0.044	2.651	1.890	1.885	1.885	1.909	1.909	1.904
0.010	-0.049	0.000	0.010	0.068	0.010	0.039	2.798	1.904	1.880	1.885	1.909	1.914	1.909
0.010	-0.039	-0.005	0.015	0.083	0.005	0.039	2.729	1.904	1.885	1.880	1.909	1.919	1.904
0.010	-0.039	0.005	0.005	0.098	0.020	0.044	2.632	1.895	1.890	1.885	1.904	1.914	1.919
0.015	-0.024	0.000	0.000	0.059	0.015	0.039	2.739	1.904	1.890	1.885	1.899	1.899	1.909
0.005	0.015	-0.005	0.000	0.024	-0.005	0.039	2.729	1.904	1.904	1.890	1.899	1.890	1.899
-0.005	0.000	-0.005	-0.005	0.000	-0.029	0.039	2.725	1.899	1.899	1.890	1.899	1.885	1.890
0.000	-0.024	0.005	0.000	-0.005	-0.005	0.044	2.749	1.899	1.895	1.890	1.904	1.890	1.890
0.005	-0.015	0.010	-0.005	-0.010	-0.020	0.039	2.661	1.895	1.899	1.895	1.909	1.890	1.885
-0.005	0.029	0.000	0.005	-0.020	-0.005	0.039	2.715	1.895	1.904	1.895	1.909	1.895	1.890
-0.005	0.000	0.000	0.005	-0.034	0.000	0.044	2.686	1.895	1.895	1.895	1.909	1.890	1.895
0.015	0.059	0.005	0.010	-0.039	-0.010	0.039	2.700	1.899	1.914	1.904	1.914	1.895	1.890
0.005	0.068	0.005	0.015	0.000	0.024	0.039	2.681	1.890	1.904	1.904	1.924	1.914	1.909
0.010	-0.034	0.010	0.015	0.010	0.034	0.039	2.700	1.895	1.875	1.895	1.919	1.914	1.909
-0.010	-0.059	0.005	0.010	-0.010	0.034	0.044	2.671	1.885	1.870	1.885	1.914	1.904	1.909
0.000	-0.010	0.010	0.005	-0.044	0.015	0.039	2.671	1.890	1.885	1.885	1.909	1.895	1.899
0.005	-0.015	0.000	0.005	-0.068	0.024	0.039	2.681	1.890	1.885	1.885	1.909	1.895	1.899
0.020	-0.005	0.005	0.010	-0.073	0.024	0.039	2.681	1.895	1.890	1.885	1.904	1.895	1.899
0.000	0.034	-0.005	0.005	-0.054	0.015	0.044	2.695	1.890	1.899	1.890	1.904	1.899	1.895
0.005	0.000	-0.005	0.005	-0.005	0.010	0.039	2.700	1.890	1.885	1.890	1.904	1.914	1.899
0.005	0.000	0.000	-0.005	0.005	0.024	0.044	2.695	1.890	1.890	1.885	1.904	1.914	1.909
0.005	0.000	-0.005	0.000	-0.015	0.024	0.039	2.671	1.890	1.890	1.885	1.904	1.899	1.904
0.005	0.015	-0.010	0.000	-0.068	0.000	0.044	2.695	1.890	1.895	1.885	1.899	1.885	1.895
-0.010	0.020	0.000	0.000	-0.098	0.020	0.039	2.686	1.890	1.890	1.885	1.904	1.885	1.890
0.000	0.015	0.005	0.005	-0.098	0.010	0.039	2.695	1.890	1.890	1.890	1.904	1.890	1.890
-0.010	0.015	0.010	0.000	-0.073	0.000	0.044	2.695	1.890	1.885	1.890	1.904	1.899	1.890
-0.010	0.010	0.010	-0.005	-0.068	0.010	0.044	2.676	1.890	1.885	1.885	1.904	1.899	1.895
-0.010	0.010	0.015	0.005	-0.068	0.005	0.039	2.695	1.890	1.890	1.890	1.909	1.899	1.899
-0.005	-0.015	0.005	0.005	-0.044	0.000	0.044	2.681	1.890	1.880	1.885	1.904	1.909	1.899
0.005	-0.015	-0.005	-0.010	-0.005	0.005	0.039	2.700	1.899	1.885	1.885	1.904	1.914	1.904
0.000	-0.020	0.000	-0.020	0.015	0.005	0.044	2.676	1.890	1.885	1.885	1.899	1.914	1.904
0.000	-0.039	0.005	-0.020	0.024	0.000	0.039	2.671	1.885	1.875	1.885	1.899	1.914	1.909
0.000	-0.020	0.010	-0.020	0.034	-0.005	0.039	2.686	1.890	1.885	1.885	1.899	1.909	1.904
-0.005	-0.024	0.005	-0.010	-0.005	-0.034	0.044	2.651	1.885	1.885	1.885	1.904	1.895	1.895
0.010	-0.020	0.000	-0.015	-0.029	-0.029	0.039	2.754	1.885	1.890	1.880	1.899	1.885	1.895
0.034	0.005	0.005	-0.005	-0.054	-0.044	0.044	2.646	1.890	1.895	1.885	1.904	1.885	1.885
0.024	0.020	0.000	0.000	-0.059	-0.020	0.044	2.769	1.895	1.895	1.885	1.904	1.885	1.890
0.039	0.044	-0.010	0.029	-0.068	-0.015	0.039	2.783	1.909	1.909	1.890	1.914	1.895	1.895
0.010	0.039	-0.005	0.049	-0.054	0.005	0.044	2.734	1.890	1.895	1.890	1.919	1.904	1.904
-0.010	0.049	-0.005	0.034	-0.034	0.010	0.044	2.681	1.880	1.895	1.895	1.914	1.909	1.909
-0.029	0.015	0.000	0.020	-0.024	0.034	0.044	2.749	1.885	1.885	1.890	1.909	1.909	1.914
-0.015	0.005	0.000	0.020	-0.020	0.024	0.044	2.744	1.895	1.880	1.885	1.904	1.909	1.904
-0.024	-0.015	0.005	0.029	0.015	0.039	0.039	2.734	1.899	1.880	1.885	1.909	1.914	1.914
-0.005	-0.005	0.005	0.015	0.029	0.034	0.044	2.744	1.904	1.890	1.885	1.904	1.919	1.919
0.000	-0.005	0.010	0.005	0.034	0.024	0.044	2.739	1.909	1.895	1.890	1.904	1.914	1.909
-0.005	-0.010	0.015	0.005	0.078	0.029	0.044	2.729	1.909	1.895	1.890	1.904	1.924	1.919
-0.005	0.000	0.010	-0.005	0.132	0.029	0.039	2.666	1.904	1.899	1.895	1.904	1.934	1.919
0.000	0.000	0.005	-0.010	0.171	0.029	0.039	2.642	1.899	1.904	1.895	1.904	1.934	1.924
-0.005	0.000	0.005	-0.010	0.107	0.029	0.039	2.681	1.899	1.904	1.895	1.904	1.909	1.919
0.000	0.005	0.000	-0.010	0.103	0.020	0.039	2.651	1.895	1.899	1.895	1.909	1.904	1.914
-0.005	-0.005	-0.005	-0.015	0.078	0.015	0.039	2.695	1.895	1.895	1.895	1.904	1.899	1.904
-0.049	-0.010	0.000	-0.015	0.112	0.015	0.044	2.690	1.880	1.885	1.890	1.909	1.909	1.904
-0.068	-0.015	0.005	-0.005	0.127	-0.005	0.044	2.681	1.880	1.885	1.890	1.909	1.914	1.904
-0.044	-0.010	0.005	-0.015	0.044	0.000	0.044	2.671	1.885	1.890	1.885	1.904	1.885	1.899
-0.010	-0.010	0.000	-0.015	-0.005	-0.005	0.044	2.690	1.899	1.890	1.885	1.899	1.875	1.890
0.029	0.000	-0.005	-0.015	-0.054	-0.015	0.039	2.705	1.914	1.895	1.890	1.904	1.870	1.880
0.068	-0.005	0.000	-0.005	-0.093	-0.034	0.039	2.690	1.914	1.899	1.890	1.904	1.870	1.870
0.088	0.000	0.000	0.005	-0.083	-0.020	0.044	2.676	1.909	1.909	1.895	1.909	1.880	1.875
0.088	0.000	0.000	0.024	-0.059	-0.024	0.039	2.666	1.899	1.904	1.899	1.919	1.895	1.880
0.073	0.000	0.005	0.015	-0.044	-0.034	0.039	2.686	1.895	1.899	1.899	1.919	1.904	1.885
0.054	0.005	0.010	0.005	-0.029	-0.029	0.039	2.695	1.880	1.895	1.899	1.914	1.909	1.895
0.029	0.010	0.005	0.005	-0.015	-0.039	0.039	2.681	1.875	1.890	1.899	1.914	1.914	1.899
0.005	0.015	0.010	0.010	0.000	-0.020	0.044	2.686	1.875	1.885	1.895	1.914	1.919	1.904
-0.020	0.010	0.010	0.000	0.000	-0.034	0.039	2.676	1.870	1.880	1.890	1.909	1.914	1.904
-0.044	0.005	0.005	-0.010	0.000	-0.024	0.039	2.661	1.865	1.875	1.880	1.904	1.914	1.909
-0.059	0.000	0.000	-0.020	0.005	-0.015	0.039	2.700	1.870	1.870	1.875	1.899	1.904	1.909
-0.044	0.005	-0.005	-0.015	0.015	-0.020	0.044	2.686	1.885	1.880	1.875	1.899	1.904	1.904
-0.029	-0.010	0.005	-0.005	0.015	0.000	0.039	2.690	1.890	1.875	1.875	1.899	1.904	1.914
-0.020	-0.015	-0.005	0.000	-0.020	0.005	0.039	2.671	1.890	1.875	1.875	1.899	1.895	1.909
-0.005	0.015	-0.010	0.000	-0.024	0.010	0.039	2.676	1.890	1.885	1.875	1.899	1.890	1.904
-0.015	0.015	0.000	0.005	-0.015	0.005	0.044	2.686	1.890	1.890	1.880	1.899	1.899	1.899
-0.005	0.005	0.000	0.005	0.010	0.005	0.039	2.671	1.895	1.885	1.880	1.899	1.904	1.899
0.000	-0.005	0.000	0.005	-0.010	-0.005	0.044	2.686	1.890	1.885	1.885	1.899	1.890	1.895
0.005	0.000	0.000	0.005	0.000	-0.005	0.044	2.666	1.890	1.890	1.885	1.904	1.899	1.895
0.005	0.020	0.005	0.000	0.029	0.000	0.044	2.651	1.885	1.890	1.885	1.899	1.904	1.899
0.000	0.024	0.005	-0.015	0.039	-0.015	0.039	2.661	1.885	1.890	1.885	1.899	1.904	1.899
0.000	0.010	0.005	-0.010	0.049	0.015	0.039	2.778	1.895	1.890	1.885	1.899	1.904	1.909
0.005	0.010	0.000	-0.005	0.063	0.010	0.039	2.798	1.909	1.895	1.890	1.904	1.909	1.904
0.000	0.000	0.010	0.000	0.063	-0.005	0.039	2.642	1.895	1.895	1.890	1.904	1.904	1.899
-0.005	-0.010	0.000	-0.005	0.068	-0.005	0.039	2.690	1.895	1.885	1.890	1.904	1.904	1.904
0.000	-0.044	0.000	0.005	0.063	0.010	0.044	2.651	1.890	1.880	1.885	1.909	1.904	1.909
0.015	-0.044	0.000	0.010	0.098	0.010	0.044	2.778	1.904	1.885	1.885	1.904	1.914	1.909
0.005	-0.015	0.005	0.010	0.142	-0.005	0.044	2.651	1.899	1.895	1.890	1.909	1.924	1.909
0.005	-0.015	-0.005	0.010	0.181	0.005	0.039	2.646	1.890	1.895	1.890	1.909	1.929	1.919
0.020	-0.020	-0.005	0.015	0.146	0.000	0.039	2.720	1.904	1.895	1.890	1.909	1.909	1.914
0.024	-0.020	-0.005	0.005	0.054	0.000	0.039	2.627	1.904	1.895	1.890	1.904	1.885	1.904
0.015	0.010	-0.005	0.005	-0.020	-0.005	0.044	2.695	1.899	1.904	1.890	1.904	1.870	1.890
0.005	0.044	0.000	0.015	-0.073	-0.005	0.039	2.651	1.890	1.909	1.899	1.909	1.865	1.880
0.005	0.029	0.000	0.015	-0.088	-0.015	0.039	2.661	1.885	1.895	1.895	1.909	1.870	1.875
-0.005	0.020	-0.005	0.005	-0.078	-0.010	0.039	2.651	1.875	1.885	1.890	1.909	1.880	1.875
0.000	0.024	-0.005	0.005	-0.063	-0.005	0.039	2.661	1.875	1.885	1.890	1.909	1.890	1.880
0.015	0.020	0.005	0.010	-0.059	0.005	0.039	2.705	1.885	1.885	1.890	1.909	1.899	1.890
-0.029	0.034	0.005	0.010	-0.059	0.005	0.044	2.705	1.875	1.890	1.885	1.909	1.899	1.890
-0.015	0.034	0.000	0.015	-0.059	0.010	0.044	2.671	1.880	1.880	1.885	1.909	1.899	1.895
0.005	-0.005	0.000	0.010	-0.068	0.015	0.044	2.666	1.885	1.875	1.880	1.904	1.899	1.899
-0.015	-0.010	0.000	0.010	-0.068	0.020	0.044	2.695	1.885	1.875	1.880	1.904	1.899	1.899
0.005	-0.020	0.000	0.010	-0.068	-0.005	0.044	2.700	1.890	1.875	1.880	1.899	1.895	1.890
0.005	-0.029	0.000	0.000	-0.078	0.005	0.044	2.681	1.890	1.875	1.875	1.899	1.890	1.895
0.010	-0.020	-0.005	-0.005	-0.083	0.010	0.044	2.710	1.890	1.880	1.875	1.895	1.890	1.895
0.020	-0.020	-0.005	-0.005	-0.054	0.010	0.044	2.661	1.890	1.885	1.875	1.895	1.904	1.895
0.010	0.000	-0.010	0.010	0.005	0.000	0.044	2.695	1.890	1.895	1.880	1.904	1.919	1.899
0.005	0.015	-0.005	0.020	0.015	0.005	0.039	2.681	1.885	1.890	1.880	1.904	1.909	1.904
-0.015	0.020	-0.005	0.015	0.010	-0.005	0.039	2.695	1.885	1.890	1.885	1.904	1.909	1.904
-0.015	-0.005	-0.010	0.010	0.010	-0.005	0.039	2.666	1.885	1.880	1.880	1.899	1.904	1.899
0.000	0.000	-0.005	0.010	0.015	-0.020	0.039	2.671	1.890	1.885	1.880	1.899	1.904	1.899
0.015	0.000	-0.005	0.005	0.044	0.000	0.039	2.705	1.895	1.885	1.880	1.899	1.909	1.904
0.024	0.010	0.005	0.000	0.034	0.000	0.039	2.681	1.895	1.895	1.885	1.899	1.899	1.904
0.010	0.015	0.005	0.000	-0.005	0.000	0.044	2.690	1.890	1.890	1.890	1.899	1.890	1.899
0.015	-0.010	0.005	-0.005	-0.005	-0.015	0.044	2.676	1.890	1.880	1.885	1.899	1.890	1.895
-0.005	-0.039	0.000	-0.010	0.010	-0.020	0.044	2.681	1.880	1.870	1.880	1.899	1.895	1.895
-0.010	-0.039	0.000	-0.015	0.029	-0.010	0.044	2.676	1.880	1.880	1.880	1.895	1.899	1.895
0.010	0.034	0.000	-0.010	0.044	0.000	0.039	2.676	1.890	1.899	1.885	1.899	1.904	1.904
0.000	-0.020	0.000	0.000	0.034	-0.005	0.044	2.690	1.890	1.880	1.880	1.904	1.899	1.899
0.020	-0.024	0.000	0.015	0.010	0.015	0.044	2.656	1.890	1.880	1.885	1.904	1.895	1.904
0.015	0.039	0.000	0.015	-0.015	0.015	0.039	2.637	1.885	1.904	1.890	1.904	1.890	1.899
0.010	0.005	0.005	0.020	-0.024	0.020	0.039	2.656	1.880	1.880	1.890	1.909	1.890	1.895
0.005	-0.010	-0.005	0.020	-0.039	0.024	0.039	2.783	1.895	1.880	1.880	1.904	1.890	1.895
-0.005	0.000	-0.010	0.020	-0.054	0.015	0.039	2.793	1.899	1.890	1.885	1.904	1.890	1.890
0.000	0.093	-0.005	0.010	-0.044	0.010	0.039	2.642	1.895	1.919	1.895	1.899	1.895	1.890
-0.010	0.059	0.000	0.000	-0.010	0.010	0.039	2.695	1.890	1.890	1.895	1.904	1.904	1.895
-0.010	-0.034	-0.005	0.005	0.000	0.015	0.044	2.729	1.885	1.870	1.885	1.904	1.904	1.899
-0.005	-0.024	-0.005	-0.010	0.010	0.010	0.039	2.808	1.904	1.880	1.880	1.899	1.904	1.899
0.010	-0.020	-0.015	-0.010	0.029	0.020	0.044	2.646	1.899	1.885	1.880	1.899	1.904	1.904
0.015	-0.034	-0.005	-0.010	0.039	0.015	0.039	2.627	1.890	1.885	1.880	1.899	1.904	1.904
0.005	-0.005	-0.005	0.000	0.039	0.020	0.039	2.715	1.895	1.895	1.885	1.899	1.904	1.904
0.000	0.010	0.000	0.005	0.029	-0.005	0.044	2.651	1.890	1.895	1.890	1.909	1.899	1.895
0.010	0.020	0.000	0.005	0.029	0.015	0.039	2.705	1.890	1.895	1.895	1.909	1.899	1.904
-0.005	0.010	0.005	0.015	0.015	0.005	0.039	2.617	1.880	1.890	1.890	1.909	1.895	1.895
-0.005	0.020	0.005	0.010	0.000	0.005	0.039	2.651	1.880	1.890	1.890	1.909	1.895	1.895
-0.010	0.015	0.000	0.000	-0.005	-0.029	0.044	2.646	1.875	1.885	1.885	1.904	1.895	1.885
-0.005	0.005	0.000	-0.020	0.010	-0.044	0.044	2.705	1.880	1.880	1.885	1.899	1.899	1.885
-0.015	0.020	0.000	-0.015	0.000	-0.039	0.039	2.700	1.880	1.885	1.885	1.899	1.895	1.895
0.000	0.010	0.000	-0.005	0.010	-0.034	0.039	2.695	1.890	1.880	1.885	1.904	1.899	1.895
0.000	0.010	-0.005	-0.005	0.005	0.005	0.044	2.700	1.890	1.885	1.885	1.899	1.899	1.904
0.000	0.010	-0.005	0.005	0.005	0.029	0.039	2.695	1.890	1.885	1.880	1.904	1.899	1.909
-0.010	-0.010	-0.005	0.010	0.020	0.024	0.039	2.695	1.890	1.880	1.880	1.904	1.904	1.909
0.000	-0.015	-0.005	0.020	-0.010	0.005	0.039	2.666	1.890	1.880	1.880	1.904	1.895	1.899
0.000	-0.029	-0.010	0.020	0.000	0.020	0.039	2.671	1.890	1.875	1.875	1.899	1.899	1.904
0.000	-0.029	-0.005	0.020	0.029	0.024	0.044	2.666	1.885	1.880	1.875	1.899	1.904	1.904
-0.010	-0.010	-0.005	0.010	0.059	0.005	0.044	2.681	1.885	1.885	1.880	1.899	1.909	1.899
-0.015	-0.049	-0.005	0.005	0.083	0.024	0.044	2.700	1.885	1.875	1.875	1.895	1.909	1.904
0.000	0.000	-0.005	0.005	0.049	0.010	0.044	2.681	1.895	1.895	1.880	1.895	1.890	1.899
0.005	0.063	0.000	0.000	-0.010	-0.005	0.039	2.700	1.895	1.914	1.890	1.899	1.875	1.890
0.015	0.005	0.005	0.005	-0.039	0.000	0.039	2.695	1.895	1.885	1.890	1.899	1.875	1.885
0.015	-0.059	0.010	0.005	-0.068	-0.029	0.039	2.676	1.895	1.875	1.885	1.899	1.870	1.870
0.034	-0.078	0.005	0.005	-0.068	-0.005	0.039	2.710	1.895	1.875	1.880	1.899	1.880	1.880
0.029	-0.020	0.005	0.005	-0.063	-0.010	0.039	2.681	1.890	1.895	1.885	1.899	1.885	1.880
0.000	0.083	0.000	-0.005	-0.044	0.000	0.039	2.700	1.885	1.919	1.895	1.904	1.895	1.890
-0.020	0.049	0.000	-0.015	-0.020	0.020	0.044	2.690	1.880	1.895	1.895	1.904	1.904	1.899
-0.015	0.044	0.000	-0.010	-0.024	0.000	0.039	2.661	1.880	1.895	1.895	1.904	1.899	1.895
0.000	0.098	0.000	-0.005	-0.010	0.020	0.039	2.681	1.885	1.899	1.895	1.909	1.904	1.899
0.010	-0.020	0.000	-0.005	-0.010	0.010	0.044	2.666	1.880	1.865	1.885	1.909	1.904	1.899
0.015	-0.068	0.005	0.000	-0.010	0.010	0.044	2.686	1.885	1.860	1.875	1.904	1.904	1.899
0.015	-0.029	0.005	0.015	-0.020	0.015	0.044	2.661	1.885	1.875	1.875	1.909	1.899	1.899
0.000	0.000	0.000	0.005	-0.015	0.000	0.039	2.632	1.875	1.880	1.875	1.899	1.899	1.899
-0.015	0.024	0.000	0.010	-0.005	0.010	0.039	2.651	1.870	1.885	1.875	1.899	1.904	1.899
-0.005	0.034	0.000	0.010	0.024	-0.005	0.044	2.783	1.890	1.885	1.880	1.899	1.909	1.899
-0.010	0.020	0.000	0.010	0.039	-0.029	0.039	2.793	1.899	1.880	1.880	1.899	1.909	1.895
-0.005	0.024	0.005	0.020	0.083	-0.005	0.039	2.637	1.895	1.890	1.885	1.904	1.919	1.909
-0.005	0.010	0.005	0.044	0.107	-0.005	0.039	2.690	1.895	1.890	1.885	1.914	1.924	1.914
-0.005	0.024	0.005	0.039	0.083	-0.005	0.039	2.651	1.899	1.895	1.885	1.904	1.909	1.909
-0.024	0.005	0.010	-0.005	0.034	-0.015	0.039	2.759	1.899	1.885	1.885	1.895	1.890	1.899
-0.010	-0.005	0.010	-0.034	0.000	-0.015	0.044	2.651	1.895	1.885	1.885	1.885	1.880	1.890
-0.010	-0.010	0.010	-0.054	-0.024	-0.005	0.039	2.729	1.899	1.890	1.880	1.890	1.875	1.890
-0.010	-0.010	0.010	-0.049	-0.039	-0.015	0.039	2.754	1.909	1.890	1.885	1.890	1.875	1.880
0.000	0.005	0.015	-0.034	-0.039	-0.010	0.044	2.734	1.909	1.899	1.890	1.904	1.880	1.885
0.010	0.005	0.005	-0.010	-0.020	0.000	0.039	2.666	1.899	1.899	1.890	1.909	1.895	1.890
0.010	-0.010	-0.005	0.000	-0.034	0.005	0.039	2.607	1.885	1.890	1.890	1.909	1.895	1.890
0.015	-0.015	-0.005	0.015	-0.068	0.010	0.039	2.681	1.885	1.885	1.890	1.914	1.885	1.890
0.005	-0.020	-0.015	0.020	-0.122	0.010	0.039	2.622	1.875	1.880	1.885	1.909	1.875	1.885
0.010	-0.005	-0.005	0.010	-0.122	0.000	0.039	2.671	1.875	1.885	1.885	1.904	1.885	1.885
0.015	-0.020	-0.005	-0.029	-0.083	-0.015	0.034	2.700	1.880	1.875	1.880	1.890	1.895	1.880
0.010	-0.020	0.000	-0.029	-0.044	0.000	0.034	2.690	1.880	1.880	1.880	1.895	1.904	1.890
-0.005	-0.020	0.005	0.005	-0.010	-0.020	0.034	2.690	1.880	1.875	1.880	1.909	1.909	1.895
0.000	0.005	0.010	0.024	-0.015	0.005	0.034	2.695	1.885	1.885	1.885	1.909	1.914	1.904
0.010	0.005	0.010	0.024	-0.034	0.015	0.034	2.710	1.885	1.885	1.885	1.909	1.904	1.904
0.010	0.010	0.010	0.015	-0.044	-0.005	0.044	2.700	1.895	1.890	1.885	1.904	1.899	1.899
-0.010	0.015	0.010	0.000	-0.020	0.020	0.044	2.676	1.890	1.890	1.885	1.904	1.909	1.909
0.010	0.024	0.005	-0.005	-0.010	0.020	0.044	2.695	1.895	1.895	1.885	1.899	1.909	1.909
0.005	0.024	0.005	-0.010	0.029	0.010	0.044	2.671	1.890	1.890	1.885	1.899	1.914	1.909
0.010	0.010	-0.005	-0.010	0.049	0.005	0.044	2.705	1.895	1.885	1.880	1.904	1.914	1.909
-0.010	0.000	-0.010	-0.005	0.132	-0.005	0.044	2.681	1.890	1.885	1.885	1.904	1.934	1.914
-0.015	-0.005	-0.015	0.000	0.210	-0.020	0.044	2.671	1.885	1.880	1.880	1.904	1.943	1.919
-0.020	-0.005	-0.024	0.005	0.205	-0.010	0.044	2.705	1.885	1.885	1.880	1.904	1.929	1.924
-0.049	-0.020	-0.015	0.020	0.107	-0.005	0.039	2.705	1.880	1.875	1.880	1.904	1.895	1.919
-0.049	-0.015	-0.010	0.010	0.073	0.015	0.034	2.695	1.885	1.880	1.880	1.899	1.890	1.914
-0.044	-0.010	-0.005	0.000	0.063	0.015	0.034	2.671	1.890	1.885	1.880	1.895	1.890	1.904
-0.005	-0.005	-0.005	0.000	0.073	0.015	0.034	2.686	1.899	1.890	1.885	1.895	1.895	1.904
-0.068	-0.010	0.005	0.000	0.176	0.015	0.034	2.661	1.875	1.885	1.885	1.899	1.924	1.909
-0.054	-0.005	0.005	-0.005	0.239	0.039	0.034	2.676	1.885	1.885	1.885	1.904	1.934	1.919
-0.010	-0.005	0.000	-0.010	0.229	0.029	0.034	2.676	1.904	1.890	1.885	1.899	1.919	1.914
0.054	0.005	0.000	-0.010	0.117	0.024	0.034	2.681	1.919	1.904	1.890	1.899	1.875	1.899
0.093	0.010	-0.005	-0.005	-0.059	0.020	0.034	2.690	1.924	1.909	1.890	1.899	1.836	1.880
0.107	0.020	0.010	-0.005	-0.171	0.005	0.034	2.666	1.919	1.914	1.899	1.904	1.826	1.855
0.098	0.020	0.005	0.000	-0.234	0.005	0.034	2.793	1.899	1.909	1.899	1.909	1.831	1.851
0.068	0.029	-0.005	0.005	-0.195	0.000	0.034	2.646	1.880	1.899	1.899	1.909	1.865	1.855
0.044	0.029	0.010	0.005	-0.156	-0.034	0.034	2.739	1.880	1.895	1.904	1.914	1.885	1.855
0.044	0.005	0.034	0.005	-0.142	-0.034	0.034	2.783	1.890	1.885	1.904	1.919	1.895	1.870
0.034	0.000	0.029	0.010	-0.132	-0.024	0.034	2.739	1.890	1.885	1.899	1.919	1.899	1.880
0.010	-0.005	0.015	0.005	-0.161	-0.024	0.034	2.671	1.875	1.875	1.885	1.914	1.899	1.880
-0.015	0.000	0.010	-0.005	-0.166	-0.054	0.034	2.754	1.880	1.875	1.880	1.904	1.895	1.880
-0.024	-0.005	0.000	-0.015	-0.176	0.000	0.034	2.778	1.885	1.875	1.875	1.899	1.895	1.895
-0.020	-0.005	0.005	-0.020	-0.210	0.010	0.034	2.739	1.890	1.875	1.880	1.895	1.885	1.895
-0.005	-0.010	0.039	-0.010	-0.195	0.024	0.034	2.661	1.885	1.880	1.890	1.904	1.895	1.899
-0.024	-0.020	0.044	-0.005	-0.137	0.083	0.034	2.710	1.880	1.875	1.880	1.904	1.914	1.919
-0.039	-0.020	0.020	-0.005	-0.020	0.078	0.034	2.725	1.885	1.875	1.875	1.904	1.943	1.929
-0.029	-0.005	0.015	0.000	0.044	0.063	0.034	2.695	1.890	1.885	1.875	1.904	1.943	1.929
-0.024	0.000	0.020	0.010	0.122	0.005	0.034	2.710	1.895	1.890	1.885	1.909	1.953	1.924
-0.034	0.015	-0.005	0.029	0.220	-0.010	0.034	2.651	1.890	1.895	1.880	1.914	1.968	1.934
-0.034	0.024	-0.005	0.024	0.234	-0.078	0.034	2.661	1.890	1.895	1.885	1.909	1.948	1.919
-0.015	0.005	-0.020	0.029	0.151	-0.161	0.039	2.671	1.890	1.890	1.875	1.904	1.909	1.890
-0.005	-0.020	-0.049	0.020	0.063	-0.186	0.034	2.700	1.890	1.880	1.870	1.895	1.880	1.880
-0.020	-0.015	-0.068	0.010	0.029	-0.156	0.034	2.705	1.890	1.885	1.870	1.885	1.875	1.885
-0.024	0.010	-0.049	0.000	-0.044	-0.098	0.034	2.695	1.890	1.890	1.880	1.885	1.860	1.890
-0.029	0.010	-0.010	0.010	-0.078	-0.020	0.034	2.671	1.885	1.890	1.895	1.895	1.865	1.904
-0.015	0.005	0.015	0.015	-0.049	0.068	0.034	2.710	1.895	1.890	1.899	1.904	1.885	1.919
0.024	0.000	0.015	0.010	0.010	0.146	0.034	2.671	1.904	1.899	1.899	1.904	1.909	1.943
0.010	0.020	0.010	-0.005	0.093	0.200	0.034	2.681	1.904	1.899	1.895	1.909	1.929	1.953
-0.005	0.010	-0.005	-0.005	0.215	0.225	0.034	2.671	1.895	1.895	1.890	1.909	1.963	1.963
-0.020	0.005	-0.005	-0.024	0.288	0.186	0.034	2.681	1.895	1.895	1.890	1.904	1.958	1.948
-0.029	-0.005	0.005	-0.059	0.215	0.112	0.034	2.671	1.890	1.890	1.890	1.895	1.914	1.919
-0.024	-0.005	0.005	-0.054	0.186	0.029	0.034	2.671	1.899	1.890	1.890	1.899	1.895	1.890
-0.015	0.015	0.020	-0.029	0.078	-0.078	0.034	2.710	1.899	1.899	1.895	1.909	1.870	1.851
0.005	0.005	0.005	-0.005	-0.073	-0.161	0.034	2.666	1.895	1.895	1.890	1.909	1.836	1.826
0.000	0.015	0.000	0.020	-0.181	-0.210	0.034	2.681	1.885	1.890	1.890	1.914	1.826	1.807
-0.029	0.005	-0.005	0.034	-0.288	-0.195	0.034	2.700	1.875	1.880	1.885	1.914	1.821	1.816
-0.034	0.000	0.024	0.034	-0.298	-0.161	0.034	2.676	1.865	1.880	1.890	1.909	1.846	1.831
-0.020	0.010	0.024	0.024	-0.269	-0.142	0.034	2.695	1.870	1.880	1.885	1.909	1.870	1.851
-0.005	0.015	0.000	0.015	-0.215	-0.049	0.034	2.710	1.880	1.880	1.880	1.904	1.895	1.885
0.015	0.005	0.068	0.049	-0.210	0.015	0.034	2.705	1.890	1.885	1.899	1.919	1.904	1.909
0.044	0.000	0.083	0.044	-0.190	0.107	0.034	2.676	1.895	1.885	1.899	1.914	1.914	1.938
0.093	0.005	0.034	0.034	-0.171	0.156	0.034	2.671	1.914	1.895	1.885	1.909	1.919	1.943
0.137	0.005	-0.024	0.010	-0.127	0.181	0.034	2.671	1.919	1.899	1.875	1.899	1.924	1.948
0.132	0.010	-0.049	-0.024	-0.020	0.205	0.034	2.666	1.909	1.899	1.875	1.890	1.943	1.953
0.078	0.000	-0.054	-0.034	0.151	0.200	0.034	2.798	1.904	1.899	1.875	1.895	1.978	1.958
0.059	-0.005	-0.054	-0.044	0.327	0.176	0.034	2.651	1.895	1.895	1.885	1.895	1.997	1.968
0.020	-0.010	-0.039	-0.015	0.425	0.098	0.034	2.793	1.899	1.895	1.890	1.909	1.992	1.953
0.000	-0.010	-0.015	0.000	0.376	0.020	0.034	2.793	1.909	1.895	1.895	1.914	1.953	1.929
-0.034	-0.005	0.015	0.044	0.381	-0.107	0.034	2.642	1.890	1.895	1.904	1.929	1.948	1.904
-0.039	0.005	0.029	0.020	0.454	-0.181	0.034	2.192	1.831	1.885	1.904	1.919	1.948	1.895
-0.034	0.005	0.024	-0.010	0.308	-0.259	0.034	1.245	1.685	1.836	1.880	1.899	1.890	1.865
-0.024	0.005	0.034	-0.020	0.166	-0.244	0.044	1.279	1.592	1.777	1.855	1.890	1.855	1.865
-0.059	0.000	0.029	-0.020	0.044	-0.225	0.044	1.216	1.509	1.709	1.816	1.870	1.826	1.855
-0.142	0.029	0.054	-0.015	-0.107	-0.186	0.044	1.143	1.421	1.646	1.777	1.851	1.797	1.851
-0.122	0.029	0.049	-0.010	-0.210	-0.093	0.044	1.211	1.406	1.582	1.724	1.821	1.777	1.851
-0.083	0.015	0.049	-0.010	-0.312	0.054	0.054	1.216	1.401	1.538	1.670	1.782	1.758	1.865
-0.024	0.010	0.039	-0.010	-0.264	0.200	0.049	1.182	1.406	1.504	1.626	1.753	1.777	1.875
0.054	-0.024	0.034	0.015	-0.215	0.288	0.078	2.046	1.514	1.499	1.587	1.719	1.777	1.875
0.112	-0.029	0.024	0.024	-0.171	0.269	0.044	1.880	1.562	1.519	1.567	1.689	1.763	1.846
0.146	-0.034	-0.010	0.005	-0.122	0.186	0.044	2.710	1.685	1.553	1.553	1.650	1.743	1.797
0.146	-0.034	-0.044	-0.015	-0.103	0.063	0.044	2.661	1.758	1.602	1.553	1.621	1.709	1.738
0.122	-0.024	-0.054	-0.020	-0.029	-0.059	0.044	2.695	1.787	1.650	1.577	1.611	1.694	1.699
0.088	0.000	-0.093	-0.020	0.122	-0.151	0.039	2.695	1.807	1.694	1.597	1.616	1.709	1.680
0.034	0.000	-0.088	-0.005	0.122	-0.195	0.039	2.666	1.802	1.724	1.631	1.626	1.685	1.670
0.000	0.000	-0.098	-0.015	0.112	-0.195	0.039	2.695	1.807	1.743	1.660	1.636	1.665	1.670
-0.024	0.015	-0.078	-0.010	0.024	-0.151	0.039	2.681	1.812	1.763	1.689	1.655	1.636	1.670
-0.068	0.010	-0.034	0.010	-0.063	-0.054	0.039	2.695	1.807	1.772	1.724	1.680	1.626	1.680
-0.068	0.010	0.024	-0.010	-0.117	0.024	0.034	2.681	1.816	1.782	1.753	1.699	1.636	1.689
-0.063	0.024	0.078	-0.029	-0.098	0.088	0.039	2.671	1.821	1.797	1.777	1.724	1.665	1.699
-0.044	0.034	0.151	-0.005	-0.020	0.088	0.039	2.690	1.831	1.816	1.812	1.763	1.714	1.699
-0.020	0.029	0.166	0.015	0.151	0.049	0.034	2.695	1.836	1.816	1.816	1.792	1.777	1.719
-0.005	0.020	0.127	0.034	0.142	0.068	0.034	2.676	1.836	1.812	1.807	1.807	1.777	1.743
-0.020	-0.005	0.107	0.054	0.044	0.054	0.034	3.970	1.973	1.846	1.807	1.816	1.768	1.743
-0.015	-0.010	-0.020	0.054	0.005	0.073	0.039	3.975	2.075	1.890	1.792	1.812	1.768	1.753
0.010	-0.015	-0.156	0.029	-0.063	0.078	0.039	3.994	2.148	1.948	1.797	1.802	1.753	1.753
0.015	-0.010	-0.137	0.010	-0.107	0.088	0.034	3.970	2.197	2.012	1.860	1.812	1.758	1.758
0.010	0.005	-0.049	-0.024	-0.166	0.088	0.039	3.960	2.217	2.070	1.938	1.841	1.763	1.758
0.010	0.020	0.010	-0.044	-0.171	0.073	0.034	3.999	2.241	2.114	1.997	1.885	1.792	1.763
0.015	-0.005	0.024	-0.024	-0.205	0.044	0.039	4.009	2.246	2.139	2.036	1.934	1.816	1.768
-0.010	-0.024	0.010	-0.010	-0.190	0.015	0.039	3.989	2.241	2.158	2.065	1.978	1.865	1.787
-0.020	-0.015	0.000	-0.005	-0.117	-0.029	0.034	3.965	2.246	2.183	2.100	2.017	1.919	1.812
-0.015	0.000	0.034	-0.020	-0.063	-0.059	0.039	3.960	2.251	2.197	2.134	2.051	1.973	1.851
0.000	0.000	0.073	-0.015	0.010	-0.059	0.039	3.970	2.256	2.212	2.168	2.090	2.021	1.895
0.015	0.000	0.107	-0.015	0.122	-0.068	0.034	3.950	2.261	2.222	2.187	2.124	2.080	1.943
0.015	0.005	0.098	-0.010	0.151	-0.015	0.039	4.087	2.275	2.236	2.197	2.153	2.104	2.007
0.029	-0.005	0.083	-0.010	0.146	0.059	0.034	3.950	2.280	2.241	2.207	2.173	2.124	2.056
0.020	-0.015	0.063	-0.005	0.161	0.078	0.034	3.979	2.300	2.246	2.207	2.187	2.148	2.085
0.005	-0.020	0.024	-0.010	0.249	0.088	0.034	4.087	2.314	2.261	2.212	2.202	2.187	2.114
-0.029	-0.010	0.029	-0.005	0.303	0.059	0.034	4.019	2.319	2.275	2.231	2.217	2.207	2.139
-0.044	-0.015	-0.010	-0.005	0.303	0.059	0.034	3.955	2.314	2.280	2.231	2.222	2.207	2.153
-0.039	-0.020	-0.010	0.005	0.166	0.020	0.034	4.028	2.334	2.290	2.246	2.236	2.178	2.148
-0.034	0.000	-0.039	0.010	0.073	0.034	0.034	4.072	2.358	2.310	2.256	2.241	2.168	2.153
-0.049	0.005	-0.049	0.005	-0.063	0.088	0.034	3.936	2.354	2.324	2.271	2.251	2.158	2.163
-0.054	0.010	-0.049	0.020	-0.093	0.093	0.034	3.970	2.368	2.334	2.285	2.271	2.178	2.168
-0.005	0.005	-0.039	0.015	-0.142	0.068	0.034	4.009	2.388	2.344	2.300	2.280	2.192	2.168
0.029	0.005	-0.029	0.020	-0.151	0.024	0.034	3.931	2.388	2.354	2.319	2.295	2.212	2.168
0.054	0.020	-0.049	0.034	-0.166	-0.020	0.034	3.965	2.393	2.363	2.324	2.314	2.231	2.173
0.122	0.000	-0.103	0.015	-0.166	-0.112	0.034	3.994	2.412	2.373	2.324	2.310	2.251	2.168
0.015	0.005	-0.093	-0.020	-0.142	-0.229	0.034	3.950	2.363	2.363	2.334	2.314	2.266	2.168
-0.059	0.000	-0.122	-0.024	-0.161	-0.303	0.034	3.965	2.344	2.349	2.329	2.319	2.271	2.173
-0.059	0.000	-0.117	-0.020	-0.161	-0.278	0.034	3.999	2.363	2.354	2.339	2.329	2.285	2.212
-0.068	0.020	-0.063	0.000	-0.107	-0.220	0.034	3.999	2.378	2.363	2.358	2.354	2.324	2.256
-0.029	0.020	-0.034	0.005	-0.049	-0.171	0.039	3.965	2.402	2.378	2.368	2.368	2.349	2.300
0.034	0.029	-0.024	0.000	-0.039	-0.103	0.039	3.994	2.441	2.393	2.378	2.373	2.363	2.339
0.078	0.034	0.000	0.015	0.015	-0.034	0.039	3.975	2.461	2.417	2.397	2.393	2.383	2.368
0.122	0.024	0.039	0.015	-0.005	0.015	0.039	4.004	2.485	2.432	2.417	2.402	2.383	2.383
0.132	0.015	0.093	0.034	0.015	0.103	0.039	3.970	2.490	2.441	2.437	2.422	2.407	2.417
0.127	0.010	0.083	0.024	0.054	0.156	0.034	3.975	2.495	2.456	2.437	2.427	2.422	2.432
0.093	0.000	0.073	0.010	0.034	0.161	0.034	3.989	2.490	2.456	2.441	2.432	2.412	2.427
0.020	-0.010	0.059	-0.005	0.010	0.127	0.034	3.965	2.480	2.456	2.437	2.432	2.412	2.412
-0.020	-0.015	0.039	-0.010	0.078	0.093	0.034	3.965	2.476	2.461	2.437	2.437	2.441	2.412
-0.059	-0.010	0.024	-0.010	0.254	0.088	0.039	3.970	2.480	2.461	2.441	2.446	2.490	2.437
-0.073	-0.015	-0.020	-0.015	0.278	0.093	0.044	3.999	2.495	2.466	2.432	2.446	2.480	2.446
-0.078	-0.015	-0.015	-0.015	0.269	0.098	0.044	3.965	2.510	2.476	2.446	2.446	2.466	2.456
-0.088	-0.010	-0.015	-0.010	0.205	0.093	0.044	3.970	2.520	2.485	2.456	2.456	2.441	2.446
-0.088	-0.020	-0.015	0.005	0.073	0.088	0.039	3.999	2.534	2.495	2.461	2.466	2.412	2.432
-0.078	-0.015	-0.015	0.010	-0.029	0.059	0.034	3.979	2.544	2.505	2.476	2.471	2.397	2.412
-0.063	-0.010	-0.005	0.015	-0.112	0.000	0.044	3.989	2.559	2.520	2.485	2.476	2.393	2.393
-0.034	-0.010	-0.010	0.015	-0.195	-0.073	0.044	3.994	2.568	2.529	2.495	2.485	2.393	2.373
0.000	-0.005	-0.015	0.010	-0.181	-0.112	0.044	3.999	2.573	2.544	2.505	2.495	2.427	2.373
0.049	-0.010	-0.020	0.029	-0.098	-0.078	0.044	3.970	2.588	2.554	2.520	2.515	2.471	2.412
0.020	0.015	-0.015	0.015	-0.054	-0.078	0.044	3.970	2.573	2.568	2.534	2.520	2.495	2.437
-0.034	0.039	0.005	-0.005	-0.029	-0.029	0.044	3.984	2.563	2.563	2.544	2.529	2.510	2.476
-0.039	0.020	0.020	-0.010	0.015	-0.010	0.190	3.965	2.568	2.563	2.554	2.539	2.529	2.495
-0.034	0.005	0.020	-0.005	-0.005	-0.005	0.049	3.984	2.578	2.559	2.554	2.549	2.529	2.505
-0.005	0.000	0.044	0.010	-0.049	-0.010	0.132	3.955	2.598	2.573	2.568	2.563	2.524	2.510
0.000	0.015	0.034	0.010	-0.088	0.024	0.186	4.072	2.617	2.583	2.563	2.568	2.529	2.524
-0.005	0.000	0.010	0.015	-0.142	0.054	0.195	4.092	2.632	2.588	2.563	2.573	2.524	2.529
0.010	-0.010	-0.010	0.029	-0.137	0.112	0.225	4.004	2.637	2.598	2.563	2.578	2.544	2.549
0.029	0.000	-0.005	0.029	-0.093	0.176	0.220	3.994	2.651	2.612	2.583	2.583	2.568	2.573
0.034	0.010	0.000	0.020	-0.049	0.234	0.186	3.940	2.651	2.627	2.593	2.588	2.588	2.593
0.034	0.010	-0.010	0.015	0.132	0.195	0.225	4.058	2.661	2.632	2.603	2.598	2.642	2.598
0.039	-0.005	-0.024	0.020	0.342	0.112	0.254	3.936	2.666	2.637	2.607	2.612	2.681	2.603
0.029	0.000	-0.029	0.015	0.337	-0.024	0.210	4.048	2.676	2.646	2.612	2.612	2.651	2.573
0.010	0.010	-0.044	0.010	0.264	-0.132	0.229	4.014	2.676	2.651	2.622	2.617	2.617	2.559
0.020	0.005	-0.029	0.005	0.190	-0.215	0.254	4.038	2.666	2.651	2.632	2.622	2.598	2.549
0.015	0.005	-0.015	0.005	0.088	-0.225	0.259	3.994	2.671	2.656	2.642	2.632	2.573	2.549
0.000	0.000	-0.010	0.000	-0.049	-0.195	0.269	4.019	2.676	2.656	2.646	2.637	2.554	2.554
0.000	-0.005	-0.005	0.000	-0.156	-0.161	0.303	3.970	2.671	2.656	2.646	2.642	2.549	2.563
-0.005	-0.024	0.000	0.005	-0.225	-0.098	0.352	3.940	2.671	2.651	2.651	2.646	2.559	2.578
-0.010	-0.020	0.000	0.005	-0.254	-0.044	0.337	4.009	2.681	2.661	2.651	2.651	2.578	2.593
-0.015	-0.029	0.034	0.000	-0.298	-0.010	0.347	3.989	2.690	2.671	2.666	2.661	2.588	2.598
0.000	-0.010	0.024	0.005	-0.264	-0.039	0.278	3.970	2.695	2.676	2.661	2.666	2.617	2.598
-0.010	-0.010	0.010	0.000	-0.181	-0.078	0.278	3.999	2.700	2.681	2.666	2.676	2.651	2.603
-0.010	-0.005	-0.015	0.015	-0.117	-0.117	0.298	3.999	2.710	2.686	2.661	2.681	2.676	2.612
-0.005	0.005	-0.020	0.010	-0.039	-0.103	0.293	3.999	2.715	2.695	2.671	2.686	2.695	2.642
-0.015	0.020	-0.020	0.010	-0.039	-0.049	0.298	3.979	2.720	2.705	2.681	2.686	2.695	2.671
-0.015	0.049	-0.010	0.010	-0.015	0.034	0.317	3.984	2.725	2.715	2.690	2.695	2.700	2.705
-0.010	0.049	-0.015	0.010	0.015	0.117	0.317	3.979	2.734	2.720	2.695	2.700	2.710	2.729
-0.020	0.020	-0.039	0.010	0.151	0.132	0.322	3.970	2.739	2.715	2.695	2.705	2.749	2.739
-0.005	0.015	-0.034	0.020	0.327	0.151	0.332	3.994	2.754	2.725	2.705	2.715	2.788	2.764
0.010	0.034	-0.029	0.015	0.518	0.195	0.327	3.970	2.764	2.739	2.715	2.725	2.817	2.793
0.000	0.024	0.010	0.005	0.586	0.195	0.347	3.989	2.773	2.749	2.734	2.734	2.812	2.803
0.000	0.015	0.034	0.005	0.537	0.151	0.337	3.970	2.783	2.754	2.744	2.734	2.773	2.783
0.015	0.005	0.059	-0.015	0.283	0.132	0.332	3.970	2.788	2.764	2.749	2.734	2.690	2.744
0.020	0.005	0.078	-0.015	0.142	0.137	0.391	4.004	2.798	2.773	2.759	2.744	2.666	2.725
0.039	0.010	0.059	0.039	-0.024	0.117	0.405	3.984	2.808	2.783	2.759	2.764	2.651	2.695
0.068	0.010	0.049	0.034	-0.137	0.073	0.400	4.004	2.808	2.788	2.764	2.764	2.646	2.666
0.088	0.020	0.044	0.005	-0.210	0.039	0.435	4.004	2.808	2.793	2.769	2.764	2.651	2.651
0.098	0.000	0.039	-0.010	-0.244	0.044	0.420	4.004	2.803	2.788	2.769	2.764	2.676	2.661
0.103	-0.010	0.034	-0.010	-0.254	0.039	0.444	3.989	2.798	2.783	2.773	2.769	2.695	2.671
0.088	-0.024	0.034	-0.010	-0.239	0.020	0.449	3.979	2.788	2.778	2.773	2.773	2.720	2.681
0.068	-0.029	0.000	-0.015	-0.210	-0.034	0.454	3.994	2.783	2.773	2.764	2.773	2.734	2.676
0.000	-0.034	-0.024	-0.005	-0.195	-0.166	0.449	3.955	2.759	2.764	2.754	2.778	2.744	2.661
0.005	-0.029	-0.039	0.000	-0.200	-0.273	0.435	3.940	2.764	2.764	2.754	2.773	2.749	2.656
-0.015	-0.029	-0.054	0.029	-0.142	-0.342	0.425	3.945	2.754	2.759	2.749	2.783	2.773	2.676
-0.020	-0.020	-0.132	0.024	-0.068	-0.322	0.430	4.082	2.778	2.759	2.734	2.773	2.788	2.710
-0.054	-0.005	-0.107	0.000	-0.005	-0.293	0.415	4.102	2.778	2.769	2.749	2.769	2.798	2.744
-0.186	0.000	-0.049	0.029	-0.029	-0.171	0.425	3.936	2.744	2.764	2.769	2.778	2.788	2.793
-0.239	0.020	-0.039	0.029	-0.054	-0.049	0.425	3.970	2.749	2.764	2.769	2.783	2.783	2.822
-0.259	0.029	-0.005	0.015	-0.063	0.068	0.430	4.048	2.783	2.773	2.773	2.783	2.783	2.842
-0.210	0.024	0.044	0.000	-0.122	0.142	0.430	4.102	2.827	2.788	2.793	2.788	2.769	2.842
-0.059	0.020	0.117	-0.010	-0.146	0.190	0.439	3.945	2.876	2.812	2.812	2.798	2.773	2.832
0.049	0.010	0.122	0.005	-0.107	0.186	0.439	3.931	2.891	2.837	2.817	2.808	2.793	2.817
0.151	0.005	0.083	0.015	-0.078	0.171	0.444	4.019	2.915	2.856	2.817	2.822	2.808	2.812
0.239	0.000	0.088	0.000	-0.059	0.176	0.444	4.019	2.925	2.876	2.837	2.827	2.812	2.817
0.234	0.000	0.103	-0.015	0.083	0.171	0.444	3.989	2.900	2.881	2.847	2.837	2.861	2.832
0.200	-0.005	0.098	-0.034	0.322	0.146	0.444	3.984	2.886	2.876	2.856	2.842	2.920	2.852
0.151	-0.015	0.063	-0.039	0.415	0.098	0.439	3.984	2.866	2.866	2.847	2.852	2.915	2.856
0.117	-0.010	0.010	-0.024	0.376	0.034	0.439	3.926	2.852	2.861	2.837	2.852	2.886	2.847
0.088	-0.010	-0.029	-0.010	0.249	0.034	0.439	3.975	2.842	2.852	2.827	2.852	2.837	2.842
-0.044	-0.010	-0.044	-0.010	0.093	0.034	0.444	4.004	2.808	2.837	2.827	2.847	2.798	2.827
-0.137	0.005	-0.044	0.005	-0.029	0.054	0.435	3.994	2.803	2.827	2.822	2.847	2.783	2.817
-0.151	0.000	-0.156	0.034	-0.068	0.034	0.439	3.965	2.808	2.817	2.788	2.837	2.783	2.803
-0.137	0.000	-0.166	0.034	-0.098	0.010	0.439	3.999	2.822	2.817	2.798	2.832	2.793	2.793
-0.205	0.000	-0.122	0.010	-0.107	-0.083	0.444	3.999	2.822	2.817	2.812	2.827	2.793	2.764
-0.161	0.020	-0.034	0.005	-0.088	-0.186	0.435	3.989	2.842	2.832	2.837	2.832	2.803	2.749
-0.073	0.005	0.024	-0.005	-0.103	-0.229	0.439	3.984	2.871	2.842	2.852	2.842	2.808	2.754
0.034	0.010	0.039	0.000	-0.078	-0.283	0.439	4.004	2.900	2.861	2.856	2.856	2.822	2.759
0.156	0.005	0.029	0.010	-0.054	-0.308	0.444	3.970	2.925	2.876	2.861	2.866	2.842	2.778
0.151	0.015	-0.049	0.029	-0.049	-0.264	0.439	4.009	2.900	2.881	2.847	2.866	2.847	2.808
-0.039	0.010	-0.068	0.015	-0.088	-0.127	0.444	3.984	2.832	2.861	2.847	2.861	2.847	2.856
-0.239	-0.005	-0.049	-0.010	-0.073	-0.029	0.439	4.004	2.793	2.832	2.847	2.856	2.852	2.881
-0.166	0.000	0.024	-0.020	-0.024	0.073	0.444	3.999	2.847	2.842	2.861	2.861	2.871	2.905
0.000	0.000	0.054	-0.020	0.020	0.142	0.444	3.975	2.915	2.866	2.871	2.871	2.886	2.920
0.117	-0.015	0.044	-0.010	0.029	0.151	0.439	3.999	2.944	2.886	2.871	2.876	2.886	2.915
0.195	-0.020	0.020	-0.015	0.039	0.117	0.444	3.979	2.954	2.900	2.871	2.881	2.881	2.896
0.156	-0.015	0.005	-0.024	0.015	0.083	0.444	4.004	2.930	2.910	2.876	2.876	2.871	2.876
0.088	0.005	0.034	-0.020	-0.010	0.098	0.449	4.004	2.900	2.910	2.891	2.886	2.871	2.886
0.034	0.010	0.078	-0.020	0.049	0.146	0.444	3.979	2.886	2.905	2.905	2.896	2.891	2.900
0.020	0.000	0.054	-0.010	0.034	0.161	0.449	3.984	2.886	2.896	2.891	2.900	2.891	2.900
0.015	-0.020	-0.054	0.010	-0.024	0.151	0.449	3.970	2.891	2.886	2.856	2.900	2.881	2.891
-0.015	-0.020	-0.195	0.029	0.059	0.137	0.449	3.989	2.886	2.881	2.832	2.891	2.905	2.891
0.005	-0.010	-0.156	0.059	0.176	0.137	0.449	3.960	2.900	2.891	2.861	2.900	2.935	2.905
0.029	-0.005	-0.054	0.044	0.371	0.127	0.454	3.965	2.910	2.900	2.900	2.905	2.979	2.930
0.015	-0.015	0.063	0.024	0.327	0.088	0.449	3.970	2.905	2.900	2.925	2.915	2.939	2.920
-0.015	-0.010	0.151	0.010	0.264	0.034	0.454	4.087	2.915	2.905	2.944	2.920	2.915	2.905
-0.029	-0.005	0.171	-0.020	0.146	-0.024	0.454	4.077	2.925	2.910	2.935	2.915	2.881	2.881
-0.039	-0.005	0.132	-0.034	0.034	-0.078	0.459	3.945	2.915	2.905	2.915	2.915	2.856	2.856
-0.049	0.000	0.112	-0.024	-0.034	-0.122	0.454	3.975	2.905	2.905	2.905	2.920	2.852	2.837
-0.200	0.005	0.010	-0.005	-0.063	-0.161	0.459	3.950	2.856	2.886	2.871	2.915	2.856	2.832
-0.181	0.005	-0.005	0.010	-0.107	-0.210	0.459	4.058	2.881	2.886	2.871	2.910	2.856	2.827
-0.078	0.024	0.010	0.015	-0.195	-0.244	0.454	3.950	2.910	2.900	2.881	2.905	2.847	2.817
0.112	0.010	0.044	0.015	-0.171	-0.200	0.454	4.033	2.974	2.920	2.900	2.910	2.871	2.852
0.303	0.015	0.029	0.010	-0.161	-0.117	0.454	4.019	3.013	2.949	2.905	2.915	2.886	2.881
0.215	0.015	-0.093	-0.020	-0.186	-0.029	0.454	3.926	2.959	2.944	2.886	2.896	2.886	2.905
0.078	0.005	-0.068	-0.024	-0.190	0.093	0.449	3.975	2.910	2.930	2.900	2.905	2.891	2.935
-0.015	0.024	-0.098	-0.015	-0.161	0.117	0.449	3.916	2.881	2.915	2.891	2.910	2.900	2.930
-0.078	0.029	-0.342	-0.015	-0.132	0.107	0.444	3.965	2.876	2.896	2.827	2.886	2.905	2.920
-0.029	0.020	-0.308	-0.015	-0.049	0.054	0.449	3.965	2.910	2.900	2.861	2.891	2.915	2.905
0.034	0.024	-0.127	-0.020	0.020	-0.054	0.454	3.994	2.930	2.915	2.930	2.910	2.930	2.891
-0.024	0.015	0.137	-0.015	0.093	-0.073	0.454	3.994	2.915	2.920	2.993	2.944	2.949	2.905
-0.059	0.015	0.312	-0.005	0.093	-0.049	0.454	3.989	2.910	2.925	3.018	2.974	2.959	2.930
-0.112	0.024	0.308	0.005	0.190	-0.015	0.474	3.989	2.900	2.915	2.983	2.988	2.993	2.959
-0.195	0.029	0.249	0.000	0.273	0.039	0.469	3.979	2.886	2.905	2.949	2.979	3.018	2.988
-0.234	0.024	0.195	-0.020	0.239	0.073	0.469	4.004	2.900	2.896	2.920	2.959	2.988	2.993
-0.127	0.000	0.151	-0.020	0.161	0.132	0.469	3.999	2.949	2.905	2.905	2.944	2.954	2.998
-0.020	-0.015	0.068	0.010	0.039	0.166	0.469	3.984	2.993	2.925	2.881	2.939	2.920	2.983
0.117	-0.020	0.020	0.024	-0.054	0.190	0.459	3.970	3.018	2.949	2.891	2.925	2.896	2.964
0.225	-0.059	-0.015	0.015	-0.059	0.195	0.459	3.975	3.027	2.959	2.900	2.920	2.900	2.949
0.244	-0.083	-0.054	0.005	-0.068	0.137	0.459	3.999	3.013	2.969	2.905	2.915	2.896	2.915
0.249	-0.068	-0.073	0.000	-0.103	0.015	0.464	3.984	2.998	2.979	2.920	2.920	2.891	2.876
0.181	-0.049	-0.063	0.010	-0.088	-0.117	0.459	3.994	2.959	2.974	2.939	2.930	2.896	2.847
0.078	-0.029	-0.024	0.005	-0.103	-0.171	0.464	3.989	2.920	2.959	2.954	2.939	2.900	2.847
-0.024	-0.015	0.010	0.010	-0.098	-0.244	0.459	3.979	2.891	2.944	2.959	2.954	2.915	2.847
-0.112	0.015	0.024	0.015	-0.078	-0.293	0.454	4.004	2.876	2.935	2.959	2.959	2.930	2.852
-0.156	0.039	0.000	0.005	-0.117	-0.244	0.454	3.979	2.876	2.920	2.939	2.954	2.925	2.891
-0.195	0.039	0.010	0.005	-0.142	-0.181	0.459	4.004	2.881	2.910	2.935	2.954	2.925	2.920
-0.176	0.044	-0.010	-0.010	-0.200	-0.103	0.464	3.994	2.910	2.905	2.915	2.944	2.915	2.939
-0.107	0.029	-0.063	-0.010	-0.200	0.020	0.459	3.979	2.939	2.910	2.905	2.935	2.930	2.969
