0.005	0.010	-0.005	0.005	-0.020	-0.005	0.039	2.695	4.629	3.179	2.900	2.539	2.646	2.505
0.005	0.005	0.005	0.000	-0.020	0.010	0.039	2.710	4.028	3.433	3.047	2.681	2.651	2.549
-0.020	0.015	0.020	0.005	-0.024	0.005	0.044	2.686	3.579	3.491	3.169	2.812	2.690	2.583
-0.010	0.024	0.005	0.000	-0.020	0.010	0.039	2.695	3.267	3.437	3.247	2.935	2.754	2.632
0.000	0.015	0.005	0.000	0.000	0.015	0.039	2.710	3.047	3.340	3.276	3.032	2.832	2.686
0.024	0.005	0.000	0.005	0.020	0.005	0.044	2.695	2.891	3.223	3.267	3.105	2.910	2.744
0.015	0.010	-0.005	0.000	0.015	0.015	0.039	2.671	2.773	3.101	3.223	3.140	2.969	2.808
0.020	0.000	0.005	0.000	0.000	0.000	0.039	2.681	2.690	2.993	3.164	3.159	3.018	2.856
0.020	0.000	0.005	0.005	0.015	-0.020	0.039	2.686	2.637	2.900	3.096	3.145	3.057	2.910
0.015	0.000	0.005	0.000	0.049	-0.005	0.039	2.686	2.607	2.822	3.022	3.120	3.086	2.959
0.000	-0.005	0.010	0.000	0.059	0.000	0.039	2.651	2.578	2.759	2.949	3.081	3.086	2.998
0.005	-0.010	0.010	0.000	0.029	0.000	0.039	2.651	2.568	2.705	2.886	3.032	3.062	3.018
0.005	-0.005	0.020	0.000	0.024	-0.010	0.039	2.661	2.559	2.671	2.827	2.983	3.042	3.022
-0.005	-0.005	0.015	0.005	0.010	-0.010	0.039	2.637	2.549	2.642	2.773	2.930	3.003	3.013
0.000	-0.005	0.015	0.000	-0.005	-0.005	0.039	2.651	2.568	2.622	2.734	2.881	2.969	3.003
-0.005	0.000	0.015	0.000	0.029	0.015	0.044	2.671	2.563	2.612	2.700	2.837	2.944	2.993
-0.005	0.000	0.024	0.000	0.020	0.015	0.039	2.637	2.559	2.598	2.671	2.798	2.900	2.969
0.000	0.005	0.005	0.000	-0.005	0.015	0.039	2.686	2.559	2.593	2.646	2.759	2.852	2.939
-0.005	0.010	0.005	0.000	-0.044	0.005	0.039	2.725	2.568	2.588	2.632	2.729	2.808	2.900
0.000	0.015	-0.020	0.000	-0.078	0.005	0.039	2.676	2.559	2.583	2.612	2.700	2.769	2.861
-0.015	0.010	-0.020	0.000	-0.059	0.000	0.039	2.622	2.539	2.573	2.598	2.676	2.749	2.832
-0.005	0.015	-0.005	0.005	-0.054	0.000	0.039	2.651	2.549	2.568	2.593	2.661	2.725	2.803
0.000	0.005	-0.010	0.000	-0.039	-0.005	0.044	2.715	2.539	2.563	2.583	2.646	2.710	2.778
-0.005	0.010	-0.015	0.000	-0.005	0.005	0.039	2.744	2.539	2.559	2.573	2.632	2.690	2.759
0.000	0.000	-0.015	0.005	0.015	-0.010	0.039	2.734	2.529	2.549	2.568	2.617	2.676	2.734
0.000	0.000	-0.010	0.000	0.039	-0.010	0.039	2.632	2.510	2.539	2.563	2.607	2.661	2.715
0.000	-0.010	0.000	0.005	0.098	0.000	0.044	2.695	2.505	2.534	2.559	2.603	2.661	2.705
0.000	0.000	0.000	0.000	0.122	0.005	0.044	2.705	2.500	2.524	2.549	2.593	2.642	2.690
-0.005	0.005	0.015	0.005	0.034	0.000	0.039	2.671	2.485	2.520	2.539	2.583	2.603	2.661
0.000	0.015	0.005	0.005	0.005	-0.024	0.039	2.666	2.476	2.510	2.534	2.568	2.583	2.637
0.010	0.010	0.010	0.005	-0.024	0.000	0.039	2.681	2.471	2.500	2.524	2.563	2.568	2.622
0.010	-0.005	0.015	0.000	-0.024	0.005	0.039	2.666	2.461	2.490	2.515	2.554	2.568	2.607
0.029	0.010	0.024	0.000	0.000	0.010	0.044	2.700	2.456	2.485	2.505	2.549	2.563	2.598
0.034	0.000	0.000	0.005	-0.010	0.010	0.039	2.676	2.446	2.471	2.495	2.534	2.554	2.588
0.020	0.005	-0.005	0.005	-0.029	0.005	0.039	2.690	2.432	2.466	2.480	2.524	2.539	2.568
0.005	0.010	-0.005	0.005	-0.044	-0.005	0.039	2.690	2.422	2.456	2.476	2.515	2.529	2.559
0.005	0.010	-0.005	0.000	-0.020	-0.005	0.039	2.686	2.417	2.446	2.466	2.510	2.529	2.549
-0.005	0.005	0.000	0.005	0.005	-0.005	0.039	2.676	2.402	2.437	2.461	2.500	2.524	2.544
-0.020	-0.015	0.000	0.000	0.005	0.000	0.039	2.700	2.393	2.417	2.446	2.490	2.515	2.539
-0.024	-0.015	0.005	0.000	0.020	0.005	0.039	2.676	2.388	2.412	2.437	2.480	2.510	2.529
-0.024	-0.005	0.000	0.000	0.020	0.000	0.044	2.661	2.383	2.407	2.432	2.476	2.495	2.524
-0.020	0.000	-0.005	0.000	-0.005	0.005	0.039	2.695	2.378	2.402	2.422	2.461	2.480	2.510
-0.010	-0.005	-0.005	0.000	-0.010	-0.005	0.039	2.681	2.373	2.393	2.412	2.456	2.471	2.495
-0.005	-0.010	0.005	0.000	0.010	-0.010	0.039	2.671	2.368	2.388	2.407	2.446	2.471	2.490
0.010	-0.010	0.000	0.005	0.010	-0.010	0.039	2.681	2.358	2.378	2.397	2.441	2.461	2.480
0.000	-0.020	0.000	0.000	0.015	0.005	0.039	2.705	2.349	2.373	2.388	2.432	2.451	2.480
0.005	-0.010	0.005	0.005	0.029	-0.020	0.039	2.671	2.349	2.368	2.383	2.422	2.446	2.461
0.010	0.010	0.020	-0.005	0.005	0.015	0.044	2.676	2.344	2.363	2.383	2.412	2.427	2.461
0.015	0.005	0.000	0.000	-0.029	0.015	0.039	2.681	2.334	2.358	2.368	2.407	2.412	2.451
0.015	0.000	-0.005	-0.005	-0.049	0.005	0.039	2.686	2.324	2.349	2.363	2.397	2.402	2.432
0.010	0.005	0.000	0.000	-0.063	0.015	0.039	2.656	2.319	2.344	2.358	2.393	2.397	2.427
0.015	0.005	-0.015	0.000	-0.049	0.010	0.039	2.651	2.305	2.334	2.349	2.388	2.397	2.417
0.015	0.015	-0.015	0.000	-0.029	0.010	0.039	2.656	2.295	2.324	2.344	2.378	2.393	2.407
0.000	0.000	-0.020	0.000	-0.049	0.000	0.039	2.646	2.285	2.310	2.334	2.373	2.383	2.397
-0.005	0.015	-0.015	0.000	-0.015	-0.005	0.039	2.656	2.280	2.305	2.324	2.363	2.383	2.393
-0.005	0.000	-0.010	0.000	0.039	-0.005	0.039	2.681	2.280	2.295	2.319	2.358	2.393	2.397
-0.010	0.005	-0.010	0.005	0.083	-0.005	0.039	2.627	2.266	2.290	2.310	2.354	2.393	2.397
0.005	0.005	0.000	0.005	0.093	-0.020	0.039	2.681	2.266	2.285	2.305	2.344	2.383	2.388
0.000	0.005	-0.005	0.005	0.063	0.015	0.039	2.744	2.271	2.280	2.300	2.339	2.363	2.388
-0.005	-0.005	-0.010	0.005	0.029	0.010	0.039	2.671	2.266	2.275	2.290	2.329	2.339	2.373
0.005	-0.010	0.005	0.005	-0.015	0.015	0.039	2.612	2.251	2.271	2.285	2.319	2.324	2.358
0.000	-0.005	0.000	0.005	-0.010	0.010	0.039	2.803	2.261	2.266	2.280	2.314	2.324	2.349
-0.005	-0.005	0.005	0.000	-0.005	0.000	0.039	2.720	2.246	2.261	2.275	2.310	2.319	2.339
-0.005	-0.005	0.015	0.000	0.000	-0.005	0.039	2.734	2.246	2.261	2.275	2.305	2.314	2.329
0.005	-0.005	0.024	0.005	0.020	-0.010	0.039	2.744	2.246	2.256	2.271	2.300	2.314	2.324
-0.005	-0.005	0.024	0.005	0.029	-0.029	0.044	2.744	2.241	2.251	2.266	2.295	2.310	2.314
0.000	-0.005	0.015	0.000	0.044	0.000	0.039	2.710	2.236	2.246	2.256	2.290	2.310	2.319
-0.005	0.005	0.015	0.000	0.024	-0.020	0.039	2.700	2.227	2.246	2.256	2.285	2.295	2.310
-0.010	0.010	0.010	0.005	0.015	0.010	0.039	2.690	2.222	2.241	2.246	2.280	2.290	2.310
0.015	0.010	0.000	0.005	0.010	0.024	0.044	2.681	2.222	2.241	2.241	2.275	2.285	2.305
0.020	0.000	-0.015	0.005	0.005	0.015	0.039	2.676	2.212	2.227	2.236	2.266	2.275	2.300
0.010	0.010	0.000	0.000	-0.010	0.005	0.039	2.666	2.207	2.227	2.236	2.266	2.266	2.285
0.000	0.010	0.000	0.005	-0.034	0.020	0.044	2.710	2.197	2.217	2.227	2.261	2.261	2.280
0.005	0.000	0.000	0.000	-0.029	0.010	0.044	2.676	2.187	2.207	2.222	2.256	2.256	2.271
-0.005	-0.005	-0.010	-0.005	-0.034	-0.010	0.039	2.700	2.187	2.197	2.217	2.246	2.251	2.261
-0.005	-0.005	0.010	-0.005	-0.034	-0.005	0.044	2.695	2.187	2.197	2.212	2.246	2.246	2.256
0.005	0.005	0.015	0.000	-0.039	-0.005	0.039	2.671	2.178	2.192	2.212	2.241	2.246	2.256
0.020	-0.005	0.024	0.000	-0.049	-0.005	0.039	2.671	2.173	2.187	2.202	2.236	2.236	2.251
0.020	-0.010	0.024	0.000	-0.049	-0.005	0.044	2.700	2.173	2.183	2.197	2.231	2.236	2.246
0.015	-0.005	0.005	0.000	-0.049	0.005	0.044	2.666	2.163	2.178	2.187	2.222	2.231	2.241
0.000	0.010	0.005	0.000	-0.049	-0.005	0.044	2.676	2.158	2.173	2.183	2.217	2.222	2.236
-0.010	0.005	-0.005	0.000	-0.029	0.005	0.039	2.695	2.148	2.168	2.178	2.212	2.227	2.236
-0.020	-0.005	-0.015	0.000	0.000	0.005	0.039	2.671	2.144	2.158	2.168	2.202	2.227	2.236
-0.024	-0.005	-0.005	0.000	0.000	0.010	0.044	2.686	2.144	2.153	2.168	2.197	2.217	2.231
-0.029	0.010	-0.024	0.000	0.024	0.015	0.044	2.705	2.144	2.153	2.158	2.192	2.217	2.227
-0.015	0.015	-0.024	0.000	0.068	0.015	0.044	2.695	2.144	2.153	2.158	2.187	2.222	2.227
-0.015	0.015	-0.015	0.005	0.098	0.010	0.039	2.666	2.139	2.153	2.158	2.187	2.217	2.227
-0.005	0.010	-0.005	0.000	0.107	-0.010	0.039	2.676	2.139	2.148	2.158	2.183	2.207	2.217
-0.005	0.010	0.000	0.000	0.122	0.000	0.039	2.681	2.144	2.148	2.153	2.183	2.207	2.212
0.015	0.010	-0.010	0.000	0.068	-0.024	0.044	2.671	2.139	2.148	2.148	2.178	2.183	2.197
0.010	0.015	-0.005	0.000	0.005	-0.044	0.044	2.651	2.129	2.139	2.148	2.173	2.158	2.183
0.010	-0.005	0.000	0.005	-0.015	-0.029	0.039	2.646	2.119	2.134	2.144	2.173	2.158	2.178
0.005	-0.010	0.000	0.005	-0.005	0.000	0.044	2.661	2.104	2.124	2.139	2.168	2.163	2.183
0.000	-0.005	0.010	0.005	-0.020	0.005	0.039	2.637	2.104	2.119	2.139	2.163	2.158	2.178
0.005	-0.010	0.015	0.000	-0.029	-0.010	0.044	2.725	2.109	2.109	2.129	2.158	2.153	2.168
0.010	-0.010	0.005	0.005	-0.029	0.000	0.044	2.686	2.104	2.114	2.124	2.153	2.153	2.163
0.010	-0.005	0.010	0.000	-0.029	0.005	0.039	2.656	2.100	2.109	2.119	2.148	2.153	2.163
0.010	0.005	0.010	0.000	-0.029	0.015	0.044	2.661	2.095	2.109	2.114	2.144	2.148	2.158
0.010	-0.005	0.005	0.005	-0.015	-0.020	0.044	2.739	2.100	2.104	2.114	2.144	2.148	2.148
-0.005	0.005	0.015	0.000	-0.020	0.024	0.044	2.681	2.095	2.104	2.109	2.139	2.144	2.158
0.000	0.010	0.005	0.000	-0.024	0.024	0.044	2.651	2.080	2.100	2.104	2.134	2.139	2.148
0.000	0.010	-0.005	0.005	-0.039	0.015	0.044	2.764	2.095	2.095	2.104	2.129	2.129	2.139
-0.015	0.010	-0.005	0.000	-0.039	-0.005	0.044	2.622	2.080	2.095	2.095	2.124	2.129	2.134
-0.015	0.020	-0.005	0.000	-0.044	0.000	0.044	2.734	2.085	2.090	2.095	2.124	2.124	2.134
-0.005	0.005	-0.010	0.000	-0.005	0.005	0.039	2.749	2.095	2.090	2.095	2.119	2.134	2.139
0.024	0.010	-0.005	-0.005	0.029	0.000	0.039	2.749	2.100	2.090	2.095	2.119	2.139	2.134
0.015	0.000	0.000	0.000	0.020	0.005	0.044	2.715	2.090	2.090	2.095	2.119	2.129	2.134
0.020	-0.005	-0.005	0.005	0.020	0.015	0.039	2.700	2.090	2.085	2.090	2.119	2.124	2.134
0.005	0.000	0.000	0.000	0.015	0.000	0.039	2.676	2.075	2.085	2.090	2.114	2.119	2.124
0.010	-0.005	-0.005	0.000	0.015	0.005	0.044	2.676	2.065	2.075	2.085	2.109	2.114	2.124
0.005	-0.005	0.000	0.000	0.015	-0.005	0.039	2.661	2.061	2.075	2.080	2.109	2.109	2.114
0.010	-0.010	0.000	0.005	0.039	-0.005	0.044	2.666	2.061	2.070	2.080	2.109	2.114	2.119
0.000	-0.010	0.005	0.010	0.029	0.000	0.039	2.705	2.056	2.065	2.075	2.104	2.109	2.114
0.005	0.000	-0.005	0.015	-0.005	0.005	0.039	2.671	2.056	2.065	2.070	2.100	2.095	2.109
0.000	0.010	0.015	0.015	-0.024	-0.005	0.039	2.705	2.051	2.061	2.070	2.095	2.090	2.104
-0.005	0.000	-0.005	0.005	-0.015	0.010	0.044	2.686	2.041	2.056	2.061	2.090	2.090	2.104
0.000	0.000	0.000	0.000	-0.020	-0.005	0.039	2.676	2.046	2.051	2.061	2.085	2.085	2.090
-0.010	0.005	-0.010	-0.005	-0.034	0.010	0.039	2.676	2.041	2.046	2.051	2.080	2.080	2.095
-0.015	0.010	-0.010	-0.010	-0.020	0.015	0.039	2.705	2.036	2.046	2.051	2.075	2.080	2.095
-0.020	0.010	-0.015	-0.010	-0.020	0.010	0.044	2.681	2.036	2.041	2.051	2.075	2.080	2.090
-0.024	0.010	-0.010	-0.010	-0.034	0.010	0.039	2.700	2.036	2.041	2.046	2.070	2.070	2.085
-0.015	0.005	-0.015	-0.005	-0.020	-0.010	0.044	2.705	2.041	2.036	2.041	2.070	2.075	2.075
-0.005	-0.010	-0.005	0.000	0.015	0.000	0.044	2.671	2.036	2.031	2.041	2.070	2.080	2.080
-0.005	0.000	-0.005	0.005	0.015	0.000	0.039	2.676	2.031	2.036	2.041	2.070	2.080	2.080
0.000	0.000	0.000	0.010	0.015	0.000	0.039	2.700	2.036	2.036	2.041	2.070	2.070	2.075
0.010	-0.005	0.005	0.010	0.039	0.005	0.039	2.700	2.036	2.036	2.041	2.065	2.080	2.075
0.020	-0.015	0.000	0.010	0.029	0.005	0.044	2.676	2.026	2.031	2.036	2.061	2.065	2.075
0.005	-0.005	0.000	0.005	0.000	0.000	0.039	2.671	2.021	2.031	2.036	2.061	2.056	2.065
0.005	0.000	0.000	0.005	0.029	-0.010	0.039	2.671	2.021	2.026	2.031	2.056	2.065	2.065
0.015	-0.005	0.010	0.005	0.049	-0.005	0.039	2.681	2.021	2.026	2.031	2.056	2.065	2.065
0.005	0.005	-0.005	0.005	0.049	-0.005	0.039	2.642	2.012	2.021	2.026	2.051	2.061	2.065
0.010	0.005	-0.005	0.005	0.068	0.000	0.044	2.646	2.012	2.021	2.021	2.046	2.061	2.065
0.005	0.010	0.000	0.000	0.044	0.010	0.039	2.671	2.012	2.017	2.021	2.046	2.046	2.061
0.005	0.010	-0.005	0.005	0.015	0.010	0.039	2.642	1.997	2.012	2.017	2.041	2.041	2.056
0.005	0.010	-0.020	0.000	-0.015	0.000	0.044	2.739	1.997	2.007	2.012	2.036	2.026	2.046
0.005	0.005	-0.005	0.005	-0.024	0.000	0.039	2.690	2.002	2.007	2.017	2.036	2.026	2.041
-0.005	0.005	0.000	0.000	-0.044	-0.010	0.039	2.715	2.002	2.007	2.012	2.031	2.021	2.031
0.000	0.015	-0.005	0.005	-0.029	-0.015	0.039	2.656	1.997	2.002	2.007	2.031	2.031	2.026
0.010	0.015	-0.005	0.005	0.005	-0.005	0.044	2.690	2.012	2.007	2.007	2.031	2.036	2.036
0.005	0.024	-0.005	0.005	-0.010	0.010	0.039	2.690	2.007	2.012	2.012	2.031	2.031	2.036
-0.005	0.005	0.000	0.000	0.034	0.015	0.039	2.622	1.997	2.002	2.007	2.031	2.046	2.041
0.005	0.005	-0.005	0.005	0.015	0.005	0.039	2.642	2.017	2.002	2.002	2.026	2.031	2.036
0.000	0.010	0.015	0.005	-0.020	0.000	0.039	2.715	2.007	2.002	2.007	2.026	2.021	2.026
0.005	-0.010	0.005	0.000	-0.029	-0.005	0.044	2.715	2.007	1.997	2.002	2.021	2.017	2.021
0.005	-0.010	0.000	0.000	-0.039	0.005	0.044	2.725	2.007	2.002	1.997	2.021	2.017	2.026
0.005	-0.010	-0.005	0.005	-0.049	-0.015	0.039	2.637	1.997	1.997	1.997	2.021	2.012	2.012
0.015	-0.015	0.005	0.000	-0.068	0.010	0.044	2.627	1.997	1.997	1.997	2.017	2.007	2.021
0.005	-0.005	0.020	0.000	-0.073	0.010	0.039	2.695	1.992	1.997	2.002	2.017	2.007	2.017
0.010	0.000	0.020	0.000	-0.063	0.005	0.039	2.671	1.987	1.992	1.997	2.017	2.012	2.017
0.005	-0.005	0.015	0.005	-0.044	0.020	0.039	2.681	1.982	1.992	1.997	2.017	2.017	2.017
0.000	0.000	0.005	0.005	-0.015	0.005	0.039	2.676	1.978	1.982	1.992	2.017	2.026	2.017
0.005	0.010	0.000	0.005	0.073	-0.015	0.044	2.676	1.978	1.987	1.987	2.017	2.046	2.026
0.000	0.020	-0.005	0.005	0.132	0.010	0.039	2.710	1.982	1.987	1.987	2.017	2.051	2.036
-0.005	0.020	0.005	0.005	0.127	0.005	0.044	2.671	1.978	1.987	1.987	2.012	2.036	2.031
-0.010	0.020	0.000	0.005	0.059	0.000	0.039	2.690	1.978	1.982	1.987	2.007	2.012	2.026
-0.005	0.015	-0.005	0.005	0.049	-0.015	0.039	2.695	1.978	1.982	1.982	2.007	2.007	2.017
-0.005	0.005	-0.005	0.005	0.034	-0.024	0.044	2.671	1.978	1.978	1.982	2.002	2.002	2.012
-0.005	0.000	-0.005	0.005	0.029	0.010	0.044	2.676	1.973	1.973	1.978	2.002	1.997	2.017
0.010	-0.005	0.000	0.005	-0.005	0.010	0.039	2.690	1.978	1.973	1.978	2.002	1.987	2.002
0.005	-0.020	-0.005	0.005	-0.054	0.010	0.044	2.661	1.973	1.968	1.973	1.997	1.978	1.992
0.010	-0.010	0.010	0.005	-0.054	0.010	0.039	2.700	1.973	1.973	1.973	1.997	1.978	1.992
0.005	-0.005	0.010	0.000	-0.039	0.000	0.039	2.710	1.968	1.973	1.978	1.992	1.987	1.987
0.005	-0.005	0.020	0.005	-0.015	0.000	0.039	2.671	1.968	1.973	1.973	1.997	1.992	1.987
0.015	0.000	0.015	0.000	0.000	0.000	0.044	2.700	1.968	1.973	1.973	1.992	1.997	1.992
0.000	-0.005	0.010	0.000	-0.005	-0.015	0.039	2.676	1.958	1.963	1.968	1.992	1.987	1.987
0.005	0.005	0.010	0.000	-0.020	-0.010	0.044	2.710	1.968	1.968	1.968	1.992	1.987	1.982
0.005	0.000	0.020	0.005	-0.010	0.005	0.039	2.681	1.963	1.963	1.968	1.987	1.992	1.992
-0.005	0.010	0.010	0.000	0.000	-0.005	0.039	2.686	1.958	1.963	1.963	1.987	1.992	1.987
-0.010	0.015	0.010	-0.005	0.039	0.000	0.039	2.686	1.958	1.963	1.963	1.987	1.997	1.997
-0.005	0.010	0.010	0.005	0.054	0.000	0.039	2.695	1.958	1.958	1.968	1.987	1.997	1.997
-0.005	0.010	0.005	0.000	0.044	0.010	0.039	2.656	1.958	1.958	1.958	1.987	1.992	1.997
-0.010	0.015	0.005	0.005	0.024	0.010	0.039	2.793	1.973	1.958	1.963	1.987	1.982	1.992
-0.005	0.005	-0.005	0.005	-0.010	-0.005	0.039	2.671	1.963	1.963	1.958	1.978	1.968	1.982
-0.005	-0.010	0.000	0.000	-0.020	0.005	0.044	2.656	1.958	1.958	1.958	1.982	1.968	1.978
-0.005	0.000	0.000	0.000	-0.020	0.005	0.039	2.651	1.948	1.958	1.958	1.978	1.973	1.978
0.005	0.000	0.005	0.000	-0.020	0.000	0.039	2.686	1.948	1.958	1.958	1.978	1.973	1.973
0.005	-0.005	0.010	0.000	-0.010	0.010	0.039	2.739	1.958	1.953	1.958	1.978	1.973	1.978
0.000	-0.010	0.024	0.005	-0.015	0.020	0.044	2.651	1.948	1.948	1.958	1.978	1.973	1.978
0.000	-0.005	-0.005	0.000	-0.015	0.010	0.039	2.744	1.953	1.948	1.948	1.973	1.968	1.973
0.010	-0.005	0.000	0.000	-0.024	-0.005	0.039	2.656	1.948	1.948	1.948	1.973	1.968	1.968
0.010	0.000	-0.005	0.000	-0.039	-0.015	0.039	2.646	1.943	1.948	1.948	1.968	1.958	1.968
0.010	-0.005	-0.005	0.000	-0.059	0.005	0.039	2.646	1.943	1.943	1.948	1.968	1.958	1.968
0.005	-0.005	-0.024	0.000	-0.029	-0.034	0.044	2.744	1.943	1.943	1.938	1.963	1.963	1.953
0.000	0.015	-0.029	-0.005	0.005	-0.015	0.039	2.725	1.948	1.948	1.938	1.963	1.973	1.963
0.000	0.015	-0.024	0.000	0.034	-0.005	0.039	2.744	1.953	1.948	1.943	1.968	1.978	1.968
-0.005	0.020	-0.010	0.005	0.034	-0.005	0.039	2.754	1.958	1.958	1.948	1.968	1.973	1.968
-0.005	0.015	0.000	0.000	0.063	0.024	0.039	2.661	1.948	1.948	1.953	1.968	1.982	1.987
0.000	0.020	-0.005	0.005	0.063	0.034	0.039	2.710	1.953	1.953	1.953	1.968	1.978	1.982
0.000	0.010	-0.020	0.005	0.078	0.034	0.039	2.676	1.948	1.948	1.948	1.968	1.978	1.982
0.000	0.005	0.000	0.000	0.024	0.015	0.039	2.700	1.948	1.948	1.953	1.968	1.958	1.968
0.000	-0.005	-0.005	-0.005	-0.039	0.015	0.039	2.671	1.943	1.938	1.948	1.968	1.943	1.958
0.005	-0.005	0.005	0.005	-0.049	0.000	0.039	2.681	1.943	1.943	1.948	1.968	1.948	1.948
0.000	-0.005	-0.010	0.000	-0.034	0.005	0.039	2.676	1.938	1.938	1.943	1.963	1.953	1.953
0.005	-0.010	0.000	0.005	-0.010	0.000	0.039	2.671	1.934	1.938	1.943	1.963	1.963	1.953
0.000	0.000	0.024	0.000	0.000	0.000	0.039	2.700	1.934	1.938	1.948	1.963	1.963	1.958
0.015	-0.010	0.034	0.000	-0.005	-0.010	0.044	2.671	1.934	1.934	1.948	1.963	1.958	1.958
0.005	0.000	0.024	0.000	-0.015	-0.029	0.039	2.700	1.934	1.938	1.938	1.963	1.953	1.948
-0.005	-0.005	0.015	0.000	-0.005	0.000	0.039	2.681	1.929	1.934	1.938	1.958	1.958	1.963
-0.005	0.000	0.020	0.000	-0.005	0.000	0.039	2.700	1.934	1.929	1.934	1.958	1.958	1.958
0.000	0.005	0.000	0.000	-0.015	0.000	0.039	2.690	1.934	1.929	1.929	1.953	1.953	1.958
0.000	0.000	0.000	-0.005	-0.020	0.005	0.039	2.710	1.938	1.929	1.929	1.953	1.948	1.953
0.000	0.005	0.005	0.005	-0.024	0.005	0.039	2.690	1.938	1.934	1.929	1.953	1.948	1.953
0.000	0.010	0.010	0.000	-0.024	0.000	0.044	2.695	1.934	1.929	1.929	1.953	1.948	1.953
-0.010	-0.010	-0.015	0.000	-0.034	-0.010	0.039	2.676	1.929	1.924	1.924	1.948	1.943	1.943
0.000	0.000	-0.010	0.000	0.020	0.010	0.039	2.671	1.934	1.929	1.924	1.948	1.963	1.958
-0.005	0.015	0.005	0.000	0.093	0.015	0.039	2.700	1.934	1.934	1.934	1.953	1.978	1.963
-0.005	0.010	0.005	0.000	0.083	0.005	0.039	2.666	1.929	1.929	1.934	1.948	1.963	1.963
0.005	0.005	0.000	0.000	0.034	0.005	0.044	2.695	1.934	1.929	1.929	1.948	1.943	1.958
0.005	-0.005	-0.005	0.000	0.034	0.000	0.039	2.676	1.934	1.929	1.924	1.943	1.943	1.953
-0.005	-0.010	0.005	0.000	0.024	-0.005	0.044	2.690	1.929	1.924	1.929	1.948	1.943	1.948
0.000	-0.005	0.005	0.005	0.044	-0.010	0.039	2.656	1.924	1.929	1.929	1.948	1.943	1.943
0.005	-0.010	-0.005	0.000	0.015	-0.010	0.044	2.646	1.919	1.924	1.924	1.943	1.934	1.943
0.010	0.000	0.005	0.000	-0.010	0.005	0.039	2.666	1.924	1.924	1.924	1.943	1.929	1.938
0.010	-0.005	0.010	0.000	-0.015	0.005	0.044	2.642	1.919	1.919	1.924	1.943	1.934	1.938
0.010	0.000	0.010	0.000	-0.024	0.000	0.039	2.739	1.914	1.919	1.919	1.943	1.929	1.934
0.015	0.010	0.005	-0.005	-0.024	0.000	0.039	2.690	1.919	1.924	1.919	1.938	1.929	1.934
0.005	0.005	0.010	0.000	-0.020	-0.005	0.039	2.744	1.924	1.919	1.919	1.943	1.934	1.934
0.010	0.010	0.005	-0.005	-0.010	0.005	0.039	2.666	1.924	1.924	1.919	1.938	1.934	1.934
0.005	0.015	-0.005	0.000	-0.010	-0.005	0.044	2.661	1.934	1.924	1.919	1.938	1.938	1.934
0.000	0.005	0.005	0.005	0.005	-0.010	0.044	2.671	1.924	1.924	1.924	1.943	1.943	1.938
0.000	-0.005	-0.005	0.005	-0.010	0.010	0.039	2.744	1.929	1.919	1.919	1.938	1.934	1.938
-0.010	-0.005	0.000	0.005	-0.029	0.005	0.039	2.686	1.924	1.919	1.919	1.938	1.929	1.934
0.000	-0.005	0.000	0.005	-0.024	0.010	0.044	2.729	1.929	1.919	1.919	1.938	1.934	1.938
0.010	0.005	-0.005	0.010	-0.024	0.005	0.039	2.715	1.934	1.929	1.919	1.938	1.934	1.934
-0.005	-0.010	-0.005	0.005	-0.020	-0.005	0.044	2.651	1.929	1.924	1.919	1.938	1.934	1.929
-0.010	-0.010	-0.005	0.015	-0.010	-0.010	0.039	2.646	1.914	1.919	1.924	1.938	1.938	1.929
0.000	0.000	0.000	0.005	0.000	-0.005	0.039	2.627	1.919	1.924	1.924	1.938	1.938	1.934
0.000	-0.005	0.005	0.000	0.024	-0.005	0.044	2.676	1.914	1.919	1.919	1.938	1.943	1.938
-0.005	-0.010	0.005	0.000	0.039	-0.005	0.039	2.676	1.909	1.914	1.919	1.938	1.948	1.943
0.000	-0.005	0.010	-0.005	0.073	-0.015	0.044	2.681	1.914	1.914	1.919	1.938	1.948	1.938
0.000	-0.005	0.010	-0.005	0.063	0.005	0.039	2.666	1.909	1.914	1.919	1.934	1.943	1.948
0.005	0.005	0.015	0.000	0.024	0.010	0.039	2.695	1.914	1.919	1.914	1.934	1.929	1.943
0.000	0.015	0.005	-0.005	0.000	0.015	0.039	2.710	1.919	1.919	1.914	1.934	1.924	1.938
-0.005	0.020	0.015	-0.005	-0.020	-0.005	0.039	2.676	1.914	1.919	1.919	1.934	1.919	1.929
0.000	0.020	0.015	0.005	-0.029	0.010	0.039	2.695	1.914	1.914	1.914	1.934	1.924	1.929
-0.005	0.015	0.015	0.000	-0.029	0.000	0.039	2.710	1.914	1.914	1.914	1.934	1.919	1.924
0.000	0.010	0.020	0.005	-0.024	0.005	0.039	2.671	1.914	1.914	1.914	1.934	1.924	1.924
0.005	0.015	-0.005	0.010	-0.039	0.005	0.039	2.686	1.919	1.919	1.909	1.934	1.924	1.924
0.005	0.010	0.005	0.005	-0.029	0.005	0.039	2.705	1.914	1.914	1.914	1.934	1.934	1.929
0.015	0.000	0.015	0.010	-0.029	0.005	0.039	2.686	1.914	1.914	1.914	1.934	1.929	1.929
0.010	0.005	0.010	0.005	-0.010	0.000	0.039	2.710	1.914	1.909	1.909	1.934	1.934	1.929
0.005	-0.005	0.010	0.010	0.029	0.010	0.039	2.710	1.919	1.909	1.909	1.934	1.943	1.938
-0.005	-0.005	0.024	0.005	0.049	0.010	0.039	2.681	1.909	1.909	1.914	1.934	1.943	1.938
-0.005	-0.029	0.034	0.005	0.034	0.010	0.039	2.700	1.909	1.904	1.914	1.929	1.938	1.938
-0.015	-0.015	0.049	-0.005	0.015	0.015	0.039	2.695	1.909	1.909	1.914	1.929	1.929	1.934
-0.020	-0.015	0.059	-0.005	-0.020	0.015	0.039	2.715	1.914	1.909	1.909	1.929	1.914	1.924
-0.020	-0.015	0.029	-0.005	-0.020	0.005	0.039	2.671	1.909	1.909	1.904	1.924	1.919	1.924
-0.010	0.000	0.015	-0.010	-0.005	0.015	0.039	2.700	1.909	1.909	1.904	1.924	1.924	1.924
-0.005	0.005	0.024	-0.010	0.039	0.000	0.039	2.690	1.914	1.914	1.909	1.924	1.934	1.919
0.000	0.000	0.020	-0.010	0.000	-0.034	0.039	2.681	1.914	1.909	1.904	1.924	1.914	1.909
0.010	0.005	0.000	-0.005	0.000	-0.020	0.039	2.656	1.914	1.914	1.899	1.929	1.924	1.919
0.010	0.010	-0.029	0.000	0.039	-0.010	0.039	2.661	1.909	1.909	1.895	1.924	1.934	1.924
0.010	0.015	-0.029	0.000	0.059	-0.015	0.039	2.666	1.904	1.909	1.899	1.924	1.934	1.929
0.005	0.015	-0.039	0.010	0.073	0.000	0.044	2.651	1.899	1.909	1.899	1.924	1.934	1.934
0.015	0.005	-0.034	0.005	0.078	0.010	0.039	2.744	1.904	1.904	1.904	1.919	1.929	1.929
0.005	0.010	-0.044	0.005	0.000	0.015	0.039	2.681	1.904	1.909	1.899	1.919	1.904	1.924
0.020	0.024	-0.039	0.005	-0.034	-0.015	0.039	2.720	1.909	1.909	1.899	1.919	1.899	1.909
0.010	0.000	-0.044	0.005	-0.029	0.005	0.039	2.686	1.904	1.899	1.899	1.919	1.904	1.914
0.005	-0.005	-0.044	0.005	-0.020	-0.005	0.039	2.651	1.899	1.899	1.895	1.919	1.909	1.904
0.005	-0.005	-0.039	0.000	-0.020	0.015	0.039	2.676	1.899	1.899	1.899	1.919	1.909	1.914
0.005	-0.015	-0.020	0.010	-0.024	0.000	0.039	2.720	1.904	1.899	1.904	1.919	1.909	1.909
0.005	-0.005	-0.020	0.005	-0.024	-0.015	0.039	2.793	1.914	1.904	1.899	1.919	1.909	1.904
0.005	-0.010	0.000	0.010	-0.024	0.015	0.039	2.617	1.899	1.899	1.904	1.924	1.914	1.914
0.005	-0.005	0.000	0.005	-0.015	0.000	0.044	2.651	1.899	1.899	1.904	1.919	1.914	1.914
0.005	0.005	0.010	0.005	-0.010	0.015	0.044	2.656	1.895	1.904	1.909	1.924	1.919	1.919
0.000	0.005	0.015	-0.005	0.000	0.010	0.039	2.759	1.904	1.899	1.904	1.919	1.919	1.914
-0.005	0.010	0.000	-0.005	-0.005	0.000	0.044	2.612	1.895	1.899	1.899	1.919	1.919	1.914
0.000	0.015	0.005	-0.005	0.000	-0.015	0.039	2.681	1.895	1.899	1.899	1.919	1.919	1.909
-0.015	0.005	0.015	-0.005	-0.034	0.010	0.044	2.676	1.890	1.895	1.899	1.919	1.909	1.914
-0.015	0.005	0.020	0.000	-0.039	0.005	0.044	2.666	1.890	1.895	1.899	1.919	1.909	1.914
-0.005	0.010	0.015	0.000	-0.029	-0.029	0.039	2.671	1.895	1.895	1.899	1.919	1.909	1.899
0.020	0.034	0.005	0.000	-0.034	-0.015	0.039	2.710	1.909	1.904	1.895	1.919	1.909	1.909
0.020	0.029	-0.005	0.005	-0.024	-0.005	0.044	2.710	1.904	1.899	1.895	1.919	1.914	1.914
0.005	0.015	-0.010	0.000	0.000	0.010	0.039	2.681	1.899	1.895	1.895	1.914	1.924	1.919
0.005	0.005	-0.005	0.005	0.005	0.010	0.044	2.690	1.899	1.895	1.895	1.914	1.919	1.919
0.010	0.005	-0.015	0.005	0.000	0.010	0.044	2.666	1.895	1.895	1.895	1.914	1.919	1.919
0.005	-0.005	-0.015	0.000	0.073	0.020	0.039	2.695	1.899	1.890	1.890	1.914	1.934	1.924
-0.005	-0.015	-0.020	0.005	0.088	0.005	0.039	2.676	1.899	1.890	1.890	1.914	1.929	1.924
-0.005	-0.010	-0.015	0.000	0.083	0.015	0.044	2.700	1.899	1.890	1.890	1.909	1.919	1.924
0.010	-0.005	-0.020	0.000	0.059	0.010	0.044	2.690	1.909	1.899	1.890	1.909	1.909	1.914
-0.005	0.000	-0.020	0.005	0.049	0.005	0.044	2.710	1.904	1.899	1.890	1.909	1.909	1.914
0.005	-0.005	-0.020	0.005	0.020	0.010	0.044	2.710	1.904	1.899	1.895	1.909	1.899	1.909
0.000	-0.005	-0.005	0.005	-0.029	0.010	0.039	2.666	1.899	1.899	1.895	1.909	1.890	1.904
0.000	0.000	-0.005	0.005	-0.034	0.005	0.039	2.676	1.895	1.899	1.895	1.909	1.890	1.899
0.005	0.005	-0.005	0.000	-0.024	-0.020	0.044	2.700	1.899	1.899	1.899	1.914	1.899	1.890
0.000	0.000	-0.005	0.005	-0.005	-0.005	0.044	2.695	1.895	1.899	1.899	1.914	1.909	1.899
-0.010	0.010	0.000	0.005	0.000	-0.024	0.039	2.681	1.895	1.899	1.899	1.914	1.909	1.895
-0.005	0.000	0.000	0.005	0.010	0.010	0.039	2.671	1.890	1.895	1.899	1.914	1.914	1.909
-0.005	0.000	0.010	0.000	0.020	0.010	0.044	2.681	1.890	1.895	1.899	1.914	1.914	1.914
0.005	-0.005	0.010	0.000	0.000	0.000	0.039	2.695	1.899	1.890	1.895	1.919	1.909	1.904
0.000	-0.005	0.015	0.000	-0.010	0.010	0.044	2.661	1.895	1.895	1.895	1.914	1.909	1.909
0.000	-0.005	0.010	0.000	-0.010	0.000	0.039	2.661	1.895	1.895	1.895	1.914	1.909	1.904
0.000	-0.015	0.010	0.005	-0.015	0.010	0.044	2.651	1.885	1.890	1.890	1.914	1.904	1.909
0.005	-0.010	-0.005	0.005	-0.015	-0.005	0.039	2.646	1.885	1.890	1.885	1.909	1.909	1.904
0.005	-0.015	-0.015	0.005	-0.010	-0.005	0.044	2.744	1.885	1.885	1.885	1.909	1.904	1.904
0.005	-0.020	-0.020	0.005	-0.005	-0.005	0.044	2.671	1.885	1.880	1.880	1.904	1.904	1.904
0.010	-0.005	-0.015	0.000	-0.005	-0.005	0.039	2.739	1.895	1.890	1.885	1.904	1.904	1.904
-0.005	0.005	0.005	0.005	-0.010	-0.005	0.039	2.656	1.890	1.890	1.890	1.904	1.904	1.904
0.000	0.020	-0.005	0.005	-0.010	0.010	0.044	2.749	1.899	1.895	1.890	1.904	1.904	1.909
0.000	0.015	0.005	0.000	-0.005	-0.005	0.039	2.676	1.895	1.895	1.895	1.909	1.904	1.899
0.005	0.020	0.020	0.005	-0.005	-0.005	0.039	2.729	1.899	1.899	1.899	1.914	1.904	1.899
-0.005	0.020	0.015	0.000	-0.005	-0.010	0.039	2.827	1.914	1.899	1.895	1.914	1.904	1.904
-0.005	0.020	-0.005	0.005	-0.005	-0.005	0.039	2.715	1.909	1.899	1.890	1.909	1.904	1.904
-0.010	0.015	-0.015	0.000	-0.005	-0.005	0.039	2.642	1.895	1.899	1.890	1.909	1.904	1.904
0.000	0.005	-0.010	0.000	-0.005	0.010	0.039	2.651	1.890	1.895	1.890	1.909	1.904	1.909
0.000	0.005	0.005	0.000	0.000	0.015	0.039	2.749	1.885	1.890	1.899	1.914	1.909	1.909
-0.005	0.000	0.015	0.000	-0.005	0.005	0.039	2.622	1.885	1.885	1.895	1.914	1.904	1.904
-0.005	-0.005	0.010	0.000	-0.010	0.010	0.039	2.686	1.890	1.885	1.890	1.909	1.904	1.904
0.005	-0.010	0.010	0.000	-0.010	0.000	0.039	2.676	1.890	1.885	1.885	1.909	1.909	1.904
0.010	-0.010	0.005	0.005	-0.005	0.005	0.039	2.671	1.890	1.885	1.885	1.909	1.909	1.904
0.000	-0.005	0.005	0.005	0.005	-0.005	0.039	2.671	1.890	1.885	1.885	1.909	1.909	1.899
0.005	-0.020	0.010	0.000	0.015	-0.005	0.039	2.676	1.885	1.880	1.885	1.904	1.909	1.904
0.000	-0.020	0.015	0.000	0.005	0.005	0.039	2.695	1.890	1.880	1.885	1.904	1.904	1.909
0.005	-0.010	0.015	0.000	-0.005	0.005	0.039	2.681	1.890	1.885	1.885	1.904	1.899	1.904
0.010	0.000	0.010	0.000	0.000	0.005	0.039	2.700	1.895	1.890	1.885	1.904	1.899	1.904
0.000	0.015	0.020	0.000	0.005	0.005	0.039	2.705	1.895	1.895	1.890	1.904	1.904	1.904
0.005	0.000	0.005	0.000	0.005	0.000	0.039	2.700	1.895	1.890	1.885	1.904	1.899	1.899
0.010	0.005	-0.010	0.005	0.000	-0.010	0.039	2.676	1.895	1.895	1.885	1.904	1.899	1.895
-0.010	0.015	-0.010	0.000	0.005	0.010	0.039	2.705	1.890	1.895	1.885	1.899	1.899	1.899
-0.010	0.005	-0.010	0.000	0.005	0.010	0.039	2.681	1.890	1.890	1.885	1.904	1.899	1.904
-0.010	0.015	-0.010	0.000	0.000	0.000	0.039	2.676	1.890	1.890	1.890	1.904	1.899	1.899
-0.005	0.015	-0.010	0.000	0.005	0.005	0.039	2.705	1.895	1.890	1.890	1.904	1.899	1.899
0.000	0.005	-0.010	0.005	0.010	0.005	0.039	2.676	1.890	1.890	1.890	1.909	1.899	1.899
0.000	0.005	-0.005	0.010	0.010	0.000	0.039	2.671	1.890	1.890	1.890	1.909	1.904	1.899
-0.005	0.005	0.005	0.005	0.010	-0.005	0.039	2.676	1.885	1.890	1.890	1.909	1.904	1.899
0.005	-0.005	0.005	0.010	0.010	0.005	0.039	2.690	1.890	1.885	1.885	1.909	1.904	1.899
0.005	-0.005	0.000	0.005	-0.005	0.010	0.039	2.661	1.890	1.890	1.885	1.904	1.899	1.904
0.005	-0.010	0.024	0.000	-0.005	-0.010	0.039	2.671	1.890	1.885	1.890	1.904	1.899	1.895
0.010	-0.010	0.029	-0.005	0.005	0.005	0.039	2.676	1.885	1.885	1.890	1.904	1.904	1.899
0.010	-0.010	0.024	-0.005	-0.005	-0.010	0.039	2.686	1.885	1.885	1.885	1.904	1.899	1.899
0.000	0.000	0.010	0.000	0.015	0.010	0.044	2.651	1.885	1.890	1.885	1.904	1.904	1.904
0.010	0.000	0.010	0.000	0.015	0.000	0.039	2.651	1.880	1.885	1.885	1.904	1.904	1.895
0.010	-0.005	0.020	-0.005	-0.010	0.000	0.039	2.676	1.880	1.880	1.885	1.904	1.895	1.895
-0.005	0.000	0.000	0.000	-0.029	-0.005	0.039	2.646	1.875	1.880	1.880	1.899	1.890	1.890
-0.005	0.005	-0.010	0.005	0.005	-0.005	0.039	2.661	1.880	1.880	1.875	1.899	1.904	1.895
0.000	0.005	-0.015	0.005	-0.010	0.005	0.044	2.676	1.880	1.880	1.875	1.899	1.899	1.899
-0.005	-0.005	-0.015	0.010	-0.020	-0.005	0.044	2.734	1.885	1.875	1.875	1.899	1.895	1.899
0.000	-0.010	-0.005	0.005	-0.034	0.029	0.039	2.661	1.885	1.880	1.875	1.899	1.890	1.899
-0.005	0.005	-0.005	0.005	-0.010	0.000	0.039	2.651	1.895	1.885	1.880	1.899	1.899	1.895
-0.015	0.005	0.010	0.005	0.039	0.039	0.039	2.671	1.890	1.890	1.890	1.899	1.914	1.909
-0.005	0.005	0.015	0.000	0.039	0.015	0.044	2.642	1.890	1.890	1.885	1.904	1.904	1.899
0.000	0.010	0.010	0.005	0.054	0.020	0.039	2.676	1.890	1.890	1.885	1.904	1.909	1.904
0.000	0.005	0.000	0.005	0.059	0.015	0.044	2.617	1.880	1.885	1.880	1.904	1.909	1.904
-0.005	0.000	0.010	0.005	0.034	-0.005	0.044	2.729	1.885	1.880	1.880	1.899	1.895	1.895
0.010	-0.010	0.024	-0.005	0.005	0.010	0.039	2.642	1.895	1.880	1.885	1.899	1.890	1.899
0.010	-0.005	0.029	-0.010	-0.010	0.000	0.044	2.729	1.890	1.885	1.885	1.899	1.885	1.890
0.000	-0.015	0.024	-0.005	-0.010	0.000	0.044	2.617	1.885	1.880	1.880	1.899	1.890	1.890
0.005	0.000	0.005	-0.010	-0.010	-0.029	0.039	2.700	1.890	1.885	1.880	1.899	1.890	1.880
0.000	-0.005	0.000	-0.005	-0.005	0.000	0.039	2.686	1.885	1.880	1.880	1.899	1.895	1.890
-0.005	0.000	0.005	0.000	0.000	0.010	0.044	2.695	1.885	1.885	1.880	1.899	1.895	1.895
-0.005	0.005	-0.010	0.005	0.000	0.005	0.044	2.676	1.885	1.885	1.875	1.899	1.895	1.890
0.000	0.015	-0.005	0.005	-0.010	0.000	0.039	2.700	1.890	1.890	1.880	1.899	1.895	1.890
0.000	0.010	-0.005	0.000	0.000	0.010	0.039	2.705	1.890	1.885	1.880	1.899	1.895	1.895
0.000	0.015	-0.005	0.005	0.005	0.000	0.039	2.676	1.890	1.885	1.885	1.904	1.899	1.895
-0.005	0.015	-0.005	0.005	-0.015	0.000	0.044	2.700	1.885	1.885	1.885	1.904	1.895	1.895
-0.010	0.015	-0.005	0.010	-0.024	0.015	0.039	2.681	1.885	1.885	1.885	1.899	1.890	1.895
0.005	0.005	0.000	0.005	-0.020	0.000	0.039	2.710	1.890	1.885	1.885	1.904	1.895	1.890
0.000	0.005	0.020	0.005	-0.010	0.000	0.039	2.686	1.885	1.885	1.890	1.904	1.899	1.895
0.010	0.005	0.024	0.005	0.000	-0.005	0.039	2.700	1.890	1.885	1.890	1.904	1.899	1.895
0.000	-0.010	0.015	0.000	0.005	0.010	0.039	2.681	1.885	1.880	1.885	1.904	1.899	1.899
0.000	-0.010	0.010	0.005	0.010	0.005	0.039	2.671	1.885	1.880	1.880	1.904	1.899	1.899
0.000	-0.010	0.020	0.000	0.010	0.005	0.039	2.700	1.885	1.880	1.885	1.904	1.899	1.899
0.005	0.000	0.015	0.000	0.005	0.005	0.044	2.666	1.885	1.885	1.880	1.904	1.895	1.899
0.005	-0.010	0.029	0.005	0.000	-0.005	0.039	2.705	1.890	1.885	1.885	1.899	1.899	1.895
0.005	0.000	0.020	0.000	0.010	-0.005	0.039	2.671	1.885	1.885	1.880	1.899	1.899	1.895
0.005	0.005	0.015	0.000	0.010	-0.005	0.039	2.705	1.885	1.885	1.880	1.899	1.895	1.895
-0.005	0.000	0.020	0.000	0.005	-0.005	0.039	2.676	1.880	1.880	1.885	1.899	1.895	1.895
-0.005	0.000	0.020	-0.005	-0.005	-0.005	0.039	2.676	1.885	1.880	1.880	1.899	1.895	1.890
-0.005	0.015	0.005	0.000	0.005	0.000	0.039	2.676	1.880	1.885	1.880	1.899	1.895	1.895
-0.005	0.010	0.000	0.000	0.005	0.005	0.039	2.690	1.885	1.885	1.880	1.899	1.895	1.899
-0.010	0.010	-0.005	0.000	-0.005	0.000	0.039	2.642	1.880	1.880	1.880	1.895	1.895	1.895
-0.015	0.005	-0.005	0.000	-0.005	-0.010	0.039	2.661	1.880	1.880	1.880	1.899	1.890	1.885
-0.005	0.000	0.000	0.000	-0.005	-0.010	0.039	2.666	1.880	1.880	1.880	1.899	1.895	1.890
0.000	0.005	0.000	0.005	0.005	0.015	0.039	2.646	1.875	1.880	1.875	1.899	1.899	1.899
0.010	-0.005	0.015	0.000	0.010	0.010	0.039	2.749	1.880	1.875	1.880	1.899	1.899	1.899
0.005	-0.010	0.015	0.000	0.010	0.024	0.039	2.695	1.885	1.875	1.880	1.899	1.895	1.899
0.010	-0.010	0.029	0.005	0.005	0.005	0.039	2.715	1.885	1.880	1.885	1.899	1.895	1.890
0.015	-0.015	0.024	-0.005	-0.015	0.000	0.039	2.656	1.885	1.880	1.880	1.895	1.890	1.890
0.010	-0.015	0.020	0.000	-0.005	-0.020	0.039	2.646	1.880	1.875	1.875	1.895	1.890	1.885
0.020	-0.015	0.029	0.005	-0.059	0.005	0.039	2.695	1.880	1.875	1.880	1.895	1.875	1.890
0.015	-0.005	0.029	0.000	-0.073	0.015	0.039	2.715	1.885	1.880	1.880	1.895	1.880	1.885
0.010	0.010	0.044	0.005	0.000	0.015	0.044	2.793	1.895	1.890	1.885	1.899	1.904	1.890
-0.005	0.015	0.029	0.005	0.039	0.015	0.039	2.705	1.890	1.890	1.885	1.899	1.909	1.895
-0.005	0.010	0.015	0.000	0.078	0.010	0.039	2.642	1.890	1.885	1.880	1.899	1.919	1.904
-0.015	0.015	0.005	0.000	0.093	0.000	0.039	2.651	1.880	1.885	1.875	1.899	1.914	1.899
-0.005	0.029	-0.005	0.000	0.020	-0.010	0.039	2.715	1.885	1.890	1.880	1.895	1.885	1.895
0.000	0.010	-0.005	0.000	-0.044	-0.005	0.039	2.632	1.880	1.880	1.875	1.895	1.875	1.885
-0.010	0.010	-0.010	0.000	-0.024	-0.010	0.039	2.710	1.885	1.880	1.880	1.899	1.885	1.885
-0.010	-0.005	-0.015	0.000	0.000	-0.005	0.039	2.666	1.880	1.880	1.875	1.895	1.895	1.895
0.000	0.005	-0.010	0.005	0.010	0.010	0.039	2.690	1.885	1.880	1.875	1.895	1.895	1.895
0.005	0.000	-0.020	0.000	0.010	0.010	0.039	2.681	1.885	1.880	1.875	1.895	1.895	1.890
0.005	-0.010	-0.015	0.005	0.010	-0.005	0.039	2.690	1.885	1.880	1.880	1.895	1.895	1.890
-0.005	0.000	-0.005	0.000	0.010	0.005	0.039	2.700	1.885	1.880	1.880	1.895	1.890	1.895
0.010	0.000	-0.010	0.000	0.000	0.005	0.039	2.676	1.890	1.880	1.880	1.899	1.890	1.890
0.005	-0.005	-0.005	0.000	-0.005	0.010	0.039	2.690	1.885	1.880	1.880	1.899	1.890	1.890
0.010	-0.020	-0.015	0.000	0.000	-0.005	0.039	2.700	1.885	1.880	1.875	1.895	1.890	1.885
0.000	-0.015	-0.010	0.000	-0.005	0.005	0.039	2.705	1.885	1.880	1.875	1.895	1.890	1.885
-0.005	-0.005	-0.024	0.005	0.005	-0.005	0.044	2.676	1.875	1.880	1.875	1.895	1.895	1.890
0.000	-0.015	-0.010	0.000	0.015	-0.005	0.044	2.695	1.880	1.875	1.880	1.895	1.895	1.890
-0.005	-0.015	-0.029	0.005	0.000	-0.024	0.044	2.690	1.880	1.875	1.870	1.890	1.890	1.880
0.010	0.005	-0.034	-0.005	-0.005	0.000	0.044	2.671	1.885	1.880	1.875	1.890	1.885	1.890
0.000	0.010	-0.015	-0.005	0.000	0.000	0.039	2.705	1.885	1.885	1.880	1.895	1.890	1.890
0.005	0.010	-0.024	0.000	0.005	-0.005	0.039	2.656	1.880	1.885	1.875	1.895	1.890	1.885
0.000	0.010	-0.029	0.000	0.000	-0.005	0.039	2.666	1.875	1.880	1.880	1.895	1.890	1.890
0.000	0.029	-0.034	0.000	0.005	-0.005	0.044	2.681	1.880	1.885	1.880	1.899	1.890	1.890
-0.005	0.020	-0.024	0.000	0.015	0.015	0.044	2.705	1.880	1.885	1.880	1.899	1.895	1.895
-0.005	0.020	-0.020	0.005	0.005	-0.005	0.044	2.671	1.880	1.880	1.885	1.899	1.890	1.890
-0.005	0.005	-0.024	0.000	-0.005	0.000	0.039	2.710	1.885	1.875	1.875	1.899	1.890	1.890
-0.005	-0.005	-0.029	0.005	-0.010	0.005	0.044	2.666	1.880	1.875	1.875	1.895	1.890	1.895
0.000	0.000	-0.010	0.005	-0.015	-0.010	0.039	2.690	1.880	1.875	1.880	1.899	1.890	1.885
0.005	0.000	-0.005	0.000	-0.010	-0.005	0.039	2.642	1.875	1.875	1.880	1.899	1.890	1.890
0.010	-0.005	0.005	0.000	0.005	0.010	0.039	2.656	1.890	1.875	1.875	1.899	1.899	1.890
0.000	-0.005	-0.005	0.000	0.015	0.005	0.044	2.666	1.885	1.880	1.880	1.895	1.899	1.895
-0.005	-0.010	0.010	0.000	0.010	0.005	0.044	2.778	1.875	1.875	1.880	1.895	1.890	1.895
0.005	0.000	-0.005	-0.005	0.000	0.005	0.044	2.715	1.885	1.880	1.875	1.895	1.890	1.895
0.005	0.000	0.000	0.000	0.000	-0.005	0.044	2.695	1.885	1.880	1.880	1.895	1.890	1.890
0.005	0.005	-0.005	0.000	-0.005	-0.005	0.044	2.710	1.885	1.885	1.880	1.895	1.885	1.890
0.000	0.005	-0.020	0.010	0.005	-0.010	0.044	2.686	1.885	1.880	1.875	1.895	1.895	1.885
0.005	0.005	-0.024	0.000	0.015	0.005	0.039	2.739	1.890	1.880	1.875	1.895	1.895	1.895
-0.005	0.005	-0.015	0.005	0.024	0.000	0.044	2.681	1.885	1.885	1.880	1.899	1.895	1.895
-0.010	0.010	-0.015	0.000	0.020	0.015	0.039	2.622	1.875	1.885	1.880	1.895	1.895	1.899
-0.005	0.005	-0.010	0.005	0.015	0.010	0.039	2.651	1.875	1.880	1.880	1.899	1.890	1.895
-0.005	0.005	-0.015	0.000	-0.005	-0.005	0.044	2.754	1.885	1.880	1.880	1.895	1.890	1.885
-0.005	0.010	-0.005	0.000	-0.010	-0.005	0.044	2.739	1.890	1.880	1.880	1.899	1.885	1.890
0.000	-0.024	-0.005	0.005	-0.010	-0.005	0.044	2.642	1.885	1.875	1.880	1.899	1.890	1.890
0.000	-0.020	0.000	0.000	-0.024	0.000	0.044	2.695	1.895	1.880	1.880	1.895	1.890	1.885
0.010	-0.020	-0.010	0.000	-0.029	0.005	0.039	2.632	1.880	1.880	1.875	1.895	1.885	1.890
0.000	-0.020	-0.005	0.000	-0.029	0.010	0.044	2.705	1.880	1.880	1.880	1.895	1.890	1.890
0.000	0.000	0.000	0.005	-0.020	0.015	0.044	2.661	1.880	1.885	1.880	1.899	1.895	1.890
0.005	0.000	0.005	0.005	-0.005	0.010	0.044	2.671	1.875	1.880	1.885	1.899	1.895	1.895
0.005	0.005	0.015	-0.005	0.000	0.005	0.039	2.681	1.880	1.880	1.885	1.899	1.899	1.890
0.015	0.005	0.010	0.005	0.020	0.005	0.044	2.700	1.880	1.880	1.880	1.899	1.904	1.895
0.015	0.015	0.005	0.005	0.024	0.005	0.039	2.676	1.885	1.885	1.880	1.899	1.899	1.899
0.005	0.020	0.000	0.000	0.015	0.015	0.044	2.666	1.880	1.880	1.875	1.895	1.895	1.895
0.010	-0.005	0.010	0.000	0.005	0.010	0.044	2.705	1.890	1.880	1.880	1.895	1.890	1.895
0.005	0.015	0.005	0.005	0.005	-0.010	0.044	2.671	1.880	1.880	1.880	1.899	1.895	1.890
0.000	0.005	-0.005	-0.005	0.010	0.000	0.044	2.705	1.885	1.880	1.875	1.895	1.895	1.890
-0.020	0.020	-0.005	0.000	0.000	0.010	0.044	2.690	1.880	1.885	1.875	1.899	1.895	1.895
-0.020	0.015	-0.005	0.000	0.000	-0.005	0.039	2.700	1.880	1.880	1.880	1.895	1.895	1.890
-0.015	0.015	0.005	0.000	0.010	-0.005	0.044	2.695	1.885	1.880	1.885	1.899	1.895	1.890
-0.015	0.005	0.015	0.000	0.005	0.005	0.039	2.686	1.885	1.880	1.880	1.899	1.895	1.895
-0.015	-0.005	0.020	0.000	-0.005	0.000	0.044	2.666	1.880	1.875	1.885	1.899	1.890	1.895
-0.015	-0.005	0.024	0.000	-0.010	-0.005	0.044	2.695	1.885	1.875	1.880	1.899	1.890	1.885
0.005	-0.005	0.015	0.000	0.000	-0.015	0.039	2.705	1.890	1.875	1.875	1.899	1.895	1.885
-0.005	-0.010	0.020	0.005	0.010	0.005	0.039	2.666	1.880	1.880	1.880	1.899	1.899	1.899
-0.010	-0.005	0.029	0.000	0.010	0.010	0.039	2.705	1.885	1.880	1.880	1.899	1.895	1.895
0.010	-0.005	0.044	0.005	-0.005	-0.020	0.044	2.676	1.885	1.880	1.885	1.899	1.890	1.885
0.005	-0.015	0.039	0.005	-0.005	0.010	0.039	2.661	1.875	1.875	1.880	1.899	1.895	1.895
0.010	-0.010	0.024	0.000	0.010	0.015	0.044	2.676	1.880	1.880	1.875	1.895	1.895	1.895
0.005	0.005	0.010	0.005	-0.005	-0.005	0.044	2.681	1.885	1.880	1.875	1.895	1.890	1.890
0.000	0.020	0.000	0.000	0.010	0.000	0.039	2.661	1.880	1.885	1.875	1.895	1.895	1.895
0.010	0.010	-0.005	0.000	0.005	0.005	0.039	2.651	1.875	1.880	1.875	1.890	1.890	1.890
0.010	0.010	0.005	0.005	0.005	0.000	0.039	2.661	1.875	1.875	1.875	1.895	1.890	1.890
0.000	0.010	0.010	0.010	0.005	-0.010	0.039	2.646	1.875	1.880	1.880	1.895	1.890	1.890
0.000	0.015	0.015	0.000	0.005	0.005	0.039	2.739	1.885	1.880	1.880	1.895	1.895	1.890
0.005	0.020	0.015	0.000	0.015	-0.005	0.044	2.690	1.885	1.880	1.880	1.895	1.895	1.890
0.005	0.005	0.015	0.005	0.005	0.000	0.039	2.705	1.885	1.875	1.880	1.895	1.890	1.890
0.005	0.005	0.015	0.000	-0.005	-0.005	0.039	2.651	1.880	1.875	1.880	1.895	1.890	1.890
0.005	0.005	0.020	0.000	0.000	0.010	0.039	2.637	1.875	1.880	1.880	1.895	1.895	1.895
0.015	-0.005	0.020	0.000	0.015	0.000	0.039	2.671	1.880	1.875	1.875	1.895	1.895	1.895
0.015	-0.005	0.024	0.000	0.020	-0.005	0.039	2.646	1.875	1.875	1.875	1.895	1.895	1.890
0.005	-0.005	0.024	0.000	0.015	-0.005	0.039	2.656	1.870	1.870	1.875	1.895	1.890	1.890
0.015	-0.005	0.024	0.000	0.005	0.010	0.044	2.710	1.875	1.875	1.875	1.890	1.885	1.890
0.005	0.000	0.020	-0.005	0.000	0.005	0.039	2.632	1.885	1.875	1.870	1.890	1.885	1.890
0.020	0.005	0.010	0.005	0.000	0.000	0.039	2.656	1.880	1.875	1.870	1.890	1.885	1.885
0.000	0.000	0.010	0.005	-0.005	0.005	0.044	2.637	1.870	1.875	1.870	1.890	1.885	1.890
-0.005	0.005	-0.005	0.005	-0.010	0.005	0.039	2.651	1.870	1.875	1.870	1.890	1.880	1.880
0.000	0.000	-0.005	0.000	-0.005	0.010	0.039	2.710	1.875	1.870	1.870	1.890	1.885	1.885
0.000	0.005	-0.005	0.000	-0.005	0.010	0.039	2.676	1.875	1.875	1.870	1.885	1.885	1.885
-0.005	0.005	0.000	0.000	-0.005	0.000	0.039	2.661	1.875	1.875	1.870	1.885	1.885	1.880
-0.010	0.000	-0.010	0.000	-0.015	0.005	0.039	2.676	1.875	1.875	1.870	1.890	1.880	1.885
0.000	0.010	-0.010	-0.005	-0.005	-0.005	0.044	2.681	1.875	1.870	1.870	1.890	1.885	1.880
-0.005	0.005	0.000	0.010	0.000	0.000	0.039	2.700	1.875	1.875	1.875	1.890	1.885	1.880
0.005	0.000	-0.015	0.005	-0.005	-0.010	0.039	2.681	1.880	1.875	1.870	1.890	1.880	1.880
-0.005	0.010	-0.005	0.005	-0.015	0.015	0.039	2.710	1.880	1.875	1.875	1.890	1.885	1.885
0.000	-0.005	-0.010	0.005	-0.015	0.000	0.039	2.690	1.880	1.875	1.870	1.890	1.880	1.885
0.005	-0.010	-0.005	0.005	-0.005	0.010	0.039	2.705	1.885	1.870	1.875	1.890	1.885	1.885
0.005	-0.010	-0.005	0.000	-0.010	-0.015	0.039	2.676	1.880	1.875	1.870	1.890	1.885	1.875
0.000	-0.005	0.005	0.000	0.000	0.005	0.039	2.695	1.880	1.875	1.875	1.890	1.885	1.885
-0.005	-0.010	0.005	0.000	0.010	0.015	0.039	2.671	1.880	1.875	1.875	1.890	1.890	1.885
0.000	-0.005	0.000	0.000	0.024	0.010	0.044	2.700	1.880	1.875	1.875	1.890	1.895	1.890
0.020	0.000	0.010	0.005	0.005	-0.010	0.044	2.666	1.885	1.880	1.880	1.890	1.885	1.885
-0.005	0.005	0.005	0.000	-0.010	0.015	0.039	2.671	1.880	1.875	1.875	1.895	1.880	1.890
0.000	0.005	-0.005	0.010	-0.029	0.000	0.039	2.700	1.880	1.880	1.875	1.890	1.880	1.880
-0.005	0.010	-0.005	0.000	-0.024	0.005	0.039	2.676	1.875	1.875	1.875	1.890	1.880	1.880
-0.010	0.020	0.000	0.000	-0.029	0.010	0.039	2.715	1.880	1.880	1.875	1.890	1.885	1.880
-0.005	0.015	-0.005	0.010	-0.024	0.010	0.044	2.656	1.875	1.880	1.875	1.895	1.890	1.885
0.005	0.010	-0.010	0.000	-0.010	-0.015	0.044	2.700	1.880	1.875	1.875	1.895	1.890	1.880
0.005	0.010	-0.010	0.005	0.000	0.010	0.039	2.681	1.880	1.875	1.875	1.895	1.895	1.890
-0.005	0.010	-0.010	0.005	0.010	0.020	0.039	2.681	1.880	1.875	1.875	1.895	1.895	1.895
0.005	-0.010	0.000	0.000	0.024	0.020	0.039	2.646	1.880	1.875	1.875	1.895	1.899	1.895
0.000	-0.010	0.000	0.005	0.024	0.015	0.044	2.651	1.870	1.870	1.875	1.895	1.895	1.895
0.005	-0.010	0.005	0.000	0.034	0.010	0.044	2.666	1.875	1.870	1.875	1.890	1.895	1.895
0.005	-0.024	-0.010	-0.005	0.044	-0.010	0.044	2.637	1.870	1.870	1.870	1.890	1.895	1.885
0.005	0.000	-0.005	0.000	0.034	-0.029	0.039	2.720	1.880	1.880	1.870	1.890	1.890	1.880
0.000	-0.005	-0.010	0.000	0.015	-0.015	0.039	2.671	1.875	1.875	1.870	1.890	1.885	1.890
0.000	-0.005	0.000	0.000	0.010	-0.020	0.044	2.729	1.885	1.875	1.875	1.890	1.880	1.885
0.005	0.000	0.000	0.000	-0.015	0.000	0.044	2.676	1.880	1.880	1.870	1.890	1.875	1.885
0.005	0.000	-0.010	0.000	-0.034	-0.024	0.044	2.622	1.875	1.875	1.870	1.890	1.875	1.875
0.000	0.000	-0.005	0.005	-0.034	-0.024	0.039	2.700	1.875	1.875	1.870	1.890	1.875	1.875
-0.005	0.020	-0.015	0.000	-0.015	-0.005	0.039	2.661	1.870	1.875	1.870	1.890	1.885	1.880
0.000	0.015	-0.020	0.000	0.024	0.010	0.039	2.656	1.870	1.870	1.870	1.890	1.899	1.890
-0.010	0.005	-0.024	0.005	0.059	-0.005	0.039	2.627	1.865	1.870	1.870	1.890	1.899	1.890
-0.005	0.015	-0.020	0.000	0.059	-0.024	0.039	2.651	1.875	1.875	1.870	1.890	1.895	1.890
0.000	0.000	-0.029	0.005	0.039	-0.005	0.039	2.651	1.885	1.870	1.870	1.890	1.885	1.890
-0.005	0.010	-0.020	0.000	0.034	-0.010	0.039	2.749	1.890	1.875	1.870	1.890	1.885	1.885
0.000	0.000	-0.029	0.010	0.059	0.005	0.039	2.627	1.880	1.875	1.870	1.890	1.895	1.895
0.010	-0.010	-0.024	0.000	0.068	0.005	0.039	2.700	1.885	1.875	1.870	1.885	1.895	1.895
0.000	0.000	-0.010	0.005	0.059	0.010	0.039	2.676	1.880	1.880	1.875	1.890	1.890	1.895
0.005	-0.020	0.010	0.000	0.039	-0.010	0.039	2.676	1.880	1.875	1.880	1.895	1.885	1.885
0.005	-0.020	-0.005	0.000	0.034	-0.005	0.039	2.686	1.880	1.875	1.875	1.895	1.885	1.885
0.015	0.000	0.000	0.000	0.039	0.010	0.039	2.676	1.880	1.880	1.875	1.890	1.885	1.885
0.010	-0.005	-0.005	0.000	0.020	-0.005	0.039	2.710	1.880	1.875	1.875	1.890	1.880	1.880
0.005	0.005	0.000	0.005	0.005	-0.020	0.044	2.671	1.875	1.880	1.880	1.890	1.880	1.875
0.005	0.010	0.000	0.005	0.000	0.000	0.039	2.710	1.880	1.880	1.880	1.895	1.880	1.885
0.000	0.020	0.005	0.010	-0.039	0.005	0.039	2.681	1.875	1.880	1.875	1.895	1.875	1.880
0.000	0.005	0.000	0.005	-0.049	0.005	0.039	2.676	1.875	1.875	1.875	1.895	1.875	1.875
0.000	0.015	-0.010	0.000	-0.039	0.005	0.039	2.676	1.875	1.875	1.875	1.890	1.880	1.875
-0.005	0.015	-0.005	0.005	-0.029	0.005	0.044	2.690	1.875	1.875	1.875	1.890	1.885	1.880
-0.005	0.000	-0.015	0.005	-0.044	0.005	0.039	2.700	1.875	1.870	1.875	1.890	1.880	1.880
0.000	0.010	-0.005	0.005	-0.068	0.015	0.039	2.700	1.880	1.875	1.875	1.895	1.880	1.880
-0.005	0.010	-0.010	0.005	-0.049	0.015	0.044	2.700	1.880	1.875	1.875	1.890	1.890	1.880
-0.005	0.005	-0.005	0.005	-0.015	0.015	0.039	2.681	1.880	1.875	1.875	1.895	1.895	1.885
-0.005	-0.010	0.005	0.005	-0.010	0.005	0.039	2.676	1.875	1.870	1.875	1.895	1.895	1.885
-0.005	-0.010	0.000	-0.005	-0.015	0.015	0.039	2.705	1.880	1.875	1.870	1.895	1.890	1.890
0.000	-0.015	-0.005	0.000	-0.020	-0.005	0.039	2.705	1.885	1.875	1.875	1.890	1.890	1.885
0.010	-0.015	0.000	0.000	-0.024	0.010	0.039	2.671	1.880	1.875	1.875	1.890	1.885	1.885
0.005	-0.005	-0.005	0.000	-0.029	0.010	0.044	2.690	1.880	1.880	1.875	1.890	1.885	1.885
0.010	-0.010	0.010	0.005	-0.029	0.000	0.039	2.676	1.880	1.875	1.875	1.895	1.885	1.880
0.010	-0.005	0.010	0.005	-0.020	0.015	0.039	2.690	1.880	1.875	1.875	1.895	1.890	1.885
0.020	0.000	0.010	0.005	-0.029	0.010	0.039	2.661	1.880	1.880	1.880	1.890	1.885	1.885
0.005	-0.005	0.020	0.005	-0.034	-0.005	0.039	2.651	1.875	1.875	1.875	1.895	1.890	1.885
0.000	-0.005	0.010	0.005	-0.020	0.015	0.039	2.671	1.870	1.870	1.870	1.895	1.890	1.890
0.010	0.010	0.015	0.015	-0.015	0.015	0.039	2.637	1.870	1.875	1.875	1.895	1.890	1.890
0.010	0.005	0.005	0.010	-0.010	-0.005	0.039	2.651	1.880	1.875	1.870	1.895	1.890	1.885
0.005	0.000	0.000	0.000	-0.020	0.015	0.039	2.686	1.875	1.870	1.870	1.890	1.885	1.890
0.015	0.015	0.000	-0.015	-0.029	-0.010	0.039	2.744	1.890	1.875	1.875	1.885	1.880	1.880
0.015	0.015	0.000	-0.020	-0.029	0.015	0.039	2.656	1.880	1.880	1.875	1.885	1.880	1.890
0.000	0.020	0.020	-0.020	-0.020	0.005	0.044	2.705	1.880	1.880	1.880	1.890	1.885	1.885
0.000	0.005	0.005	-0.020	-0.005	-0.020	0.039	2.700	1.880	1.875	1.875	1.890	1.890	1.880
-0.010	0.005	0.005	-0.005	0.000	0.000	0.039	2.646	1.875	1.875	1.875	1.890	1.890	1.890
-0.005	-0.005	0.000	0.005	0.010	0.000	0.039	2.651	1.885	1.870	1.875	1.895	1.895	1.890
-0.010	-0.005	0.024	0.015	0.015	0.005	0.044	2.729	1.885	1.875	1.880	1.899	1.899	1.895
-0.005	-0.005	0.024	0.029	0.029	0.010	0.039	2.720	1.890	1.880	1.880	1.904	1.899	1.895
-0.005	-0.015	0.024	0.020	0.029	-0.010	0.039	2.729	1.890	1.880	1.875	1.899	1.899	1.890
-0.005	-0.015	0.015	0.015	0.010	0.005	0.039	2.715	1.890	1.880	1.875	1.895	1.890	1.895
-0.010	-0.005	0.020	0.000	0.010	0.000	0.044	2.651	1.890	1.885	1.875	1.890	1.890	1.890
-0.010	0.005	0.020	-0.010	0.010	0.005	0.039	2.676	1.885	1.885	1.880	1.890	1.890	1.895
-0.010	0.000	0.015	-0.015	0.059	0.015	0.044	2.666	1.880	1.885	1.880	1.890	1.899	1.895
-0.005	-0.005	0.005	-0.015	0.039	0.000	0.044	2.695	1.880	1.880	1.880	1.890	1.890	1.890
-0.005	0.010	0.005	-0.010	0.015	0.000	0.044	2.676	1.880	1.885	1.880	1.895	1.885	1.890
-0.005	0.005	0.010	0.005	0.010	0.000	0.044	2.700	1.885	1.880	1.880	1.899	1.890	1.890
0.000	0.015	0.010	0.010	0.005	0.000	0.044	2.710	1.885	1.885	1.885	1.899	1.890	1.885
0.000	0.020	0.000	0.015	0.010	0.000	0.044	2.676	1.880	1.885	1.880	1.904	1.895	1.890
-0.005	0.010	0.010	0.010	0.005	0.000	0.039	2.695	1.885	1.880	1.885	1.899	1.890	1.890
0.000	-0.010	0.020	0.010	0.000	-0.010	0.044	2.695	1.890	1.880	1.885	1.899	1.895	1.890
-0.005	-0.010	0.015	0.000	0.000	0.000	0.044	2.715	1.885	1.875	1.880	1.899	1.895	1.890
0.000	-0.015	0.000	-0.005	-0.010	0.005	0.039	2.686	1.885	1.880	1.875	1.895	1.890	1.890
0.005	-0.005	0.000	0.000	0.000	0.000	0.044	2.710	1.890	1.885	1.880	1.899	1.890	1.890
0.005	0.000	0.078	0.010	0.000	-0.024	0.039	2.705	1.890	1.885	1.895	1.904	1.895	1.885
0.000	-0.005	0.000	0.005	0.000	0.000	0.039	2.700	1.885	1.880	1.875	1.899	1.895	1.895
0.005	-0.005	-0.020	0.010	-0.010	0.000	0.044	2.710	1.890	1.880	1.870	1.895	1.890	1.890
0.010	0.000	0.015	0.005	-0.015	-0.005	0.044	2.671	1.885	1.885	1.880	1.895	1.885	1.890
0.015	0.005	0.010	0.000	-0.039	-0.015	0.039	2.705	1.890	1.885	1.885	1.895	1.885	1.880
0.005	0.000	0.000	0.000	-0.024	0.005	0.044	2.690	1.880	1.880	1.880	1.899	1.890	1.890
-0.005	0.000	0.000	0.000	-0.015	0.010	0.044	2.710	1.880	1.880	1.880	1.899	1.895	1.890
-0.005	0.020	0.000	0.000	-0.034	-0.005	0.039	2.671	1.880	1.885	1.880	1.895	1.885	1.890
0.000	0.020	-0.015	-0.005	-0.039	0.000	0.039	2.705	1.880	1.885	1.880	1.895	1.885	1.890
-0.005	0.024	-0.020	0.000	-0.015	-0.010	0.044	2.681	1.875	1.880	1.880	1.895	1.890	1.885
-0.005	0.020	-0.015	0.000	-0.020	-0.005	0.039	2.690	1.880	1.880	1.875	1.895	1.890	1.885
0.000	0.020	-0.010	0.005	-0.024	0.015	0.039	2.656	1.880	1.880	1.880	1.899	1.895	1.895
-0.005	0.015	-0.005	0.000	0.020	-0.020	0.039	2.651	1.875	1.875	1.880	1.899	1.904	1.890
0.005	-0.005	-0.010	0.005	0.073	0.005	0.044	2.671	1.880	1.875	1.875	1.899	1.919	1.904
0.015	0.005	-0.015	0.005	0.098	-0.020	0.039	2.637	1.875	1.875	1.875	1.899	1.914	1.904
0.000	-0.024	-0.015	0.000	0.073	0.010	0.039	2.749	1.870	1.865	1.870	1.895	1.899	1.909
0.005	-0.015	-0.005	0.000	0.039	0.015	0.039	2.681	1.875	1.870	1.875	1.890	1.890	1.904
0.010	0.000	0.010	0.000	0.049	0.015	0.039	2.749	1.890	1.880	1.875	1.895	1.895	1.899
0.010	0.000	0.000	0.000	0.088	0.015	0.039	2.686	1.890	1.880	1.875	1.895	1.904	1.899
0.020	-0.020	0.000	0.005	0.098	0.005	0.044	2.651	1.890	1.880	1.875	1.895	1.904	1.899
0.015	-0.024	0.015	0.005	0.068	0.010	0.044	2.681	1.885	1.880	1.880	1.895	1.890	1.895
0.000	-0.005	0.010	0.000	-0.005	0.015	0.039	2.720	1.880	1.885	1.875	1.895	1.870	1.890
0.005	0.000	0.005	0.000	-0.029	0.010	0.044	2.666	1.875	1.880	1.875	1.895	1.870	1.885
-0.005	-0.005	0.005	0.000	-0.044	-0.005	0.044	2.622	1.870	1.875	1.875	1.895	1.870	1.875
0.000	0.005	0.005	0.000	-0.044	0.005	0.039	2.715	1.875	1.875	1.875	1.895	1.875	1.875
-0.010	0.005	0.000	0.000	-0.044	-0.029	0.044	2.661	1.880	1.875	1.875	1.895	1.875	1.870
-0.010	0.005	-0.005	0.005	-0.039	0.005	0.039	2.734	1.885	1.875	1.875	1.895	1.885	1.875
-0.005	0.020	-0.020	0.000	-0.024	0.010	0.039	2.622	1.885	1.880	1.875	1.895	1.885	1.885
-0.010	0.000	-0.020	0.000	-0.029	-0.015	0.039	2.676	1.880	1.875	1.875	1.895	1.885	1.880
-0.015	0.005	-0.010	0.000	-0.010	0.015	0.044	2.666	1.880	1.880	1.875	1.890	1.895	1.890
-0.005	-0.005	0.000	0.005	-0.005	0.015	0.039	2.686	1.880	1.880	1.875	1.895	1.895	1.890
0.000	-0.010	-0.005	0.000	-0.020	0.015	0.039	2.676	1.880	1.875	1.875	1.890	1.890	1.890
0.005	-0.015	0.005	0.000	-0.020	0.015	0.039	2.695	1.885	1.875	1.880	1.895	1.890	1.890
0.005	-0.005	0.010	0.005	-0.010	0.000	0.044	2.710	1.885	1.880	1.880	1.895	1.890	1.885
0.000	0.000	0.015	0.005	0.005	-0.005	0.039	2.681	1.885	1.880	1.880	1.895	1.895	1.885
0.010	0.020	0.015	0.000	0.000	-0.010	0.039	2.695	1.885	1.890	1.880	1.899	1.895	1.885
0.010	0.000	0.015	0.000	0.000	-0.029	0.039	2.695	1.880	1.880	1.880	1.895	1.890	1.885
0.005	-0.010	0.015	0.000	-0.005	-0.020	0.039	2.681	1.880	1.875	1.880	1.899	1.890	1.885
-0.005	0.000	0.024	-0.005	0.000	-0.024	0.039	2.676	1.875	1.880	1.880	1.895	1.890	1.890
0.015	0.010	0.024	0.000	0.000	-0.010	0.039	2.690	1.880	1.880	1.880	1.899	1.895	1.895
-0.005	0.020	0.010	-0.005	0.010	-0.005	0.039	2.700	1.880	1.880	1.875	1.895	1.895	1.895
0.000	0.039	0.010	0.000	0.005	-0.024	0.044	2.710	1.885	1.885	1.875	1.895	1.895	1.890
0.000	0.000	0.005	0.005	0.000	0.015	0.039	2.700	1.880	1.875	1.875	1.895	1.890	1.899
0.000	-0.005	0.010	0.000	0.005	-0.010	0.044	2.671	1.880	1.870	1.875	1.895	1.890	1.890
0.000	-0.005	0.015	-0.005	-0.010	0.005	0.039	2.681	1.880	1.875	1.875	1.895	1.890	1.890
-0.005	-0.010	0.005	0.005	-0.020	0.029	0.039	2.676	1.880	1.875	1.875	1.895	1.890	1.899
-0.010	0.005	0.005	0.005	-0.005	0.010	0.044	2.700	1.880	1.880	1.875	1.895	1.890	1.890
-0.010	0.015	-0.005	0.000	0.020	0.000	0.039	2.686	1.880	1.880	1.875	1.895	1.895	1.890
0.005	0.000	0.005	0.010	0.034	0.005	0.039	2.666	1.885	1.880	1.875	1.895	1.899	1.895
0.010	-0.010	0.005	0.000	0.010	0.010	0.039	2.676	1.885	1.875	1.875	1.895	1.890	1.895
0.010	-0.020	0.010	-0.005	0.010	0.005	0.044	2.681	1.885	1.875	1.875	1.895	1.890	1.890
0.010	-0.015	0.010	-0.005	0.010	0.020	0.044	2.651	1.875	1.875	1.875	1.890	1.885	1.890
0.010	-0.010	0.005	-0.005	-0.010	0.024	0.044	2.656	1.875	1.875	1.875	1.895	1.880	1.890
0.000	-0.005	0.015	0.000	-0.005	0.024	0.039	2.661	1.875	1.875	1.880	1.895	1.885	1.890
-0.005	0.000	0.005	0.005	-0.029	0.010	0.039	2.632	1.870	1.875	1.875	1.890	1.880	1.880
0.010	-0.005	0.010	0.005	-0.044	-0.005	0.039	2.637	1.870	1.870	1.875	1.890	1.875	1.875
0.005	0.010	0.010	0.005	-0.024	-0.005	0.044	2.686	1.870	1.875	1.875	1.890	1.885	1.880
-0.005	0.000	0.005	0.005	0.005	-0.005	0.039	2.739	1.875	1.870	1.870	1.895	1.899	1.885
-0.005	0.005	0.000	0.005	0.024	-0.015	0.044	2.661	1.875	1.870	1.870	1.890	1.899	1.885
-0.005	0.010	0.010	0.000	0.015	-0.029	0.044	2.651	1.875	1.875	1.875	1.890	1.895	1.885
-0.010	0.015	0.005	0.005	0.039	-0.015	0.039	2.695	1.875	1.875	1.875	1.890	1.899	1.890
-0.010	0.024	0.010	0.005	0.093	-0.020	0.039	2.627	1.875	1.875	1.875	1.895	1.909	1.895
-0.015	0.005	0.005	0.005	0.127	-0.005	0.039	2.651	1.870	1.870	1.875	1.890	1.914	1.904
-0.010	0.005	0.000	0.000	0.117	-0.024	0.044	2.617	1.870	1.870	1.870	1.890	1.904	1.895
0.000	0.000	-0.005	0.000	0.063	0.000	0.044	2.646	1.880	1.870	1.870	1.885	1.880	1.899
-0.005	0.000	0.000	-0.005	0.024	0.000	0.044	2.656	1.880	1.875	1.870	1.885	1.870	1.890
0.005	-0.005	0.000	0.000	-0.039	0.024	0.039	2.632	1.875	1.870	1.870	1.885	1.860	1.890
0.010	-0.005	0.010	0.000	-0.054	0.015	0.039	2.637	1.875	1.870	1.870	1.885	1.865	1.880
0.015	0.000	0.010	0.000	-0.044	0.024	0.044	2.700	1.875	1.875	1.870	1.890	1.870	1.875
0.005	0.034	0.005	0.000	-0.039	-0.010	0.044	2.671	1.875	1.885	1.875	1.890	1.875	1.870
0.010	0.029	0.005	0.005	-0.034	0.000	0.039	2.666	1.870	1.875	1.875	1.890	1.875	1.870
0.015	-0.010	0.010	0.000	-0.020	0.015	0.044	2.666	1.870	1.865	1.870	1.890	1.885	1.880
0.010	-0.005	0.015	-0.005	-0.010	0.005	0.044	2.681	1.875	1.865	1.870	1.890	1.885	1.875
0.005	-0.015	0.005	0.000	-0.010	-0.005	0.044	2.700	1.875	1.865	1.870	1.885	1.885	1.875
0.000	-0.005	0.005	0.000	-0.010	0.015	0.039	2.671	1.870	1.870	1.870	1.885	1.885	1.885
0.010	0.005	0.000	0.005	-0.010	0.015	0.039	2.695	1.880	1.870	1.870	1.885	1.885	1.885
-0.005	0.010	0.000	0.005	-0.015	0.010	0.039	2.710	1.880	1.875	1.870	1.885	1.880	1.880
0.000	0.010	0.005	0.005	-0.024	0.005	0.039	2.700	1.880	1.875	1.870	1.890	1.880	1.880
-0.005	0.010	-0.010	0.005	-0.020	0.015	0.039	2.686	1.880	1.875	1.870	1.890	1.885	1.885
0.000	0.005	-0.010	0.000	-0.010	0.015	0.039	2.705	1.885	1.875	1.870	1.890	1.885	1.885
0.000	0.005	-0.010	0.005	0.000	0.010	0.039	2.690	1.880	1.875	1.875	1.890	1.885	1.885
-0.005	-0.005	0.005	0.000	0.000	0.000	0.039	2.700	1.880	1.875	1.880	1.890	1.885	1.880
-0.005	-0.005	0.020	0.000	0.010	-0.005	0.039	2.690	1.885	1.875	1.880	1.890	1.890	1.880
0.005	-0.015	0.020	0.005	0.000	-0.010	0.039	2.666	1.880	1.875	1.875	1.895	1.890	1.880
0.000	-0.010	0.015	0.000	0.010	-0.010	0.039	2.676	1.875	1.875	1.875	1.895	1.890	1.880
0.005	-0.005	0.005	-0.005	0.000	-0.015	0.039	2.671	1.875	1.875	1.870	1.890	1.885	1.880
0.005	-0.005	0.005	0.000	0.000	-0.020	0.039	2.700	1.875	1.875	1.870	1.890	1.885	1.880
0.000	0.000	0.005	0.005	0.005	-0.010	0.039	2.671	1.875	1.870	1.870	1.890	1.885	1.885
0.010	-0.005	0.000	0.005	0.000	0.000	0.039	2.671	1.875	1.875	1.870	1.890	1.885	1.885
0.000	-0.005	0.005	0.005	-0.015	0.005	0.039	2.676	1.870	1.870	1.875	1.890	1.880	1.885
0.000	0.000	0.010	0.000	-0.029	0.000	0.039	2.690	1.875	1.875	1.870	1.890	1.880	1.880
0.010	0.005	-0.005	0.005	-0.034	0.005	0.039	2.651	1.875	1.875	1.870	1.890	1.880	1.880
0.010	0.000	0.005	0.005	-0.024	0.000	0.039	2.656	1.885	1.875	1.870	1.890	1.885	1.880
-0.005	0.015	0.005	0.000	-0.005	0.000	0.039	2.671	1.875	1.880	1.875	1.890	1.890	1.885
-0.010	0.010	0.010	0.010	0.020	-0.020	0.044	2.778	1.875	1.875	1.875	1.895	1.895	1.880
-0.005	0.020	0.005	0.005	0.034	0.015	0.039	2.637	1.870	1.880	1.880	1.890	1.899	1.895
-0.005	0.005	0.020	0.000	0.049	0.010	0.039	2.690	1.870	1.870	1.875	1.890	1.899	1.899
-0.005	-0.005	0.015	-0.005	0.024	0.029	0.039	2.720	1.880	1.870	1.870	1.890	1.890	1.899
0.000	0.005	-0.005	-0.005	0.024	0.020	0.039	2.656	1.880	1.875	1.870	1.890	1.890	1.895
0.005	-0.005	-0.010	-0.010	0.024	0.015	0.039	2.754	1.890	1.875	1.865	1.885	1.885	1.890
0.000	0.000	-0.010	-0.005	0.015	0.015	0.039	2.690	1.885	1.880	1.870	1.885	1.880	1.885
0.000	-0.005	0.000	0.000	0.020	0.000	0.039	2.622	1.875	1.875	1.875	1.890	1.880	1.880
0.015	-0.029	0.010	0.005	0.024	-0.015	0.039	2.661	1.880	1.870	1.875	1.890	1.885	1.880
0.015	-0.020	0.010	0.010	0.020	-0.010	0.039	2.642	1.870	1.875	1.875	1.890	1.885	1.880
0.015	-0.015	0.010	0.010	0.005	-0.020	0.044	2.725	1.875	1.875	1.875	1.890	1.880	1.875
0.015	-0.010	0.015	0.000	0.000	-0.005	0.044	2.729	1.870	1.875	1.875	1.890	1.880	1.880
0.005	-0.015	0.005	-0.005	-0.010	-0.020	0.039	2.651	1.870	1.870	1.870	1.885	1.880	1.875
0.000	0.005	0.005	-0.010	-0.010	0.005	0.044	2.637	1.865	1.875	1.870	1.885	1.880	1.885
-0.015	0.010	-0.010	-0.005	-0.005	0.000	0.039	2.705	1.865	1.870	1.865	1.885	1.880	1.880
-0.005	0.010	-0.015	0.000	-0.010	0.010	0.044	2.676	1.870	1.870	1.865	1.885	1.880	1.880
-0.010	0.015	-0.015	0.005	-0.020	0.000	0.039	2.676	1.875	1.875	1.870	1.890	1.880	1.880
-0.005	0.034	-0.010	0.010	-0.020	0.005	0.044	2.676	1.875	1.880	1.870	1.890	1.880	1.880
-0.005	0.024	-0.024	0.010	-0.010	-0.005	0.044	2.700	1.875	1.875	1.870	1.890	1.880	1.875
-0.010	0.015	-0.015	0.010	0.000	-0.010	0.039	2.686	1.875	1.875	1.875	1.890	1.885	1.875
-0.005	0.010	0.000	0.010	0.000	-0.010	0.039	2.671	1.875	1.875	1.875	1.890	1.890	1.880
0.000	0.010	0.005	0.010	0.010	0.010	0.039	2.700	1.880	1.870	1.875	1.895	1.890	1.890
-0.005	0.000	0.000	0.000	0.000	0.010	0.039	2.671	1.875	1.870	1.875	1.890	1.885	1.885
0.000	-0.005	0.000	0.000	-0.005	-0.015	0.044	2.695	1.880	1.875	1.870	1.885	1.880	1.875
-0.005	0.000	0.010	-0.005	0.015	0.005	0.039	2.681	1.875	1.875	1.875	1.890	1.890	1.885
-0.005	-0.005	0.020	-0.010	0.029	0.000	0.039	2.710	1.880	1.875	1.875	1.890	1.890	1.885
0.010	0.005	0.015	-0.005	0.015	0.000	0.044	2.666	1.880	1.875	1.875	1.890	1.885	1.890
0.000	0.000	0.005	-0.005	0.005	0.005	0.039	2.671	1.875	1.870	1.870	1.890	1.880	1.885
0.000	0.000	0.020	-0.005	0.005	0.000	0.039	2.681	1.875	1.875	1.875	1.890	1.880	1.880
0.005	0.000	0.015	0.000	-0.010	-0.020	0.039	2.695	1.875	1.875	1.870	1.890	1.880	1.875
0.005	0.010	0.029	0.005	-0.005	0.005	0.039	2.676	1.880	1.880	1.875	1.895	1.880	1.880
-0.005	0.000	0.010	0.010	-0.015	0.005	0.039	2.700	1.875	1.875	1.875	1.890	1.880	1.885
-0.020	0.005	0.015	0.005	-0.005	0.010	0.039	2.715	1.880	1.875	1.870	1.895	1.885	1.885
-0.005	0.005	0.000	0.010	0.010	0.000	0.044	2.666	1.875	1.875	1.870	1.890	1.890	1.885
-0.010	0.000	-0.005	0.005	0.005	0.005	0.039	2.671	1.875	1.875	1.870	1.890	1.890	1.890
-0.005	-0.015	-0.015	0.005	0.010	0.005	0.039	2.681	1.875	1.870	1.865	1.890	1.890	1.885
0.000	-0.010	-0.024	0.005	0.024	-0.005	0.044	2.686	1.880	1.875	1.865	1.885	1.890	1.885
0.000	-0.015	-0.024	0.000	0.015	0.000	0.044	2.661	1.875	1.870	1.865	1.885	1.885	1.885
-0.005	-0.010	-0.029	-0.005	0.034	0.005	0.044	2.651	1.870	1.870	1.870	1.885	1.890	1.890
0.000	-0.010	-0.005	-0.005	0.049	0.005	0.039	2.671	1.870	1.875	1.875	1.885	1.890	1.890
0.000	0.015	0.005	-0.005	0.063	0.000	0.039	2.651	1.875	1.880	1.880	1.890	1.895	1.890
0.010	0.010	0.000	0.000	0.049	0.000	0.039	2.632	1.875	1.875	1.875	1.890	1.885	1.885
0.010	0.000	0.005	0.000	0.020	-0.024	0.039	2.686	1.875	1.870	1.875	1.890	1.875	1.880
-0.005	0.010	0.010	0.005	0.000	-0.015	0.044	2.705	1.875	1.875	1.870	1.890	1.875	1.875
0.010	-0.020	-0.005	0.005	-0.010	0.000	0.039	2.666	1.875	1.870	1.865	1.890	1.875	1.880
0.010	-0.020	0.005	0.005	-0.024	-0.010	0.039	2.637	1.870	1.870	1.870	1.885	1.875	1.875
0.005	-0.005	-0.005	0.000	0.000	0.010	0.044	2.676	1.870	1.870	1.870	1.885	1.880	1.885
0.005	0.010	-0.010	0.000	-0.020	0.000	0.039	2.622	1.870	1.875	1.870	1.885	1.875	1.880
0.005	0.005	-0.020	0.010	-0.059	0.029	0.044	2.651	1.870	1.870	1.865	1.885	1.870	1.880
0.000	0.024	-0.015	0.005	-0.049	0.015	0.039	2.710	1.870	1.875	1.870	1.885	1.875	1.875
-0.005	0.015	-0.005	-0.005	-0.024	0.015	0.039	2.656	1.870	1.870	1.870	1.890	1.885	1.880
-0.005	0.020	-0.015	0.005	0.024	0.024	0.039	2.661	1.870	1.870	1.870	1.890	1.895	1.885
-0.005	0.010	-0.010	0.000	0.029	0.015	0.044	2.656	1.870	1.870	1.870	1.885	1.895	1.885
-0.005	0.010	-0.010	0.000	0.059	0.020	0.039	2.622	1.870	1.865	1.870	1.890	1.899	1.890
0.000	0.005	-0.015	0.005	0.029	0.010	0.044	2.705	1.870	1.865	1.865	1.890	1.885	1.885
0.015	-0.005	-0.010	0.005	0.005	0.000	0.039	2.681	1.875	1.865	1.865	1.885	1.880	1.880
0.005	-0.005	-0.010	0.000	0.000	-0.015	0.039	2.681	1.875	1.865	1.865	1.885	1.875	1.875
0.000	0.005	0.000	0.000	-0.005	0.000	0.039	2.681	1.870	1.870	1.870	1.885	1.875	1.875
0.000	0.029	0.000	-0.005	-0.020	-0.020	0.039	2.700	1.875	1.875	1.870	1.885	1.875	1.870
0.010	0.000	0.010	-0.005	-0.015	0.000	0.044	2.695	1.875	1.870	1.875	1.885	1.875	1.875
0.005	-0.010	0.005	0.000	-0.029	-0.005	0.039	2.671	1.875	1.865	1.865	1.885	1.875	1.875
0.015	-0.010	0.020	0.000	-0.044	-0.024	0.039	2.705	1.880	1.870	1.870	1.885	1.870	1.870
0.010	-0.005	0.005	0.005	-0.039	-0.010	0.044	2.676	1.875	1.875	1.870	1.885	1.875	1.875
0.000	0.029	-0.005	0.005	-0.039	-0.010	0.039	2.700	1.870	1.880	1.870	1.885	1.880	1.875
0.000	0.020	-0.015	0.005	-0.020	0.005	0.044	2.676	1.870	1.870	1.870	1.885	1.885	1.880
0.000	-0.010	-0.020	0.005	-0.020	-0.005	0.039	2.700	1.875	1.865	1.870	1.885	1.880	1.880
0.000	-0.010	-0.024	0.005	-0.024	0.015	0.039	2.681	1.875	1.870	1.865	1.885	1.880	1.885
-0.005	-0.005	-0.010	0.000	-0.020	0.000	0.039	2.695	1.875	1.870	1.870	1.885	1.880	1.880
-0.005	0.005	-0.010	0.005	0.015	0.000	0.039	2.681	1.875	1.875	1.870	1.890	1.890	1.885
-0.005	0.010	-0.015	0.010	0.024	-0.005	0.039	2.671	1.875	1.880	1.875	1.890	1.890	1.880
-0.005	-0.005	-0.015	0.000	0.020	0.005	0.039	2.686	1.875	1.870	1.870	1.885	1.890	1.890
-0.005	-0.010	-0.024	0.000	0.024	0.005	0.039	2.671	1.875	1.870	1.870	1.885	1.890	1.885
0.005	-0.010	-0.005	0.005	0.020	0.000	0.039	2.700	1.880	1.870	1.875	1.885	1.885	1.885
-0.005	-0.015	-0.005	0.005	0.020	0.000	0.044	2.676	1.875	1.870	1.870	1.890	1.885	1.885
0.005	-0.015	0.000	0.005	0.034	0.000	0.039	2.695	1.880	1.875	1.870	1.890	1.890	1.885
0.005	-0.010	0.015	0.000	0.054	0.005	0.039	2.686	1.880	1.875	1.875	1.890	1.895	1.890
0.005	0.010	0.015	0.000	0.049	0.005	0.039	2.686	1.880	1.880	1.880	1.890	1.885	1.885
0.005	0.020	0.010	-0.005	0.034	0.005	0.039	2.637	1.875	1.880	1.875	1.890	1.885	1.885
0.000	0.000	0.005	0.000	0.039	0.010	0.039	2.661	1.870	1.870	1.870	1.890	1.885	1.885
0.015	-0.010	-0.010	0.000	0.034	0.005	0.039	2.676	1.875	1.870	1.870	1.890	1.885	1.885
-0.005	0.000	-0.005	0.000	0.024	-0.015	0.039	2.646	1.865	1.870	1.870	1.890	1.880	1.875
-0.005	0.005	-0.020	0.005	0.000	0.005	0.039	2.739	1.875	1.870	1.870	1.885	1.875	1.880
0.005	0.015	-0.015	0.005	-0.015	-0.010	0.039	2.681	1.875	1.875	1.870	1.885	1.875	1.875
-0.005	0.010	-0.005	0.000	-0.005	0.010	0.044	2.744	1.880	1.875	1.875	1.890	1.880	1.880
-0.005	0.005	-0.010	0.000	0.000	-0.005	0.039	2.661	1.880	1.870	1.870	1.890	1.880	1.875
-0.005	-0.015	-0.010	0.005	-0.010	0.005	0.044	2.715	1.885	1.870	1.870	1.890	1.880	1.880
0.000	-0.015	-0.010	0.000	-0.020	0.005	0.039	2.681	1.885	1.870	1.870	1.890	1.875	1.880
0.000	-0.020	0.000	0.000	-0.020	0.000	0.044	2.725	1.880	1.875	1.870	1.890	1.880	1.875
0.005	-0.010	0.000	0.005	-0.010	-0.020	0.039	2.808	1.895	1.880	1.875	1.890	1.885	1.875
-0.010	0.005	0.005	-0.005	-0.005	-0.005	0.039	2.632	1.880	1.880	1.875	1.890	1.885	1.885
-0.005	0.000	0.015	0.005	-0.015	0.000	0.044	2.651	1.875	1.880	1.880	1.895	1.885	1.885
0.005	0.015	0.010	0.000	-0.020	-0.015	0.044	2.642	1.870	1.880	1.875	1.895	1.885	1.880
-0.005	0.029	0.005	0.000	0.005	-0.005	0.044	2.725	1.875	1.880	1.875	1.895	1.890	1.885
-0.015	0.024	0.005	0.000	0.010	-0.015	0.039	2.627	1.870	1.875	1.875	1.895	1.890	1.880
-0.005	0.015	0.000	0.005	0.015	-0.010	0.044	2.676	1.870	1.870	1.875	1.895	1.890	1.885
0.005	-0.005	-0.005	0.005	0.000	0.005	0.039	2.681	1.870	1.865	1.870	1.890	1.890	1.890
0.000	-0.010	-0.005	0.000	-0.015	0.005	0.039	2.695	1.875	1.870	1.870	1.890	1.885	1.890
-0.005	0.005	-0.005	0.000	-0.015	-0.005	0.044	2.671	1.875	1.875	1.870	1.885	1.885	1.885
0.005	0.010	-0.010	0.000	-0.015	0.005	0.044	2.690	1.880	1.875	1.870	1.890	1.880	1.885
0.010	0.005	-0.005	0.000	-0.044	0.010	0.039	2.690	1.875	1.875	1.870	1.885	1.875	1.885
0.005	0.000	-0.010	0.005	-0.049	0.000	0.039	2.671	1.875	1.875	1.870	1.885	1.880	1.880
0.000	-0.005	-0.015	0.005	-0.024	0.005	0.039	2.690	1.875	1.875	1.870	1.885	1.885	1.880
0.010	0.000	0.000	0.005	-0.020	0.015	0.044	2.671	1.875	1.875	1.875	1.890	1.890	1.885
-0.005	0.010	-0.005	0.010	-0.005	0.005	0.039	2.681	1.870	1.875	1.870	1.890	1.890	1.885
-0.010	0.015	-0.005	0.015	0.000	0.024	0.044	2.671	1.875	1.875	1.875	1.890	1.890	1.895
-0.005	-0.005	-0.010	0.005	0.010	0.024	0.039	2.700	1.875	1.870	1.870	1.890	1.890	1.890
-0.015	-0.015	0.000	0.005	0.020	0.000	0.039	2.705	1.875	1.870	1.870	1.890	1.890	1.885
-0.005	-0.010	0.005	-0.005	0.059	0.015	0.039	2.681	1.880	1.870	1.870	1.890	1.899	1.895
0.000	0.000	0.000	-0.010	0.088	0.020	0.039	2.695	1.885	1.875	1.870	1.885	1.899	1.895
0.000	-0.005	0.010	-0.010	0.034	0.010	0.039	2.681	1.880	1.875	1.875	1.890	1.880	1.890
-0.005	-0.010	0.010	-0.005	0.005	-0.010	0.039	2.681	1.880	1.875	1.875	1.890	1.875	1.875
0.005	-0.005	0.000	0.005	-0.015	-0.039	0.039	2.705	1.880	1.875	1.870	1.890	1.870	1.870
0.015	-0.005	0.015	0.000	-0.029	-0.024	0.044	2.700	1.880	1.875	1.875	1.890	1.870	1.875
0.010	-0.005	0.005	0.000	-0.039	-0.015	0.039	2.676	1.880	1.875	1.875	1.890	1.875	1.875
0.010	0.000	-0.005	0.000	-0.034	0.000	0.039	2.686	1.875	1.875	1.875	1.890	1.880	1.880
0.015	0.010	0.000	0.005	-0.034	-0.029	0.039	2.681	1.880	1.880	1.875	1.890	1.880	1.875
0.000	0.010	0.000	0.010	-0.029	0.010	0.039	2.686	1.875	1.880	1.880	1.895	1.885	1.885
-0.005	-0.010	-0.005	0.010	-0.034	0.010	0.039	2.661	1.870	1.870	1.870	1.890	1.885	1.885
-0.015	0.029	-0.015	0.010	-0.039	0.005	0.039	2.651	1.870	1.880	1.875	1.890	1.885	1.885
0.000	0.054	0.000	0.005	-0.059	0.020	0.039	2.661	1.870	1.880	1.880	1.895	1.880	1.885
-0.005	0.010	-0.005	0.000	-0.093	0.020	0.039	2.646	1.870	1.870	1.875	1.890	1.870	1.880
0.000	-0.005	0.000	-0.005	-0.088	0.015	0.039	2.734	1.875	1.865	1.875	1.890	1.875	1.875
0.000	-0.010	-0.005	0.000	-0.068	-0.005	0.039	2.681	1.875	1.865	1.870	1.890	1.885	1.870
0.010	0.000	0.005	0.005	-0.029	0.005	0.039	2.617	1.870	1.870	1.870	1.890	1.899	1.885
0.010	0.000	0.020	0.000	-0.015	0.005	0.039	2.666	1.870	1.870	1.875	1.890	1.895	1.885
0.015	0.010	0.024	0.000	0.005	-0.005	0.039	2.617	1.880	1.875	1.875	1.890	1.899	1.890
0.005	0.000	0.024	0.000	0.015	0.000	0.039	2.671	1.875	1.870	1.875	1.890	1.895	1.890
0.010	-0.015	0.024	0.000	0.015	-0.005	0.039	2.720	1.870	1.870	1.870	1.890	1.895	1.890
0.020	-0.034	0.020	0.000	0.005	-0.010	0.039	2.651	1.870	1.865	1.870	1.890	1.890	1.890
0.015	-0.029	0.015	0.000	0.020	-0.015	0.039	2.710	1.875	1.870	1.865	1.880	1.895	1.885
-0.010	-0.005	0.005	0.005	0.063	-0.034	0.039	2.710	1.870	1.870	1.870	1.885	1.899	1.890
-0.005	0.015	-0.005	0.000	0.098	0.000	0.044	2.642	1.880	1.875	1.870	1.885	1.904	1.899
-0.010	0.010	-0.015	0.005	0.132	-0.020	0.039	2.749	1.890	1.875	1.865	1.890	1.909	1.895
-0.010	0.010	-0.024	0.000	0.151	0.015	0.039	2.632	1.895	1.880	1.870	1.885	1.904	1.909
-0.015	0.024	-0.029	0.005	0.117	0.010	0.039	2.700	1.895	1.890	1.870	1.890	1.890	1.904
-0.010	0.015	-0.015	0.010	0.088	0.020	0.039	2.686	1.895	1.890	1.880	1.890	1.885	1.899
-0.010	0.063	-0.010	0.005	0.073	0.015	0.039	2.695	1.890	1.899	1.885	1.895	1.880	1.890
-0.005	0.024	-0.010	0.000	0.049	0.020	0.039	2.666	1.885	1.880	1.885	1.895	1.875	1.885
0.005	-0.024	0.005	0.000	0.000	0.039	0.044	2.710	1.890	1.875	1.885	1.895	1.870	1.885
0.010	-0.054	0.015	-0.005	-0.020	0.015	0.039	2.705	1.890	1.870	1.880	1.895	1.870	1.875
0.010	-0.034	0.015	0.000	-0.039	0.039	0.039	2.676	1.885	1.875	1.880	1.895	1.870	1.875
0.015	-0.005	0.010	0.005	-0.068	0.020	0.039	2.700	1.885	1.885	1.880	1.895	1.870	1.870
0.024	-0.024	0.005	0.005	-0.078	0.034	0.039	2.671	1.885	1.880	1.875	1.895	1.870	1.875
0.024	-0.015	0.024	0.000	-0.088	0.029	0.039	2.661	1.875	1.880	1.885	1.895	1.875	1.870
0.010	-0.005	0.015	-0.010	-0.078	0.020	0.044	2.681	1.875	1.880	1.875	1.895	1.880	1.870
0.005	-0.010	0.010	-0.010	-0.049	-0.005	0.039	2.690	1.870	1.875	1.875	1.895	1.890	1.870
-0.010	0.020	0.010	-0.005	-0.020	0.005	0.039	2.700	1.875	1.880	1.875	1.895	1.899	1.880
-0.020	0.020	0.000	0.000	-0.010	-0.024	0.039	2.695	1.870	1.880	1.875	1.895	1.899	1.880
-0.015	0.020	-0.005	0.000	-0.029	-0.059	0.044	2.710	1.875	1.875	1.875	1.895	1.890	1.870
-0.005	0.005	-0.005	0.005	-0.049	-0.059	0.039	2.671	1.875	1.870	1.870	1.895	1.885	1.875
-0.010	0.000	-0.010	0.010	-0.063	-0.063	0.039	2.676	1.875	1.870	1.870	1.890	1.885	1.875
-0.005	0.010	-0.015	0.005	-0.034	-0.044	0.044	2.695	1.875	1.875	1.870	1.890	1.895	1.885
-0.005	0.010	-0.024	0.010	0.000	-0.020	0.039	2.700	1.875	1.875	1.870	1.895	1.899	1.895
-0.005	0.000	-0.020	0.005	0.039	-0.024	0.039	2.676	1.875	1.875	1.870	1.890	1.909	1.899
-0.005	-0.005	-0.005	0.005	0.034	-0.029	0.044	2.666	1.880	1.875	1.875	1.890	1.899	1.895
0.015	0.020	-0.005	0.005	0.034	-0.049	0.039	2.666	1.880	1.880	1.875	1.890	1.895	1.890
0.015	0.063	0.010	0.000	0.010	-0.020	0.039	2.686	1.885	1.890	1.880	1.890	1.885	1.895
0.015	0.029	0.015	0.000	-0.015	-0.015	0.039	2.646	1.880	1.875	1.880	1.895	1.880	1.890
0.015	-0.024	0.015	0.000	-0.029	0.005	0.044	2.661	1.875	1.865	1.875	1.895	1.880	1.895
0.015	-0.029	0.015	0.000	-0.098	0.024	0.044	2.646	1.870	1.865	1.870	1.890	1.865	1.890
0.010	-0.015	0.005	0.000	-0.098	0.039	0.039	2.632	1.865	1.870	1.870	1.890	1.875	1.890
0.000	0.010	0.010	0.000	0.010	0.063	0.044	2.627	1.865	1.875	1.870	1.890	1.904	1.899
0.000	0.010	0.010	0.000	0.132	0.063	0.039	2.686	1.870	1.870	1.870	1.895	1.934	1.909
-0.005	0.015	0.005	-0.005	0.264	0.059	0.039	2.651	1.870	1.870	1.870	1.895	1.958	1.929
-0.010	0.000	-0.005	0.000	0.322	0.049	0.044	2.656	1.870	1.870	1.870	1.895	1.953	1.934
-0.010	0.005	-0.005	0.000	0.225	0.044	0.039	2.632	1.875	1.870	1.870	1.890	1.904	1.919
-0.005	0.024	-0.015	0.000	0.117	0.010	0.039	2.671	1.880	1.875	1.870	1.885	1.870	1.895
-0.015	0.010	-0.010	0.005	0.024	0.010	0.039	2.612	1.870	1.875	1.870	1.880	1.851	1.880
0.000	0.015	-0.005	0.010	-0.015	0.000	0.039	2.651	1.870	1.870	1.870	1.885	1.851	1.870
0.005	0.005	-0.005	0.005	-0.059	0.000	0.044	2.612	1.865	1.870	1.870	1.880	1.846	1.860
0.000	-0.015	0.010	0.000	-0.078	0.000	0.039	2.661	1.875	1.865	1.870	1.885	1.851	1.855
0.000	-0.020	0.005	-0.005	-0.083	-0.010	0.044	2.651	1.885	1.865	1.870	1.885	1.855	1.851
0.005	-0.039	-0.005	-0.005	-0.093	0.000	0.039	2.720	1.875	1.865	1.865	1.880	1.860	1.855
0.010	-0.034	0.010	-0.005	-0.093	0.000	0.039	2.632	1.870	1.870	1.870	1.885	1.865	1.860
0.010	-0.010	0.020	0.000	-0.078	0.000	0.044	2.695	1.870	1.875	1.870	1.885	1.870	1.865
0.005	-0.024	0.020	0.005	-0.054	0.000	0.044	2.676	1.870	1.870	1.870	1.885	1.885	1.870
0.010	-0.024	0.015	0.000	-0.029	0.005	0.039	2.666	1.870	1.870	1.865	1.885	1.885	1.875
0.005	-0.015	0.010	0.000	-0.024	0.000	0.039	2.676	1.865	1.870	1.870	1.885	1.890	1.875
0.005	-0.020	0.015	-0.005	-0.020	0.010	0.039	2.671	1.870	1.870	1.870	1.885	1.890	1.880
0.010	0.005	0.010	0.000	-0.010	0.000	0.044	2.710	1.880	1.875	1.870	1.885	1.885	1.880
0.005	0.015	0.015	0.005	-0.020	-0.005	0.044	2.681	1.875	1.880	1.870	1.885	1.885	1.880
0.005	0.010	0.024	0.010	-0.020	0.000	0.039	2.695	1.875	1.875	1.875	1.890	1.885	1.885
0.000	0.020	0.010	0.020	-0.005	-0.024	0.044	2.671	1.880	1.880	1.870	1.890	1.890	1.875
-0.005	0.020	0.005	0.010	-0.005	0.000	0.044	2.705	1.875	1.875	1.870	1.890	1.890	1.885
-0.005	0.020	-0.010	-0.005	0.000	-0.005	0.039	2.671	1.875	1.875	1.870	1.885	1.890	1.885
-0.015	0.049	-0.020	-0.010	0.010	0.000	0.039	2.705	1.875	1.880	1.870	1.885	1.890	1.885
-0.015	0.044	-0.005	-0.015	0.020	-0.010	0.044	2.700	1.875	1.880	1.875	1.885	1.890	1.885
-0.024	0.034	0.005	-0.020	0.010	-0.005	0.039	2.695	1.875	1.875	1.880	1.885	1.885	1.880
-0.020	0.020	0.020	-0.005	0.010	-0.005	0.039	2.700	1.875	1.870	1.880	1.895	1.885	1.880
-0.010	0.010	0.020	-0.005	0.010	-0.005	0.039	2.671	1.880	1.870	1.875	1.895	1.885	1.885
0.000	-0.005	0.020	0.015	0.010	-0.015	0.044	2.671	1.880	1.870	1.875	1.899	1.890	1.885
0.000	-0.010	0.020	0.010	0.010	-0.005	0.039	2.686	1.880	1.870	1.870	1.895	1.890	1.885
0.010	-0.020	0.015	0.020	0.010	-0.010	0.039	2.690	1.880	1.870	1.870	1.895	1.890	1.880
0.024	0.005	0.015	0.010	0.010	-0.005	0.039	2.676	1.880	1.880	1.875	1.890	1.890	1.890
0.005	0.000	0.020	0.000	0.015	0.000	0.039	2.671	1.875	1.875	1.870	1.890	1.885	1.890
0.005	-0.024	0.024	0.005	0.010	0.020	0.039	2.671	1.875	1.870	1.870	1.885	1.885	1.890
0.005	-0.015	0.015	0.000	0.005	-0.005	0.039	2.676	1.870	1.870	1.870	1.885	1.880	1.885
0.010	-0.010	0.020	0.005	0.015	0.010	0.044	2.651	1.870	1.870	1.870	1.885	1.885	1.885
0.005	-0.024	0.029	0.005	0.015	-0.005	0.039	2.656	1.870	1.865	1.870	1.885	1.880	1.880
0.005	0.005	-0.005	0.005	0.010	0.010	0.039	2.671	1.870	1.875	1.865	1.885	1.880	1.885
0.005	-0.029	-0.010	0.010	0.015	-0.005	0.044	2.642	1.865	1.860	1.860	1.885	1.880	1.880
-0.005	-0.015	-0.015	0.005	0.000	0.000	0.039	2.651	1.865	1.870	1.865	1.880	1.880	1.880
0.005	0.054	-0.015	0.000	0.005	0.010	0.039	2.676	1.875	1.890	1.870	1.880	1.880	1.885
0.005	0.063	-0.010	0.000	0.000	0.005	0.044	2.632	1.870	1.880	1.875	1.885	1.875	1.880
-0.005	0.015	-0.005	-0.005	0.010	0.000	0.039	2.686	1.870	1.865	1.870	1.885	1.880	1.880
-0.005	0.010	0.000	0.000	0.000	0.000	0.039	2.632	1.865	1.865	1.870	1.890	1.880	1.875
-0.010	-0.020	0.015	-0.005	0.005	-0.005	0.044	2.666	1.865	1.855	1.870	1.885	1.880	1.875
0.000	-0.020	0.024	0.000	-0.005	0.000	0.039	2.627	1.865	1.855	1.865	1.890	1.880	1.875
0.005	-0.039	0.010	0.000	-0.010	-0.005	0.039	2.666	1.860	1.851	1.860	1.880	1.875	1.875
0.000	-0.010	0.010	-0.005	0.005	-0.005	0.044	2.612	1.855	1.860	1.860	1.880	1.880	1.875
0.000	0.005	0.015	-0.005	0.015	0.000	0.039	2.622	1.855	1.860	1.860	1.875	1.880	1.880
0.010	-0.005	0.005	-0.005	0.010	-0.024	0.039	2.637	1.860	1.860	1.855	1.875	1.875	1.870
0.015	0.024	0.005	-0.010	0.010	0.000	0.039	2.656	1.865	1.870	1.860	1.875	1.875	1.875
0.000	0.015	-0.015	0.000	0.010	0.005	0.044	2.651	1.855	1.855	1.855	1.875	1.875	1.880
0.010	0.000	-0.010	0.005	0.005	0.000	0.039	2.705	1.865	1.851	1.855	1.875	1.870	1.875
-0.005	-0.010	-0.005	0.005	-0.020	-0.005	0.039	2.686	1.865	1.855	1.855	1.875	1.865	1.870
0.000	0.005	-0.010	0.015	-0.020	0.000	0.044	2.681	1.870	1.860	1.855	1.875	1.870	1.870
-0.005	0.005	-0.005	0.005	-0.010	-0.010	0.044	2.676	1.865	1.865	1.860	1.875	1.870	1.870
-0.010	0.029	-0.010	0.010	-0.020	-0.010	0.039	2.705	1.870	1.870	1.860	1.875	1.870	1.870
0.000	0.054	-0.005	0.010	-0.020	-0.010	0.044	2.700	1.875	1.880	1.870	1.880	1.870	1.870
-0.010	0.024	-0.005	0.005	-0.015	0.000	0.044	2.676	1.870	1.870	1.865	1.880	1.875	1.870
-0.010	-0.010	-0.005	0.005	0.000	0.020	0.039	2.700	1.870	1.855	1.860	1.880	1.880	1.875
0.015	-0.029	0.010	0.005	-0.005	0.010	0.044	2.676	1.875	1.860	1.865	1.880	1.875	1.875
0.005	-0.029	0.015	0.005	-0.005	0.005	0.039	2.700	1.875	1.860	1.865	1.880	1.875	1.875
0.000	-0.024	0.005	0.000	0.005	-0.010	0.044	2.681	1.870	1.865	1.860	1.875	1.875	1.870
0.000	-0.024	0.005	-0.005	0.015	0.000	0.039	2.705	1.875	1.865	1.860	1.875	1.875	1.875
-0.005	-0.005	0.010	-0.015	0.010	0.005	0.044	2.705	1.875	1.870	1.865	1.875	1.875	1.875
0.000	0.005	0.010	-0.020	0.000	0.000	0.039	2.681	1.875	1.875	1.865	1.875	1.870	1.875
0.000	0.005	0.015	-0.010	0.010	0.029	0.044	2.671	1.880	1.875	1.870	1.880	1.875	1.880
0.010	0.005	0.000	0.000	-0.010	0.034	0.039	2.671	1.875	1.875	1.870	1.885	1.870	1.880
0.015	0.020	0.020	0.010	0.005	0.034	0.039	2.681	1.875	1.880	1.875	1.890	1.880	1.880
0.000	0.020	0.000	0.015	0.015	0.034	0.044	2.681	1.870	1.875	1.870	1.890	1.885	1.880
-0.010	0.024	-0.005	0.015	0.015	0.024	0.039	2.695	1.870	1.875	1.870	1.890	1.885	1.875
0.000	0.015	-0.010	0.010	-0.005	0.000	0.039	2.676	1.875	1.870	1.870	1.890	1.875	1.870
-0.005	0.005	-0.020	0.015	-0.015	-0.024	0.044	2.681	1.875	1.870	1.865	1.885	1.875	1.865
0.000	0.010	-0.024	0.015	-0.044	-0.049	0.044	2.671	1.870	1.870	1.870	1.885	1.870	1.860
-0.010	0.000	-0.010	0.010	-0.044	-0.059	0.039	2.686	1.870	1.865	1.870	1.885	1.875	1.860
0.000	0.010	-0.010	0.015	-0.024	-0.059	0.039	2.646	1.870	1.870	1.870	1.890	1.880	1.865
0.000	0.010	-0.015	0.000	0.000	-0.039	0.039	2.661	1.880	1.870	1.870	1.880	1.885	1.875
0.000	0.015	-0.010	-0.005	0.005	-0.029	0.044	2.666	1.875	1.870	1.870	1.880	1.885	1.880
-0.020	0.029	-0.015	-0.020	-0.005	-0.005	0.044	2.788	1.860	1.870	1.870	1.880	1.880	1.885
-0.005	0.010	-0.015	-0.029	-0.005	0.020	0.039	2.642	1.865	1.865	1.865	1.880	1.880	1.890
-0.005	-0.005	-0.005	-0.015	-0.005	0.020	0.039	2.686	1.865	1.860	1.870	1.880	1.880	1.890
0.015	-0.034	0.010	0.000	-0.024	0.010	0.039	2.715	1.875	1.860	1.870	1.885	1.875	1.880
0.005	-0.020	0.024	0.000	-0.024	-0.010	0.044	2.671	1.875	1.865	1.870	1.890	1.875	1.870
0.010	-0.010	0.024	0.015	-0.015	0.020	0.044	2.739	1.875	1.870	1.870	1.890	1.885	1.885
0.000	-0.010	0.015	0.015	-0.005	0.029	0.039	2.690	1.870	1.870	1.865	1.890	1.885	1.885
-0.010	0.000	0.005	0.010	-0.029	0.034	0.039	2.617	1.865	1.870	1.865	1.885	1.880	1.885
-0.005	0.005	-0.005	0.005	-0.010	0.024	0.044	2.681	1.870	1.870	1.865	1.885	1.880	1.880
0.000	0.010	-0.010	0.005	-0.029	0.010	0.039	2.642	1.865	1.870	1.865	1.880	1.875	1.875
0.015	0.005	-0.029	0.000	-0.010	0.015	0.039	2.725	1.875	1.870	1.860	1.880	1.880	1.880
0.005	0.005	-0.024	0.015	0.010	0.010	0.044	2.632	1.870	1.870	1.865	1.880	1.885	1.880
0.000	-0.005	-0.015	0.005	0.024	0.005	0.039	2.622	1.865	1.865	1.870	1.885	1.890	1.880
0.000	0.000	-0.020	0.000	0.044	0.020	0.044	2.656	1.865	1.865	1.865	1.880	1.890	1.885
0.000	0.000	-0.005	0.000	0.049	0.020	0.039	2.671	1.865	1.865	1.870	1.880	1.885	1.885
0.005	0.010	-0.010	-0.005	0.000	0.020	0.039	2.676	1.870	1.870	1.870	1.880	1.870	1.885
-0.005	-0.005	0.010	0.000	0.005	0.015	0.039	2.676	1.870	1.865	1.870	1.885	1.875	1.880
0.000	-0.010	0.020	0.005	0.044	0.000	0.039	2.681	1.870	1.865	1.870	1.890	1.890	1.875
0.005	-0.005	0.015	0.005	0.078	-0.020	0.039	2.700	1.870	1.865	1.870	1.890	1.899	1.875
0.000	0.005	0.024	0.005	0.093	0.015	0.039	2.671	1.870	1.875	1.870	1.890	1.899	1.890
0.005	0.005	0.029	0.005	0.059	0.000	0.039	2.676	1.875	1.870	1.870	1.885	1.885	1.885
0.010	0.020	0.020	0.005	0.034	0.010	0.039	2.690	1.875	1.875	1.870	1.885	1.875	1.885
0.005	0.010	0.005	0.015	0.000	0.005	0.039	2.676	1.875	1.870	1.865	1.885	1.870	1.875
0.005	0.000	0.000	0.015	0.015	0.010	0.039	2.705	1.875	1.870	1.865	1.885	1.875	1.880
0.010	0.020	-0.005	0.005	0.010	0.000	0.039	2.676	1.875	1.875	1.865	1.880	1.875	1.875
0.000	0.020	-0.015	0.000	0.005	0.020	0.044	2.705	1.875	1.875	1.865	1.880	1.875	1.880
0.000	0.000	-0.024	-0.005	-0.015	0.015	0.039	2.705	1.875	1.865	1.860	1.875	1.870	1.875
-0.010	-0.049	-0.024	-0.010	-0.034	-0.005	0.039	2.695	1.875	1.855	1.860	1.875	1.865	1.865
-0.020	-0.024	-0.020	-0.020	-0.010	0.005	0.039	2.681	1.870	1.865	1.865	1.875	1.875	1.870
-0.015	0.005	-0.010	-0.010	0.029	0.005	0.044	2.695	1.875	1.880	1.870	1.880	1.885	1.875
0.005	-0.005	-0.005	-0.005	0.044	0.000	0.044	2.710	1.885	1.875	1.870	1.885	1.890	1.875
-0.005	-0.015	0.005	0.005	0.029	-0.005	0.039	2.686	1.875	1.870	1.875	1.890	1.885	1.875
0.005	-0.005	0.010	0.010	-0.010	0.005	0.039	2.705	1.880	1.875	1.875	1.890	1.875	1.875
0.010	-0.024	0.005	0.000	-0.029	0.000	0.039	2.666	1.880	1.870	1.870	1.885	1.870	1.875
0.010	-0.015	0.010	0.010	-0.029	0.005	0.039	2.690	1.875	1.875	1.875	1.890	1.875	1.875
-0.005	0.005	0.015	0.010	-0.024	0.005	0.039	2.676	1.870	1.880	1.875	1.890	1.880	1.875
0.010	0.015	0.015	0.015	-0.029	0.029	0.039	2.686	1.875	1.880	1.875	1.890	1.880	1.880
-0.010	0.015	0.029	0.010	-0.015	0.005	0.039	2.656	1.870	1.875	1.880	1.895	1.885	1.880
0.000	0.010	0.015	0.010	-0.010	-0.005	0.044	2.646	1.865	1.870	1.875	1.890	1.890	1.875
0.000	0.005	0.010	0.005	-0.015	-0.024	0.039	2.671	1.865	1.870	1.870	1.890	1.885	1.875
0.000	0.005	-0.015	0.005	-0.024	-0.029	0.039	2.642	1.860	1.865	1.860	1.885	1.880	1.875
0.005	-0.010	-0.010	-0.005	-0.039	-0.024	0.039	2.651	1.865	1.860	1.860	1.880	1.875	1.875
0.000	-0.005	-0.020	-0.015	-0.059	-0.015	0.039	2.686	1.865	1.860	1.860	1.875	1.870	1.875
0.010	-0.005	-0.020	-0.010	-0.088	-0.029	0.039	2.651	1.865	1.860	1.860	1.875	1.865	1.870
0.005	0.010	-0.010	0.000	-0.083	-0.015	0.044	2.695	1.870	1.865	1.865	1.885	1.870	1.870
0.000	0.000	0.005	-0.005	-0.063	-0.005	0.039	2.671	1.870	1.865	1.865	1.880	1.875	1.875
0.005	0.005	0.010	0.000	-0.049	-0.005	0.039	2.661	1.870	1.865	1.870	1.885	1.880	1.880
0.005	0.010	0.024	0.000	-0.044	0.005	0.039	2.627	1.865	1.870	1.875	1.885	1.880	1.880
0.005	0.024	0.015	0.000	-0.034	0.000	0.044	2.676	1.870	1.870	1.870	1.885	1.885	1.880
-0.010	0.039	0.020	0.000	0.000	-0.024	0.039	2.715	1.860	1.870	1.870	1.885	1.890	1.875
-0.005	-0.005	0.039	0.005	0.029	0.000	0.044	2.632	1.855	1.855	1.870	1.890	1.899	1.890
0.000	-0.015	0.020	0.000	0.059	0.000	0.039	2.729	1.870	1.855	1.865	1.885	1.904	1.895
0.000	-0.020	0.024	-0.005	0.063	0.000	0.039	2.754	1.880	1.860	1.860	1.880	1.895	1.895
0.000	-0.024	0.034	-0.005	0.059	0.000	0.039	2.632	1.875	1.860	1.860	1.880	1.890	1.890
0.020	-0.015	0.024	0.000	0.049	-0.005	0.039	2.705	1.880	1.870	1.865	1.880	1.880	1.890
0.010	-0.024	0.020	0.000	0.039	0.000	0.039	2.671	1.875	1.865	1.860	1.880	1.880	1.885
0.015	-0.010	0.015	0.005	0.044	-0.010	0.044	2.690	1.880	1.875	1.865	1.880	1.875	1.880
0.015	0.015	-0.005	0.010	0.039	0.000	0.039	2.666	1.880	1.880	1.865	1.880	1.875	1.880
0.005	0.020	-0.015	0.010	0.039	0.015	0.039	2.681	1.875	1.880	1.865	1.880	1.875	1.880
0.005	0.020	-0.034	0.010	0.039	0.010	0.044	2.700	1.880	1.880	1.865	1.880	1.875	1.880
0.000	0.024	-0.034	0.010	0.024	0.000	0.039	2.681	1.875	1.875	1.870	1.880	1.875	1.875
-0.005	0.010	0.005	-0.005	0.024	0.010	0.039	2.700	1.875	1.875	1.875	1.880	1.875	1.875
-0.005	0.015	-0.020	-0.010	0.024	0.000	0.044	2.676	1.875	1.875	1.870	1.880	1.875	1.875
0.000	0.020	-0.020	-0.010	0.024	0.020	0.039	2.710	1.875	1.875	1.870	1.885	1.875	1.880
0.000	0.020	-0.020	-0.005	0.020	0.020	0.039	2.676	1.875	1.875	1.870	1.885	1.875	1.875
-0.015	0.015	-0.020	0.005	0.010	-0.005	0.044	2.710	1.875	1.870	1.870	1.890	1.875	1.870
-0.010	-0.015	-0.005	0.010	0.005	-0.005	0.044	2.705	1.875	1.865	1.870	1.890	1.880	1.875
-0.015	-0.034	0.010	0.005	0.010	-0.005	0.039	2.700	1.870	1.860	1.870	1.890	1.880	1.875
-0.010	-0.039	0.015	0.005	0.010	-0.015	0.039	2.676	1.875	1.860	1.870	1.890	1.880	1.875
-0.005	-0.020	0.024	0.005	-0.010	-0.010	0.039	2.676	1.875	1.870	1.870	1.885	1.875	1.875
-0.005	0.005	0.020	0.010	-0.015	-0.020	0.039	2.681	1.875	1.875	1.870	1.890	1.875	1.875
0.020	0.020	0.015	0.005	-0.005	0.000	0.039	2.671	1.880	1.880	1.875	1.885	1.880	1.880
0.020	0.068	0.000	0.000	0.000	0.015	0.039	2.695	1.885	1.895	1.875	1.885	1.880	1.885
0.020	0.059	-0.005	0.000	0.000	0.015	0.039	2.671	1.875	1.885	1.875	1.890	1.885	1.885
0.029	0.005	-0.020	-0.005	0.015	0.010	0.039	2.671	1.875	1.870	1.870	1.885	1.890	1.885
0.034	-0.049	-0.024	0.005	0.034	0.010	0.044	2.671	1.870	1.855	1.865	1.885	1.890	1.885
0.015	-0.049	-0.010	0.005	0.049	0.005	0.039	2.681	1.870	1.860	1.865	1.885	1.890	1.885
0.015	-0.020	-0.005	0.000	0.059	0.020	0.044	2.646	1.870	1.870	1.870	1.890	1.895	1.890
0.000	0.015	-0.005	-0.005	0.068	0.005	0.039	2.656	1.870	1.875	1.870	1.885	1.895	1.885
-0.010	0.034	-0.010	-0.005	0.059	0.020	0.039	2.666	1.870	1.875	1.870	1.885	1.890	1.890
-0.024	0.039	-0.010	-0.005	0.020	0.005	0.039	2.646	1.865	1.875	1.870	1.885	1.875	1.880
-0.029	0.005	0.010	-0.005	0.000	0.005	0.039	2.646	1.860	1.860	1.870	1.890	1.875	1.875
-0.010	-0.015	-0.005	0.005	-0.010	0.010	0.039	2.681	1.870	1.855	1.865	1.885	1.870	1.880
0.005	-0.010	0.005	0.005	-0.039	0.005	0.039	2.749	1.880	1.865	1.865	1.885	1.870	1.870
0.005	-0.029	0.015	0.005	-0.044	0.020	0.039	2.690	1.880	1.860	1.865	1.885	1.870	1.875
0.015	-0.034	0.005	0.000	-0.039	-0.020	0.039	2.744	1.885	1.870	1.865	1.880	1.870	1.860
0.005	-0.005	0.010	0.000	-0.044	0.005	0.044	2.686	1.880	1.875	1.870	1.880	1.870	1.875
0.010	-0.005	0.010	0.000	-0.054	0.005	0.039	2.715	1.880	1.875	1.870	1.880	1.870	1.870
0.000	-0.005	0.010	0.000	-0.059	-0.005	0.039	2.778	1.885	1.875	1.870	1.885	1.870	1.870
0.000	0.015	0.005	0.000	-0.059	0.010	0.039	2.617	1.885	1.880	1.875	1.885	1.875	1.875
-0.005	0.010	0.005	-0.005	-0.059	-0.020	0.039	2.637	1.875	1.880	1.870	1.885	1.875	1.870
-0.015	0.005	-0.005	-0.015	-0.059	-0.020	0.039	2.749	1.875	1.875	1.870	1.885	1.875	1.865
-0.020	0.005	-0.015	-0.010	-0.044	-0.015	0.039	2.651	1.870	1.875	1.870	1.885	1.880	1.875
-0.020	0.005	-0.005	0.000	-0.039	-0.005	0.044	2.627	1.870	1.875	1.875	1.890	1.885	1.880
-0.005	0.020	0.000	0.000	-0.024	0.024	0.039	2.681	1.875	1.875	1.875	1.895	1.890	1.890
0.005	0.034	-0.005	0.020	-0.020	0.010	0.039	2.681	1.875	1.880	1.875	1.899	1.895	1.885
0.010	0.024	0.005	0.024	-0.005	0.010	0.039	2.705	1.875	1.875	1.880	1.899	1.899	1.890
0.000	0.015	0.020	0.024	0.005	0.010	0.039	2.671	1.875	1.870	1.880	1.899	1.899	1.895
-0.005	-0.020	0.020	0.020	0.010	-0.005	0.044	2.690	1.870	1.865	1.870	1.895	1.899	1.890
0.000	-0.020	0.010	0.000	0.015	0.010	0.039	2.710	1.875	1.865	1.870	1.890	1.895	1.895
0.005	-0.034	0.005	-0.010	0.015	0.000	0.039	2.681	1.875	1.860	1.865	1.885	1.890	1.890
0.005	-0.024	0.010	-0.010	0.024	0.005	0.044	2.681	1.875	1.870	1.870	1.880	1.890	1.895
-0.005	0.000	0.020	-0.020	0.029	0.000	0.039	2.700	1.875	1.875	1.870	1.880	1.885	1.890
0.010	-0.015	0.015	-0.015	0.015	0.005	0.039	2.705	1.880	1.875	1.870	1.885	1.880	1.890
0.020	0.010	0.020	0.000	-0.015	0.020	0.039	2.676	1.880	1.885	1.875	1.890	1.875	1.890
0.020	0.063	0.000	0.005	-0.024	0.015	0.039	2.710	1.885	1.895	1.875	1.890	1.875	1.880
0.010	0.015	-0.010	0.005	-0.029	0.015	0.039	2.705	1.880	1.875	1.870	1.890	1.875	1.880
0.010	0.000	-0.005	0.020	-0.034	0.010	0.039	2.666	1.875	1.870	1.875	1.890	1.880	1.875
0.005	-0.005	-0.005	0.020	-0.029	0.020	0.039	2.700	1.875	1.870	1.875	1.895	1.880	1.880
-0.005	-0.015	-0.005	0.020	-0.020	0.015	0.044	2.681	1.875	1.870	1.870	1.890	1.885	1.875
-0.005	-0.015	0.000	0.020	0.005	0.020	0.039	2.695	1.875	1.870	1.870	1.890	1.895	1.885
-0.005	-0.005	-0.015	0.005	0.005	0.000	0.039	2.700	1.875	1.870	1.870	1.885	1.890	1.880
0.000	-0.010	-0.020	-0.024	0.015	-0.024	0.039	2.700	1.880	1.870	1.870	1.875	1.885	1.875
-0.020	-0.024	-0.015	-0.034	0.024	-0.044	0.044	2.671	1.870	1.870	1.870	1.875	1.885	1.875
-0.020	-0.010	-0.010	-0.029	0.034	-0.015	0.039	2.700	1.875	1.875	1.870	1.885	1.885	1.885
0.005	0.005	0.005	-0.005	0.054	0.000	0.039	2.671	1.880	1.880	1.880	1.890	1.895	1.890
0.010	-0.005	0.005	0.020	0.049	-0.005	0.039	2.695	1.880	1.880	1.875	1.899	1.895	1.890
0.024	0.015	0.020	0.024	0.029	-0.010	0.039	2.651	1.885	1.885	1.885	1.904	1.885	1.885
0.015	0.029	0.020	0.015	0.005	0.005	0.039	2.661	1.875	1.890	1.880	1.899	1.880	1.890
-0.024	0.049	0.015	0.020	0.005	0.005	0.044	2.656	1.860	1.880	1.880	1.899	1.890	1.890
-0.029	0.034	0.034	0.015	0.020	0.005	0.039	2.637	1.855	1.870	1.885	1.899	1.895	1.890
-0.020	0.015	0.024	0.010	0.039	0.000	0.039	2.637	1.860	1.865	1.875	1.895	1.899	1.890
0.000	0.015	0.015	0.005	0.049	0.015	0.044	2.681	1.875	1.865	1.870	1.890	1.899	1.895
0.005	0.020	0.015	0.000	0.063	0.005	0.039	2.739	1.885	1.870	1.870	1.890	1.899	1.895
0.005	0.005	0.005	-0.005	0.063	0.000	0.044	2.676	1.880	1.870	1.865	1.885	1.895	1.895
-0.010	-0.005	0.000	-0.005	0.073	-0.010	0.039	2.637	1.875	1.870	1.865	1.885	1.895	1.890
-0.015	0.005	-0.005	-0.005	0.063	0.005	0.039	2.686	1.875	1.870	1.865	1.885	1.890	1.890
-0.010	0.034	-0.020	-0.024	0.044	0.015	0.039	2.739	1.885	1.880	1.865	1.880	1.880	1.890
0.000	0.010	-0.015	-0.005	0.034	-0.005	0.039	2.773	1.895	1.875	1.870	1.885	1.875	1.880
-0.005	-0.010	-0.020	0.010	0.024	0.005	0.044	2.637	1.880	1.875	1.870	1.890	1.875	1.880
0.005	-0.010	-0.010	0.015	0.020	0.005	0.039	2.637	1.880	1.875	1.875	1.890	1.875	1.880
0.015	-0.034	-0.015	0.000	0.000	0.010	0.039	2.734	1.885	1.870	1.870	1.885	1.875	1.880
0.029	-0.054	-0.005	-0.010	-0.010	0.005	0.039	2.759	1.890	1.870	1.875	1.885	1.875	1.875
0.020	-0.034	0.015	-0.015	-0.015	0.015	0.039	2.627	1.885	1.880	1.875	1.890	1.875	1.875
0.029	-0.049	0.015	0.000	-0.020	0.000	0.039	2.705	1.885	1.875	1.875	1.890	1.875	1.875
0.015	-0.034	0.020	0.024	-0.005	0.000	0.044	2.661	1.875	1.880	1.875	1.899	1.885	1.880
0.010	-0.010	0.005	0.029	0.000	0.000	0.039	2.666	1.870	1.880	1.875	1.899	1.890	1.880
0.005	-0.010	0.000	0.020	0.020	0.005	0.039	2.690	1.870	1.880	1.875	1.895	1.895	1.885
0.005	0.000	0.005	0.015	0.039	-0.005	0.039	2.686	1.875	1.880	1.875	1.890	1.899	1.885
0.000	-0.005	0.000	0.010	0.049	-0.005	0.039	2.710	1.875	1.875	1.875	1.895	1.899	1.890
-0.020	0.010	0.005	0.010	0.054	0.000	0.044	2.681	1.870	1.880	1.875	1.895	1.899	1.890
-0.020	0.024	-0.005	-0.005	0.059	-0.010	0.039	2.681	1.870	1.880	1.875	1.885	1.895	1.890
-0.020	0.039	-0.005	-0.015	0.068	-0.020	0.039	2.695	1.875	1.880	1.875	1.890	1.895	1.890
-0.020	0.063	-0.015	-0.015	0.063	0.015	0.039	2.710	1.885	1.890	1.875	1.890	1.890	1.899
0.005	0.005	-0.029	-0.005	0.059	0.005	0.039	2.666	1.885	1.870	1.870	1.890	1.890	1.890
0.010	-0.029	-0.015	-0.010	0.049	-0.005	0.039	2.700	1.885	1.865	1.870	1.890	1.885	1.885
0.000	0.000	-0.015	-0.010	0.044	0.005	0.039	2.710	1.885	1.880	1.875	1.890	1.885	1.885
0.010	0.005	0.000	0.000	0.039	-0.015	0.039	2.666	1.885	1.885	1.875	1.895	1.885	1.880
0.000	0.000	0.000	-0.010	0.034	0.000	0.039	2.695	1.880	1.875	1.875	1.890	1.885	1.890
-0.015	-0.020	0.005	-0.005	0.024	0.000	0.039	2.671	1.870	1.875	1.875	1.895	1.885	1.880
-0.005	0.000	0.005	0.005	0.024	0.015	0.039	2.671	1.880	1.880	1.880	1.895	1.885	1.890
0.005	0.005	0.000	0.010	0.010	0.005	0.039	2.695	1.880	1.880	1.875	1.899	1.885	1.885
0.000	0.049	-0.005	0.020	0.005	-0.005	0.044	2.705	1.880	1.890	1.880	1.899	1.885	1.880
0.005	0.020	-0.015	0.015	0.000	0.005	0.044	2.671	1.875	1.875	1.875	1.895	1.885	1.885
0.000	0.034	-0.015	0.005	-0.010	0.000	0.039	2.681	1.880	1.885	1.875	1.895	1.880	1.880
0.000	0.049	-0.005	0.005	-0.020	0.000	0.044	2.681	1.875	1.880	1.880	1.895	1.880	1.880
0.005	0.034	0.015	0.005	-0.029	0.000	0.039	2.690	1.875	1.880	1.885	1.895	1.880	1.880
0.005	0.044	0.000	0.005	-0.034	-0.005	0.044	2.642	1.875	1.875	1.880	1.895	1.885	1.880
0.010	0.010	0.000	0.000	-0.020	-0.005	0.039	2.661	1.870	1.870	1.875	1.895	1.890	1.885
-0.010	-0.020	0.010	-0.005	-0.024	-0.010	0.039	2.666	1.865	1.860	1.870	1.890	1.885	1.880
0.005	-0.020	-0.005	0.000	-0.029	0.000	0.039	2.646	1.870	1.860	1.865	1.890	1.885	1.885
0.010	-0.020	-0.005	0.005	-0.024	-0.029	0.039	2.646	1.870	1.865	1.865	1.890	1.885	1.875
0.010	-0.039	0.000	0.005	-0.034	-0.015	0.039	2.681	1.870	1.860	1.865	1.885	1.880	1.880
-0.010	-0.034	0.010	-0.005	-0.049	-0.010	0.039	2.637	1.865	1.860	1.865	1.885	1.875	1.880
0.000	-0.039	0.010	0.005	-0.068	0.000	0.039	2.656	1.865	1.865	1.865	1.880	1.870	1.880
-0.010	-0.029	0.005	0.005	-0.063	0.005	0.044	2.627	1.865	1.865	1.865	1.880	1.875	1.880
0.000	0.044	0.010	-0.010	-0.063	0.005	0.039	2.671	1.870	1.885	1.870	1.880	1.875	1.880
0.005	0.005	0.029	-0.010	-0.044	-0.010	0.039	2.646	1.870	1.865	1.870	1.885	1.880	1.875
0.010	-0.024	0.024	0.000	-0.039	0.005	0.039	2.651	1.865	1.860	1.870	1.885	1.880	1.880
0.010	-0.024	0.039	-0.015	-0.024	0.010	0.039	2.612	1.860	1.860	1.870	1.880	1.885	1.885
0.015	-0.024	0.029	-0.010	-0.010	0.010	0.039	2.622	1.865	1.860	1.860	1.885	1.885	1.885
0.015	-0.034	0.020	-0.005	0.005	-0.010	0.039	2.744	1.875	1.860	1.860	1.885	1.890	1.880
0.024	-0.020	0.010	0.000	0.029	0.000	0.039	2.637	1.875	1.870	1.860	1.880	1.895	1.885
0.024	0.015	0.010	0.015	0.068	0.005	0.039	2.661	1.875	1.875	1.865	1.890	1.899	1.890
0.024	0.020	0.005	0.024	0.078	0.005	0.039	2.681	1.880	1.875	1.870	1.890	1.899	1.895
0.020	0.000	-0.005	0.024	0.073	-0.020	0.044	2.690	1.880	1.875	1.865	1.885	1.890	1.885
0.024	0.000	-0.010	-0.010	0.054	-0.024	0.039	2.676	1.875	1.870	1.865	1.875	1.880	1.885
-0.024	0.044	-0.015	-0.039	0.054	0.010	0.039	2.695	1.865	1.880	1.870	1.870	1.875	1.890
-0.039	0.039	-0.020	-0.034	0.049	0.000	0.039	2.690	1.870	1.875	1.865	1.875	1.875	1.880
-0.020	0.034	-0.015	0.010	0.044	0.015	0.039	2.705	1.875	1.875	1.875	1.890	1.875	1.885
0.005	0.044	0.015	0.044	0.020	0.005	0.039	2.686	1.885	1.880	1.880	1.904	1.875	1.880
-0.005	0.020	-0.005	0.039	0.015	0.000	0.044	2.705	1.880	1.875	1.870	1.895	1.880	1.875
-0.010	0.010	0.005	0.034	0.015	0.010	0.039	2.676	1.875	1.870	1.875	1.895	1.880	1.880
-0.005	-0.005	0.010	0.044	0.020	-0.005	0.039	2.700	1.880	1.870	1.875	1.895	1.885	1.875
-0.005	-0.005	0.010	0.020	0.034	0.015	0.039	2.686	1.880	1.870	1.870	1.890	1.890	1.885
-0.020	0.000	0.020	0.000	0.034	0.010	0.039	2.695	1.875	1.870	1.870	1.880	1.890	1.885
-0.024	0.000	0.015	-0.005	0.044	0.010	0.039	2.710	1.875	1.870	1.870	1.885	1.885	1.885
-0.010	-0.015	0.024	-0.020	0.039	-0.005	0.039	2.705	1.885	1.870	1.870	1.880	1.880	1.875
0.005	-0.029	0.010	-0.015	0.039	-0.005	0.039	2.666	1.880	1.870	1.870	1.880	1.880	1.880
0.024	0.000	0.005	0.000	0.024	0.000	0.039	2.666	1.880	1.885	1.870	1.885	1.875	1.880
0.015	0.044	0.000	0.000	0.015	-0.005	0.039	2.700	1.885	1.895	1.875	1.890	1.875	1.875
-0.020	0.039	0.010	0.000	0.005	0.005	0.039	2.676	1.870	1.885	1.880	1.890	1.880	1.875
-0.059	0.015	-0.010	-0.005	-0.005	0.015	0.039	2.695	1.860	1.870	1.870	1.890	1.875	1.880
-0.020	0.024	-0.020	-0.015	-0.015	0.015	0.039	2.676	1.875	1.875	1.870	1.885	1.875	1.880
-0.015	-0.024	-0.010	-0.024	-0.024	0.020	0.039	2.681	1.875	1.865	1.870	1.880	1.875	1.875
0.005	-0.039	-0.015	-0.015	-0.020	-0.005	0.044	2.676	1.880	1.865	1.870	1.885	1.875	1.875
0.020	0.000	-0.010	-0.005	-0.029	0.010	0.039	2.690	1.885	1.880	1.870	1.890	1.875	1.875
0.020	-0.020	-0.005	-0.005	-0.039	-0.010	0.039	2.642	1.875	1.870	1.875	1.890	1.875	1.870
0.015	-0.015	0.005	-0.005	-0.034	0.010	0.039	2.661	1.875	1.875	1.875	1.890	1.880	1.875
0.024	0.010	0.015	0.005	-0.049	0.005	0.039	2.651	1.875	1.875	1.875	1.895	1.880	1.875
0.039	-0.024	0.015	0.015	-0.059	0.005	0.039	2.646	1.870	1.870	1.875	1.895	1.880	1.875
0.034	0.005	0.024	0.010	-0.063	0.005	0.039	2.642	1.865	1.875	1.875	1.895	1.880	1.875
-0.005	-0.005	0.024	-0.005	-0.068	-0.005	0.039	2.676	1.860	1.865	1.870	1.885	1.880	1.875
-0.010	-0.005	0.034	0.005	-0.073	0.015	0.039	2.725	1.865	1.865	1.870	1.890	1.880	1.880
0.015	-0.054	0.034	0.005	-0.073	0.000	0.044	2.651	1.870	1.851	1.865	1.885	1.880	1.880
0.024	-0.083	0.015	0.005	-0.068	0.005	0.044	2.715	1.870	1.851	1.855	1.880	1.880	1.880
0.015	0.005	0.015	0.000	-0.063	-0.005	0.039	2.666	1.875	1.880	1.865	1.880	1.875	1.875
0.000	0.029	0.015	-0.005	-0.063	0.005	0.039	2.734	1.880	1.885	1.865	1.880	1.880	1.880
0.010	0.010	0.000	0.015	-0.059	-0.005	0.044	2.773	1.895	1.880	1.870	1.885	1.880	1.880
0.000	0.039	-0.005	0.020	-0.049	-0.024	0.044	2.622	1.880	1.885	1.870	1.890	1.885	1.875
-0.010	0.039	-0.005	0.005	-0.039	-0.020	0.039	2.651	1.870	1.880	1.875	1.885	1.885	1.880
-0.044	0.068	-0.015	0.000	-0.034	0.005	0.039	2.749	1.870	1.880	1.875	1.885	1.885	1.890
-0.039	0.044	-0.005	-0.005	-0.020	-0.015	0.044	2.637	1.865	1.870	1.875	1.890	1.890	1.880
-0.020	0.024	-0.005	0.010	-0.015	0.000	0.044	2.646	1.865	1.870	1.870	1.890	1.890	1.890
0.000	0.010	0.000	0.015	-0.015	0.000	0.039	2.666	1.870	1.865	1.870	1.895	1.890	1.890
0.015	0.005	0.005	0.010	-0.005	0.000	0.039	2.676	1.880	1.870	1.875	1.890	1.890	1.890
0.010	0.005	0.000	-0.005	-0.005	-0.005	0.044	2.671	1.875	1.870	1.870	1.885	1.885	1.885
-0.010	0.010	0.005	0.000	-0.005	-0.024	0.044	2.681	1.870	1.870	1.870	1.885	1.885	1.875
-0.005	0.010	0.010	0.010	-0.005	0.005	0.039	2.695	1.870	1.870	1.870	1.890	1.890	1.890
0.010	0.020	0.015	0.005	-0.005	0.010	0.044	2.700	1.875	1.875	1.870	1.885	1.885	1.885
0.000	-0.024	0.024	0.000	0.000	-0.010	0.039	2.671	1.870	1.860	1.870	1.885	1.885	1.880
0.005	-0.039	0.010	0.005	0.005	-0.005	0.039	2.686	1.870	1.860	1.865	1.885	1.890	1.885
0.010	-0.039	0.020	0.005	0.000	0.020	0.044	2.695	1.875	1.865	1.865	1.885	1.885	1.890
0.005	-0.029	0.020	0.000	0.005	0.020	0.044	2.705	1.875	1.870	1.865	1.885	1.885	1.890
-0.005	-0.054	0.024	0.000	0.005	0.020	0.039	2.676	1.875	1.865	1.865	1.880	1.885	1.885
0.000	-0.063	-0.005	-0.005	0.000	0.010	0.039	2.700	1.875	1.860	1.855	1.875	1.875	1.880
0.005	-0.044	-0.024	-0.010	0.005	0.005	0.039	2.700	1.885	1.870	1.860	1.875	1.875	1.880
0.015	0.044	-0.015	0.000	0.015	0.010	0.039	2.676	1.890	1.904	1.875	1.880	1.880	1.880
0.005	0.010	-0.005	0.005	0.000	0.005	0.039	2.686	1.880	1.880	1.880	1.885	1.875	1.875
-0.005	0.020	0.005	0.000	0.000	0.010	0.039	2.666	1.875	1.890	1.880	1.890	1.880	1.880
0.000	0.117	0.010	0.000	-0.010	0.000	0.039	2.676	1.880	1.909	1.895	1.895	1.880	1.875
0.005	0.068	0.015	0.005	-0.015	0.005	0.044	2.676	1.880	1.885	1.890	1.904	1.885	1.880
0.010	-0.083	0.015	0.015	-0.015	0.020	0.039	2.710	1.875	1.841	1.875	1.899	1.885	1.880
0.010	-0.107	-0.005	0.005	-0.034	0.020	0.039	2.676	1.870	1.846	1.860	1.890	1.880	1.880
0.000	0.000	-0.005	0.000	-0.024	0.015	0.039	2.666	1.875	1.885	1.865	1.885	1.885	1.880
0.000	0.068	-0.005	-0.005	-0.010	0.015	0.039	2.676	1.875	1.890	1.875	1.885	1.885	1.885
0.010	0.059	0.015	-0.010	0.000	0.005	0.044	2.690	1.880	1.890	1.880	1.890	1.890	1.885
0.015	0.039	0.020	-0.005	0.000	-0.010	0.044	2.646	1.875	1.875	1.880	1.895	1.890	1.880
0.010	-0.029	0.020	0.010	0.005	0.000	0.044	2.651	1.870	1.855	1.875	1.895	1.890	1.885
0.010	-0.039	0.024	0.000	0.000	0.015	0.039	2.681	1.870	1.855	1.870	1.890	1.890	1.885
-0.015	-0.020	0.005	0.015	0.005	0.005	0.044	2.773	1.875	1.865	1.865	1.890	1.890	1.890
-0.024	0.010	-0.005	0.015	0.010	0.005	0.044	2.642	1.870	1.870	1.865	1.890	1.890	1.890
-0.024	0.029	-0.005	0.010	0.010	0.000	0.039	2.695	1.870	1.875	1.870	1.885	1.890	1.885
0.000	0.039	-0.015	0.010	0.015	-0.005	0.039	2.744	1.890	1.880	1.870	1.885	1.885	1.885
0.000	0.063	-0.005	0.010	0.015	0.005	0.044	2.661	1.885	1.890	1.875	1.890	1.890	1.885
-0.015	0.127	-0.010	0.000	0.010	-0.010	0.039	2.739	1.890	1.904	1.885	1.890	1.885	1.885
0.000	0.010	-0.020	-0.005	0.015	-0.024	0.039	2.666	1.880	1.870	1.875	1.890	1.885	1.880
0.000	-0.029	-0.020	0.000	0.020	-0.005	0.039	2.622	1.870	1.855	1.870	1.890	1.890	1.890
-0.010	-0.034	-0.020	0.005	0.020	0.005	0.039	2.656	1.870	1.860	1.865	1.890	1.885	1.890
0.000	-0.015	-0.005	0.010	0.029	0.005	0.039	2.734	1.880	1.870	1.870	1.890	1.890	1.890
0.005	-0.020	0.000	0.010	0.039	-0.005	0.039	2.725	1.885	1.870	1.870	1.890	1.890	1.885
0.010	-0.020	0.015	-0.010	0.034	-0.010	0.039	2.744	1.890	1.875	1.875	1.885	1.885	1.885
0.015	-0.034	0.000	-0.024	0.044	-0.024	0.044	2.666	1.885	1.875	1.870	1.880	1.885	1.875
0.015	-0.039	-0.005	-0.010	0.039	-0.010	0.039	2.637	1.875	1.875	1.870	1.885	1.880	1.885
0.034	-0.015	0.000	0.005	0.020	0.000	0.039	2.666	1.875	1.880	1.875	1.890	1.875	1.885
0.020	-0.010	0.020	-0.005	0.015	0.005	0.039	2.681	1.875	1.880	1.880	1.890	1.880	1.880
0.015	-0.029	0.005	-0.010	0.015	-0.020	0.039	2.695	1.875	1.870	1.875	1.890	1.880	1.875
0.010	-0.024	0.005	0.005	0.010	0.010	0.044	2.676	1.870	1.870	1.875	1.895	1.880	1.885
0.000	-0.010	0.000	0.015	0.000	0.005	0.039	2.671	1.870	1.875	1.875	1.895	1.885	1.885
-0.010	0.020	0.000	0.024	-0.005	0.005	0.039	2.681	1.870	1.880	1.875	1.895	1.885	1.880
-0.010	0.034	0.000	0.024	-0.010	-0.010	0.039	2.681	1.870	1.880	1.875	1.895	1.885	1.880
-0.034	0.029	-0.010	0.000	-0.010	-0.005	0.039	2.695	1.865	1.875	1.875	1.885	1.885	1.880
-0.010	0.015	-0.010	0.000	-0.010	-0.005	0.039	2.700	1.875	1.875	1.870	1.890	1.885	1.885
-0.005	0.015	-0.010	0.000	-0.005	0.015	0.039	2.695	1.880	1.870	1.870	1.890	1.885	1.885
-0.010	-0.034	-0.015	0.000	-0.010	0.005	0.039	2.666	1.875	1.860	1.865	1.885	1.885	1.880
-0.005	-0.029	0.000	0.000	-0.010	-0.005	0.044	2.705	1.880	1.870	1.870	1.885	1.885	1.880
-0.010	0.034	0.015	0.010	-0.015	0.005	0.039	2.671	1.880	1.890	1.880	1.890	1.885	1.885
-0.010	0.034	0.024	0.005	-0.015	-0.005	0.039	2.700	1.875	1.880	1.880	1.890	1.885	1.880
-0.020	-0.024	0.015	-0.005	-0.010	0.010	0.039	2.671	1.875	1.865	1.875	1.890	1.885	1.885
-0.024	-0.015	0.020	0.000	-0.005	0.015	0.039	2.700	1.870	1.870	1.875	1.890	1.885	1.885
-0.005	0.054	0.024	0.005	-0.015	0.010	0.039	2.671	1.880	1.895	1.880	1.895	1.885	1.885
0.015	0.044	0.024	0.000	-0.020	0.010	0.039	2.686	1.890	1.885	1.880	1.895	1.885	1.885
0.015	0.015	0.024	0.000	-0.020	-0.005	0.039	2.705	1.885	1.875	1.880	1.895	1.885	1.880
0.015	0.005	0.005	-0.005	-0.010	0.015	0.039	2.671	1.880	1.870	1.875	1.890	1.885	1.885
0.010	-0.010	-0.005	-0.015	-0.005	0.000	0.044	2.686	1.875	1.870	1.870	1.890	1.885	1.880
0.015	-0.054	-0.010	-0.020	-0.010	0.010	0.039	2.676	1.875	1.855	1.865	1.885	1.885	1.885
0.015	-0.044	-0.005	-0.005	0.000	0.000	0.044	2.681	1.880	1.870	1.865	1.885	1.885	1.885
0.010	0.020	-0.015	0.005	0.015	0.005	0.039	2.651	1.875	1.885	1.870	1.890	1.890	1.885
0.015	0.010	-0.029	0.034	0.015	-0.005	0.039	2.690	1.870	1.880	1.870	1.895	1.890	1.885
0.005	0.029	-0.020	0.039	0.005	0.005	0.039	2.671	1.870	1.885	1.875	1.899	1.890	1.890
-0.010	0.034	-0.015	0.020	0.000	0.005	0.034	2.642	1.865	1.875	1.880	1.890	1.890	1.885
-0.005	-0.015	0.010	0.024	0.005	0.000	0.034	2.646	1.865	1.860	1.875	1.895	1.890	1.885
-0.010	-0.015	0.010	0.000	0.005	0.010	0.034	2.681	1.865	1.860	1.870	1.885	1.885	1.890
-0.020	-0.005	0.015	-0.005	0.000	-0.015	0.034	2.646	1.865	1.865	1.870	1.885	1.880	1.880
-0.010	-0.020	0.010	0.005	0.000	0.020	0.034	2.661	1.870	1.860	1.865	1.885	1.880	1.890
0.005	-0.020	0.024	-0.010	0.010	0.020	0.034	2.676	1.870	1.865	1.870	1.880	1.885	1.885
0.005	-0.010	0.034	-0.034	0.005	-0.005	0.034	2.695	1.875	1.870	1.870	1.875	1.880	1.880
0.005	-0.020	0.024	-0.024	0.005	0.020	0.034	2.617	1.870	1.865	1.865	1.880	1.880	1.885
0.020	-0.020	0.015	-0.020	0.010	0.000	0.039	2.642	1.870	1.865	1.865	1.875	1.875	1.880
-0.005	0.005	0.000	-0.029	0.010	0.000	0.039	2.710	1.870	1.870	1.860	1.875	1.875	1.880
0.010	0.000	-0.005	-0.005	0.005	0.015	0.039	2.637	1.870	1.870	1.860	1.885	1.875	1.880
0.020	-0.015	-0.010	-0.005	-0.005	-0.005	0.039	2.744	1.880	1.865	1.860	1.880	1.875	1.875
0.010	-0.020	0.000	0.005	-0.005	0.000	0.039	2.661	1.875	1.865	1.865	1.885	1.875	1.870
0.005	0.010	-0.010	0.020	0.000	0.005	0.039	2.637	1.870	1.875	1.865	1.890	1.880	1.875
0.005	0.024	-0.020	0.015	0.010	0.010	0.039	2.700	1.875	1.875	1.865	1.885	1.885	1.880
0.005	0.015	-0.020	0.005	0.000	-0.010	0.044	2.676	1.875	1.870	1.870	1.885	1.875	1.875
-0.005	0.020	-0.015	0.005	0.000	0.010	0.039	2.700	1.875	1.875	1.870	1.885	1.880	1.880
-0.020	0.049	-0.010	0.010	0.000	0.010	0.039	2.681	1.875	1.880	1.875	1.890	1.880	1.880
-0.020	0.039	-0.015	0.020	0.010	0.000	0.039	2.695	1.870	1.875	1.875	1.890	1.885	1.880
-0.039	0.063	0.010	0.000	0.010	0.005	0.039	2.705	1.870	1.875	1.880	1.890	1.880	1.880
-0.020	0.010	0.024	0.005	0.000	-0.005	0.039	2.681	1.875	1.865	1.875	1.895	1.885	1.875
0.010	-0.010	0.020	0.000	0.010	-0.005	0.044	2.695	1.885	1.865	1.870	1.890	1.885	1.880
0.020	-0.020	0.020	-0.010	0.010	0.000	0.039	2.681	1.885	1.865	1.870	1.885	1.885	1.880
0.015	-0.015	0.024	-0.010	0.005	0.000	0.044	2.695	1.880	1.870	1.870	1.880	1.880	1.880
0.020	-0.029	0.029	-0.010	-0.005	-0.005	0.044	2.681	1.880	1.870	1.870	1.885	1.880	1.880
0.005	-0.020	0.020	-0.005	0.005	0.000	0.044	2.705	1.875	1.870	1.870	1.885	1.880	1.880
0.010	-0.029	0.010	0.010	-0.005	0.005	0.034	2.700	1.880	1.870	1.865	1.890	1.880	1.885
0.005	-0.024	0.020	0.010	-0.005	0.010	0.039	2.681	1.875	1.875	1.870	1.890	1.880	1.880
0.005	-0.010	0.005	0.020	0.010	0.010	0.039	2.686	1.875	1.875	1.870	1.895	1.885	1.880
0.005	-0.005	-0.005	-0.005	0.015	0.000	0.039	2.676	1.875	1.875	1.870	1.880	1.885	1.880
-0.015	0.020	0.005	0.005	0.029	-0.005	0.044	2.700	1.875	1.880	1.875	1.890	1.890	1.880
-0.015	0.020	0.010	0.005	0.015	-0.005	0.039	2.695	1.875	1.880	1.875	1.890	1.885	1.880
-0.005	0.059	0.010	0.000	0.010	-0.039	0.039	2.705	1.880	1.890	1.880	1.895	1.880	1.870
-0.005	0.020	0.005	-0.005	0.005	-0.015	0.039	2.676	1.880	1.880	1.875	1.890	1.885	1.880
0.029	-0.010	0.015	0.015	0.005	-0.015	0.039	2.671	1.880	1.870	1.880	1.899	1.885	1.880
0.024	-0.029	0.015	0.083	0.015	-0.005	0.039	2.676	1.875	1.865	1.875	1.914	1.899	1.890
0.000	-0.020	0.034	0.054	0.000	0.000	0.044	2.690	1.875	1.875	1.875	1.899	1.895	1.890
-0.024	-0.020	0.049	0.000	-0.005	-0.005	0.039	2.656	1.870	1.870	1.875	1.885	1.885	1.890
-0.005	-0.020	0.044	-0.029	-0.005	0.005	0.039	2.666	1.870	1.865	1.870	1.875	1.880	1.890
0.020	-0.059	0.034	-0.044	-0.005	0.015	0.039	2.666	1.870	1.860	1.865	1.875	1.880	1.890
0.020	-0.044	0.039	-0.034	-0.015	0.015	0.039	2.637	1.870	1.870	1.865	1.880	1.875	1.885
0.005	0.054	0.034	-0.034	-0.020	0.000	0.039	2.729	1.875	1.895	1.875	1.880	1.875	1.875
-0.068	0.049	0.024	-0.015	-0.024	-0.005	0.039	2.686	1.855	1.875	1.870	1.890	1.875	1.875
-0.103	0.029	0.005	0.000	-0.034	-0.005	0.039	2.627	1.841	1.860	1.865	1.890	1.875	1.875
-0.117	0.000	0.000	0.005	-0.029	-0.034	0.044	2.651	1.841	1.846	1.855	1.885	1.880	1.870
-0.078	0.005	-0.005	0.005	-0.024	-0.010	0.039	2.666	1.860	1.855	1.855	1.880	1.880	1.875
0.005	0.015	-0.024	-0.010	-0.020	-0.020	0.039	2.676	1.890	1.870	1.855	1.875	1.880	1.875
0.088	0.029	-0.034	0.000	-0.005	-0.005	0.044	2.637	1.904	1.880	1.860	1.880	1.880	1.880
0.156	0.034	-0.020	0.005	0.015	-0.005	0.044	2.671	1.914	1.890	1.870	1.885	1.885	1.885
0.137	0.024	-0.005	-0.005	0.015	-0.020	0.024	2.661	1.899	1.890	1.875	1.885	1.885	1.880
0.127	0.029	-0.020	-0.010	0.020	-0.020	0.044	2.651	1.885	1.890	1.880	1.885	1.885	1.880
0.107	0.005	0.020	0.010	0.015	-0.024	0.039	2.744	1.880	1.880	1.890	1.899	1.885	1.880
0.078	0.005	0.010	0.015	0.010	0.000	0.029	2.661	1.870	1.875	1.880	1.899	1.890	1.890
0.049	-0.010	0.005	0.010	0.000	0.010	0.029	2.632	1.860	1.865	1.875	1.895	1.885	1.890
-0.005	-0.010	0.034	0.015	0.005	-0.005	0.029	2.695	1.851	1.865	1.880	1.899	1.890	1.890
-0.054	0.000	0.029	0.020	0.000	0.020	0.029	2.681	1.846	1.855	1.870	1.895	1.890	1.890
-0.078	0.000	0.015	0.005	0.010	-0.010	0.029	2.671	1.841	1.851	1.860	1.885	1.890	1.885
-0.098	0.005	0.005	-0.015	0.010	0.010	0.029	2.666	1.846	1.851	1.855	1.875	1.880	1.885
-0.083	0.015	0.010	-0.054	0.029	0.024	0.029	2.686	1.860	1.851	1.855	1.870	1.880	1.890
-0.068	-0.005	0.000	-0.024	0.039	0.010	0.029	2.700	1.870	1.851	1.851	1.875	1.885	1.885
-0.044	-0.044	-0.010	-0.010	0.049	0.015	0.029	2.681	1.875	1.846	1.846	1.875	1.880	1.885
-0.015	-0.068	0.020	0.005	0.054	0.024	0.034	2.695	1.885	1.851	1.855	1.880	1.880	1.885
-0.010	-0.015	0.034	0.024	0.039	0.000	0.034	2.700	1.885	1.880	1.865	1.885	1.875	1.875
0.015	-0.049	0.015	0.054	0.015	0.005	0.034	2.700	1.890	1.870	1.865	1.890	1.870	1.875
0.020	-0.088	0.000	0.063	-0.024	-0.005	0.034	2.686	1.885	1.865	1.855	1.890	1.870	1.870
0.005	-0.039	0.005	0.054	-0.059	-0.005	0.034	2.710	1.885	1.885	1.865	1.885	1.860	1.870
-0.005	0.117	0.000	0.034	-0.059	-0.010	0.034	2.666	1.880	1.924	1.880	1.880	1.865	1.865
-0.015	0.103	-0.005	0.010	-0.059	0.015	0.034	2.666	1.870	1.899	1.885	1.880	1.870	1.875
-0.010	0.039	0.010	0.015	-0.059	0.000	0.039	2.690	1.870	1.875	1.885	1.890	1.875	1.865
0.010	-0.024	0.020	0.005	-0.063	-0.015	0.044	2.661	1.870	1.860	1.880	1.885	1.875	1.870
0.024	-0.054	0.015	0.000	-0.039	0.005	0.044	2.700	1.875	1.855	1.870	1.885	1.880	1.875
0.034	-0.034	0.029	-0.005	-0.020	0.000	0.039	2.671	1.880	1.870	1.875	1.890	1.885	1.875
0.034	-0.010	0.024	-0.015	0.005	0.000	0.044	2.710	1.875	1.875	1.870	1.885	1.890	1.880
0.015	0.005	0.010	-0.044	0.039	-0.005	0.044	2.671	1.870	1.875	1.870	1.875	1.895	1.880
-0.015	0.024	-0.005	-0.063	0.049	0.000	0.044	2.690	1.865	1.875	1.870	1.875	1.890	1.885
0.000	-0.010	-0.005	-0.054	0.049	-0.005	0.039	2.671	1.870	1.865	1.865	1.875	1.885	1.885
0.005	-0.020	-0.010	-0.039	0.034	0.000	0.039	2.700	1.875	1.865	1.865	1.885	1.880	1.880
0.005	-0.005	-0.039	-0.024	0.024	0.005	0.034	2.661	1.875	1.870	1.860	1.885	1.875	1.880
0.000	-0.005	-0.029	0.005	0.005	-0.005	0.034	2.666	1.870	1.870	1.865	1.890	1.875	1.875
0.005	0.073	-0.020	0.029	0.000	-0.015	0.034	2.661	1.875	1.890	1.875	1.899	1.875	1.875
-0.015	0.083	0.000	0.029	-0.024	-0.034	0.034	2.632	1.865	1.885	1.880	1.895	1.875	1.870
-0.049	0.112	-0.039	0.020	-0.034	-0.010	0.034	2.744	1.865	1.885	1.870	1.895	1.875	1.875
-0.029	0.024	-0.039	0.029	-0.029	0.000	0.034	2.686	1.870	1.855	1.865	1.895	1.880	1.880
0.010	-0.010	-0.044	0.034	-0.015	-0.005	0.034	2.637	1.875	1.851	1.860	1.890	1.890	1.880
0.034	-0.078	-0.024	0.039	0.020	-0.005	0.034	2.686	1.875	1.841	1.860	1.890	1.895	1.890
0.024	-0.020	-0.005	0.024	0.020	0.010	0.034	2.651	1.875	1.865	1.865	1.885	1.890	1.890
0.020	-0.024	0.000	-0.005	0.010	0.005	0.034	2.695	1.875	1.865	1.870	1.875	1.880	1.890
0.024	-0.024	0.015	-0.005	0.005	-0.010	0.034	2.627	1.875	1.865	1.870	1.880	1.880	1.880
0.000	-0.005	0.000	-0.005	0.000	0.010	0.034	2.656	1.865	1.870	1.865	1.880	1.875	1.885
-0.015	0.024	0.015	-0.024	0.005	0.010	0.034	2.749	1.870	1.880	1.870	1.875	1.875	1.880
-0.010	0.083	0.020	-0.010	0.000	-0.029	0.034	2.642	1.890	1.890	1.875	1.885	1.875	1.870
0.005	-0.029	0.015	-0.005	-0.029	0.000	0.029	2.749	1.890	1.860	1.870	1.885	1.870	1.875
-0.015	-0.029	0.000	0.010	-0.049	-0.029	0.034	2.646	1.870	1.865	1.865	1.890	1.870	1.870
0.000	-0.034	-0.015	0.000	-0.054	-0.010	0.034	2.646	1.870	1.865	1.860	1.880	1.870	1.870
-0.010	-0.010	-0.015	0.000	-0.039	0.010	0.034	2.686	1.870	1.870	1.860	1.880	1.875	1.880
-0.015	0.005	-0.049	-0.015	-0.034	0.024	0.034	2.676	1.865	1.870	1.855	1.875	1.875	1.880
-0.020	0.024	-0.039	-0.015	-0.039	0.010	0.034	2.690	1.870	1.875	1.865	1.875	1.875	1.875
0.000	0.015	-0.039	-0.005	-0.063	0.024	0.034	2.681	1.875	1.875	1.865	1.880	1.870	1.875
0.015	-0.005	0.010	0.000	-0.088	0.029	0.034	2.690	1.880	1.870	1.880	1.885	1.865	1.875
0.034	-0.005	0.029	0.000	-0.103	-0.010	0.034	2.695	1.885	1.875	1.880	1.890	1.865	1.860
0.029	-0.015	0.005	0.000	-0.103	-0.005	0.034	2.676	1.875	1.870	1.870	1.890	1.870	1.865
0.024	-0.020	0.000	0.029	-0.088	-0.015	0.034	2.686	1.875	1.870	1.870	1.899	1.880	1.865
0.000	0.000	0.015	0.029	-0.078	-0.020	0.039	2.681	1.870	1.870	1.875	1.895	1.885	1.870
0.000	0.005	-0.020	0.010	-0.029	-0.034	0.044	2.700	1.865	1.870	1.865	1.885	1.899	1.875
-0.029	0.005	-0.020	-0.005	0.020	-0.010	0.044	2.676	1.855	1.865	1.870	1.885	1.909	1.890
-0.005	0.015	0.034	-0.005	0.107	0.000	0.039	2.705	1.870	1.870	1.880	1.890	1.924	1.904
0.000	-0.010	0.049	0.000	0.161	0.015	0.044	2.695	1.875	1.865	1.875	1.895	1.934	1.914
0.005	-0.020	0.059	0.005	0.205	0.020	0.039	2.661	1.875	1.870	1.875	1.895	1.934	1.924
-0.005	-0.005	0.015	0.005	0.244	0.044	0.039	2.681	1.880	1.870	1.865	1.895	1.934	1.929
-0.015	0.000	0.020	0.015	0.234	0.029	0.039	2.671	1.880	1.875	1.865	1.890	1.914	1.919
-0.020	-0.005	-0.005	0.015	0.220	0.029	0.044	2.700	1.885	1.875	1.860	1.885	1.904	1.914
0.005	0.015	-0.029	0.010	0.273	0.024	0.039	2.676	1.895	1.885	1.865	1.885	1.914	1.914
-0.005	0.020	-0.059	0.000	0.317	0.029	0.039	2.695	1.890	1.885	1.860	1.880	1.919	1.914
-0.034	0.020	-0.073	0.000	0.303	0.039	0.034	2.671	1.880	1.880	1.865	1.880	1.899	1.909
-0.034	0.015	-0.107	0.005	0.259	0.039	0.034	2.671	1.880	1.880	1.860	1.880	1.880	1.904
0.010	0.015	-0.122	0.000	0.171	0.039	0.034	2.686	1.895	1.880	1.860	1.875	1.855	1.885
0.044	0.015	-0.044	0.000	0.010	0.034	0.034	2.686	1.899	1.890	1.890	1.880	1.816	1.865
0.059	0.005	0.034	-0.005	-0.112	0.015	0.034	2.642	1.895	1.890	1.909	1.890	1.802	1.841
0.083	-0.010	0.015	-0.010	-0.151	0.010	0.034	2.656	1.890	1.885	1.890	1.895	1.816	1.831
0.078	-0.005	0.020	-0.010	-0.195	0.015	0.034	2.666	1.875	1.880	1.895	1.895	1.826	1.831
0.088	-0.020	0.059	-0.010	-0.239	0.000	0.034	2.407	1.846	1.875	1.895	1.899	1.831	1.821
0.063	-0.010	0.054	-0.005	-0.239	-0.020	0.034	1.328	1.689	1.831	1.880	1.899	1.846	1.816
0.020	0.000	0.063	-0.005	-0.220	-0.015	0.039	1.172	1.558	1.763	1.851	1.890	1.865	1.831
-0.034	0.015	0.068	-0.005	-0.190	-0.015	0.034	1.099	1.460	1.694	1.812	1.875	1.875	1.841
-0.054	0.000	0.000	0.000	-0.112	-0.029	0.034	1.152	1.401	1.606	1.738	1.846	1.890	1.855
-0.078	0.010	-0.049	0.010	-0.078	-0.039	0.034	1.128	1.362	1.548	1.680	1.812	1.870	1.855
-0.078	0.005	-0.054	0.024	-0.117	-0.073	0.034	1.172	1.353	1.499	1.631	1.768	1.831	1.841
-0.107	0.000	0.029	0.029	-0.156	-0.034	0.034	1.118	1.333	1.460	1.602	1.733	1.797	1.841
-0.078	-0.005	-0.005	0.029	-0.146	-0.020	0.034	1.128	1.338	1.426	1.548	1.689	1.772	1.826
-0.029	-0.010	-0.005	-0.005	-0.093	-0.015	0.034	1.235	1.357	1.411	1.509	1.636	1.748	1.807
-0.005	-0.005	-0.005	-0.024	-0.039	-0.015	0.034	1.094	1.353	1.401	1.479	1.597	1.719	1.782
0.005	0.010	0.010	-0.015	-0.005	-0.044	0.034	1.216	1.357	1.396	1.460	1.567	1.685	1.748
0.059	-0.010	0.005	-0.005	-0.024	-0.039	0.034	1.216	1.367	1.387	1.436	1.543	1.641	1.719
0.088	-0.020	-0.039	0.015	-0.034	-0.049	0.034	1.108	1.353	1.382	1.411	1.514	1.602	1.685
0.093	-0.015	0.005	0.000	0.039	-0.044	0.034	1.162	1.343	1.372	1.416	1.489	1.592	1.665
0.044	-0.020	0.029	-0.020	0.146	-0.010	0.034	1.162	1.318	1.362	1.401	1.470	1.587	1.655
-0.044	-0.015	0.029	-0.020	0.190	0.068	0.039	1.157	1.284	1.343	1.387	1.455	1.562	1.650
-0.142	-0.010	0.049	-0.020	0.190	0.112	0.039	1.157	1.260	1.318	1.372	1.436	1.528	1.626
-0.156	0.000	0.078	-0.010	0.151	0.107	0.044	1.177	1.265	1.309	1.367	1.426	1.489	1.587
-0.161	-0.015	0.063	0.000	0.137	0.122	0.039	1.187	1.274	1.299	1.343	1.406	1.465	1.553
-0.078	-0.020	0.000	0.015	0.171	0.103	0.039	1.167	1.294	1.299	1.313	1.392	1.450	1.519
0.044	-0.020	-0.020	0.049	0.146	0.073	0.039	1.182	1.323	1.309	1.309	1.382	1.421	1.484
0.181	0.000	-0.049	0.049	0.068	0.039	0.498	1.182	1.348	1.328	1.309	1.367	1.382	1.460
0.254	0.034	-0.059	0.020	-0.005	-0.015	0.034	1.177	1.338	1.343	1.313	1.343	1.353	1.401
0.234	0.083	-0.078	0.010	-0.024	-0.020	0.034	1.157	1.289	1.338	1.318	1.338	1.338	1.382
0.137	0.020	-0.083	-0.015	-0.029	-0.039	0.034	1.172	1.235	1.294	1.309	1.323	1.333	1.362
0.083	0.005	-0.078	-0.039	-0.073	-0.068	0.039	1.162	1.201	1.265	1.294	1.313	1.313	1.338
0.015	-0.010	-0.112	-0.034	-0.073	-0.059	0.039	1.157	1.177	1.235	1.270	1.309	1.313	1.333
-0.029	0.000	-0.112	-0.010	-0.068	-0.063	0.044	1.143	1.152	1.216	1.255	1.309	1.313	1.323
-0.073	0.015	-0.107	0.015	-0.029	-0.044	0.273	1.157	1.138	1.201	1.245	1.304	1.323	1.333
-0.088	0.034	-0.068	0.024	-0.039	-0.024	0.371	1.177	1.147	1.196	1.245	1.299	1.309	1.338
-0.127	0.073	-0.015	0.005	-0.049	0.000	0.562	1.182	1.147	1.196	1.245	1.284	1.304	1.343
-0.132	0.078	0.010	0.010	-0.107	0.010	0.044	1.182	1.143	1.182	1.230	1.274	1.274	1.309
-0.107	0.020	0.010	0.015	-0.112	0.024	0.049	1.152	1.143	1.157	1.211	1.265	1.270	1.304
-0.073	-0.024	0.034	0.005	-0.044	0.034	0.039	1.182	1.152	1.147	1.196	1.250	1.284	1.299
-0.039	-0.034	0.049	-0.010	-0.020	-0.010	0.039	1.162	1.147	1.147	1.187	1.235	1.274	1.279
-0.020	-0.029	0.059	-0.005	0.020	-0.044	0.044	1.162	1.138	1.147	1.177	1.226	1.265	1.270
-0.015	-0.020	0.059	0.000	-0.015	-0.054	0.127	1.108	1.123	1.147	1.172	1.216	1.240	1.260
0.024	-0.034	0.044	0.020	-0.078	-0.049	0.371	1.162	1.123	1.133	1.157	1.211	1.216	1.255
0.029	-0.039	0.049	0.024	-0.098	-0.049	0.044	1.138	1.108	1.128	1.152	1.201	1.206	1.230
0.010	-0.034	0.059	0.010	-0.063	-0.024	0.034	1.123	1.089	1.118	1.143	1.187	1.211	1.230
-0.005	-0.024	0.068	0.005	-0.024	-0.054	0.039	1.113	1.069	1.108	1.138	1.177	1.211	1.221
-0.010	-0.015	0.054	0.010	-0.029	-0.059	0.039	1.152	1.064	1.099	1.123	1.167	1.191	1.211
-0.005	0.000	0.068	0.005	-0.024	-0.078	0.396	1.123	1.060	1.094	1.123	1.162	1.187	1.206
-0.005	0.000	0.010	0.015	0.059	-0.093	0.571	1.157	1.060	1.089	1.094	1.152	1.206	1.211
0.029	0.005	-0.044	-0.005	0.093	-0.049	0.044	1.108	1.055	1.079	1.079	1.133	1.187	1.196
0.044	0.000	-0.039	-0.024	0.000	0.000	0.039	1.152	1.055	1.069	1.079	1.113	1.143	1.196
0.059	-0.010	0.010	-0.020	-0.024	0.044	0.420	1.255	1.064	1.069	1.089	1.118	1.133	1.201
0.059	-0.010	-0.024	-0.005	0.049	0.083	0.254	1.143	1.050	1.060	1.074	1.113	1.147	1.191
0.049	-0.005	-0.005	-0.010	0.088	0.132	0.039	1.143	1.035	1.060	1.079	1.108	1.147	1.187
0.044	-0.015	0.049	-0.010	0.122	0.127	0.039	1.118	1.021	1.050	1.084	1.108	1.143	1.172
-0.005	-0.010	0.029	0.000	0.200	0.171	0.039	1.230	1.011	1.040	1.064	1.104	1.157	1.182
-0.020	-0.005	0.000	0.010	0.234	0.176	0.039	1.201	1.001	1.030	1.050	1.099	1.147	1.172
-0.015	-0.010	-0.039	-0.005	0.166	0.142	0.039	1.201	1.006	1.021	1.025	1.079	1.108	1.143
0.015	0.010	-0.073	0.000	0.112	0.122	0.034	1.182	1.006	1.021	1.021	1.069	1.074	1.113
0.010	0.010	-0.049	0.024	0.005	0.059	0.034	1.147	0.996	1.016	1.025	1.064	1.040	1.074
0.020	0.010	-0.024	0.010	-0.029	-0.020	0.039	1.182	0.986	1.011	1.021	1.050	1.035	1.045
0.039	0.020	-0.078	-0.015	0.020	-0.054	0.039	1.157	0.972	1.001	1.001	1.040	1.045	1.030
0.034	0.015	-0.107	-0.020	0.039	-0.127	0.039	1.187	0.962	0.991	0.991	1.030	1.040	1.021
-0.049	-0.005	-0.044	-0.005	-0.005	-0.151	0.039	1.182	0.933	0.967	1.006	1.035	1.025	1.011
-0.054	-0.005	-0.024	-0.005	-0.044	-0.156	0.034	1.152	0.923	0.957	0.996	1.030	1.016	1.006
-0.063	0.000	0.010	-0.005	-0.078	-0.166	0.034	1.177	0.918	0.947	0.991	1.025	1.006	1.001
-0.093	0.005	0.015	-0.010	-0.127	-0.142	0.034	1.157	0.908	0.937	0.981	1.016	0.996	1.006
-0.088	0.005	0.029	0.000	-0.181	-0.137	0.039	1.191	0.908	0.933	0.967	1.011	0.981	0.996
-0.029	0.005	-0.039	0.000	-0.186	-0.068	0.034	1.162	0.928	0.933	0.937	0.996	0.991	1.016
0.034	0.000	-0.054	0.005	-0.171	-0.020	0.034	1.177	0.933	0.933	0.937	0.981	0.991	1.021
0.073	0.000	-0.020	0.005	-0.166	0.039	0.034	1.987	1.030	0.952	0.952	0.981	0.991	1.035
0.107	0.000	0.044	0.005	-0.122	0.107	0.034	2.007	1.099	0.991	0.977	0.986	1.006	1.045
0.117	0.005	0.117	-0.005	-0.112	0.146	0.034	1.992	1.133	1.030	1.011	0.996	1.006	1.045
0.107	0.000	0.161	-0.005	-0.068	0.127	0.039	1.982	1.147	1.060	1.030	1.011	1.016	1.030
0.088	0.000	0.166	-0.005	-0.049	0.107	0.034	2.012	1.152	1.079	1.050	1.025	1.021	1.025
0.063	-0.010	0.142	0.005	-0.132	0.073	0.039	2.012	1.157	1.094	1.050	1.035	1.001	1.001
0.005	0.000	0.107	0.010	-0.093	0.044	0.039	2.012	1.147	1.108	1.060	1.050	1.025	1.006
-0.024	0.024	0.039	0.005	0.034	0.020	0.039	1.987	1.138	1.113	1.055	1.060	1.060	1.011
-0.039	0.029	-0.015	0.005	0.132	-0.015	0.039	2.007	1.143	1.123	1.060	1.064	1.089	1.025
-0.068	0.024	-0.059	0.015	0.264	-0.034	0.039	2.007	1.138	1.123	1.069	1.074	1.118	1.045
-0.107	0.000	-0.103	0.015	0.303	-0.059	0.039	2.002	1.133	1.113	1.069	1.079	1.113	1.055
-0.107	-0.010	-0.068	0.020	0.322	-0.068	0.034	1.953	1.138	1.118	1.094	1.089	1.108	1.069
-0.063	-0.010	-0.073	0.000	0.273	-0.029	0.039	1.987	1.152	1.128	1.099	1.089	1.094	1.084
-0.049	-0.010	-0.034	0.000	0.161	0.015	0.039	1.963	1.157	1.138	1.118	1.099	1.064	1.089
-0.020	-0.020	-0.020	-0.005	0.063	0.029	0.044	2.085	1.177	1.143	1.128	1.108	1.050	1.079
0.044	-0.015	0.020	-0.020	-0.005	0.039	0.039	1.968	1.187	1.157	1.143	1.123	1.050	1.069
