0.005	-0.005	0.000	0.010	0.049	-0.015	0.029	2.666	2.588	2.144	2.041	1.948	1.968	1.943
0.005	-0.010	0.000	0.010	0.063	-0.034	0.029	2.671	2.407	2.217	2.085	1.992	1.978	1.948
-0.010	-0.010	0.000	0.010	0.029	0.005	0.029	2.681	2.280	2.236	2.129	2.031	1.978	1.968
0.000	0.000	0.000	0.000	-0.005	0.020	0.029	2.676	2.192	2.231	2.158	2.065	1.992	1.973
-0.010	-0.005	0.000	0.000	-0.020	0.020	0.029	2.666	2.124	2.202	2.173	2.100	2.017	1.982
0.000	0.000	0.000	0.000	0.020	0.020	0.029	2.676	2.080	2.173	2.173	2.124	2.056	2.002
-0.005	0.005	-0.005	-0.010	0.034	0.015	0.029	2.671	2.051	2.139	2.163	2.139	2.080	2.026
-0.005	0.015	-0.005	0.000	0.054	0.015	0.029	2.681	2.026	2.114	2.148	2.148	2.104	2.046
-0.005	0.020	0.000	0.015	0.054	0.015	0.029	2.695	2.017	2.090	2.134	2.158	2.119	2.065
0.005	0.020	0.000	0.005	0.073	0.020	0.029	2.686	2.012	2.065	2.114	2.148	2.129	2.085
-0.005	0.020	0.000	0.005	0.073	0.029	0.029	2.681	2.002	2.051	2.095	2.139	2.134	2.100
0.005	0.005	0.005	0.005	0.039	0.010	0.029	2.690	2.007	2.031	2.080	2.129	2.119	2.100
0.000	0.010	0.005	0.005	0.000	-0.015	0.029	2.686	2.002	2.026	2.065	2.114	2.109	2.095
0.000	0.010	0.000	0.005	-0.015	-0.034	0.029	2.686	1.997	2.021	2.051	2.104	2.100	2.090
0.005	-0.005	0.000	0.000	-0.020	-0.039	0.029	2.686	1.997	2.012	2.041	2.090	2.095	2.090
0.005	0.000	0.000	0.000	-0.034	-0.039	0.029	2.676	1.997	2.012	2.031	2.075	2.085	2.090
0.005	-0.005	-0.005	0.000	-0.034	-0.034	0.029	2.681	1.997	2.002	2.021	2.065	2.080	2.090
0.010	-0.010	0.000	0.000	-0.034	-0.010	0.029	2.671	1.997	2.002	2.017	2.056	2.075	2.090
0.010	-0.005	0.000	-0.005	-0.024	0.010	0.029	2.671	1.997	2.002	2.012	2.051	2.070	2.090
0.010	0.000	0.000	0.005	-0.024	0.029	0.029	2.681	1.997	2.002	2.007	2.046	2.061	2.085
0.000	-0.005	0.005	0.005	-0.029	0.010	0.029	2.690	1.997	1.997	2.002	2.036	2.051	2.070
-0.005	-0.020	0.000	0.005	-0.020	0.039	0.029	2.686	1.992	1.992	1.997	2.031	2.051	2.070
-0.005	-0.015	0.000	0.005	-0.010	0.044	0.029	2.676	1.997	1.992	1.997	2.026	2.046	2.065
-0.005	-0.020	-0.005	0.000	0.000	0.034	0.029	2.666	1.992	1.997	1.997	2.021	2.041	2.056
0.000	-0.005	0.000	0.000	-0.005	0.039	0.029	2.676	1.997	1.997	1.997	2.021	2.036	2.051
0.005	-0.010	-0.005	-0.005	-0.005	0.034	0.029	2.686	1.997	1.997	1.997	2.017	2.026	2.041
-0.005	-0.010	0.005	-0.005	-0.020	-0.010	0.029	2.681	1.992	1.997	1.997	2.017	2.017	2.021
-0.005	-0.005	0.005	-0.005	-0.010	-0.005	0.029	2.686	1.992	1.997	1.997	2.017	2.021	2.021
-0.005	0.010	0.000	0.015	0.000	-0.005	0.029	2.676	1.987	1.997	1.997	2.021	2.021	2.026
-0.005	0.024	0.000	0.005	0.000	-0.020	0.029	2.676	1.992	1.997	1.997	2.017	2.021	2.017
0.005	0.020	0.005	0.000	0.000	-0.039	0.029	2.676	1.987	1.997	1.997	2.017	2.017	2.012
0.000	0.044	0.005	-0.005	0.005	-0.068	0.029	2.681	1.987	1.997	1.997	2.017	2.017	2.007
0.000	0.020	0.000	-0.005	0.005	-0.088	0.029	2.686	1.982	1.982	1.992	2.012	2.012	2.002
0.005	0.024	0.000	0.010	0.005	-0.073	0.034	2.681	1.982	1.987	1.992	2.017	2.012	2.012
0.005	0.010	0.000	0.000	0.010	-0.068	0.034	2.676	1.978	1.978	1.987	2.012	2.012	2.017
0.005	-0.005	-0.005	0.005	0.015	-0.020	0.029	2.671	1.973	1.973	1.982	2.007	2.012	2.026
0.000	-0.010	0.000	0.010	0.020	0.010	0.029	2.676	1.973	1.973	1.978	2.007	2.012	2.026
0.005	-0.005	0.000	0.005	0.010	0.024	0.029	2.671	1.978	1.973	1.978	2.002	2.007	2.026
0.010	-0.010	0.000	0.005	0.000	0.054	0.029	2.676	1.978	1.973	1.973	1.997	2.002	2.026
0.005	-0.010	-0.005	0.000	0.000	0.044	0.029	2.681	1.978	1.973	1.973	1.997	1.997	2.012
-0.010	0.000	0.000	0.000	0.005	0.020	0.029	2.681	1.973	1.978	1.973	1.997	1.997	2.002
-0.005	0.000	0.000	0.005	0.005	0.029	0.034	2.661	1.973	1.978	1.973	1.992	1.997	2.007
0.005	0.010	0.000	-0.005	-0.010	0.020	0.029	2.681	1.973	1.973	1.973	1.992	1.987	1.997
-0.005	-0.005	-0.005	0.000	-0.029	0.029	0.029	2.671	1.968	1.968	1.973	1.992	1.982	1.997
-0.005	0.005	0.000	0.000	-0.029	0.015	0.034	2.676	1.968	1.973	1.973	1.992	1.987	1.992
0.000	0.005	0.010	0.005	-0.015	0.044	0.029	2.671	1.968	1.968	1.973	1.992	1.992	1.997
0.005	0.010	0.000	0.005	-0.015	0.029	0.029	2.681	1.968	1.973	1.968	1.992	1.992	1.987
0.000	0.000	0.005	0.005	0.015	-0.010	0.029	2.681	1.963	1.968	1.973	1.992	1.997	1.978
0.000	-0.005	0.000	0.000	0.024	-0.024	0.029	2.690	1.968	1.963	1.968	1.987	1.992	1.982
0.005	-0.005	0.000	0.000	0.005	-0.039	0.029	2.676	1.963	1.968	1.963	1.987	1.987	1.978
0.005	-0.010	0.005	0.000	0.015	-0.044	0.029	2.671	1.958	1.963	1.963	1.987	1.987	1.982
0.010	0.000	0.005	0.000	-0.010	-0.034	0.029	2.671	1.958	1.963	1.963	1.982	1.978	1.982
0.000	-0.010	-0.005	0.000	-0.073	-0.005	0.029	2.681	1.958	1.958	1.958	1.982	1.958	1.982
0.000	-0.015	0.000	0.005	-0.063	0.034	0.029	2.671	1.953	1.953	1.958	1.982	1.968	1.987
0.005	-0.005	-0.005	0.000	-0.024	0.049	0.029	2.686	1.953	1.958	1.958	1.982	1.982	1.992
0.000	-0.010	0.000	0.000	0.010	0.059	0.029	2.676	1.958	1.958	1.958	1.978	1.987	1.997
0.005	-0.015	-0.005	-0.005	0.029	0.068	0.029	2.671	1.958	1.953	1.953	1.973	1.987	1.992
0.005	-0.010	0.005	-0.010	0.107	0.034	0.029	2.681	1.953	1.953	1.958	1.978	2.007	1.992
0.000	-0.005	0.005	-0.005	0.146	0.000	0.029	2.676	1.953	1.958	1.953	1.978	2.002	1.987
0.005	0.005	0.000	-0.005	0.156	-0.034	0.029	2.695	1.953	1.958	1.953	1.978	1.997	1.978
0.000	0.015	-0.005	0.000	0.078	-0.029	0.034	2.671	1.953	1.958	1.953	1.973	1.968	1.978
-0.005	0.015	0.005	0.010	0.039	-0.049	0.029	2.681	1.953	1.958	1.958	1.978	1.958	1.968
0.000	0.015	0.005	0.010	0.010	-0.059	0.029	2.676	1.948	1.958	1.953	1.973	1.953	1.963
-0.005	0.005	0.005	0.005	-0.034	-0.024	0.029	2.686	1.948	1.948	1.953	1.968	1.948	1.963
-0.005	0.005	0.005	0.000	-0.078	-0.024	0.034	2.622	1.943	1.948	1.953	1.968	1.943	1.958
0.000	0.010	0.005	0.000	-0.112	-0.015	0.029	2.681	1.938	1.943	1.948	1.968	1.938	1.953
-0.005	0.000	-0.005	0.000	-0.137	0.000	0.029	2.681	1.938	1.943	1.948	1.968	1.938	1.953
0.000	0.000	0.000	0.010	-0.127	0.034	0.029	2.661	1.938	1.943	1.943	1.968	1.948	1.963
0.005	-0.005	0.000	0.010	-0.078	0.059	0.029	2.627	1.934	1.938	1.943	1.968	1.968	1.968
0.010	-0.010	0.005	0.000	-0.015	0.063	0.029	2.681	1.938	1.934	1.938	1.968	1.982	1.978
0.020	-0.005	0.000	0.000	0.039	0.063	0.029	2.827	1.943	1.938	1.938	1.963	1.987	1.982
0.020	-0.005	-0.005	0.000	0.059	0.059	0.029	2.651	1.934	1.938	1.934	1.963	1.987	1.982
0.015	-0.010	-0.005	-0.005	0.103	0.034	0.034	2.812	1.934	1.934	1.938	1.958	1.987	1.978
0.010	-0.005	0.000	0.000	0.107	0.015	0.029	2.686	1.938	1.938	1.938	1.958	1.978	1.973
0.015	-0.005	0.005	0.000	0.107	-0.029	0.034	2.676	1.938	1.934	1.938	1.958	1.968	1.963
0.005	-0.010	0.000	0.000	0.054	-0.020	0.029	2.690	1.938	1.938	1.934	1.953	1.948	1.953
0.000	-0.005	0.005	0.005	-0.005	-0.024	0.029	2.671	1.934	1.934	1.934	1.953	1.929	1.948
-0.010	0.005	0.005	0.005	-0.098	-0.015	0.029	2.676	1.934	1.938	1.934	1.953	1.914	1.938
-0.010	0.000	0.005	0.010	-0.093	-0.015	0.029	2.681	1.929	1.934	1.934	1.953	1.929	1.934
-0.024	0.000	0.010	0.010	-0.083	-0.044	0.029	2.661	1.924	1.929	1.934	1.953	1.934	1.929
-0.029	0.015	0.005	0.005	-0.068	-0.049	0.029	2.651	1.924	1.934	1.934	1.953	1.938	1.929
-0.029	0.005	0.005	0.000	-0.093	-0.020	0.029	2.651	1.919	1.924	1.929	1.948	1.938	1.938
-0.015	0.005	0.000	0.000	-0.039	0.010	0.029	2.646	1.919	1.924	1.924	1.948	1.958	1.953
-0.015	0.015	0.000	-0.005	0.146	-0.010	0.029	2.646	1.919	1.929	1.929	1.948	2.012	1.968
-0.015	0.020	0.005	-0.005	0.317	0.010	0.034	2.817	1.943	1.934	1.929	1.953	2.031	1.987
-0.005	0.015	0.000	-0.005	0.273	-0.034	0.029	2.627	1.938	1.929	1.924	1.948	1.992	1.982
0.010	0.010	0.000	0.000	0.117	-0.029	0.029	2.817	1.958	1.934	1.929	1.948	1.938	1.968
0.000	0.005	0.000	0.000	-0.010	-0.010	0.029	2.681	1.948	1.938	1.929	1.943	1.904	1.948
0.005	0.015	0.005	0.000	-0.063	0.000	0.029	2.666	1.943	1.938	1.929	1.943	1.904	1.938
0.000	-0.005	0.000	0.000	-0.063	0.015	0.029	2.676	1.934	1.934	1.929	1.943	1.914	1.938
0.010	-0.005	-0.005	0.005	-0.039	0.010	0.029	2.681	1.938	1.934	1.929	1.943	1.924	1.934
0.010	-0.005	0.005	0.000	-0.059	0.005	0.029	2.671	1.934	1.934	1.934	1.948	1.924	1.934
0.010	0.000	0.000	0.000	-0.078	0.029	0.029	2.671	1.929	1.934	1.934	1.943	1.924	1.934
0.000	0.000	0.000	0.000	-0.078	0.029	0.029	2.666	1.929	1.934	1.929	1.948	1.929	1.934
0.005	0.010	0.005	0.005	-0.044	0.015	0.029	2.651	1.924	1.929	1.934	1.948	1.943	1.934
0.015	0.010	0.000	0.005	-0.020	-0.020	0.029	2.642	1.919	1.929	1.929	1.948	1.948	1.929
0.015	0.000	0.010	0.000	0.000	0.020	0.029	2.661	1.919	1.924	1.929	1.948	1.953	1.943
0.000	-0.015	0.005	-0.005	0.005	-0.005	0.034	2.666	1.909	1.914	1.924	1.948	1.953	1.943
0.005	-0.010	0.000	-0.010	0.000	0.020	0.029	2.690	1.929	1.919	1.924	1.943	1.948	1.948
0.000	0.010	0.000	-0.005	-0.010	0.020	0.029	2.720	1.929	1.924	1.924	1.943	1.943	1.948
0.000	-0.005	0.005	-0.005	-0.020	0.015	0.029	2.793	1.938	1.924	1.919	1.943	1.938	1.943
0.005	-0.010	-0.005	0.000	-0.029	0.005	0.029	2.676	1.934	1.924	1.919	1.943	1.934	1.938
0.010	-0.010	-0.005	0.005	-0.029	0.010	0.029	2.676	1.929	1.929	1.924	1.943	1.938	1.938
0.010	-0.005	0.000	0.010	-0.015	0.000	0.029	2.671	1.924	1.929	1.924	1.943	1.938	1.938
0.000	-0.005	0.000	0.005	-0.010	0.000	0.029	2.666	1.919	1.924	1.924	1.943	1.938	1.938
-0.005	0.000	-0.005	0.000	-0.015	-0.010	0.029	2.676	1.914	1.924	1.924	1.938	1.938	1.934
0.005	0.000	-0.005	0.005	-0.015	-0.020	0.034	2.671	1.914	1.919	1.919	1.938	1.934	1.934
-0.010	0.000	0.000	0.000	-0.010	-0.010	0.029	2.671	1.914	1.919	1.919	1.938	1.938	1.934
-0.010	0.024	0.000	-0.005	-0.005	-0.029	0.029	2.661	1.914	1.924	1.919	1.938	1.938	1.929
0.000	0.005	0.005	-0.005	-0.015	-0.010	0.029	2.651	1.914	1.914	1.914	1.938	1.934	1.938
0.000	0.000	0.000	0.000	-0.015	-0.005	0.029	2.642	1.909	1.909	1.914	1.934	1.934	1.938
0.000	0.010	0.005	0.000	-0.010	-0.010	0.029	2.671	1.909	1.914	1.914	1.938	1.934	1.934
0.000	0.015	0.000	0.000	-0.005	0.034	0.029	2.812	1.924	1.914	1.919	1.934	1.938	1.948
0.000	0.010	0.005	0.005	0.005	0.034	0.029	2.632	1.919	1.919	1.914	1.938	1.938	1.948
0.005	0.005	0.005	0.000	0.005	0.049	0.029	2.822	1.938	1.924	1.914	1.934	1.938	1.948
-0.005	0.000	0.005	0.005	0.010	0.054	0.034	2.676	1.924	1.919	1.919	1.934	1.938	1.948
0.005	0.000	0.000	0.000	0.015	0.039	0.029	2.676	1.929	1.924	1.919	1.938	1.934	1.938
0.005	-0.010	-0.005	0.005	0.010	0.005	0.029	2.676	1.924	1.919	1.914	1.934	1.934	1.929
0.010	-0.010	-0.005	0.000	0.000	-0.039	0.034	2.671	1.919	1.924	1.914	1.934	1.924	1.914
0.005	-0.015	-0.005	-0.005	0.000	-0.078	0.029	2.661	1.909	1.914	1.914	1.934	1.929	1.904
0.010	0.010	0.000	0.005	0.010	-0.088	0.029	2.671	1.914	1.924	1.919	1.934	1.929	1.909
0.010	0.005	0.000	0.000	0.010	-0.049	0.029	2.661	1.909	1.914	1.919	1.934	1.934	1.924
0.010	-0.015	0.000	0.000	0.010	-0.020	0.029	2.646	1.904	1.904	1.909	1.934	1.934	1.934
0.005	0.005	0.000	0.000	0.005	-0.005	0.029	2.651	1.899	1.904	1.909	1.929	1.934	1.938
0.000	0.015	-0.005	-0.005	0.015	-0.005	0.029	2.651	1.904	1.909	1.909	1.929	1.929	1.934
-0.005	0.024	0.005	-0.005	0.005	0.010	0.029	2.666	1.909	1.909	1.909	1.929	1.924	1.934
0.000	0.000	0.000	0.000	0.005	0.015	0.029	2.808	1.919	1.904	1.909	1.929	1.924	1.938
0.000	-0.010	0.000	-0.005	0.000	0.024	0.029	2.646	1.914	1.904	1.904	1.929	1.924	1.934
0.000	-0.005	-0.005	0.000	0.005	0.044	0.029	2.817	1.934	1.909	1.909	1.929	1.924	1.938
-0.010	0.000	-0.005	0.000	0.015	0.049	0.029	2.852	1.943	1.919	1.909	1.929	1.929	1.938
-0.015	0.015	0.000	0.000	0.015	0.044	0.029	2.671	1.934	1.929	1.914	1.934	1.929	1.934
0.000	0.000	0.000	0.005	0.000	0.024	0.029	2.671	1.929	1.924	1.914	1.934	1.924	1.924
-0.010	-0.005	0.000	0.005	0.000	-0.005	0.029	2.676	1.924	1.924	1.919	1.934	1.924	1.914
0.000	-0.005	0.000	0.000	0.005	-0.049	0.029	2.676	1.919	1.919	1.919	1.934	1.924	1.904
0.000	-0.010	0.000	0.000	0.005	-0.054	0.029	2.666	1.909	1.914	1.914	1.934	1.924	1.909
-0.005	-0.029	0.005	0.010	0.005	-0.034	0.029	2.661	1.904	1.904	1.914	1.934	1.929	1.924
0.005	-0.015	0.000	0.005	0.005	-0.024	0.029	2.666	1.904	1.909	1.909	1.934	1.929	1.929
0.010	-0.010	0.000	0.000	0.005	0.010	0.029	2.656	1.904	1.909	1.909	1.934	1.929	1.938
0.010	-0.005	0.005	0.010	0.010	0.029	0.029	2.651	1.904	1.909	1.909	1.934	1.934	1.938
0.005	-0.015	0.000	0.010	0.020	0.020	0.029	2.651	1.899	1.904	1.909	1.929	1.929	1.934
0.005	0.010	-0.005	-0.005	0.010	0.000	0.029	2.778	1.914	1.914	1.909	1.924	1.924	1.929
0.005	0.020	-0.005	-0.005	0.005	-0.005	0.029	2.651	1.909	1.914	1.909	1.924	1.924	1.924
0.010	0.015	0.000	-0.005	0.010	-0.005	0.029	2.676	1.924	1.909	1.909	1.929	1.919	1.919
0.005	0.015	0.000	0.005	0.000	0.000	0.029	2.676	1.914	1.914	1.914	1.929	1.924	1.924
0.000	0.010	0.000	0.015	0.005	0.024	0.029	2.676	1.914	1.914	1.909	1.934	1.929	1.929
-0.010	0.005	0.005	0.020	-0.005	-0.005	0.029	2.686	1.909	1.909	1.914	1.934	1.924	1.924
-0.010	0.005	0.000	0.015	-0.005	0.000	0.029	2.681	1.909	1.904	1.909	1.929	1.924	1.924
-0.010	-0.015	0.005	0.000	-0.024	0.000	0.029	2.681	1.904	1.899	1.909	1.924	1.919	1.924
-0.020	-0.020	0.000	-0.015	-0.020	0.005	0.029	2.671	1.904	1.899	1.904	1.919	1.919	1.924
-0.010	-0.015	0.000	-0.020	-0.044	0.005	0.029	2.671	1.909	1.904	1.904	1.919	1.909	1.919
0.000	-0.020	0.000	-0.005	-0.059	0.024	0.029	2.642	1.904	1.899	1.899	1.924	1.909	1.919
0.010	0.024	-0.005	0.005	-0.034	0.034	0.029	2.651	1.904	1.914	1.904	1.924	1.919	1.924
0.010	0.010	0.000	-0.005	-0.015	0.024	0.029	2.651	1.904	1.904	1.904	1.924	1.924	1.919
0.010	0.103	0.000	-0.015	-0.024	0.010	0.029	2.642	1.904	1.934	1.909	1.924	1.919	1.914
-0.005	0.034	0.000	-0.020	-0.024	-0.005	0.029	2.754	1.904	1.899	1.909	1.924	1.914	1.909
0.010	0.010	-0.005	-0.005	-0.005	-0.024	0.029	2.637	1.899	1.899	1.904	1.924	1.924	1.909
0.005	0.010	0.000	0.000	0.049	-0.044	0.029	2.817	1.914	1.899	1.899	1.929	1.938	1.914
-0.005	0.010	0.000	0.005	0.073	-0.039	0.029	2.847	1.924	1.904	1.904	1.929	1.938	1.924
0.000	0.010	-0.005	0.015	0.068	-0.054	0.029	2.671	1.919	1.909	1.904	1.929	1.934	1.919
0.000	0.000	0.005	0.010	0.107	-0.039	0.029	2.671	1.914	1.909	1.904	1.929	1.943	1.934
-0.005	-0.010	0.000	0.010	0.088	-0.015	0.029	2.686	1.909	1.904	1.904	1.924	1.929	1.938
-0.005	0.000	0.005	0.005	0.073	0.000	0.029	2.671	1.909	1.909	1.904	1.924	1.924	1.934
-0.015	-0.020	0.000	0.010	0.049	0.029	0.029	2.676	1.909	1.904	1.904	1.924	1.919	1.938
-0.005	-0.005	0.005	0.010	0.015	0.029	0.029	2.642	1.904	1.909	1.904	1.924	1.909	1.929
0.000	0.000	0.005	0.010	-0.005	0.015	0.029	2.812	1.909	1.909	1.904	1.924	1.904	1.919
0.005	-0.005	0.000	0.000	-0.015	0.000	0.029	2.676	1.909	1.909	1.904	1.919	1.904	1.909
0.005	-0.010	0.000	0.000	-0.024	-0.015	0.029	2.676	1.904	1.904	1.904	1.919	1.904	1.904
0.005	0.000	0.000	0.000	-0.024	0.005	0.029	2.681	1.899	1.909	1.904	1.919	1.909	1.909
0.005	0.029	-0.005	0.000	-0.029	0.000	0.029	2.666	1.904	1.909	1.904	1.924	1.909	1.904
0.000	0.000	0.000	0.000	-0.044	0.010	0.029	2.769	1.909	1.899	1.904	1.919	1.909	1.909
0.005	-0.029	0.000	0.005	-0.034	-0.020	0.029	2.642	1.904	1.895	1.899	1.919	1.914	1.909
0.010	-0.039	0.000	0.005	-0.029	0.020	0.029	2.632	1.895	1.895	1.895	1.919	1.914	1.914
0.015	-0.010	-0.010	0.000	-0.034	0.010	0.029	2.817	1.914	1.904	1.899	1.914	1.909	1.914
-0.015	0.015	-0.005	0.000	-0.034	0.034	0.029	2.666	1.899	1.909	1.899	1.919	1.914	1.919
-0.005	0.015	-0.005	0.000	-0.020	0.020	0.029	2.671	1.899	1.904	1.904	1.919	1.914	1.914
0.000	0.020	0.005	0.005	-0.024	-0.020	0.029	2.681	1.899	1.904	1.904	1.919	1.909	1.904
-0.005	0.015	0.010	0.000	-0.049	0.005	0.029	2.681	1.899	1.899	1.904	1.919	1.909	1.914
-0.010	0.010	0.005	0.000	-0.063	0.015	0.029	2.646	1.895	1.899	1.904	1.919	1.909	1.914
-0.005	-0.005	0.005	-0.005	-0.068	0.010	0.029	2.646	1.890	1.895	1.899	1.919	1.904	1.904
0.000	0.005	0.005	-0.005	-0.049	0.005	0.029	2.822	1.914	1.899	1.899	1.919	1.914	1.909
0.000	0.010	0.005	0.000	-0.039	-0.005	0.029	2.671	1.909	1.904	1.899	1.924	1.919	1.909
-0.010	0.034	0.000	0.005	-0.039	-0.015	0.034	2.676	1.909	1.909	1.899	1.919	1.914	1.909
-0.005	0.024	0.000	0.000	-0.029	-0.010	0.029	2.676	1.904	1.899	1.899	1.919	1.919	1.914
0.000	-0.005	-0.005	-0.005	0.024	0.005	0.029	2.676	1.904	1.890	1.899	1.919	1.934	1.924
0.005	-0.015	0.005	0.000	0.020	0.010	0.029	2.681	1.904	1.895	1.895	1.919	1.929	1.929
0.015	-0.010	0.000	-0.005	0.015	0.029	0.029	2.676	1.904	1.895	1.895	1.914	1.924	1.934
0.010	-0.015	-0.005	0.005	0.020	0.029	0.029	2.656	1.904	1.899	1.895	1.919	1.924	1.924
0.010	-0.015	0.000	0.005	0.098	0.020	0.029	2.666	1.899	1.895	1.895	1.919	1.938	1.929
0.010	-0.020	0.005	0.010	0.107	0.020	0.029	2.651	1.899	1.899	1.895	1.919	1.938	1.929
-0.005	-0.010	0.000	0.010	0.161	0.015	0.029	2.642	1.890	1.899	1.895	1.919	1.943	1.934
-0.005	0.005	0.000	0.005	0.142	-0.005	0.034	2.681	1.899	1.899	1.895	1.914	1.924	1.924
0.000	-0.010	0.005	0.005	0.098	-0.020	0.029	2.676	1.899	1.895	1.895	1.914	1.914	1.914
-0.005	-0.005	0.005	0.010	0.117	-0.015	0.029	2.681	1.899	1.895	1.895	1.914	1.914	1.919
0.005	0.000	0.005	0.005	0.088	-0.034	0.029	2.646	1.904	1.899	1.899	1.914	1.904	1.909
0.000	0.010	0.000	0.000	0.034	-0.024	0.029	2.817	1.914	1.904	1.895	1.909	1.895	1.904
0.005	0.010	0.005	0.010	0.010	0.010	0.029	2.671	1.914	1.909	1.899	1.914	1.890	1.909
0.005	0.000	0.000	0.000	0.000	0.029	0.029	2.686	1.909	1.904	1.899	1.914	1.895	1.909
0.000	0.005	0.005	-0.005	-0.034	0.029	0.029	2.676	1.904	1.909	1.904	1.914	1.890	1.904
-0.005	0.000	0.000	0.000	-0.039	0.015	0.029	2.686	1.904	1.904	1.904	1.919	1.895	1.899
-0.005	0.000	0.000	0.000	-0.054	-0.010	0.029	2.661	1.899	1.899	1.899	1.919	1.895	1.890
-0.005	-0.005	0.000	0.005	-0.059	-0.024	0.029	2.666	1.895	1.899	1.899	1.919	1.899	1.890
0.000	0.005	0.000	0.005	-0.054	-0.029	0.029	2.661	1.895	1.899	1.899	1.919	1.904	1.890
0.000	0.010	0.000	0.005	-0.039	-0.010	0.029	2.651	1.890	1.895	1.899	1.914	1.909	1.899
0.000	-0.005	0.000	0.000	-0.044	-0.010	0.029	2.622	1.899	1.890	1.890	1.914	1.909	1.899
0.000	0.005	-0.005	-0.010	-0.044	-0.029	0.029	2.676	1.899	1.895	1.890	1.909	1.909	1.899
-0.005	-0.005	0.000	-0.005	-0.054	-0.039	0.029	2.676	1.895	1.890	1.895	1.909	1.904	1.899
0.005	-0.010	0.000	-0.005	-0.044	0.000	0.029	2.651	1.890	1.890	1.890	1.909	1.909	1.909
0.005	-0.005	-0.005	-0.005	-0.034	0.005	0.029	2.705	1.895	1.890	1.890	1.909	1.909	1.914
0.005	0.029	0.000	0.000	-0.034	0.015	0.029	2.593	1.885	1.904	1.890	1.914	1.909	1.914
0.010	0.020	0.000	0.000	-0.039	0.029	0.029	2.646	1.890	1.890	1.895	1.914	1.909	1.919
0.005	0.029	0.005	0.000	-0.059	0.034	0.029	2.700	1.895	1.895	1.895	1.914	1.904	1.909
0.010	-0.005	0.005	0.000	-0.044	0.010	0.034	2.690	1.899	1.880	1.890	1.914	1.909	1.904
0.000	-0.029	0.000	0.000	-0.034	-0.029	0.029	2.695	1.890	1.880	1.885	1.909	1.909	1.899
-0.015	-0.015	0.000	0.005	-0.034	-0.010	0.029	2.666	1.885	1.885	1.885	1.909	1.909	1.904
-0.010	0.020	0.000	0.005	0.000	-0.005	0.029	2.661	1.890	1.895	1.890	1.909	1.919	1.909
-0.015	0.010	0.005	0.010	0.024	-0.010	0.029	2.690	1.890	1.885	1.890	1.914	1.919	1.914
0.000	-0.039	0.000	0.005	0.059	-0.015	0.029	2.686	1.895	1.875	1.885	1.909	1.924	1.914
0.000	-0.020	0.005	0.000	0.073	0.020	0.029	2.671	1.895	1.890	1.885	1.904	1.924	1.929
0.010	-0.039	0.000	-0.005	0.063	0.049	0.029	2.690	1.904	1.885	1.880	1.904	1.914	1.929
0.010	-0.005	0.000	-0.005	0.059	0.029	0.029	2.666	1.899	1.899	1.885	1.904	1.909	1.919
0.010	-0.005	0.000	-0.005	0.054	0.005	0.029	2.676	1.899	1.899	1.890	1.904	1.899	1.909
0.010	0.005	0.000	0.015	0.039	-0.015	0.029	2.695	1.899	1.899	1.890	1.909	1.899	1.899
0.005	0.015	-0.005	0.015	0.015	-0.054	0.029	2.681	1.899	1.904	1.895	1.909	1.895	1.885
0.010	0.010	-0.005	-0.010	-0.015	-0.073	0.029	2.686	1.899	1.899	1.895	1.904	1.885	1.880
0.010	0.020	0.000	-0.020	-0.034	-0.010	0.029	2.686	1.890	1.899	1.895	1.904	1.885	1.899
0.000	0.010	0.000	-0.010	-0.034	0.015	0.029	2.681	1.890	1.895	1.895	1.909	1.895	1.904
-0.005	0.020	0.000	-0.005	-0.024	0.015	0.029	2.676	1.890	1.895	1.895	1.914	1.899	1.899
0.005	0.029	-0.005	0.005	-0.024	0.015	0.029	2.681	1.895	1.899	1.895	1.914	1.904	1.904
-0.005	0.034	0.005	0.010	-0.015	0.024	0.029	2.690	1.895	1.899	1.895	1.919	1.909	1.904
-0.005	0.034	0.005	0.000	-0.005	0.024	0.029	2.651	1.890	1.895	1.895	1.914	1.909	1.909
-0.015	0.010	0.010	0.000	0.010	0.020	0.029	2.666	1.890	1.890	1.895	1.914	1.914	1.909
-0.020	0.015	0.005	0.010	0.034	0.005	0.029	2.690	1.895	1.890	1.895	1.914	1.919	1.909
-0.005	0.000	0.005	0.010	0.044	0.020	0.029	2.686	1.895	1.890	1.890	1.914	1.919	1.914
-0.015	0.000	0.005	0.015	0.024	-0.029	0.029	2.671	1.890	1.890	1.885	1.914	1.909	1.899
-0.015	0.010	0.000	0.010	0.015	-0.029	0.029	2.676	1.890	1.890	1.890	1.909	1.909	1.904
-0.005	-0.015	-0.005	0.005	0.015	-0.020	0.034	2.681	1.895	1.885	1.885	1.904	1.904	1.904
0.000	-0.010	-0.005	0.010	0.010	0.015	0.029	2.676	1.895	1.885	1.885	1.904	1.904	1.914
0.010	-0.020	0.000	0.005	-0.029	0.029	0.029	2.710	1.899	1.885	1.885	1.904	1.890	1.909
0.010	-0.005	-0.005	0.000	-0.049	0.024	0.029	2.676	1.899	1.895	1.885	1.899	1.885	1.904
0.015	-0.024	0.000	-0.005	-0.063	0.020	0.029	2.681	1.895	1.885	1.885	1.899	1.885	1.895
0.005	-0.020	-0.005	-0.005	-0.054	0.015	0.029	2.686	1.890	1.885	1.885	1.899	1.890	1.895
0.010	-0.029	0.005	0.000	-0.078	0.029	0.029	2.681	1.890	1.890	1.885	1.899	1.885	1.895
-0.005	-0.010	0.000	0.000	-0.083	0.059	0.029	2.671	1.890	1.895	1.890	1.904	1.890	1.899
0.015	0.010	0.005	-0.005	-0.044	0.068	0.029	2.690	1.899	1.899	1.890	1.904	1.904	1.904
0.010	-0.010	0.000	-0.005	-0.010	0.059	0.029	2.676	1.890	1.890	1.890	1.904	1.909	1.904
0.005	-0.005	0.005	-0.005	0.010	0.059	0.029	2.695	1.895	1.895	1.890	1.909	1.919	1.909
0.010	0.044	0.000	0.000	0.059	0.029	0.029	2.676	1.899	1.909	1.899	1.909	1.924	1.909
0.005	0.093	0.000	0.000	0.107	-0.039	0.029	2.666	1.895	1.919	1.904	1.919	1.929	1.890
0.000	0.024	0.005	-0.005	0.068	-0.078	0.034	2.681	1.890	1.890	1.895	1.914	1.914	1.890
0.010	-0.039	0.000	-0.005	0.054	-0.122	0.029	2.676	1.885	1.870	1.890	1.914	1.904	1.880
0.000	-0.029	0.000	-0.005	0.039	-0.112	0.029	2.686	1.885	1.875	1.885	1.909	1.899	1.890
0.005	-0.039	0.000	0.000	0.034	-0.078	0.029	2.666	1.885	1.875	1.880	1.909	1.904	1.904
0.000	-0.039	0.000	0.000	0.034	-0.024	0.029	2.681	1.885	1.875	1.880	1.904	1.904	1.914
0.005	-0.049	0.005	0.000	0.010	0.005	0.029	2.695	1.895	1.880	1.875	1.899	1.895	1.919
0.010	-0.020	0.000	0.005	0.005	0.029	0.029	2.676	1.899	1.895	1.885	1.904	1.895	1.919
0.000	-0.010	0.000	-0.005	0.000	0.044	0.029	2.686	1.895	1.895	1.885	1.899	1.895	1.914
0.005	0.005	-0.005	-0.005	-0.005	0.044	0.029	2.671	1.899	1.899	1.885	1.899	1.895	1.904
0.005	0.010	-0.005	-0.005	-0.010	0.049	0.029	2.681	1.895	1.899	1.890	1.899	1.895	1.904
0.000	0.005	0.000	0.000	-0.024	0.020	0.029	2.686	1.895	1.899	1.895	1.904	1.890	1.895
0.000	0.005	0.000	0.000	-0.034	0.015	0.029	2.686	1.895	1.899	1.895	1.909	1.890	1.890
0.000	0.024	0.005	0.005	-0.039	-0.005	0.029	2.681	1.890	1.899	1.895	1.909	1.895	1.885
-0.010	0.024	0.000	0.005	-0.029	0.000	0.029	2.705	1.890	1.895	1.895	1.914	1.904	1.895
-0.024	0.020	0.005	0.015	-0.005	-0.005	0.029	2.671	1.885	1.895	1.895	1.914	1.909	1.895
-0.015	0.024	0.005	0.005	-0.010	-0.029	0.029	2.681	1.885	1.890	1.895	1.914	1.904	1.890
-0.010	0.005	0.005	0.005	-0.015	-0.039	0.029	2.686	1.890	1.885	1.890	1.909	1.904	1.890
-0.005	0.005	0.005	0.010	0.000	-0.049	0.029	2.690	1.895	1.890	1.890	1.914	1.909	1.895
0.005	0.000	0.000	0.010	-0.010	-0.044	0.029	2.681	1.895	1.885	1.885	1.909	1.904	1.899
0.000	-0.010	0.005	0.005	0.010	-0.020	0.029	2.690	1.895	1.885	1.885	1.909	1.909	1.909
-0.005	-0.015	0.005	-0.005	0.000	0.005	0.034	2.681	1.890	1.885	1.885	1.899	1.904	1.914
-0.010	0.010	-0.005	-0.005	0.005	0.034	0.029	2.705	1.895	1.895	1.885	1.899	1.904	1.919
0.005	-0.005	-0.005	-0.005	-0.024	0.039	0.029	2.681	1.899	1.885	1.885	1.899	1.895	1.914
0.010	-0.024	-0.005	-0.010	-0.044	0.034	0.029	2.681	1.895	1.885	1.885	1.899	1.890	1.904
0.005	-0.005	-0.010	-0.005	-0.049	0.024	0.029	2.671	1.895	1.895	1.885	1.899	1.890	1.895
0.005	-0.005	-0.010	0.000	0.005	0.000	0.029	2.681	1.895	1.895	1.885	1.904	1.909	1.895
0.010	0.034	-0.005	-0.005	0.049	-0.024	0.029	2.676	1.890	1.904	1.890	1.904	1.919	1.895
0.010	0.024	0.000	-0.010	0.122	0.005	0.029	2.676	1.890	1.895	1.895	1.909	1.934	1.919
0.015	0.020	0.010	-0.005	0.171	0.005	0.029	2.681	1.890	1.895	1.899	1.914	1.938	1.924
0.000	0.015	0.010	0.000	0.127	-0.010	0.029	2.651	1.885	1.890	1.895	1.914	1.914	1.914
-0.015	0.000	0.005	0.000	0.063	0.024	0.029	2.676	1.885	1.885	1.890	1.914	1.899	1.919
-0.015	0.000	0.010	0.010	0.015	0.015	0.029	2.686	1.890	1.885	1.890	1.914	1.890	1.909
-0.005	0.000	0.000	0.005	-0.020	0.015	0.029	2.676	1.895	1.890	1.885	1.904	1.885	1.899
0.015	0.000	-0.005	0.000	-0.039	0.015	0.029	2.676	1.895	1.890	1.885	1.904	1.880	1.895
0.005	-0.005	-0.005	-0.010	-0.049	0.020	0.034	2.686	1.895	1.890	1.885	1.899	1.885	1.895
0.020	-0.015	-0.005	0.010	-0.039	0.015	0.029	2.676	1.895	1.885	1.885	1.909	1.890	1.890
0.010	-0.005	0.005	0.024	-0.039	-0.005	0.029	2.681	1.895	1.890	1.890	1.914	1.895	1.890
0.005	0.000	0.005	0.020	-0.039	-0.005	0.029	2.700	1.890	1.890	1.890	1.909	1.899	1.890
-0.005	-0.005	-0.005	0.015	-0.029	0.010	0.029	2.661	1.885	1.890	1.885	1.904	1.899	1.895
-0.015	0.000	0.005	0.005	-0.029	0.010	0.029	2.676	1.885	1.885	1.885	1.904	1.899	1.899
-0.010	0.005	0.005	0.015	-0.024	-0.005	0.029	2.671	1.885	1.885	1.885	1.904	1.904	1.895
-0.010	-0.005	0.005	0.010	-0.015	-0.020	0.029	2.681	1.885	1.885	1.885	1.899	1.904	1.895
0.000	-0.005	0.005	0.010	-0.015	-0.015	0.029	2.686	1.890	1.885	1.885	1.904	1.904	1.895
0.010	-0.010	-0.005	0.010	-0.015	0.015	0.029	2.671	1.890	1.885	1.880	1.899	1.899	1.904
0.000	0.010	0.000	0.000	-0.020	-0.010	0.034	2.686	1.890	1.895	1.885	1.899	1.895	1.895
0.000	0.015	0.000	0.005	-0.020	0.000	0.029	2.705	1.890	1.890	1.890	1.899	1.899	1.899
0.000	0.000	0.000	0.005	-0.015	0.000	0.029	2.681	1.895	1.890	1.885	1.904	1.899	1.899
0.010	0.005	0.000	0.005	-0.010	-0.024	0.029	2.676	1.895	1.890	1.885	1.904	1.899	1.895
0.005	0.000	0.000	-0.005	0.000	0.000	0.029	2.676	1.885	1.890	1.890	1.899	1.904	1.899
0.000	0.005	0.000	-0.010	0.010	0.015	0.029	2.681	1.890	1.890	1.890	1.899	1.904	1.904
-0.010	0.010	0.005	-0.005	0.005	0.005	0.029	2.686	1.890	1.890	1.890	1.904	1.899	1.899
-0.005	-0.005	0.005	-0.010	0.000	0.000	0.029	2.686	1.890	1.885	1.890	1.904	1.899	1.895
0.000	0.000	0.010	-0.010	-0.005	-0.005	0.029	2.690	1.890	1.890	1.885	1.904	1.899	1.895
-0.005	-0.010	0.000	-0.005	-0.005	-0.005	0.029	2.651	1.885	1.885	1.885	1.904	1.899	1.895
-0.005	-0.010	0.000	-0.015	-0.005	-0.029	0.029	2.681	1.885	1.885	1.885	1.899	1.895	1.890
0.000	0.005	0.000	-0.020	0.000	-0.005	0.029	2.690	1.890	1.890	1.885	1.899	1.899	1.899
0.010	-0.010	-0.005	-0.010	-0.005	0.015	0.029	2.676	1.890	1.885	1.880	1.899	1.899	1.904
0.020	-0.015	-0.005	-0.005	-0.005	0.020	0.029	2.686	1.895	1.885	1.885	1.904	1.899	1.904
0.015	-0.015	-0.005	0.005	-0.005	0.029	0.029	2.671	1.890	1.890	1.885	1.904	1.899	1.904
0.024	0.000	0.000	0.005	0.000	0.020	0.029	2.671	1.890	1.890	1.885	1.904	1.899	1.899
0.020	-0.005	0.005	0.015	0.005	0.020	0.029	2.690	1.890	1.890	1.885	1.909	1.904	1.899
0.005	0.005	0.010	0.015	0.000	0.039	0.029	2.705	1.890	1.895	1.890	1.909	1.899	1.909
-0.015	0.000	0.005	0.005	0.000	0.044	0.029	2.671	1.885	1.890	1.890	1.904	1.899	1.909
-0.015	0.010	0.000	0.000	0.000	0.093	0.029	2.686	1.890	1.890	1.890	1.904	1.904	1.919
-0.015	0.005	-0.005	0.000	0.005	0.122	0.029	2.671	1.890	1.895	1.885	1.904	1.904	1.924
-0.015	0.020	-0.005	0.000	0.005	0.107	0.029	2.681	1.890	1.890	1.890	1.904	1.904	1.909
-0.024	0.034	0.000	0.000	0.010	0.049	0.029	2.681	1.895	1.895	1.890	1.904	1.904	1.895
-0.015	0.015	0.005	0.000	0.010	-0.020	0.029	2.686	1.895	1.890	1.890	1.909	1.899	1.875
-0.005	0.020	0.000	0.000	0.010	-0.132	0.029	2.676	1.895	1.895	1.890	1.904	1.895	1.851
0.000	0.010	-0.005	0.005	0.015	-0.229	0.029	2.642	1.885	1.890	1.885	1.909	1.895	1.841
-0.005	0.029	0.000	0.005	0.005	-0.225	0.029	2.686	1.880	1.890	1.890	1.909	1.895	1.855
0.005	0.000	-0.005	0.015	0.000	-0.220	0.029	2.686	1.880	1.880	1.885	1.904	1.899	1.865
0.015	-0.029	0.000	0.020	0.005	-0.132	0.029	2.676	1.875	1.870	1.880	1.909	1.904	1.899
0.015	-0.093	-0.005	0.005	-0.005	-0.049	0.029	2.671	1.875	1.855	1.870	1.895	1.904	1.924
0.010	-0.093	-0.005	-0.005	-0.005	0.005	0.029	2.681	1.885	1.865	1.870	1.890	1.899	1.929
0.015	-0.044	0.000	-0.005	-0.010	0.044	0.029	2.661	1.890	1.880	1.870	1.890	1.895	1.929
0.024	-0.005	0.000	0.000	0.005	0.039	0.029	2.681	1.895	1.895	1.875	1.895	1.895	1.924
0.000	0.044	0.005	-0.005	-0.010	0.063	0.029	2.666	1.890	1.909	1.885	1.895	1.890	1.919
-0.020	0.054	0.000	-0.005	-0.005	0.059	0.029	2.671	1.885	1.904	1.890	1.895	1.895	1.909
-0.005	0.059	-0.010	0.000	-0.005	0.068	0.029	2.676	1.890	1.899	1.895	1.904	1.895	1.909
-0.015	0.093	-0.010	0.005	-0.020	0.059	0.029	2.686	1.890	1.909	1.895	1.904	1.890	1.904
-0.005	0.044	-0.005	0.000	-0.015	0.068	0.029	2.671	1.890	1.890	1.890	1.909	1.895	1.904
-0.005	0.015	0.005	0.005	-0.029	0.068	0.029	2.671	1.890	1.885	1.895	1.909	1.895	1.899
0.000	-0.005	0.005	0.005	-0.024	0.049	0.029	2.681	1.895	1.880	1.890	1.909	1.899	1.895
0.005	-0.005	0.010	0.005	-0.024	0.063	0.029	2.671	1.890	1.880	1.885	1.904	1.899	1.899
0.005	-0.010	0.005	0.005	-0.015	0.020	0.029	2.695	1.890	1.885	1.880	1.904	1.904	1.885
0.000	-0.010	0.005	0.000	-0.005	0.024	0.029	2.651	1.885	1.880	1.885	1.904	1.904	1.895
0.000	-0.015	0.005	0.000	-0.010	-0.005	0.029	2.686	1.885	1.880	1.885	1.904	1.899	1.890
0.000	-0.010	0.005	-0.005	-0.010	-0.029	0.029	2.676	1.885	1.880	1.880	1.899	1.895	1.880
0.000	-0.005	0.000	-0.020	-0.029	-0.044	0.029	2.671	1.880	1.885	1.880	1.895	1.890	1.880
0.005	-0.005	-0.005	-0.015	-0.024	-0.059	0.029	2.666	1.885	1.885	1.880	1.895	1.890	1.880
0.010	0.000	0.005	-0.010	-0.015	-0.073	0.029	2.686	1.885	1.885	1.880	1.895	1.895	1.880
0.005	-0.010	0.000	-0.005	-0.034	-0.054	0.029	2.695	1.880	1.880	1.880	1.899	1.885	1.885
0.000	0.000	0.005	0.005	-0.034	-0.010	0.029	2.686	1.885	1.880	1.880	1.904	1.895	1.899
0.000	0.010	0.000	0.020	-0.020	0.015	0.029	2.676	1.885	1.885	1.885	1.904	1.904	1.909
-0.010	0.000	0.005	0.010	-0.020	0.024	0.029	2.676	1.885	1.885	1.885	1.899	1.899	1.909
-0.005	0.005	0.005	0.005	-0.015	0.020	0.029	2.695	1.890	1.885	1.880	1.904	1.899	1.904
0.000	0.005	0.005	0.015	0.000	0.010	0.029	2.681	1.890	1.890	1.885	1.904	1.904	1.904
0.005	0.000	0.005	0.015	0.015	0.010	0.029	2.671	1.890	1.885	1.885	1.904	1.909	1.899
0.000	0.010	0.000	0.020	0.044	0.024	0.029	2.676	1.890	1.890	1.885	1.904	1.914	1.909
0.000	0.000	0.000	0.010	0.073	-0.020	0.029	2.656	1.885	1.885	1.880	1.904	1.914	1.899
-0.005	-0.005	-0.005	0.010	0.107	0.000	0.029	2.676	1.885	1.885	1.880	1.899	1.919	1.914
0.010	-0.010	-0.005	0.005	0.107	0.005	0.029	2.676	1.890	1.885	1.885	1.899	1.914	1.914
0.000	-0.005	0.000	0.005	0.093	0.000	0.029	2.666	1.895	1.885	1.885	1.904	1.904	1.909
0.010	-0.015	0.000	0.005	0.073	-0.005	0.029	2.686	1.890	1.885	1.880	1.899	1.895	1.904
0.010	-0.010	0.000	0.000	0.063	0.010	0.029	2.681	1.895	1.885	1.880	1.899	1.895	1.904
0.015	-0.005	0.005	0.000	0.063	0.020	0.029	2.671	1.895	1.890	1.885	1.899	1.895	1.904
0.010	-0.005	0.000	0.000	0.049	0.044	0.029	2.690	1.890	1.890	1.885	1.899	1.890	1.904
0.005	-0.005	0.005	-0.010	0.024	0.054	0.029	2.695	1.890	1.890	1.885	1.895	1.885	1.899
0.000	-0.010	-0.005	-0.020	-0.020	0.039	0.029	2.656	1.885	1.885	1.885	1.895	1.875	1.890
0.015	-0.020	-0.005	-0.020	-0.063	0.034	0.034	2.676	1.890	1.885	1.880	1.895	1.865	1.880
0.005	-0.005	0.000	-0.020	-0.088	0.020	0.029	2.690	1.890	1.890	1.885	1.899	1.870	1.870
0.005	0.010	0.000	0.005	-0.063	0.015	0.029	2.690	1.885	1.895	1.890	1.909	1.880	1.875
0.000	0.015	0.000	0.029	-0.049	0.020	0.029	2.666	1.880	1.890	1.890	1.914	1.895	1.880
-0.005	0.015	0.005	0.024	-0.039	0.015	0.029	2.666	1.885	1.890	1.890	1.909	1.899	1.885
-0.010	0.000	0.010	0.015	-0.010	-0.020	0.029	2.686	1.880	1.880	1.885	1.909	1.909	1.880
-0.010	0.000	0.005	0.015	0.020	-0.083	0.029	2.710	1.890	1.880	1.885	1.909	1.909	1.870
0.000	-0.005	0.000	0.015	0.024	-0.122	0.029	2.681	1.885	1.885	1.880	1.904	1.909	1.875
0.000	0.010	-0.005	0.000	0.034	-0.088	0.029	2.671	1.890	1.885	1.885	1.899	1.909	1.895
-0.005	0.015	0.000	0.005	0.049	-0.054	0.029	2.666	1.880	1.885	1.885	1.899	1.914	1.909
0.000	0.005	-0.005	0.000	0.078	-0.015	0.029	2.686	1.890	1.885	1.880	1.904	1.914	1.919
0.000	0.010	-0.005	0.005	0.073	0.000	0.029	2.671	1.885	1.885	1.880	1.904	1.909	1.919
0.010	0.005	-0.005	0.000	0.054	0.005	0.029	2.681	1.890	1.885	1.880	1.899	1.904	1.914
0.005	-0.005	-0.005	0.000	0.059	0.015	0.029	2.681	1.895	1.880	1.880	1.899	1.899	1.914
0.005	-0.005	0.005	0.000	0.024	0.034	0.029	2.705	1.890	1.885	1.885	1.899	1.890	1.914
0.000	-0.010	0.000	0.000	0.024	0.054	0.029	2.671	1.890	1.880	1.880	1.899	1.895	1.914
-0.010	0.000	0.005	-0.005	0.044	0.054	0.029	2.686	1.890	1.890	1.885	1.899	1.899	1.909
-0.024	0.005	0.005	-0.005	0.024	0.054	0.029	2.690	1.890	1.890	1.885	1.899	1.890	1.904
-0.010	0.005	0.005	0.005	0.010	0.039	0.029	2.666	1.890	1.890	1.885	1.904	1.890	1.895
0.000	0.005	0.005	0.010	-0.005	0.020	0.029	2.676	1.890	1.890	1.890	1.904	1.890	1.890
-0.010	0.010	0.000	0.015	-0.010	0.000	0.029	2.686	1.890	1.890	1.885	1.909	1.890	1.885
-0.015	0.005	0.005	0.000	-0.010	0.000	0.029	2.690	1.890	1.885	1.885	1.899	1.890	1.885
-0.005	-0.005	0.000	-0.005	-0.024	-0.010	0.029	2.700	1.890	1.890	1.885	1.899	1.890	1.880
0.000	0.005	-0.005	-0.005	-0.034	-0.010	0.034	2.676	1.885	1.890	1.880	1.899	1.890	1.880
-0.015	0.005	-0.005	-0.005	-0.039	-0.015	0.029	2.681	1.885	1.890	1.885	1.899	1.890	1.885
-0.005	-0.015	-0.010	0.000	-0.044	0.010	0.029	2.681	1.890	1.880	1.880	1.899	1.890	1.895
0.000	-0.010	-0.010	0.000	-0.049	0.010	0.029	2.671	1.890	1.885	1.880	1.899	1.890	1.890
0.000	0.000	-0.005	0.000	-0.044	-0.010	0.029	2.686	1.885	1.885	1.885	1.899	1.890	1.885
0.005	-0.015	0.005	-0.005	-0.044	0.010	0.029	2.686	1.885	1.880	1.885	1.899	1.890	1.895
0.010	-0.010	0.000	-0.005	-0.039	0.015	0.029	2.686	1.890	1.880	1.880	1.899	1.895	1.895
0.020	-0.024	0.005	0.015	-0.034	0.034	0.029	2.656	1.885	1.880	1.880	1.904	1.899	1.899
0.020	0.000	0.005	0.015	-0.024	-0.005	0.029	2.666	1.885	1.885	1.885	1.904	1.899	1.890
0.020	0.000	0.010	0.020	-0.020	-0.010	0.029	2.676	1.890	1.885	1.885	1.904	1.899	1.895
0.015	0.000	0.000	0.015	-0.024	-0.005	0.029	2.686	1.885	1.885	1.880	1.899	1.899	1.895
-0.005	0.020	0.005	0.005	-0.010	-0.010	0.029	2.686	1.885	1.890	1.885	1.899	1.904	1.899
0.000	0.024	0.005	-0.005	-0.005	-0.015	0.029	2.681	1.885	1.890	1.885	1.899	1.899	1.895
-0.010	0.000	0.010	-0.010	0.000	-0.034	0.029	2.686	1.885	1.880	1.880	1.899	1.899	1.890
-0.020	0.015	-0.005	0.005	0.010	-0.029	0.029	2.671	1.885	1.880	1.880	1.904	1.904	1.895
-0.010	0.015	0.005	0.010	0.010	-0.034	0.029	2.666	1.880	1.885	1.880	1.904	1.904	1.895
0.005	0.015	-0.005	0.000	0.015	-0.024	0.029	2.686	1.890	1.885	1.880	1.899	1.904	1.899
0.005	-0.010	0.000	0.000	0.015	0.015	0.029	2.686	1.885	1.880	1.880	1.899	1.904	1.909
0.005	-0.010	-0.005	-0.005	0.010	0.049	0.029	2.666	1.885	1.880	1.880	1.895	1.899	1.914
0.005	-0.015	-0.005	-0.010	0.015	0.068	0.029	2.681	1.890	1.880	1.880	1.895	1.899	1.914
0.020	-0.005	0.005	-0.015	0.010	0.073	0.029	2.666	1.895	1.885	1.880	1.895	1.895	1.914
0.024	-0.010	-0.005	-0.029	0.005	0.073	0.034	2.690	1.899	1.890	1.880	1.895	1.895	1.904
0.015	-0.005	-0.010	-0.034	0.015	0.059	0.029	2.686	1.895	1.890	1.880	1.890	1.890	1.899
0.010	-0.005	-0.005	-0.024	0.020	0.024	0.034	2.676	1.890	1.890	1.885	1.895	1.890	1.885
-0.010	0.015	-0.005	-0.015	0.015	-0.020	0.029	2.690	1.885	1.890	1.885	1.904	1.890	1.875
-0.020	0.005	0.000	0.005	0.020	-0.073	0.029	2.681	1.885	1.885	1.885	1.909	1.895	1.870
-0.005	-0.005	-0.005	0.029	0.020	-0.103	0.029	2.676	1.890	1.885	1.890	1.914	1.895	1.870
-0.020	0.000	-0.005	0.044	0.020	-0.112	0.029	2.681	1.880	1.885	1.885	1.919	1.899	1.875
-0.068	0.020	0.000	0.024	0.015	-0.078	0.029	2.676	1.865	1.885	1.885	1.904	1.899	1.890
-0.078	0.015	0.005	0.005	0.005	-0.054	0.029	2.681	1.870	1.875	1.885	1.899	1.899	1.899
-0.073	0.039	0.005	0.020	0.010	0.005	0.029	2.681	1.880	1.885	1.885	1.904	1.904	1.914
-0.093	0.029	0.010	0.015	0.005	0.015	0.034	2.686	1.875	1.875	1.880	1.904	1.899	1.914
-0.078	0.010	0.015	0.005	0.010	0.029	0.034	2.690	1.885	1.875	1.880	1.899	1.899	1.914
-0.010	0.015	0.010	0.000	0.005	0.024	0.029	2.681	1.909	1.885	1.880	1.899	1.895	1.909
0.054	0.000	0.010	0.000	-0.010	-0.005	0.034	2.661	1.919	1.895	1.885	1.895	1.890	1.895
0.107	-0.005	0.010	-0.005	0.000	-0.010	0.029	2.681	1.924	1.904	1.890	1.899	1.895	1.890
0.146	-0.020	0.010	-0.005	-0.005	-0.024	0.029	2.666	1.919	1.904	1.895	1.899	1.895	1.890
0.151	-0.024	0.005	-0.010	-0.010	-0.010	0.029	2.671	1.914	1.904	1.890	1.904	1.890	1.895
0.142	-0.029	-0.005	-0.015	-0.005	-0.005	0.029	2.661	1.899	1.899	1.890	1.899	1.895	1.895
0.098	-0.015	0.000	-0.020	-0.015	0.020	0.029	2.686	1.885	1.899	1.895	1.904	1.895	1.899
0.059	-0.005	-0.005	-0.015	-0.010	0.039	0.029	2.686	1.875	1.895	1.890	1.909	1.899	1.904
0.015	0.005	-0.005	-0.010	-0.005	0.044	0.034	2.686	1.870	1.890	1.890	1.909	1.904	1.904
-0.005	0.010	-0.005	-0.005	-0.010	0.034	0.029	2.666	1.865	1.880	1.890	1.909	1.899	1.899
-0.034	0.010	-0.005	0.005	-0.010	0.034	0.029	2.676	1.860	1.875	1.885	1.909	1.899	1.904
-0.059	0.005	-0.005	0.015	-0.010	0.024	0.029	2.681	1.860	1.870	1.880	1.909	1.904	1.899
-0.068	-0.005	0.000	0.005	-0.010	0.039	0.029	2.676	1.870	1.865	1.875	1.904	1.904	1.904
-0.063	-0.015	0.000	0.000	-0.020	0.024	0.029	2.686	1.875	1.865	1.870	1.899	1.895	1.899
-0.054	-0.005	0.000	0.000	-0.015	0.015	0.029	2.686	1.885	1.870	1.875	1.895	1.895	1.895
-0.039	-0.005	0.005	0.000	-0.010	0.005	0.029	2.676	1.890	1.875	1.875	1.895	1.895	1.890
-0.039	-0.005	0.005	-0.005	-0.010	0.005	0.029	2.686	1.890	1.880	1.875	1.890	1.895	1.895
-0.039	0.000	0.010	-0.005	0.000	0.024	0.029	2.681	1.890	1.880	1.875	1.895	1.895	1.899
-0.020	-0.020	0.010	-0.005	-0.005	0.029	0.029	2.666	1.895	1.880	1.875	1.890	1.895	1.899
0.000	-0.020	0.000	-0.005	-0.005	0.000	0.029	2.676	1.895	1.885	1.875	1.895	1.890	1.890
0.015	-0.010	-0.005	0.000	-0.015	-0.010	0.034	2.686	1.899	1.885	1.880	1.895	1.885	1.885
0.000	0.005	-0.005	-0.005	-0.015	-0.020	0.029	2.686	1.895	1.895	1.880	1.895	1.890	1.885
0.000	0.010	-0.005	-0.005	-0.005	-0.059	0.029	2.681	1.890	1.895	1.885	1.895	1.890	1.880
0.015	0.010	0.000	0.010	-0.005	-0.039	0.029	2.681	1.895	1.895	1.890	1.904	1.890	1.885
0.015	0.034	0.000	0.015	-0.010	-0.049	0.029	2.666	1.890	1.899	1.890	1.904	1.895	1.885
-0.005	0.020	-0.005	0.000	-0.005	-0.020	0.029	2.671	1.880	1.885	1.885	1.899	1.895	1.895
-0.010	0.015	0.005	0.010	-0.010	0.005	0.029	2.681	1.880	1.885	1.890	1.904	1.899	1.904
-0.005	0.015	0.000	0.015	0.005	0.015	0.029	2.671	1.885	1.885	1.885	1.909	1.904	1.904
-0.005	0.010	0.005	0.005	0.005	0.015	0.029	2.671	1.885	1.885	1.880	1.904	1.904	1.904
0.000	0.005	0.000	-0.005	0.020	0.005	0.029	2.681	1.890	1.880	1.880	1.899	1.904	1.904
-0.010	0.000	0.005	-0.005	0.015	0.015	0.029	2.681	1.890	1.880	1.880	1.899	1.899	1.904
-0.005	0.020	0.005	-0.005	0.020	0.005	0.029	2.676	1.890	1.890	1.885	1.899	1.904	1.904
-0.010	0.010	0.005	-0.005	0.020	0.029	0.029	2.676	1.885	1.885	1.885	1.904	1.899	1.904
-0.015	0.005	0.000	0.010	0.010	0.010	0.029	2.676	1.890	1.885	1.885	1.904	1.899	1.899
0.010	0.015	0.005	0.020	0.005	0.020	0.029	2.671	1.895	1.890	1.885	1.909	1.899	1.904
0.020	0.010	0.000	0.034	0.005	-0.005	0.029	2.671	1.895	1.890	1.885	1.909	1.899	1.895
0.020	0.010	0.000	0.029	0.000	0.010	0.029	2.676	1.890	1.890	1.885	1.909	1.899	1.899
0.010	-0.005	0.000	0.020	0.000	0.010	0.029	2.686	1.890	1.880	1.880	1.904	1.899	1.899
0.005	-0.015	0.000	0.024	0.005	-0.005	0.029	2.686	1.890	1.880	1.885	1.904	1.899	1.895
0.020	-0.029	0.000	0.015	0.005	-0.044	0.029	2.686	1.890	1.880	1.880	1.895	1.899	1.885
0.005	-0.024	-0.005	-0.005	0.015	-0.015	0.029	2.671	1.880	1.880	1.875	1.890	1.895	1.895
0.005	-0.015	-0.005	-0.015	0.005	-0.005	0.029	2.671	1.880	1.880	1.880	1.890	1.890	1.895
0.000	-0.024	0.000	-0.020	0.005	-0.010	0.029	2.686	1.885	1.880	1.880	1.895	1.890	1.895
0.000	-0.020	0.000	-0.005	0.000	-0.005	0.029	2.676	1.885	1.880	1.880	1.895	1.890	1.895
0.010	-0.015	0.000	-0.005	0.015	-0.010	0.029	2.686	1.890	1.885	1.875	1.895	1.895	1.895
0.005	-0.020	0.000	-0.005	0.010	-0.010	0.029	2.671	1.890	1.885	1.880	1.895	1.890	1.895
0.005	-0.010	-0.005	-0.010	0.000	0.010	0.029	2.661	1.890	1.885	1.880	1.895	1.890	1.895
0.010	-0.005	0.000	-0.010	0.000	0.015	0.029	2.695	1.895	1.890	1.885	1.899	1.890	1.895
0.000	0.020	0.000	-0.015	0.010	0.010	0.029	2.676	1.890	1.895	1.885	1.899	1.895	1.895
-0.020	0.039	0.005	0.010	0.005	0.005	0.029	2.686	1.885	1.899	1.890	1.909	1.899	1.895
-0.020	0.039	-0.005	0.029	0.005	0.005	0.034	2.686	1.885	1.895	1.890	1.914	1.895	1.895
-0.020	0.029	0.000	0.024	0.010	0.015	0.029	2.686	1.885	1.885	1.890	1.909	1.904	1.899
-0.020	0.020	-0.005	0.010	0.000	0.010	0.029	2.681	1.885	1.885	1.885	1.904	1.899	1.899
-0.024	0.005	0.000	0.010	0.000	0.005	0.029	2.666	1.885	1.880	1.885	1.904	1.899	1.899
-0.010	-0.010	-0.005	0.005	0.010	0.000	0.029	2.681	1.885	1.875	1.880	1.899	1.899	1.899
0.005	-0.005	0.005	0.000	0.015	-0.024	0.029	2.681	1.890	1.880	1.880	1.899	1.899	1.895
0.010	-0.015	0.000	-0.010	0.010	0.015	0.029	2.686	1.890	1.880	1.875	1.895	1.895	1.904
0.010	-0.010	0.005	-0.005	0.005	0.005	0.029	2.661	1.890	1.885	1.880	1.895	1.895	1.899
0.010	-0.020	0.005	-0.005	0.010	0.010	0.029	2.681	1.885	1.880	1.880	1.895	1.895	1.899
0.015	-0.005	0.000	-0.005	0.000	0.000	0.029	2.666	1.890	1.890	1.885	1.895	1.890	1.895
0.015	0.000	0.005	-0.005	0.010	-0.010	0.029	2.681	1.885	1.885	1.880	1.899	1.895	1.890
-0.005	0.005	0.005	-0.005	0.010	0.005	0.029	2.676	1.885	1.885	1.880	1.899	1.895	1.895
-0.010	0.005	0.010	-0.005	0.005	0.000	0.029	2.676	1.885	1.885	1.885	1.899	1.895	1.895
0.000	0.005	0.005	-0.005	0.015	0.005	0.029	2.666	1.880	1.885	1.885	1.899	1.895	1.895
0.005	-0.010	0.005	-0.005	0.010	0.000	0.029	2.676	1.885	1.880	1.880	1.899	1.895	1.895
0.010	0.000	0.005	-0.005	0.005	0.015	0.029	2.671	1.890	1.885	1.885	1.899	1.895	1.899
0.000	0.000	0.005	0.005	0.010	0.005	0.029	2.676	1.885	1.885	1.880	1.904	1.899	1.899
0.000	-0.005	-0.005	0.000	0.015	-0.010	0.029	2.681	1.885	1.880	1.880	1.899	1.899	1.895
-0.005	-0.015	0.000	0.000	0.020	-0.005	0.029	2.690	1.890	1.880	1.880	1.904	1.899	1.895
0.000	-0.015	0.000	0.005	0.015	-0.005	0.029	2.686	1.885	1.880	1.880	1.904	1.899	1.895
0.000	-0.005	0.000	0.010	0.020	0.000	0.029	2.671	1.885	1.885	1.880	1.899	1.899	1.899
0.000	-0.005	0.000	0.005	0.020	0.010	0.029	2.671	1.885	1.885	1.880	1.899	1.899	1.899
-0.005	-0.010	0.000	0.005	0.029	0.010	0.029	2.681	1.885	1.880	1.880	1.899	1.899	1.899
0.005	-0.005	0.000	0.010	0.010	-0.029	0.029	2.686	1.890	1.885	1.880	1.899	1.895	1.885
-0.005	0.015	0.000	0.005	0.010	0.010	0.029	2.666	1.885	1.890	1.885	1.899	1.895	1.899
0.005	0.000	-0.005	0.005	0.005	0.000	0.029	2.686	1.890	1.885	1.880	1.899	1.890	1.895
0.010	0.005	-0.010	0.005	0.000	-0.015	0.029	2.671	1.885	1.885	1.880	1.895	1.890	1.890
0.000	-0.005	-0.010	-0.005	0.010	-0.005	0.029	2.681	1.885	1.880	1.880	1.895	1.895	1.890
-0.010	0.005	-0.005	-0.020	0.015	0.010	0.029	2.681	1.880	1.885	1.880	1.895	1.890	1.895
0.005	0.000	-0.005	-0.020	0.015	0.010	0.029	2.671	1.885	1.885	1.880	1.895	1.895	1.895
0.000	0.005	-0.005	-0.005	0.020	-0.005	0.029	2.676	1.885	1.885	1.885	1.899	1.895	1.890
0.005	0.005	0.020	0.015	0.010	0.010	0.029	2.681	1.890	1.885	1.890	1.909	1.895	1.895
0.010	0.010	0.010	0.029	0.010	0.010	0.029	2.671	1.890	1.890	1.885	1.914	1.899	1.895
-0.005	0.024	0.005	0.029	0.005	0.015	0.029	2.686	1.885	1.890	1.885	1.909	1.899	1.899
0.000	0.024	0.015	0.020	0.010	0.015	0.029	2.666	1.885	1.890	1.885	1.904	1.899	1.899
-0.015	0.024	0.020	0.005	0.015	0.010	0.029	2.676	1.885	1.885	1.890	1.904	1.904	1.899
-0.005	0.015	0.010	0.000	0.015	-0.005	0.029	2.671	1.885	1.885	1.885	1.899	1.899	1.895
0.000	0.010	0.000	0.000	0.015	0.005	0.029	2.671	1.885	1.880	1.880	1.899	1.899	1.899
0.005	-0.010	-0.005	0.010	0.015	-0.005	0.029	2.671	1.885	1.875	1.875	1.899	1.895	1.895
0.005	-0.010	-0.005	0.000	0.010	-0.005	0.029	2.676	1.885	1.880	1.875	1.895	1.895	1.899
-0.005	-0.005	-0.005	-0.005	0.000	0.010	0.029	2.681	1.885	1.880	1.875	1.890	1.890	1.895
0.005	-0.029	-0.005	0.000	0.005	-0.005	0.029	2.681	1.885	1.875	1.875	1.895	1.890	1.890
0.015	-0.024	-0.005	-0.005	0.005	0.005	0.029	2.676	1.885	1.875	1.875	1.895	1.890	1.895
0.005	-0.024	-0.005	0.000	0.015	-0.015	0.029	2.666	1.880	1.880	1.875	1.895	1.890	1.890
0.005	-0.020	-0.005	-0.005	0.010	0.010	0.029	2.681	1.885	1.880	1.875	1.895	1.890	1.895
0.010	-0.010	0.005	-0.010	0.020	-0.010	0.029	2.783	1.904	1.890	1.880	1.895	1.895	1.890
0.010	0.005	-0.005	-0.010	0.024	-0.020	0.034	2.817	1.914	1.899	1.880	1.895	1.890	1.890
-0.015	0.010	0.000	-0.010	0.024	-0.010	0.029	2.671	1.899	1.899	1.890	1.899	1.890	1.895
-0.024	0.024	0.000	-0.010	0.020	-0.024	0.029	2.661	1.890	1.899	1.890	1.904	1.890	1.885
-0.034	0.024	0.000	-0.010	0.010	-0.034	0.029	2.646	1.880	1.895	1.895	1.904	1.890	1.885
-0.010	0.010	0.005	-0.010	0.000	-0.024	0.029	2.651	1.885	1.890	1.890	1.904	1.895	1.890
0.000	0.000	0.000	0.000	-0.005	-0.010	0.029	2.720	1.890	1.885	1.890	1.909	1.895	1.895
0.005	-0.010	-0.005	-0.005	-0.010	-0.005	0.029	2.646	1.885	1.880	1.885	1.904	1.895	1.895
0.015	0.010	0.000	0.005	-0.010	-0.015	0.029	2.642	1.885	1.890	1.885	1.909	1.895	1.895
0.020	0.000	-0.005	0.005	-0.005	-0.010	0.029	2.837	1.904	1.885	1.885	1.904	1.899	1.899
0.015	-0.010	-0.005	0.005	-0.005	0.024	0.029	2.676	1.899	1.890	1.885	1.904	1.899	1.909
0.005	-0.010	-0.005	0.000	-0.010	0.000	0.029	2.666	1.890	1.885	1.885	1.904	1.899	1.899
0.015	-0.010	-0.005	0.005	-0.010	0.015	0.029	2.656	1.890	1.885	1.885	1.904	1.899	1.904
0.015	-0.015	-0.005	-0.005	-0.005	0.034	0.029	2.671	1.885	1.885	1.885	1.899	1.899	1.904
0.015	-0.020	0.000	-0.010	-0.005	0.020	0.029	2.666	1.885	1.885	1.885	1.899	1.895	1.899
-0.010	0.010	0.000	-0.005	-0.010	0.020	0.029	2.676	1.885	1.890	1.885	1.904	1.895	1.895
-0.005	0.024	0.000	0.015	-0.015	0.015	0.029	2.661	1.880	1.890	1.885	1.909	1.899	1.895
-0.005	0.024	0.000	0.029	-0.015	-0.024	0.029	2.646	1.880	1.885	1.890	1.914	1.899	1.890
-0.020	0.020	0.005	0.015	-0.020	-0.020	0.029	2.651	1.875	1.880	1.890	1.904	1.899	1.890
-0.020	0.005	0.000	-0.010	-0.024	-0.029	0.029	2.646	1.875	1.875	1.880	1.895	1.895	1.890
-0.020	0.010	0.005	0.000	-0.020	-0.010	0.029	2.700	1.875	1.875	1.880	1.899	1.895	1.899
0.000	0.000	0.005	0.010	-0.010	-0.015	0.029	2.822	1.904	1.880	1.880	1.904	1.899	1.899
-0.005	-0.005	0.005	0.020	-0.015	0.000	0.029	2.646	1.895	1.880	1.880	1.904	1.899	1.899
0.000	0.005	0.000	0.010	-0.010	-0.020	0.029	2.822	1.909	1.890	1.880	1.899	1.899	1.895
-0.005	-0.010	0.005	0.015	-0.010	0.020	0.029	2.671	1.899	1.890	1.885	1.904	1.899	1.909
-0.005	-0.010	0.000	0.034	-0.015	0.029	0.029	2.676	1.895	1.885	1.885	1.909	1.899	1.909
0.005	-0.010	0.000	0.015	-0.005	0.029	0.029	2.681	1.895	1.890	1.885	1.899	1.904	1.904
0.005	-0.005	0.000	-0.015	0.000	0.039	0.029	2.676	1.899	1.890	1.885	1.895	1.899	1.909
0.005	-0.005	0.000	-0.015	0.000	0.005	0.029	2.671	1.895	1.890	1.885	1.895	1.895	1.895
0.000	-0.015	0.000	-0.015	-0.015	0.034	0.029	2.661	1.885	1.890	1.885	1.899	1.895	1.895
0.015	-0.005	0.000	-0.010	-0.010	-0.005	0.029	2.661	1.890	1.890	1.885	1.899	1.895	1.890
0.005	-0.005	0.000	-0.010	-0.020	-0.015	0.029	2.666	1.885	1.890	1.890	1.904	1.890	1.885
0.010	0.000	-0.005	0.000	-0.029	-0.029	0.029	2.642	1.880	1.890	1.885	1.904	1.890	1.885
0.010	-0.005	-0.005	0.000	-0.024	-0.024	0.029	2.656	1.875	1.885	1.885	1.904	1.895	1.885
0.010	0.010	0.000	-0.015	-0.020	-0.015	0.029	2.715	1.885	1.885	1.885	1.899	1.895	1.890
-0.020	0.015	0.000	-0.020	-0.015	-0.010	0.034	2.651	1.875	1.885	1.885	1.899	1.895	1.895
-0.020	0.015	0.005	-0.029	-0.005	0.000	0.029	2.646	1.875	1.880	1.880	1.899	1.904	1.899
-0.005	0.000	0.005	-0.020	0.005	0.015	0.029	2.817	1.895	1.880	1.885	1.904	1.904	1.904
0.005	0.015	0.000	0.005	0.005	0.034	0.029	2.661	1.899	1.890	1.885	1.909	1.904	1.909
0.000	0.010	0.005	0.000	0.010	0.029	0.029	2.681	1.895	1.885	1.885	1.909	1.904	1.909
0.010	-0.010	0.005	0.005	0.010	0.020	0.029	2.681	1.895	1.885	1.885	1.909	1.904	1.904
0.015	-0.015	0.000	0.015	0.000	0.010	0.034	2.671	1.890	1.885	1.885	1.909	1.899	1.899
0.000	-0.010	0.000	0.020	0.000	-0.015	0.034	2.666	1.885	1.890	1.880	1.909	1.899	1.890
-0.005	0.000	0.000	0.015	0.005	-0.005	0.029	2.666	1.885	1.885	1.885	1.904	1.899	1.899
0.010	-0.005	0.000	0.039	-0.005	0.010	0.029	2.651	1.885	1.885	1.885	1.909	1.899	1.899
0.010	-0.005	-0.005	0.034	-0.005	-0.005	0.029	2.642	1.880	1.880	1.880	1.904	1.899	1.899
0.010	0.005	0.000	0.010	-0.005	-0.010	0.029	2.637	1.880	1.885	1.880	1.895	1.895	1.895
0.015	-0.005	0.000	-0.015	-0.015	-0.005	0.029	2.646	1.880	1.880	1.880	1.890	1.890	1.895
0.010	-0.005	0.005	-0.010	-0.034	-0.010	0.029	2.681	1.880	1.880	1.880	1.895	1.885	1.890
0.005	0.005	-0.005	-0.005	-0.029	-0.005	0.029	2.656	1.880	1.880	1.880	1.895	1.890	1.890
-0.020	0.015	0.000	0.000	-0.020	0.005	0.029	2.642	1.870	1.880	1.880	1.899	1.895	1.895
-0.020	0.020	0.005	0.010	-0.020	0.029	0.029	2.817	1.895	1.885	1.880	1.904	1.895	1.899
0.000	0.024	0.000	0.024	-0.005	0.015	0.029	2.686	1.899	1.890	1.885	1.909	1.904	1.895
0.005	0.020	0.005	0.015	0.015	0.005	0.029	2.681	1.895	1.890	1.885	1.904	1.904	1.899
0.010	0.010	0.005	0.005	0.010	0.020	0.029	2.686	1.895	1.890	1.885	1.899	1.904	1.899
-0.010	0.015	0.000	-0.010	0.010	0.015	0.029	2.676	1.885	1.890	1.885	1.895	1.899	1.899
0.000	-0.005	0.000	-0.020	0.015	-0.005	0.029	2.681	1.890	1.885	1.885	1.895	1.895	1.895
0.010	-0.010	0.000	-0.015	0.020	0.010	0.029	2.666	1.890	1.880	1.885	1.899	1.895	1.899
0.015	-0.015	0.005	-0.015	0.000	-0.010	0.029	2.656	1.885	1.880	1.880	1.895	1.890	1.890
0.010	-0.020	0.005	-0.020	-0.010	0.005	0.029	2.666	1.885	1.880	1.880	1.895	1.890	1.895
0.015	-0.010	0.000	-0.010	-0.020	0.005	0.029	2.651	1.880	1.885	1.880	1.899	1.890	1.890
0.000	0.000	0.000	-0.005	-0.010	-0.010	0.029	2.651	1.875	1.885	1.880	1.899	1.890	1.885
-0.005	0.000	0.000	-0.005	-0.015	-0.005	0.029	2.666	1.875	1.880	1.880	1.899	1.895	1.890
-0.010	0.005	0.000	-0.005	0.015	0.005	0.029	2.817	1.890	1.885	1.880	1.899	1.904	1.895
-0.005	0.005	0.005	-0.005	0.039	0.015	0.034	2.651	1.890	1.885	1.885	1.904	1.904	1.899
-0.005	0.000	0.005	-0.005	0.044	0.000	0.029	2.646	1.885	1.880	1.880	1.899	1.904	1.904
0.005	0.005	0.000	0.010	0.029	0.015	0.029	2.671	1.885	1.885	1.880	1.904	1.899	1.899
0.000	-0.005	0.010	0.015	0.015	0.015	0.029	2.671	1.890	1.885	1.885	1.904	1.899	1.899
0.010	0.000	0.005	0.010	0.015	0.005	0.029	2.681	1.890	1.885	1.885	1.904	1.895	1.899
0.000	0.000	0.000	0.010	0.020	0.005	0.029	2.681	1.885	1.885	1.880	1.904	1.899	1.895
-0.005	0.005	0.010	0.010	0.015	0.000	0.029	2.676	1.885	1.885	1.885	1.904	1.895	1.899
-0.005	0.010	0.005	0.010	0.000	0.010	0.029	2.666	1.885	1.885	1.885	1.904	1.895	1.895
-0.005	-0.005	0.000	0.005	-0.005	-0.005	0.024	2.666	1.880	1.880	1.880	1.899	1.890	1.890
-0.005	-0.015	0.000	0.000	-0.005	0.005	0.029	2.661	1.880	1.875	1.880	1.899	1.895	1.895
0.010	-0.010	0.000	0.000	-0.015	0.005	0.029	2.646	1.885	1.880	1.880	1.895	1.890	1.895
-0.020	-0.005	0.005	-0.005	-0.010	0.000	0.029	2.642	1.870	1.875	1.875	1.895	1.890	1.890
-0.020	0.000	0.005	0.000	-0.010	-0.015	0.029	2.671	1.875	1.875	1.880	1.899	1.890	1.885
-0.020	0.015	0.000	0.005	0.000	0.010	0.029	2.803	1.895	1.885	1.875	1.899	1.895	1.895
-0.010	-0.005	-0.005	0.005	0.000	0.005	0.034	2.817	1.909	1.885	1.880	1.899	1.895	1.895
0.000	-0.005	-0.005	0.000	0.000	0.015	0.029	2.827	1.924	1.895	1.880	1.895	1.890	1.895
0.044	0.010	0.000	0.005	0.000	0.015	0.029	2.661	1.919	1.904	1.890	1.899	1.895	1.895
0.054	0.000	-0.005	0.000	-0.005	-0.005	0.029	2.676	1.914	1.904	1.890	1.899	1.890	1.890
0.068	-0.005	0.000	0.010	0.000	-0.024	0.029	2.676	1.909	1.904	1.899	1.909	1.895	1.890
0.044	-0.010	0.005	0.000	0.005	0.000	0.029	2.681	1.895	1.899	1.899	1.909	1.899	1.895
0.024	-0.005	0.005	0.000	0.005	-0.005	0.029	2.686	1.885	1.899	1.895	1.909	1.899	1.895
0.010	0.005	0.005	0.000	0.005	-0.015	0.029	2.661	1.880	1.895	1.895	1.909	1.899	1.895
-0.005	0.005	0.000	0.000	0.005	-0.020	0.029	2.666	1.875	1.890	1.895	1.909	1.904	1.895
-0.029	0.020	0.005	-0.005	-0.010	0.000	0.029	2.651	1.870	1.885	1.895	1.909	1.899	1.899
-0.034	0.005	0.000	-0.005	-0.010	0.000	0.029	2.661	1.870	1.875	1.885	1.909	1.899	1.899
-0.024	0.000	0.000	-0.005	-0.015	0.005	0.029	2.656	1.875	1.875	1.880	1.904	1.899	1.899
-0.029	0.010	0.000	-0.005	-0.005	0.015	0.029	2.666	1.875	1.875	1.880	1.904	1.899	1.904
-0.024	0.005	0.005	-0.005	0.000	0.010	0.029	2.744	1.880	1.875	1.880	1.904	1.904	1.904
-0.020	-0.010	0.015	0.005	-0.005	0.024	0.029	2.627	1.875	1.875	1.880	1.904	1.899	1.909
-0.005	-0.010	0.005	0.010	-0.005	0.020	0.029	2.656	1.880	1.875	1.875	1.904	1.899	1.904
-0.010	-0.005	-0.005	0.005	0.000	0.015	0.029	2.676	1.885	1.880	1.875	1.895	1.899	1.899
0.005	-0.005	-0.005	0.005	0.015	-0.005	0.029	2.676	1.890	1.880	1.875	1.895	1.899	1.899
-0.005	-0.010	-0.005	0.000	0.024	0.000	0.029	2.666	1.880	1.875	1.875	1.895	1.899	1.899
0.005	-0.015	-0.005	0.000	0.024	-0.005	0.029	2.681	1.885	1.875	1.875	1.895	1.895	1.895
0.000	-0.005	-0.005	0.010	0.024	-0.005	0.029	2.681	1.885	1.880	1.875	1.895	1.895	1.895
0.000	-0.010	0.000	0.005	0.020	0.005	0.029	2.739	1.895	1.880	1.880	1.895	1.890	1.895
0.015	-0.015	0.010	0.000	0.015	0.020	0.029	2.632	1.899	1.885	1.880	1.895	1.890	1.899
0.029	0.000	0.005	-0.005	0.000	-0.005	0.029	2.852	1.919	1.895	1.885	1.895	1.880	1.890
0.015	0.015	0.010	-0.010	-0.010	0.000	0.034	2.686	1.909	1.904	1.890	1.895	1.880	1.890
-0.005	0.015	0.000	-0.010	-0.024	-0.020	0.029	2.676	1.895	1.904	1.890	1.899	1.880	1.880
-0.010	0.015	0.005	-0.005	-0.029	-0.015	0.029	2.676	1.890	1.899	1.895	1.904	1.885	1.880
-0.024	0.020	0.005	-0.010	-0.024	-0.010	0.029	2.632	1.890	1.895	1.895	1.904	1.895	1.890
-0.015	0.015	0.000	0.000	-0.015	0.000	0.029	2.803	1.904	1.895	1.895	1.909	1.899	1.895
0.005	0.010	0.010	0.005	0.000	0.010	0.029	2.651	1.904	1.895	1.895	1.914	1.909	1.899
0.010	-0.005	0.005	0.010	0.005	0.005	0.029	2.651	1.895	1.895	1.895	1.914	1.909	1.899
0.020	-0.024	0.000	0.015	0.005	0.005	0.029	2.666	1.890	1.885	1.890	1.914	1.909	1.899
0.020	-0.020	0.000	0.010	-0.005	0.000	0.029	2.681	1.895	1.890	1.885	1.909	1.904	1.904
0.010	-0.005	-0.005	0.010	0.010	0.000	0.029	2.671	1.885	1.890	1.890	1.904	1.909	1.904
-0.005	-0.005	0.005	0.005	0.015	-0.010	0.029	2.676	1.885	1.890	1.890	1.909	1.904	1.904
-0.010	0.010	-0.005	0.005	0.024	-0.015	0.029	2.632	1.875	1.890	1.885	1.909	1.909	1.899
0.000	0.015	-0.005	0.000	0.024	0.000	0.029	2.808	1.899	1.890	1.885	1.904	1.904	1.909
0.005	0.000	0.000	0.000	0.020	-0.005	0.029	2.651	1.895	1.890	1.885	1.904	1.904	1.899
0.005	0.005	0.005	-0.005	0.005	0.010	0.029	2.837	1.909	1.895	1.890	1.904	1.899	1.904
0.010	0.000	0.005	0.005	-0.015	0.010	0.029	2.686	1.904	1.895	1.890	1.904	1.895	1.899
0.000	0.010	0.005	0.000	-0.015	0.000	0.029	2.690	1.899	1.899	1.890	1.909	1.895	1.899
0.000	0.015	0.005	0.000	-0.005	0.005	0.029	2.681	1.895	1.899	1.895	1.909	1.899	1.899
0.000	0.010	0.005	0.000	0.000	0.005	0.029	2.671	1.895	1.895	1.895	1.909	1.904	1.899
0.000	0.000	0.010	0.000	0.000	-0.005	0.029	2.676	1.890	1.890	1.895	1.909	1.904	1.899
0.005	-0.005	0.005	0.005	-0.005	-0.010	0.029	2.671	1.890	1.890	1.895	1.909	1.904	1.899
0.005	-0.005	0.000	0.000	-0.005	-0.015	0.029	2.666	1.890	1.890	1.890	1.909	1.904	1.899
0.005	-0.005	0.005	0.010	0.000	-0.020	0.029	2.651	1.885	1.890	1.890	1.909	1.904	1.899
0.020	0.000	0.005	0.020	-0.005	-0.010	0.029	2.646	1.885	1.890	1.890	1.914	1.904	1.904
0.010	0.000	0.000	0.005	0.005	-0.005	0.029	2.671	1.885	1.885	1.885	1.909	1.904	1.909
0.015	0.000	0.000	-0.005	0.005	0.005	0.029	2.676	1.885	1.885	1.885	1.904	1.904	1.909
-0.010	0.005	0.000	-0.015	0.000	-0.005	0.029	2.671	1.875	1.885	1.885	1.899	1.899	1.899
-0.034	0.010	0.000	-0.015	-0.015	0.005	0.029	2.622	1.870	1.880	1.880	1.899	1.895	1.904
-0.015	0.010	0.000	-0.005	-0.010	0.005	0.029	2.627	1.875	1.880	1.880	1.899	1.895	1.904
-0.005	0.010	0.005	0.000	-0.015	0.005	0.029	2.822	1.895	1.880	1.880	1.904	1.895	1.899
0.000	0.005	0.000	0.005	-0.010	-0.005	0.029	2.686	1.899	1.885	1.880	1.904	1.895	1.895
0.005	-0.010	0.005	-0.005	-0.010	0.010	0.029	2.671	1.895	1.880	1.880	1.899	1.899	1.899
0.005	-0.020	0.000	0.000	-0.005	-0.010	0.029	2.681	1.895	1.880	1.880	1.899	1.899	1.895
0.015	-0.015	0.000	0.034	0.005	0.020	0.029	2.676	1.895	1.890	1.885	1.909	1.904	1.904
0.005	-0.005	0.000	0.029	0.005	0.024	0.029	2.681	1.890	1.890	1.885	1.904	1.904	1.909
-0.005	0.010	0.005	0.024	0.010	0.039	0.029	2.676	1.885	1.890	1.890	1.904	1.904	1.909
-0.005	0.010	0.005	-0.005	0.020	0.020	0.029	2.661	1.885	1.890	1.890	1.899	1.904	1.904
0.000	0.000	-0.005	-0.024	0.029	-0.005	0.029	2.661	1.890	1.885	1.880	1.890	1.899	1.895
0.005	-0.010	0.000	-0.024	0.020	0.005	0.034	2.676	1.890	1.885	1.885	1.895	1.899	1.899
0.000	-0.010	0.005	-0.024	0.015	-0.005	0.029	2.681	1.885	1.885	1.885	1.899	1.895	1.895
0.000	-0.020	0.000	-0.010	0.005	-0.024	0.029	2.637	1.880	1.880	1.880	1.899	1.890	1.885
0.000	-0.010	0.000	-0.010	-0.015	-0.024	0.034	2.646	1.880	1.885	1.880	1.899	1.885	1.890
0.000	-0.010	-0.005	-0.010	-0.024	-0.005	0.029	2.671	1.880	1.880	1.880	1.899	1.890	1.890
0.020	-0.005	-0.005	-0.005	-0.029	-0.029	0.029	2.637	1.880	1.885	1.880	1.899	1.885	1.880
0.024	0.029	-0.005	-0.010	-0.034	-0.039	0.034	2.686	1.885	1.890	1.885	1.899	1.890	1.880
0.010	0.024	0.000	-0.005	-0.054	-0.034	0.029	2.681	1.880	1.885	1.885	1.899	1.885	1.885
-0.073	0.000	0.000	0.005	-0.054	-0.010	0.029	2.705	1.860	1.870	1.880	1.904	1.890	1.890
-0.098	0.015	0.000	0.020	-0.029	0.010	0.029	2.695	1.865	1.870	1.880	1.904	1.899	1.899
-0.059	0.029	-0.005	0.034	-0.029	-0.010	0.029	2.681	1.880	1.880	1.875	1.909	1.899	1.895
-0.054	0.039	-0.010	0.015	-0.010	0.010	0.029	2.676	1.885	1.885	1.875	1.899	1.904	1.899
-0.054	0.039	-0.005	0.010	0.024	0.020	0.029	2.686	1.890	1.885	1.880	1.899	1.914	1.909
0.029	0.034	-0.010	0.020	0.044	-0.005	0.029	2.671	1.914	1.895	1.885	1.904	1.914	1.909
0.112	0.015	-0.005	0.020	0.054	0.020	0.029	2.666	1.929	1.899	1.890	1.904	1.914	1.914
0.112	0.000	0.000	0.005	0.059	0.010	0.029	2.686	1.924	1.904	1.890	1.904	1.909	1.909
0.132	-0.015	-0.005	-0.005	0.073	0.029	0.029	2.681	1.924	1.904	1.895	1.899	1.909	1.919
0.132	-0.005	-0.005	-0.005	0.073	0.029	0.029	2.681	1.914	1.909	1.895	1.904	1.909	1.914
0.088	-0.010	-0.005	-0.005	0.059	0.029	0.029	2.681	1.895	1.904	1.899	1.909	1.904	1.909
0.049	-0.010	-0.005	-0.005	0.034	0.010	0.029	2.676	1.880	1.895	1.895	1.904	1.895	1.895
0.005	-0.039	-0.005	-0.010	-0.005	-0.005	0.029	2.681	1.875	1.875	1.890	1.904	1.885	1.890
-0.020	-0.044	0.000	0.000	-0.024	0.000	0.029	2.681	1.870	1.875	1.885	1.909	1.885	1.890
-0.034	-0.034	0.010	-0.010	-0.044	-0.010	0.029	2.676	1.870	1.870	1.885	1.899	1.885	1.885
-0.034	-0.024	0.005	-0.020	-0.059	-0.020	0.029	2.671	1.870	1.875	1.880	1.899	1.880	1.880
-0.044	-0.020	0.015	-0.010	-0.088	-0.005	0.034	2.676	1.875	1.875	1.880	1.899	1.880	1.885
-0.049	0.020	0.010	0.010	-0.117	-0.024	0.034	2.690	1.875	1.885	1.880	1.904	1.875	1.875
-0.049	0.029	0.015	0.020	-0.103	-0.049	0.029	2.676	1.880	1.885	1.880	1.909	1.885	1.870
-0.068	0.029	0.015	0.020	-0.068	-0.049	0.029	2.676	1.870	1.880	1.885	1.904	1.899	1.885
-0.068	0.015	0.015	0.010	-0.024	-0.015	0.029	2.686	1.875	1.875	1.880	1.904	1.909	1.895
-0.059	0.010	0.015	0.005	0.029	0.005	0.029	2.686	1.885	1.875	1.880	1.899	1.924	1.909
-0.034	0.024	0.020	0.000	0.068	0.020	0.029	2.676	1.890	1.885	1.880	1.899	1.929	1.924
-0.005	0.000	0.015	0.000	0.093	0.034	0.029	2.686	1.899	1.885	1.885	1.899	1.924	1.929
0.010	-0.005	0.005	0.000	0.127	0.015	0.029	2.681	1.904	1.890	1.880	1.899	1.924	1.924
0.020	0.020	0.000	0.005	0.137	0.024	0.029	2.666	1.899	1.899	1.880	1.899	1.924	1.924
0.015	0.015	-0.005	0.000	0.132	-0.005	0.034	2.676	1.899	1.899	1.885	1.899	1.909	1.914
0.010	0.005	-0.005	-0.005	0.068	0.024	0.029	2.686	1.899	1.895	1.885	1.895	1.890	1.914
0.020	0.000	-0.010	-0.015	0.015	0.010	0.034	2.676	1.904	1.895	1.885	1.895	1.875	1.899
0.010	-0.020	-0.015	-0.010	-0.015	0.020	0.029	2.671	1.890	1.885	1.885	1.899	1.875	1.890
0.005	-0.020	-0.015	-0.010	-0.034	0.010	0.029	2.656	1.880	1.885	1.880	1.899	1.870	1.885
-0.024	0.000	-0.020	0.000	-0.049	-0.005	0.029	2.676	1.875	1.885	1.880	1.899	1.875	1.875
-0.034	-0.010	-0.010	0.005	-0.059	0.000	0.029	2.681	1.875	1.875	1.885	1.904	1.875	1.880
-0.020	-0.005	-0.010	0.010	-0.063	-0.005	0.029	2.656	1.875	1.875	1.885	1.904	1.885	1.880
-0.005	-0.015	-0.005	0.024	-0.063	-0.005	0.029	2.676	1.880	1.880	1.880	1.904	1.890	1.880
0.015	-0.005	-0.005	0.039	-0.044	-0.015	0.029	2.671	1.890	1.885	1.885	1.909	1.899	1.885
0.044	0.000	0.010	0.029	-0.024	-0.015	0.029	2.695	1.899	1.890	1.885	1.904	1.904	1.890
0.059	-0.005	0.015	0.005	-0.015	0.000	0.029	2.671	1.895	1.890	1.890	1.899	1.904	1.899
0.044	0.020	0.015	-0.015	-0.015	-0.005	0.029	2.671	1.890	1.899	1.890	1.895	1.899	1.899
0.029	0.010	0.015	-0.029	-0.039	-0.024	0.029	2.686	1.890	1.890	1.890	1.895	1.890	1.890
0.034	0.015	0.010	-0.024	-0.029	-0.015	0.029	2.676	1.890	1.890	1.885	1.899	1.895	1.895
0.010	-0.005	0.010	-0.024	-0.020	0.000	0.029	2.681	1.880	1.880	1.885	1.899	1.899	1.899
0.015	-0.010	0.005	-0.010	-0.029	0.000	0.029	2.671	1.880	1.880	1.885	1.904	1.895	1.895
0.020	-0.010	0.005	0.000	-0.020	0.005	0.029	2.666	1.885	1.880	1.885	1.909	1.899	1.899
0.024	-0.005	0.005	-0.010	-0.005	0.010	0.029	2.681	1.890	1.880	1.880	1.904	1.904	1.904
-0.024	-0.005	-0.005	-0.015	-0.005	0.034	0.029	2.671	1.870	1.875	1.875	1.899	1.904	1.909
-0.088	-0.005	-0.005	-0.015	0.010	0.039	0.029	2.681	1.860	1.870	1.875	1.899	1.904	1.909
-0.098	-0.005	-0.005	-0.005	0.020	0.039	0.029	2.681	1.865	1.870	1.870	1.895	1.904	1.909
-0.073	0.000	-0.005	0.000	0.029	0.024	0.029	2.681	1.880	1.875	1.875	1.895	1.899	1.899
-0.044	0.000	0.000	-0.005	0.020	0.039	0.029	2.686	1.890	1.875	1.875	1.895	1.899	1.904
-0.010	0.010	-0.005	-0.005	0.029	-0.015	0.034	2.686	1.899	1.885	1.875	1.895	1.895	1.885
-0.010	0.015	-0.005	0.020	0.010	-0.015	0.034	2.681	1.899	1.890	1.880	1.904	1.890	1.885
0.024	0.010	-0.005	0.044	0.015	-0.054	0.034	2.676	1.904	1.895	1.885	1.909	1.895	1.880
0.063	0.010	0.000	0.034	0.039	-0.054	0.034	2.690	1.909	1.899	1.890	1.904	1.904	1.885
0.083	0.034	-0.005	0.005	0.049	-0.059	0.034	2.681	1.909	1.909	1.890	1.899	1.904	1.890
0.093	0.024	0.005	-0.005	0.073	-0.034	0.029	2.686	1.904	1.904	1.899	1.904	1.909	1.904
0.068	0.005	0.010	0.000	0.088	-0.024	0.029	2.690	1.899	1.899	1.899	1.909	1.914	1.904
-0.005	0.010	0.005	-0.005	0.049	-0.010	0.029	2.686	1.875	1.890	1.890	1.904	1.899	1.909
-0.044	0.010	-0.005	-0.010	0.034	0.005	0.029	2.681	1.870	1.885	1.885	1.904	1.895	1.909
-0.059	0.010	-0.005	-0.010	0.005	0.000	0.029	2.690	1.870	1.880	1.885	1.904	1.885	1.899
-0.088	0.039	-0.005	0.005	-0.034	0.005	0.029	2.686	1.870	1.880	1.880	1.909	1.880	1.895
-0.068	0.024	0.000	0.015	-0.039	0.020	0.029	2.666	1.875	1.875	1.880	1.909	1.890	1.899
-0.029	0.005	-0.005	0.034	-0.034	0.034	0.029	2.671	1.890	1.875	1.880	1.909	1.895	1.899
0.005	-0.010	-0.005	0.049	-0.034	0.049	0.034	2.671	1.899	1.875	1.875	1.909	1.895	1.904
0.034	-0.024	-0.005	0.034	-0.044	0.068	0.029	2.681	1.909	1.880	1.880	1.899	1.895	1.904
0.020	-0.029	-0.005	-0.005	-0.020	0.054	0.029	2.686	1.895	1.880	1.875	1.890	1.895	1.899
-0.015	-0.010	0.000	-0.010	-0.010	0.039	0.029	2.676	1.885	1.885	1.880	1.890	1.895	1.899
-0.049	-0.010	0.015	-0.015	0.000	0.029	0.029	2.690	1.880	1.885	1.880	1.895	1.899	1.890
-0.029	-0.010	0.015	-0.005	-0.005	-0.015	0.029	2.681	1.885	1.885	1.885	1.899	1.890	1.880
-0.020	-0.005	0.015	0.010	-0.024	-0.049	0.029	2.686	1.890	1.885	1.885	1.899	1.890	1.875
0.005	-0.005	0.015	0.000	-0.024	-0.073	0.029	2.690	1.890	1.885	1.885	1.899	1.890	1.870
0.054	0.005	0.010	-0.005	-0.015	-0.093	0.029	2.695	1.909	1.895	1.885	1.904	1.895	1.870
0.107	-0.005	-0.005	0.000	-0.005	-0.078	0.029	2.681	1.914	1.899	1.885	1.899	1.899	1.885
0.127	-0.005	0.000	-0.005	-0.010	-0.059	0.029	2.656	1.909	1.899	1.890	1.904	1.895	1.890
0.122	-0.005	0.005	-0.005	-0.020	-0.029	0.029	2.686	1.899	1.899	1.895	1.904	1.899	1.904
0.088	0.015	0.000	-0.005	-0.015	0.000	0.029	2.681	1.890	1.899	1.895	1.909	1.899	1.909
0.039	-0.010	0.000	-0.005	-0.010	0.020	0.029	2.676	1.875	1.885	1.895	1.909	1.899	1.914
-0.005	-0.005	0.000	-0.005	-0.010	0.020	0.029	2.686	1.870	1.880	1.890	1.909	1.904	1.909
-0.059	0.000	-0.005	-0.010	-0.015	0.020	0.029	2.681	1.855	1.875	1.880	1.904	1.899	1.909
-0.093	0.005	-0.015	-0.005	-0.005	0.015	0.029	2.671	1.860	1.870	1.870	1.899	1.904	1.904
-0.049	0.000	-0.010	-0.005	0.005	0.024	0.029	2.676	1.875	1.870	1.875	1.899	1.904	1.909
-0.088	-0.020	-0.010	-0.005	0.020	0.034	0.029	2.695	1.870	1.865	1.870	1.895	1.904	1.904
-0.137	-0.015	-0.005	0.000	0.000	0.029	0.029	2.676	1.865	1.860	1.870	1.895	1.895	1.899
-0.112	-0.049	-0.005	0.015	-0.020	0.015	0.029	2.686	1.875	1.860	1.865	1.895	1.890	1.895
-0.088	-0.039	-0.005	0.005	-0.005	0.005	0.029	2.676	1.890	1.870	1.865	1.890	1.890	1.885
-0.054	0.005	-0.005	-0.015	-0.010	0.000	0.029	2.681	1.899	1.885	1.870	1.885	1.885	1.890
0.005	0.044	0.000	-0.005	0.000	-0.029	0.029	2.681	1.914	1.909	1.885	1.890	1.890	1.880
0.078	0.068	0.010	0.020	0.034	0.010	0.029	2.676	1.934	1.924	1.899	1.904	1.899	1.899
0.151	0.049	0.015	0.039	0.054	-0.005	0.029	2.690	1.943	1.924	1.904	1.919	1.909	1.895
0.142	0.059	0.010	0.020	0.078	0.020	0.029	2.700	1.924	1.924	1.909	1.914	1.919	1.909
0.107	0.049	0.020	0.015	0.078	0.010	0.029	2.686	1.904	1.919	1.914	1.919	1.914	1.909
0.078	0.024	0.010	0.024	0.015	0.010	0.029	2.686	1.895	1.899	1.904	1.919	1.899	1.904
0.034	0.005	0.005	0.029	-0.015	0.000	0.034	2.676	1.880	1.890	1.895	1.924	1.895	1.899
-0.020	-0.010	-0.005	0.034	-0.005	0.005	0.029	2.676	1.865	1.875	1.890	1.919	1.904	1.895
-0.054	-0.020	0.000	0.000	-0.010	-0.005	0.034	2.676	1.860	1.865	1.880	1.899	1.899	1.899
-0.034	-0.024	-0.005	-0.044	0.005	0.015	0.034	2.686	1.875	1.865	1.875	1.890	1.899	1.904
-0.020	-0.020	-0.005	-0.063	0.034	0.024	0.034	2.671	1.885	1.875	1.875	1.885	1.904	1.909
-0.005	-0.024	0.000	-0.063	0.068	0.029	0.034	2.681	1.890	1.875	1.875	1.885	1.904	1.904
0.005	-0.015	0.000	-0.049	0.049	0.024	0.034	2.676	1.890	1.880	1.880	1.890	1.895	1.904
-0.015	-0.005	0.005	-0.005	0.015	0.005	0.034	2.681	1.890	1.885	1.880	1.909	1.890	1.890
-0.010	0.005	0.005	0.039	0.000	0.000	0.034	2.690	1.890	1.890	1.885	1.919	1.890	1.890
-0.005	0.010	0.015	0.044	-0.039	-0.034	0.034	2.676	1.890	1.890	1.885	1.914	1.885	1.875
-0.005	0.015	0.010	0.020	-0.073	-0.015	0.034	2.676	1.890	1.890	1.885	1.904	1.880	1.885
0.000	0.005	0.005	0.039	-0.093	-0.015	0.034	2.686	1.890	1.885	1.885	1.909	1.880	1.880
0.015	-0.005	0.010	0.034	-0.107	-0.034	0.034	2.676	1.895	1.885	1.885	1.904	1.880	1.875
0.024	0.000	0.010	-0.015	-0.112	-0.044	0.034	2.661	1.890	1.890	1.885	1.890	1.880	1.875
0.020	0.000	0.005	-0.039	-0.137	-0.039	0.034	2.681	1.885	1.885	1.880	1.885	1.875	1.875
-0.020	0.010	0.015	-0.044	-0.132	-0.029	0.034	2.690	1.870	1.885	1.885	1.890	1.880	1.880
-0.059	0.000	-0.010	-0.020	-0.098	-0.005	0.034	2.681	1.865	1.870	1.875	1.899	1.895	1.890
-0.059	-0.005	-0.039	-0.010	-0.039	-0.015	0.034	2.686	1.870	1.870	1.870	1.899	1.909	1.895
-0.044	-0.015	-0.044	-0.015	0.005	-0.005	0.034	2.681	1.875	1.870	1.865	1.895	1.914	1.904
-0.039	-0.024	-0.034	-0.015	0.039	0.005	0.034	2.671	1.880	1.870	1.870	1.890	1.914	1.909
-0.122	-0.015	-0.020	-0.015	0.039	0.034	0.034	2.686	1.860	1.870	1.870	1.890	1.909	1.919
-0.137	-0.005	-0.024	0.010	0.039	0.068	0.034	2.651	1.865	1.870	1.870	1.895	1.909	1.924
-0.088	-0.005	0.000	0.044	0.093	0.083	0.034	2.681	1.890	1.875	1.880	1.909	1.924	1.929
-0.029	-0.005	0.063	0.024	0.190	0.068	0.034	2.676	1.904	1.885	1.895	1.904	1.943	1.929
0.010	0.015	0.049	0.015	0.278	0.054	0.034	2.686	1.919	1.899	1.895	1.904	1.953	1.934
0.073	-0.005	0.010	0.015	0.308	0.029	0.034	2.681	1.934	1.909	1.885	1.904	1.948	1.929
0.146	0.000	-0.015	0.020	0.254	0.005	0.034	2.671	1.943	1.919	1.885	1.904	1.919	1.919
0.195	0.010	-0.020	0.010	0.078	-0.010	0.034	2.671	1.943	1.929	1.895	1.899	1.860	1.895
0.146	0.029	-0.005	0.000	-0.049	0.010	0.034	2.686	1.909	1.929	1.904	1.899	1.846	1.885
-0.005	0.010	-0.005	-0.015	-0.020	0.024	0.034	2.690	1.865	1.899	1.904	1.904	1.870	1.885
-0.049	0.020	-0.005	-0.015	-0.054	0.059	0.034	2.676	1.855	1.890	1.899	1.904	1.870	1.890
-0.068	-0.015	0.000	-0.024	-0.063	0.083	0.034	2.681	1.860	1.870	1.890	1.904	1.875	1.890
-0.054	-0.039	0.020	-0.034	-0.098	0.073	0.034	2.681	1.870	1.865	1.885	1.904	1.870	1.880
-0.010	-0.039	0.024	-0.010	-0.137	0.059	0.034	2.686	1.890	1.875	1.885	1.909	1.870	1.870
0.054	-0.024	0.015	0.005	-0.142	-0.015	0.034	2.681	1.904	1.885	1.880	1.909	1.880	1.855
0.171	0.010	-0.010	0.039	-0.068	-0.103	0.029	2.686	1.934	1.909	1.885	1.919	1.904	1.846
0.229	0.024	-0.024	0.059	-0.005	-0.073	0.034	2.681	1.938	1.919	1.890	1.919	1.924	1.875
0.283	0.039	-0.024	0.029	0.029	-0.112	0.034	2.686	1.934	1.929	1.899	1.914	1.929	1.880
0.142	0.068	-0.020	0.020	0.107	-0.132	0.029	2.666	1.875	1.919	1.904	1.914	1.943	1.895
-0.020	0.068	-0.015	0.034	0.083	-0.107	0.034	2.690	1.836	1.890	1.904	1.919	1.929	1.909
-0.176	0.044	-0.010	0.020	0.083	-0.103	0.034	2.690	1.802	1.855	1.890	1.914	1.924	1.909
-0.234	0.000	0.000	0.024	0.000	-0.117	0.034	2.690	1.807	1.826	1.875	1.904	1.890	1.904
-0.234	-0.015	0.020	0.024	-0.112	-0.083	0.034	2.676	1.831	1.821	1.865	1.899	1.870	1.899
-0.200	-0.015	0.015	0.005	-0.117	-0.039	0.034	2.671	1.855	1.836	1.851	1.885	1.870	1.904
-0.137	-0.010	0.015	-0.020	-0.137	-0.005	0.034	2.681	1.885	1.851	1.851	1.870	1.865	1.904
-0.088	-0.015	0.034	-0.024	-0.122	0.039	0.034	2.690	1.895	1.865	1.855	1.875	1.875	1.909
-0.083	0.005	0.015	-0.034	-0.083	0.083	0.034	2.686	1.895	1.875	1.860	1.870	1.885	1.914
-0.142	0.010	0.020	-0.054	0.000	0.112	0.034	2.681	1.880	1.875	1.865	1.870	1.899	1.919
-0.005	0.000	0.034	-0.049	-0.005	0.093	0.029	2.686	1.929	1.890	1.875	1.880	1.890	1.904
0.044	-0.010	0.039	-0.024	-0.083	0.034	0.034	2.676	1.929	1.899	1.880	1.890	1.865	1.875
-0.054	-0.029	0.024	-0.005	-0.127	0.010	0.029	2.690	1.885	1.885	1.880	1.895	1.865	1.865
-0.039	-0.015	0.015	0.000	-0.127	-0.034	0.034	2.666	1.885	1.890	1.875	1.895	1.870	1.855
0.039	-0.005	-0.005	0.010	0.005	-0.010	0.029	2.671	1.909	1.899	1.880	1.904	1.919	1.880
0.132	-0.005	0.005	0.039	0.146	0.029	0.034	2.671	1.934	1.909	1.895	1.919	1.953	1.914
0.215	-0.005	-0.005	0.029	0.259	0.083	0.034	2.676	1.943	1.919	1.899	1.914	1.973	1.948
0.293	-0.010	-0.024	0.029	0.225	0.127	0.034	2.681	1.958	1.929	1.899	1.919	1.948	1.958
0.215	-0.005	-0.029	0.010	0.195	0.166	0.034	2.656	1.909	1.924	1.904	1.909	1.929	1.963
-0.078	0.005	-0.039	-0.020	0.186	0.161	0.029	2.622	1.816	1.885	1.895	1.899	1.919	1.948
-0.215	0.005	-0.020	-0.024	0.161	0.122	0.034	1.230	1.641	1.826	1.880	1.895	1.895	1.909
-0.244	-0.005	0.024	-0.015	0.059	0.059	0.029	1.157	1.533	1.753	1.860	1.890	1.865	1.880
-0.176	0.000	0.034	-0.020	0.024	-0.024	0.034	1.152	1.489	1.689	1.816	1.875	1.855	1.851
-0.034	0.000	0.039	0.005	-0.073	-0.078	0.034	1.152	1.489	1.646	1.772	1.865	1.831	1.831
0.229	-0.005	0.010	0.054	-0.063	-0.151	0.029	1.167	1.519	1.616	1.724	1.846	1.841	1.812
0.435	-0.005	-0.005	0.039	0.029	-0.142	0.034	1.167	1.523	1.602	1.689	1.807	1.855	1.836
0.513	0.010	-0.010	0.015	0.210	-0.073	0.034	1.162	1.494	1.582	1.660	1.772	1.880	1.870
0.503	0.010	-0.039	0.000	0.278	-0.039	0.034	1.147	1.450	1.553	1.621	1.729	1.855	1.875
0.342	-0.010	-0.024	-0.010	0.151	-0.005	0.034	1.162	1.367	1.494	1.587	1.689	1.777	1.855
0.078	-0.005	0.005	-0.029	0.000	-0.005	0.034	1.167	1.289	1.436	1.558	1.650	1.699	1.807
-0.176	-0.005	0.029	-0.015	-0.093	-0.039	0.029	1.177	1.235	1.377	1.514	1.621	1.650	1.753
-0.337	0.005	0.010	-0.020	-0.142	-0.083	0.029	1.162	1.216	1.333	1.455	1.577	1.616	1.704
-0.361	-0.010	-0.039	-0.034	-0.117	-0.093	0.029	1.162	1.235	1.304	1.401	1.528	1.602	1.675
-0.317	0.005	-0.044	-0.039	-0.049	-0.083	0.034	1.172	1.274	1.304	1.372	1.494	1.592	1.655
-0.244	0.000	-0.015	-0.005	0.098	-0.059	0.029	1.157	1.309	1.309	1.367	1.479	1.597	1.650
-0.117	-0.024	0.000	0.015	0.093	-0.005	0.029	1.172	1.343	1.313	1.357	1.455	1.558	1.641
-0.156	-0.034	-0.005	0.024	0.068	0.078	0.034	1.152	1.313	1.313	1.343	1.431	1.519	1.626
-0.161	-0.024	0.010	0.034	-0.005	0.103	0.034	1.162	1.318	1.323	1.343	1.411	1.470	1.587
-0.073	0.000	0.029	0.044	-0.132	0.093	0.034	1.177	1.338	1.338	1.343	1.396	1.411	1.533
-0.034	0.000	0.015	0.039	-0.259	0.059	0.034	1.172	1.333	1.338	1.338	1.382	1.367	1.479
-0.024	0.000	-0.005	0.029	-0.259	0.029	0.034	1.162	1.309	1.333	1.328	1.372	1.367	1.440
-0.083	0.015	0.029	0.020	-0.229	-0.034	0.034	1.177	1.270	1.318	1.338	1.367	1.372	1.401
-0.098	0.044	0.054	0.015	-0.225	-0.073	0.034	1.167	1.250	1.313	1.338	1.362	1.362	1.387
-0.068	0.034	0.034	-0.005	-0.244	-0.098	0.034	1.147	1.250	1.294	1.318	1.348	1.353	1.367
0.005	0.010	-0.010	-0.010	-0.186	-0.078	0.034	1.147	1.255	1.274	1.294	1.338	1.367	1.377
0.049	-0.020	-0.039	-0.010	-0.122	-0.063	0.029	1.167	1.250	1.265	1.279	1.328	1.372	1.382
0.166	-0.020	-0.020	-0.005	-0.063	-0.005	0.029	1.167	1.270	1.274	1.284	1.328	1.377	1.396
0.225	-0.024	-0.005	0.020	-0.063	0.034	0.034	1.152	1.260	1.274	1.284	1.328	1.362	1.396
0.200	-0.024	-0.010	0.020	-0.073	0.078	0.034	1.216	1.235	1.260	1.279	1.318	1.348	1.396
0.098	-0.020	-0.005	0.000	-0.024	0.151	0.034	1.167	1.187	1.240	1.270	1.309	1.353	1.401
0.044	-0.010	0.029	-0.005	0.083	0.215	0.034	1.162	1.172	1.226	1.265	1.304	1.367	1.411
-0.020	0.005	0.015	-0.020	0.151	0.229	0.034	1.152	1.147	1.211	1.245	1.289	1.362	1.401
-0.044	0.010	-0.049	-0.034	0.215	0.190	0.034	1.172	1.147	1.191	1.216	1.270	1.353	1.377
-0.093	0.024	-0.039	-0.005	0.244	0.088	0.034	1.162	1.133	1.177	1.211	1.270	1.333	1.338
-0.073	0.054	-0.015	0.015	0.142	-0.049	0.034	1.167	1.143	1.182	1.211	1.260	1.274	1.279
-0.063	0.039	0.039	0.010	0.005	-0.166	0.029	1.172	1.138	1.167	1.211	1.245	1.230	1.230
0.039	0.024	-0.020	-0.015	-0.029	-0.200	0.034	1.230	1.167	1.167	1.177	1.226	1.216	1.216
0.142	0.034	-0.015	0.005	-0.073	-0.210	0.034	2.666	1.343	1.211	1.187	1.230	1.211	1.221
0.034	0.039	0.005	0.005	-0.117	-0.156	0.034	1.162	1.221	1.216	1.196	1.226	1.201	1.221
-0.127	0.015	0.024	0.054	-0.088	-0.078	0.034	1.196	1.138	1.187	1.206	1.235	1.221	1.245
-0.107	0.015	0.054	0.020	0.024	0.015	0.034	1.230	1.133	1.172	1.201	1.226	1.255	1.274
0.000	-0.005	0.024	0.000	0.132	0.044	0.034	1.211	1.147	1.167	1.182	1.216	1.274	1.284
0.049	-0.005	-0.034	-0.029	0.225	0.039	0.039	2.612	1.309	1.196	1.172	1.206	1.284	1.289
-0.044	0.005	-0.137	-0.068	0.225	0.015	0.044	1.157	1.206	1.196	1.147	1.177	1.245	1.265
-0.049	-0.010	-0.176	-0.093	0.220	0.029	0.039	2.656	1.328	1.221	1.157	1.172	1.230	1.260
0.000	0.005	-0.083	-0.073	0.200	-0.024	0.039	2.676	1.426	1.284	1.221	1.196	1.211	1.235
-0.020	0.000	0.063	-0.044	0.103	-0.044	0.039	3.584	1.577	1.353	1.289	1.235	1.191	1.221
0.020	-0.015	0.161	-0.010	-0.054	-0.029	0.029	3.955	1.738	1.445	1.353	1.274	1.172	1.211
0.117	-0.005	0.190	0.015	-0.166	0.000	0.034	3.965	1.860	1.553	1.411	1.323	1.182	1.206
0.200	0.015	0.215	0.029	-0.229	0.005	0.034	3.965	1.938	1.655	1.484	1.377	1.216	1.206
0.229	0.020	0.186	0.044	-0.283	-0.005	0.029	3.965	1.968	1.733	1.543	1.426	1.255	1.216
0.171	0.020	0.127	0.029	-0.327	-0.039	0.034	3.975	1.968	1.782	1.587	1.470	1.294	1.226
0.122	-0.005	-0.024	0.020	-0.361	-0.117	0.034	3.970	1.958	1.812	1.602	1.504	1.338	1.230
0.093	-0.024	-0.151	0.024	-0.332	-0.151	0.034	3.960	1.953	1.836	1.636	1.543	1.401	1.270
0.024	-0.044	-0.137	0.020	-0.312	-0.088	0.034	3.965	1.938	1.851	1.704	1.592	1.455	1.348
-0.054	-0.039	-0.049	0.015	-0.205	0.112	0.034	3.975	1.934	1.870	1.768	1.646	1.548	1.455
-0.400	-0.039	0.000	0.015	-0.059	0.283	0.034	3.965	1.836	1.846	1.802	1.699	1.626	1.548
-0.815	-0.034	-0.039	0.015	0.024	0.391	0.039	3.965	1.777	1.816	1.797	1.733	1.685	1.616
-0.771	-0.020	0.015	0.015	0.215	0.386	0.039	1.997	1.650	1.787	1.812	1.763	1.748	1.641
-0.469	-0.010	0.039	0.010	0.508	0.337	0.039	2.002	1.646	1.768	1.807	1.787	1.841	1.689
-0.098	-0.005	0.039	0.000	0.728	0.215	0.039	2.002	1.670	1.758	1.797	1.797	1.880	1.709
0.410	-0.005	0.015	-0.005	0.811	0.000	0.039	2.002	1.729	1.768	1.782	1.797	1.870	1.694
0.786	0.020	-0.005	-0.005	0.771	-0.205	0.044	1.978	1.733	1.777	1.772	1.792	1.826	1.675
0.933	0.029	-0.117	-0.015	0.488	-0.288	0.044	1.992	1.670	1.748	1.733	1.772	1.729	1.660
0.864	0.034	-0.186	-0.010	0.146	-0.283	0.044	1.987	1.558	1.699	1.714	1.753	1.646	1.655
0.635	0.034	-0.103	0.000	-0.127	-0.146	0.044	2.007	1.440	1.621	1.709	1.743	1.602	1.675
0.405	0.024	-0.063	0.005	-0.254	-0.049	0.039	2.021	1.362	1.543	1.675	1.729	1.611	1.680
0.039	0.029	-0.024	0.029	-0.283	0.015	0.029	2.007	1.260	1.460	1.621	1.714	1.636	1.680
-0.229	0.015	-0.029	0.029	-0.298	0.063	0.034	1.997	1.226	1.387	1.558	1.680	1.646	1.680
-0.361	0.010	0.068	0.034	-0.308	0.083	0.034	2.007	1.245	1.348	1.528	1.646	1.641	1.680
-0.366	0.005	0.122	0.029	-0.386	0.034	0.029	2.012	1.299	1.333	1.489	1.606	1.602	1.641
-0.459	0.000	0.166	0.029	-0.366	-0.049	0.029	2.007	1.309	1.328	1.455	1.567	1.597	1.606
-0.479	-0.010	0.215	0.010	-0.259	-0.215	0.029	1.997	1.333	1.328	1.431	1.533	1.606	1.567
-0.356	-0.020	0.205	0.000	-0.103	-0.283	0.034	1.992	1.401	1.348	1.401	1.509	1.611	1.567
-0.229	-0.029	0.142	0.005	-0.088	-0.308	0.034	1.997	1.440	1.372	1.377	1.475	1.577	1.558
-0.176	-0.024	0.059	0.005	-0.103	-0.269	0.034	1.987	1.455	1.401	1.362	1.445	1.538	1.567
0.024	-0.015	-0.015	0.015	-0.073	-0.146	0.034	1.992	1.514	1.436	1.362	1.431	1.523	1.592
0.161	0.024	-0.190	0.010	-0.010	-0.073	0.034	2.012	1.533	1.470	1.343	1.411	1.514	1.587
0.093	0.020	-0.264	0.000	0.059	-0.020	0.034	2.002	1.489	1.470	1.362	1.396	1.494	1.577
0.049	0.015	-0.210	-0.010	0.020	0.063	0.034	2.012	1.470	1.470	1.401	1.401	1.460	1.562
0.015	-0.005	-0.190	-0.010	-0.005	0.137	0.034	2.002	1.455	1.460	1.421	1.411	1.440	1.553
0.000	-0.005	-0.103	-0.010	0.112	0.171	0.034	1.987	1.440	1.460	1.460	1.431	1.475	1.543
-0.034	0.000	-0.049	-0.020	0.190	0.288	0.034	1.958	1.431	1.455	1.475	1.450	1.489	1.558
-0.063	-0.015	0.044	-0.010	0.278	0.391	0.034	1.997	1.436	1.445	1.489	1.475	1.509	1.572
-0.034	-0.024	0.034	-0.015	0.254	0.391	0.034	1.997	1.450	1.440	1.470	1.475	1.489	1.548
0.020	-0.020	0.010	-0.010	0.146	0.327	0.034	2.002	1.470	1.450	1.460	1.470	1.450	1.504
0.049	-0.015	0.000	-0.015	0.098	0.234	0.034	2.051	1.479	1.460	1.455	1.470	1.445	1.460
0.127	0.005	0.024	-0.020	0.176	0.107	0.034	2.017	1.489	1.475	1.470	1.475	1.470	1.426
0.127	0.015	0.059	-0.015	0.166	-0.039	0.034	2.017	1.470	1.475	1.479	1.484	1.460	1.396
0.083	0.015	0.073	-0.005	0.044	-0.103	0.034	2.041	1.440	1.465	1.479	1.489	1.426	1.387
-0.083	0.044	0.112	-0.005	-0.156	-0.166	0.034	1.978	1.377	1.450	1.479	1.484	1.387	1.367
-0.171	0.039	0.122	0.005	-0.308	-0.210	0.034	1.992	1.362	1.421	1.465	1.489	1.372	1.353
-0.122	0.024	0.073	0.103	-0.327	-0.190	0.034	1.982	1.382	1.401	1.436	1.504	1.406	1.372
0.044	0.005	-0.020	0.127	-0.264	-0.171	0.034	1.987	1.431	1.401	1.401	1.489	1.445	1.401
0.034	0.015	-0.063	0.054	-0.181	-0.151	0.034	1.978	1.406	1.401	1.392	1.445	1.470	1.426
-0.049	0.005	-0.039	-0.005	-0.078	-0.112	0.034	1.963	1.362	1.392	1.401	1.421	1.484	1.450
-0.332	0.005	0.000	-0.049	0.005	-0.112	0.034	1.968	1.294	1.362	1.396	1.411	1.484	1.460
-0.312	-0.010	0.044	-0.103	0.020	-0.146	0.034	1.958	1.333	1.353	1.396	1.396	1.460	1.450
-0.112	-0.010	0.049	-0.103	-0.015	-0.161	0.034	1.953	1.411	1.372	1.387	1.401	1.431	1.440
0.005	-0.005	0.024	-0.054	-0.029	-0.146	0.034	1.973	1.440	1.392	1.387	1.416	1.426	1.445
0.088	0.020	-0.005	-0.024	-0.024	-0.049	0.034	1.953	1.445	1.411	1.387	1.421	1.426	1.465
0.029	0.020	0.000	0.005	-0.005	0.063	0.034	1.958	1.411	1.411	1.396	1.426	1.440	1.489
0.073	0.020	-0.005	0.015	0.015	0.127	0.034	2.012	1.440	1.421	1.396	1.426	1.440	1.494
0.308	0.024	-0.137	0.034	-0.020	0.210	0.034	1.997	1.504	1.445	1.377	1.416	1.421	1.494
0.034	0.005	-0.332	0.039	-0.132	0.239	0.034	1.987	1.372	1.406	1.333	1.396	1.387	1.465
-0.259	-0.010	-0.249	0.044	-0.137	0.254	0.034	1.973	1.304	1.372	1.372	1.396	1.392	1.455
-0.195	-0.029	-0.063	0.015	-0.068	0.220	0.034	1.982	1.353	1.372	1.421	1.401	1.406	1.431
-0.010	-0.024	0.132	-0.029	0.015	0.122	0.034	1.987	1.421	1.396	1.465	1.421	1.436	1.411
0.337	-0.020	0.254	-0.059	0.269	0.078	0.034	1.968	1.519	1.445	1.484	1.440	1.504	1.426
0.640	-0.010	0.215	-0.059	0.361	-0.005	0.034	1.982	1.572	1.484	1.475	1.460	1.509	1.431
0.762	-0.005	0.098	-0.039	0.322	-0.044	0.034	1.973	1.548	1.499	1.455	1.465	1.479	1.431
0.557	-0.005	0.068	-0.010	0.186	-0.039	0.034	1.953	1.431	1.479	1.450	1.465	1.440	1.431
0.298	-0.005	-0.059	0.005	0.093	-0.029	0.034	1.943	1.338	1.426	1.411	1.460	1.421	1.426
0.142	0.005	-0.059	0.039	0.039	-0.039	0.034	1.948	1.304	1.392	1.406	1.460	1.416	1.416
0.029	0.000	-0.015	0.044	-0.010	-0.024	0.034	1.934	1.279	1.357	1.406	1.450	1.411	1.421
-0.088	0.005	0.117	0.049	-0.029	-0.005	0.034	1.943	1.270	1.333	1.421	1.450	1.416	1.421
-0.190	0.005	0.142	0.024	-0.044	-0.020	0.034	1.934	1.265	1.313	1.392	1.436	1.416	1.416
-0.210	-0.005	0.034	0.010	-0.034	-0.039	0.034	1.948	1.284	1.299	1.338	1.406	1.416	1.411
-0.186	-0.005	0.020	-0.005	0.015	-0.029	0.034	1.963	1.318	1.304	1.328	1.387	1.421	1.416
-0.166	-0.020	0.034	-0.020	0.010	0.010	0.034	1.943	1.328	1.304	1.323	1.372	1.401	1.426
-0.356	-0.015	-0.142	0.000	-0.020	0.044	0.039	1.973	1.284	1.289	1.265	1.348	1.387	1.421
-0.454	-0.024	-0.161	0.010	-0.005	0.044	0.034	1.968	1.279	1.284	1.265	1.333	1.372	1.406
-0.303	-0.005	-0.024	0.015	0.010	0.010	0.034	2.017	1.362	1.323	1.323	1.338	1.367	1.387
-0.088	0.010	0.161	0.020	0.015	-0.034	0.039	1.982	1.436	1.367	1.382	1.362	1.357	1.367
0.273	0.005	0.298	0.020	-0.015	-0.103	0.034	1.978	1.519	1.421	1.426	1.387	1.357	1.348
0.342	-0.010	0.303	0.029	0.088	-0.166	0.039	1.968	1.484	1.431	1.426	1.406	1.401	1.348
0.049	-0.015	0.200	0.024	0.205	-0.220	0.039	1.953	1.343	1.396	1.392	1.401	1.426	1.357
-0.288	-0.029	0.063	0.020	0.249	-0.151	0.039	1.953	1.245	1.338	1.343	1.392	1.426	1.396
-0.386	-0.015	-0.015	0.005	0.166	-0.015	0.039	1.938	1.245	1.309	1.313	1.367	1.387	1.426
-0.298	-0.020	-0.078	-0.010	-0.034	0.127	0.034	1.929	1.304	1.304	1.289	1.343	1.328	1.431
-0.190	-0.015	-0.166	0.049	-0.122	0.161	0.039	1.885	1.343	1.318	1.274	1.343	1.309	1.401
-0.005	-0.010	-0.181	0.059	-0.215	0.117	0.039	2.012	1.406	1.348	1.294	1.333	1.284	1.357
0.054	0.015	-0.176	0.034	-0.239	0.093	0.034	1.904	1.396	1.372	1.313	1.328	1.289	1.333
0.127	0.039	-0.210	0.015	-0.249	-0.005	0.039	1.992	1.401	1.387	1.323	1.323	1.294	1.289
0.195	0.024	-0.249	0.010	-0.200	-0.142	0.034	1.909	1.401	1.387	1.333	1.328	1.309	1.265
0.386	0.034	-0.181	-0.039	-0.181	-0.142	0.039	1.934	1.421	1.406	1.372	1.333	1.318	1.279
0.239	0.039	-0.107	-0.054	-0.156	-0.088	0.039	1.987	1.338	1.387	1.392	1.353	1.338	1.313
0.195	0.039	-0.029	-0.020	-0.132	0.034	0.039	2.017	1.333	1.372	1.411	1.387	1.357	1.357
0.186	0.039	0.010	0.000	-0.151	0.083	0.044	1.953	1.323	1.357	1.406	1.401	1.367	1.372
-0.029	-0.005	0.093	0.015	-0.088	0.083	0.044	2.021	1.265	1.318	1.401	1.411	1.396	1.382
-0.249	-0.020	0.107	-0.020	-0.020	0.044	0.049	2.021	1.230	1.279	1.372	1.401	1.416	1.377
-0.342	-0.020	0.093	-0.029	-0.020	0.044	0.083	1.963	1.226	1.265	1.338	1.387	1.401	1.387
-0.361	-0.010	0.073	-0.044	-0.054	0.000	0.127	1.968	1.245	1.260	1.313	1.362	1.387	1.372
-0.137	-0.015	0.049	-0.044	0.005	-0.063	0.142	1.904	1.353	1.284	1.299	1.357	1.387	1.362
0.059	-0.010	0.015	-0.034	-0.015	-0.098	0.127	2.046	1.406	1.323	1.294	1.343	1.367	1.353
0.010	-0.015	0.000	-0.020	0.015	-0.083	0.156	1.973	1.367	1.333	1.304	1.343	1.367	1.362
-0.044	-0.015	-0.024	-0.015	-0.059	-0.020	0.107	1.895	1.343	1.333	1.299	1.333	1.338	1.372
-0.059	-0.005	-0.083	-0.010	0.029	-0.029	0.093	1.885	1.328	1.333	1.294	1.328	1.362	1.367
-0.166	0.005	-0.112	-0.005	0.132	-0.020	0.103	1.997	1.294	1.323	1.294	1.328	1.377	1.367
-0.186	0.000	-0.093	0.000	0.239	0.005	0.151	1.890	1.294	1.313	1.309	1.333	1.396	1.392
-0.127	0.015	-0.068	0.005	0.273	-0.005	0.190	1.895	1.318	1.323	1.318	1.338	1.387	1.387
-0.039	0.015	-0.186	0.015	0.283	0.000	0.122	1.992	1.353	1.328	1.289	1.328	1.372	1.387
0.054	0.020	-0.181	0.020	0.283	0.054	0.176	1.929	1.377	1.343	1.309	1.328	1.362	1.396
0.269	0.020	-0.103	0.034	0.288	0.093	0.254	1.948	1.431	1.377	1.353	1.348	1.362	1.401
0.181	0.010	0.054	0.068	0.352	0.186	0.249	2.036	1.382	1.377	1.401	1.382	1.392	1.421
-0.098	0.015	0.186	0.034	0.278	0.234	0.200	1.978	1.289	1.353	1.421	1.387	1.362	1.416
-0.151	0.020	0.288	0.000	0.049	0.220	0.264	1.934	1.299	1.343	1.421	1.387	1.304	1.377
-0.044	0.015	0.269	0.015	-0.171	0.161	0.049	1.978	1.343	1.338	1.392	1.392	1.265	1.318
0.132	0.010	0.200	0.034	-0.308	0.059	0.220	1.992	1.382	1.353	1.362	1.392	1.260	1.274
0.303	0.000	0.107	0.024	-0.376	-0.059	0.215	1.948	1.406	1.367	1.333	1.372	1.270	1.235
0.332	-0.005	0.015	0.005	-0.312	-0.156	0.288	1.924	1.377	1.362	1.318	1.357	1.304	1.235
0.356	-0.015	0.010	0.020	-0.347	-0.190	0.283	2.017	1.367	1.357	1.328	1.357	1.304	1.245
0.239	-0.024	-0.039	0.005	-0.352	-0.229	0.288	1.992	1.309	1.333	1.318	1.348	1.313	1.250
0.146	-0.029	-0.078	-0.029	-0.234	-0.195	0.283	1.929	1.270	1.313	1.304	1.333	1.353	1.294
-0.063	-0.034	-0.078	-0.059	-0.068	-0.166	0.273	1.924	1.221	1.279	1.299	1.323	1.387	1.328
-0.083	-0.010	-0.103	-0.068	0.000	-0.103	0.273	1.904	1.226	1.270	1.284	1.318	1.387	1.362
-0.181	0.015	-0.059	-0.059	0.015	-0.068	0.273	1.924	1.221	1.260	1.289	1.318	1.372	1.377
-0.264	0.020	-0.078	-0.015	0.029	-0.054	0.273	1.924	1.226	1.250	1.274	1.323	1.367	1.372
-0.176	0.010	-0.142	0.005	0.029	-0.044	0.273	1.938	1.279	1.260	1.255	1.313	1.348	1.367
-0.059	0.015	-0.098	0.020	-0.005	-0.034	0.278	1.953	1.328	1.284	1.274	1.313	1.328	1.362
0.098	0.034	-0.039	0.034	0.010	-0.068	0.283	1.968	1.372	1.318	1.304	1.318	1.333	1.348
0.127	0.024	0.010	0.029	0.020	-0.020	0.283	1.992	1.362	1.333	1.323	1.323	1.333	1.357
0.054	0.034	0.054	0.020	0.161	0.093	0.278	1.968	1.333	1.333	1.338	1.338	1.382	1.396
-0.107	0.020	0.093	0.015	0.337	0.166	0.288	1.997	1.284	1.313	1.343	1.348	1.416	1.421
-0.254	0.029	0.122	0.005	0.449	0.166	0.273	1.963	1.265	1.299	1.338	1.348	1.426	1.421
-0.146	0.020	0.044	-0.010	0.542	0.146	0.278	1.948	1.318	1.304	1.304	1.338	1.431	1.421
-0.039	0.015	0.015	-0.010	0.635	0.137	0.273	1.934	1.353	1.318	1.304	1.338	1.426	1.421
0.229	-0.005	0.049	0.000	0.552	0.137	0.269	1.943	1.426	1.348	1.323	1.338	1.372	1.401
0.254	-0.034	0.010	0.005	0.308	0.117	0.259	1.924	1.401	1.353	1.313	1.328	1.299	1.362
0.244	-0.049	-0.142	0.020	0.132	0.186	0.259	1.934	1.372	1.348	1.284	1.318	1.255	1.348
0.205	-0.049	-0.161	0.015	-0.122	0.283	0.259	1.895	1.343	1.348	1.299	1.309	1.201	1.328
0.063	-0.049	-0.142	0.010	-0.312	0.327	0.273	1.904	1.270	1.318	1.309	1.309	1.182	1.299
-0.137	-0.039	-0.005	0.005	-0.400	0.239	0.303	1.914	1.221	1.294	1.343	1.323	1.196	1.240
-0.166	-0.005	0.186	0.010	-0.381	0.044	0.264	1.914	1.230	1.294	1.382	1.343	1.230	1.187
-0.122	0.029	0.283	0.010	-0.347	-0.190	0.244	1.943	1.255	1.294	1.382	1.362	1.265	1.143
0.010	0.024	0.303	0.005	-0.312	-0.361	0.220	1.948	1.289	1.294	1.357	1.367	1.299	1.138
0.093	0.010	0.259	0.005	-0.225	-0.503	0.186	1.924	1.294	1.289	1.328	1.362	1.333	1.157
0.059	0.010	0.195	0.010	-0.122	-0.591	0.190	1.963	1.270	1.279	1.299	1.357	1.367	1.196
-0.073	0.024	0.117	0.010	-0.093	-0.479	0.132	2.026	1.221	1.260	1.265	1.333	1.362	1.270
-0.635	0.000	-0.005	0.010	-0.137	-0.288	0.083	1.938	1.069	1.187	1.211	1.304	1.343	1.338
-0.571	-0.005	-0.054	0.005	-0.181	-0.122	0.151	1.953	1.152	1.177	1.191	1.274	1.318	1.377
-0.278	-0.010	-0.068	0.000	-0.190	-0.005	0.132	2.012	1.294	1.211	1.191	1.255	1.304	1.387
0.029	-0.015	-0.078	-0.005	-0.205	0.078	0.112	2.007	1.396	1.270	1.211	1.245	1.279	1.382
0.391	-0.020	-0.107	0.005	-0.195	0.146	0.112	1.968	1.484	1.333	1.235	1.250	1.279	1.372
0.498	-0.034	-0.132	0.010	-0.117	0.195	0.112	1.948	1.440	1.362	1.265	1.260	1.299	1.367
0.264	-0.029	-0.078	-0.015	0.068	0.220	0.103	1.914	1.338	1.353	1.299	1.279	1.338	1.367
0.308	-0.029	-0.112	0.015	0.151	0.239	0.088	1.895	1.338	1.348	1.309	1.299	1.348	1.372
0.278	-0.024	-0.093	0.005	0.278	0.210	0.068	1.934	1.309	1.338	1.323	1.313	1.367	1.362
0.210	-0.015	-0.039	0.010	0.190	0.137	0.059	1.963	1.289	1.323	1.338	1.323	1.323	1.328
0.132	0.005	-0.010	0.000	0.122	0.054	0.049	1.929	1.260	1.309	1.333	1.323	1.304	1.294
0.063	0.015	-0.034	-0.005	0.088	0.000	0.049	1.982	1.245	1.294	1.318	1.328	1.299	1.284
-0.034	0.024	-0.020	0.000	0.137	-0.010	0.044	1.978	1.230	1.274	1.313	1.333	1.318	1.289
-0.103	0.054	0.005	0.000	0.151	-0.034	0.049	1.934	1.221	1.265	1.304	1.328	1.323	1.294
-0.200	0.054	-0.029	0.005	0.088	-0.044	0.049	1.953	1.196	1.245	1.279	1.318	1.304	1.294
-0.459	0.049	-0.020	0.015	0.073	0.020	0.049	1.987	1.152	1.211	1.265	1.313	1.304	1.313
-0.430	0.029	0.024	0.020	0.034	0.015	0.049	1.948	1.201	1.211	1.260	1.304	1.294	1.304
-0.205	0.029	-0.073	0.024	0.020	0.020	0.059	1.968	1.289	1.226	1.216	1.289	1.289	1.299
-0.049	0.010	-0.195	0.020	-0.054	0.034	0.098	1.943	1.333	1.255	1.196	1.265	1.260	1.294
0.044	-0.010	-0.195	0.000	-0.073	0.020	0.142	1.948	1.343	1.270	1.216	1.245	1.250	1.279
0.146	-0.024	-0.127	-0.029	-0.103	0.029	0.132	1.982	1.362	1.299	1.255	1.245	1.240	1.270
0.210	-0.015	-0.005	-0.044	-0.156	0.015	0.151	1.938	1.348	1.318	1.309	1.265	1.230	1.255
0.293	-0.010	0.127	-0.024	-0.171	0.005	0.151	1.909	1.348	1.338	1.348	1.304	1.245	1.245
0.283	0.010	0.215	0.088	-0.112	-0.073	0.166	1.924	1.318	1.338	1.372	1.357	1.294	1.240
0.166	0.010	0.229	0.059	-0.005	-0.137	0.161	1.919	1.265	1.313	1.357	1.357	1.333	1.245
0.068	0.024	0.181	-0.005	0.098	-0.127	0.171	1.899	1.230	1.289	1.323	1.338	1.362	1.284
0.049	0.029	0.137	-0.049	0.107	-0.181	0.181	1.904	1.235	1.274	1.299	1.313	1.348	1.284
0.098	0.034	0.063	-0.044	0.127	-0.176	0.166	1.919	1.255	1.265	1.270	1.313	1.343	1.304
0.073	0.015	0.020	-0.044	0.127	-0.117	0.171	1.953	1.255	1.255	1.255	1.299	1.328	1.323
-0.005	-0.005	-0.020	-0.049	0.073	-0.034	0.171	1.948	1.235	1.240	1.240	1.284	1.304	1.343
-0.117	-0.015	-0.098	-0.034	0.029	0.093	0.181	1.953	1.216	1.226	1.211	1.274	1.289	1.357
-0.176	-0.029	-0.239	-0.015	-0.063	0.137	0.181	1.968	1.226	1.216	1.182	1.255	1.255	1.338
-0.132	-0.024	-0.190	0.015	-0.137	0.176	0.176	1.963	1.260	1.230	1.206	1.255	1.240	1.318
-0.391	-0.020	-0.088	0.024	-0.122	0.181	0.171	1.987	1.182	1.216	1.240	1.260	1.245	1.304
-0.439	-0.010	0.049	0.034	-0.107	0.151	0.161	1.997	1.216	1.221	1.270	1.274	1.255	1.284
-0.327	0.000	0.181	0.024	-0.010	0.107	0.151	1.963	1.265	1.245	1.299	1.284	1.289	1.270
-0.166	-0.010	0.234	0.010	0.073	0.068	0.161	1.958	1.318	1.265	1.299	1.294	1.309	1.274
0.049	-0.024	0.137	-0.015	0.151	0.063	0.156	2.046	1.362	1.289	1.265	1.284	1.323	1.289
0.171	-0.020	0.039	-0.029	0.186	0.068	0.151	1.914	1.372	1.313	1.255	1.274	1.313	1.299
0.234	0.000	-0.020	-0.034	0.181	0.044	0.151	1.978	1.367	1.333	1.260	1.274	1.299	1.289
0.322	0.000	-0.063	-0.024	0.166	-0.010	0.122	1.870	1.362	1.343	1.274	1.279	1.284	1.270
0.186	0.010	-0.044	-0.015	0.093	-0.088	0.122	1.953	1.289	1.323	1.289	1.289	1.260	1.245
0.103	-0.005	-0.034	0.000	-0.024	-0.146	0.151	1.953	1.255	1.299	1.294	1.299	1.235	1.226
-0.005	-0.010	-0.005	0.015	-0.063	-0.166	0.220	1.943	1.211	1.274	1.294	1.304	1.245	1.230
-0.068	0.005	0.010	0.015	-0.146	-0.195	0.225	1.875	1.206	1.255	1.289	1.304	1.235	1.216
-0.020	0.005	-0.005	0.015	-0.210	-0.176	0.259	1.870	1.216	1.245	1.274	1.299	1.235	1.230
-0.083	0.005	-0.029	0.015	-0.220	-0.078	0.254	1.938	1.206	1.230	1.255	1.294	1.255	1.265
-0.176	0.010	-0.054	0.005	-0.176	-0.010	0.254	2.007	1.206	1.221	1.240	1.284	1.274	1.284
-0.200	0.005	-0.049	0.015	-0.112	-0.005	0.254	1.992	1.216	1.216	1.230	1.279	1.289	1.284
-0.181	0.010	-0.083	0.010	-0.073	-0.039	0.259	1.929	1.250	1.226	1.226	1.265	1.289	1.279
0.034	0.010	-0.039	0.015	-0.054	-0.054	0.259	1.992	1.328	1.260	1.245	1.270	1.289	1.279
0.254	0.010	0.015	0.015	-0.029	-0.020	0.264	2.036	1.392	1.304	1.274	1.279	1.294	1.294
0.361	0.010	0.068	0.020	0.034	0.034	0.264	2.026	1.396	1.333	1.304	1.294	1.313	1.313
0.366	-0.005	0.088	0.015	0.181	0.020	0.269	2.002	1.367	1.338	1.318	1.309	1.353	1.328
0.244	-0.005	0.054	0.010	0.308	0.059	0.273	1.948	1.304	1.323	1.313	1.313	1.372	1.348
0.225	-0.005	-0.010	0.000	0.259	0.068	0.273	1.919	1.289	1.309	1.294	1.309	1.333	1.343
0.132	-0.010	-0.010	0.000	0.132	0.103	0.273	1.895	1.255	1.294	1.294	1.304	1.299	1.338
0.010	0.000	-0.073	-0.015	0.146	0.127	0.273	1.899	1.221	1.270	1.265	1.294	1.299	1.333
-0.122	0.005	-0.117	-0.015	0.127	0.103	0.273	1.904	1.196	1.245	1.250	1.284	1.289	1.313
-0.171	0.005	-0.093	-0.015	0.151	0.059	0.269	1.924	1.201	1.235	1.255	1.284	1.289	1.294
-0.210	0.010	-0.039	-0.005	0.146	-0.020	0.278	1.943	1.211	1.226	1.260	1.284	1.284	1.270
-0.244	0.000	-0.005	0.010	0.142	-0.044	0.273	1.914	1.211	1.221	1.255	1.284	1.284	1.270
-0.303	0.000	-0.078	0.015	0.142	-0.068	0.273	1.924	1.206	1.211	1.221	1.274	1.274	1.260
-0.264	0.015	-0.166	0.020	0.083	-0.029	0.273	1.978	1.240	1.221	1.206	1.260	1.255	1.270
-0.171	0.000	-0.020	0.024	-0.063	-0.005	0.278	1.978	1.279	1.240	1.250	1.260	1.221	1.260
-0.063	0.024	0.127	0.010	-0.151	0.010	0.273	1.958	1.313	1.274	1.294	1.274	1.211	1.250
0.024	0.024	0.249	0.020	-0.186	0.010	0.278	1.982	1.328	1.294	1.323	1.299	1.226	1.245
0.059	0.020	0.249	0.024	-0.156	0.054	0.273	1.973	1.323	1.299	1.318	1.309	1.255	1.260
0.103	0.010	0.278	0.005	-0.142	0.044	0.283	1.987	1.323	1.304	1.318	1.313	1.270	1.255
0.210	-0.005	0.249	-0.010	-0.151	0.029	0.273	1.963	1.338	1.313	1.309	1.309	1.279	1.260
0.225	-0.020	0.166	-0.015	-0.151	-0.005	0.278	1.938	1.313	1.304	1.284	1.304	1.284	1.255
0.112	-0.015	0.078	-0.020	-0.093	-0.054	0.273	1.943	1.265	1.289	1.260	1.299	1.299	1.255
-0.059	-0.020	-0.098	-0.005	-0.171	-0.044	0.278	1.919	1.206	1.255	1.206	1.274	1.265	1.255
-0.083	-0.020	-0.234	0.000	-0.254	-0.034	0.283	1.909	1.211	1.240	1.187	1.255	1.245	1.255
-0.083	-0.020	-0.215	0.000	-0.278	0.059	0.283	1.899	1.211	1.226	1.201	1.245	1.240	1.279
-0.088	-0.034	-0.239	-0.005	-0.244	0.171	0.293	1.909	1.230	1.226	1.201	1.235	1.250	1.304
0.161	-0.005	-0.156	-0.015	-0.151	0.195	0.293	1.914	1.313	1.265	1.245	1.245	1.270	1.299
0.308	-0.005	-0.054	-0.005	-0.117	0.083	0.293	1.904	1.338	1.294	1.284	1.265	1.279	1.265
0.308	0.010	0.020	0.000	-0.015	-0.020	0.293	1.899	1.309	1.304	1.309	1.284	1.304	1.250
0.327	0.024	0.015	-0.005	0.132	-0.142	0.298	2.007	1.309	1.309	1.304	1.299	1.333	1.240
0.254	0.039	-0.029	0.005	0.195	-0.156	0.293	1.929	1.270	1.299	1.294	1.309	1.338	1.270
0.039	0.054	0.020	0.005	0.195	-0.083	0.303	2.012	1.206	1.270	1.304	1.309	1.338	1.304
-0.059	0.010	0.088	-0.005	0.283	0.010	0.298	2.021	1.216	1.245	1.304	1.313	1.362	1.353
-0.073	0.010	0.103	-0.010	0.391	0.088	0.303	1.938	1.216	1.235	1.289	1.313	1.377	1.377
-0.151	0.000	0.020	-0.020	0.391	0.093	0.298	1.919	1.235	1.226	1.250	1.299	1.353	1.367
-0.200	-0.010	0.044	0.005	0.332	0.049	0.298	1.904	1.226	1.221	1.245	1.294	1.318	1.338
-0.190	-0.005	0.088	0.010	0.234	0.005	0.293	1.958	1.245	1.235	1.255	1.289	1.279	1.309
-0.317	0.000	0.063	0.029	0.122	-0.049	0.308	1.963	1.211	1.221	1.235	1.279	1.250	1.274
-0.615	-0.010	0.059	0.024	0.117	-0.098	0.322	1.914	1.138	1.187	1.221	1.265	1.245	1.255
-0.479	-0.029	0.093	0.005	0.044	-0.151	0.308	1.870	1.206	1.191	1.221	1.255	1.226	1.230
-0.347	-0.024	0.103	0.005	-0.093	-0.117	0.293	1.899	1.250	1.211	1.216	1.245	1.191	1.221
-0.117	-0.029	0.054	0.015	-0.269	-0.103	0.298	1.875	1.313	1.240	1.206	1.240	1.157	1.206
0.088	-0.020	-0.078	0.005	-0.347	-0.176	0.293	1.938	1.353	1.270	1.191	1.221	1.147	1.172
0.205	-0.010	-0.073	0.000	-0.410	-0.146	0.298	1.963	1.353	1.299	1.226	1.226	1.152	1.172
0.234	-0.020	-0.054	0.005	-0.391	-0.098	0.303	1.914	1.318	1.304	1.245	1.240	1.187	1.187
0.181	-0.015	-0.059	0.010	-0.254	-0.049	0.332	1.924	1.279	1.299	1.260	1.255	1.245	1.226
0.122	0.005	-0.044	0.015	-0.151	0.029	0.376	1.943	1.255	1.289	1.274	1.270	1.274	1.260
0.132	0.010	-0.039	-0.005	-0.083	0.059	0.405	1.978	1.255	1.279	1.279	1.274	1.294	1.279
0.083	0.010	-0.010	-0.005	-0.059	0.088	0.361	1.963	1.255	1.274	1.284	1.284	1.294	1.289
0.171	0.015	0.000	0.024	-0.059	0.083	0.308	1.968	1.289	1.279	1.284	1.299	1.289	1.289
0.273	0.029	-0.039	0.029	-0.068	0.078	0.298	1.992	1.318	1.294	1.279	1.299	1.294	1.284
0.195	0.024	-0.161	0.034	0.044	0.054	0.308	1.968	1.274	1.279	1.245	1.289	1.323	1.294
0.078	0.015	-0.234	0.005	0.112	0.005	0.415	1.948	1.235	1.255	1.230	1.270	1.318	1.294
-0.063	0.000	-0.293	-0.020	0.107	0.020	0.381	1.978	1.211	1.235	1.211	1.255	1.299	1.294
-0.127	-0.020	-0.269	-0.010	0.210	0.049	0.415	1.958	1.206	1.221	1.230	1.255	1.318	1.318
-0.146	-0.024	-0.034	-0.005	0.327	0.127	0.425	1.914	1.216	1.226	1.289	1.279	1.343	1.343
-0.137	-0.005	0.166	-0.020	0.430	0.181	0.400	1.899	1.235	1.240	1.328	1.299	1.362	1.367
-0.171	0.000	0.288	-0.034	0.347	0.220	0.332	1.899	1.235	1.240	1.333	1.309	1.313	1.357
-0.142	-0.005	0.312	-0.029	0.259	0.244	0.322	1.934	1.260	1.245	1.313	1.313	1.294	1.343
-0.054	0.005	0.239	-0.024	0.127	0.186	0.386	1.899	1.284	1.260	1.279	1.304	1.255	1.299
0.029	0.029	0.210	-0.015	0.005	0.151	0.391	1.909	1.304	1.274	1.270	1.304	1.235	1.270
0.000	0.029	0.186	0.000	-0.117	0.127	0.430	1.938	1.284	1.274	1.260	1.294	1.221	1.245
0.000	0.024	0.049	0.005	-0.190	0.039	0.444	1.934	1.274	1.270	1.230	1.279	1.211	1.216
0.054	0.015	-0.059	0.010	-0.181	-0.068	0.464	1.978	1.284	1.270	1.211	1.265	1.226	1.182
-0.034	0.005	-0.083	0.010	-0.181	-0.186	0.464	1.958	1.245	1.255	1.216	1.255	1.230	1.167
0.034	0.000	-0.098	-0.010	-0.190	-0.210	0.459	1.997	1.270	1.260	1.230	1.245	1.230	1.177
0.151	-0.005	-0.063	-0.020	-0.181	-0.215	0.464	1.982	1.294	1.274	1.245	1.245	1.240	1.191
0.024	0.005	-0.029	-0.020	-0.171	-0.225	0.469	1.958	1.240	1.265	1.260	1.260	1.245	1.206
0.088	0.029	0.020	-0.010	-0.146	-0.244	0.464	1.968	1.270	1.270	1.279	1.274	1.255	1.211
0.200	0.015	0.039	-0.010	-0.068	-0.181	0.425	2.041	1.304	1.279	1.284	1.284	1.289	1.255
0.229	0.010	0.029	0.000	0.122	-0.112	0.420	1.919	1.299	1.284	1.284	1.294	1.343	1.304
0.254	0.000	0.005	0.015	0.156	-0.059	0.425	1.982	1.294	1.279	1.279	1.299	1.338	1.323
-0.044	-0.015	-0.024	0.039	0.083	-0.020	0.415	1.865	1.187	1.245	1.255	1.299	1.304	1.323
-0.117	-0.010	-0.073	0.049	-0.088	-0.039	0.469	1.870	1.187	1.226	1.235	1.284	1.250	1.299
-0.171	-0.029	-0.088	0.063	-0.195	-0.063	0.474	1.968	1.196	1.211	1.226	1.274	1.226	1.270
-0.034	-0.015	-0.200	0.029	-0.200	0.000	0.479	1.978	1.260	1.226	1.187	1.245	1.230	1.279
0.137	-0.010	-0.190	0.010	-0.151	0.083	0.479	1.890	1.299	1.245	1.211	1.235	1.255	1.294
0.117	0.000	-0.186	-0.005	-0.039	0.117	0.483	1.958	1.289	1.265	1.230	1.240	1.279	1.299
0.093	0.010	-0.068	-0.005	0.093	0.161	0.479	1.948	1.279	1.274	1.270	1.255	1.309	1.313
0.068	0.015	0.049	-0.015	0.195	0.151	0.439	1.973	1.274	1.279	1.304	1.274	1.323	1.318
0.063	0.034	0.171	0.000	0.298	0.132	0.356	1.982	1.274	1.289	1.333	1.309	1.343	1.318
0.161	0.024	0.229	0.010	0.273	0.083	0.352	1.909	1.323	1.299	1.338	1.323	1.323	1.309
0.225	0.024	0.254	0.000	0.190	0.073	0.356	2.041	1.328	1.309	1.333	1.328	1.299	1.299
0.117	0.020	0.220	-0.005	0.146	0.107	0.361	1.938	1.274	1.294	1.309	1.318	1.299	1.309
0.073	0.015	0.039	-0.015	0.166	0.142	0.361	1.978	1.260	1.274	1.255	1.304	1.304	1.318
-0.254	0.005	-0.015	-0.010	0.103	0.220	0.361	1.992	1.172	1.235	1.235	1.289	1.279	1.323
-0.317	-0.024	-0.015	-0.010	-0.059	0.244	0.366	1.978	1.187	1.211	1.226	1.270	1.235	1.304
-0.303	-0.029	-0.029	-0.015	-0.078	0.190	0.371	1.943	1.206	1.206	1.216	1.260	1.235	1.265
-0.308	-0.029	-0.024	-0.024	-0.078	0.063	0.430	1.929	1.221	1.211	1.211	1.250	1.230	1.226
-0.225	-0.015	-0.049	-0.020	-0.156	-0.083	0.474	1.948	1.255	1.226	1.206	1.240	1.206	1.182
-0.176	0.005	-0.107	-0.020	-0.186	-0.249	0.479	1.909	1.245	1.235	1.201	1.235	1.201	1.138
-0.469	-0.005	-0.176	-0.010	-0.156	-0.347	0.430	1.924	1.152	1.201	1.177	1.226	1.211	1.133
-0.259	0.005	-0.239	-0.005	-0.093	-0.308	0.435	1.919	1.235	1.216	1.172	1.221	1.235	1.177
0.054	0.020	-0.234	0.005	-0.034	-0.229	0.439	1.938	1.328	1.255	1.201	1.226	1.245	1.216
0.347	0.000	-0.161	0.010	0.029	-0.137	0.474	1.943	1.396	1.299	1.245	1.240	1.265	1.255
0.469	-0.010	-0.005	0.015	0.049	-0.073	0.469	1.958	1.387	1.328	1.309	1.270	1.270	1.279
0.464	-0.020	0.137	0.015	0.010	-0.005	0.474	1.982	1.353	1.338	1.357	1.299	1.265	1.289
0.356	0.005	0.229	0.015	-0.049	0.010	0.474	1.968	1.299	1.333	1.372	1.323	1.265	1.289
0.254	0.000	0.273	0.010	-0.146	-0.015	0.483	1.992	1.265	1.309	1.367	1.338	1.255	1.270
0.068	-0.010	0.264	0.005	-0.176	0.044	0.479	1.978	1.206	1.270	1.333	1.338	1.274	1.284
-0.063	-0.005	0.176	0.000	-0.156	0.132	0.483	1.997	1.191	1.245	1.284	1.328	1.299	1.318
-0.166	0.000	0.073	0.000	-0.156	0.176	0.479	1.968	1.182	1.221	1.245	1.309	1.299	1.323
-0.259	-0.010	0.000	0.000	-0.156	0.156	0.483	1.948	1.177	1.201	1.211	1.284	1.294	1.309
-0.229	-0.020	-0.122	0.000	-0.103	0.132	0.483	1.968	1.216	1.196	1.172	1.260	1.299	1.294
-0.195	-0.010	-0.181	0.005	0.068	0.024	0.488	1.934	1.235	1.211	1.172	1.245	1.328	1.279
-0.171	-0.015	-0.117	0.005	0.259	-0.049	0.483	1.914	1.245	1.226	1.206	1.245	1.357	1.284
-0.122	0.015	-0.029	0.010	0.439	-0.156	0.483	1.924	1.265	1.250	1.240	1.255	1.367	1.284
-0.005	0.020	0.068	0.005	0.420	-0.166	0.483	1.885	1.284	1.265	1.274	1.260	1.328	1.294
-0.044	0.034	0.107	0.005	0.420	-0.151	0.483	1.895	1.265	1.265	1.279	1.270	1.313	1.304
-0.024	0.024	0.098	0.005	0.308	-0.044	0.488	1.963	1.274	1.270	1.270	1.270	1.274	1.323
-0.024	0.000	0.068	0.010	0.186	0.005	0.483	1.895	1.270	1.260	1.265	1.270	1.240	1.309
-0.049	-0.015	0.073	0.005	0.127	0.059	0.488	1.982	1.265	1.255	1.260	1.274	1.240	1.299
-0.073	-0.029	0.039	0.015	0.078	0.103	0.483	1.978	1.260	1.250	1.245	1.270	1.230	1.289
-0.059	-0.024	-0.083	0.000	-0.005	0.127	0.488	1.895	1.260	1.250	1.211	1.255	1.211	1.270
-0.098	-0.015	-0.112	0.010	-0.117	0.122	0.483	1.938	1.245	1.250	1.221	1.245	1.191	1.245
-0.034	-0.005	-0.068	0.010	-0.229	0.103	0.488	1.909	1.274	1.260	1.240	1.245	1.172	1.221
0.107	0.020	-0.034	0.005	-0.259	0.107	0.479	1.968	1.313	1.289	1.265	1.255	1.191	1.216
0.190	0.044	0.000	0.000	-0.239	0.132	0.483	2.026	1.328	1.309	1.284	1.270	1.216	1.221
0.215	0.024	-0.024	0.000	-0.171	0.088	0.479	1.968	1.309	1.299	1.279	1.279	1.250	1.221
0.239	0.010	-0.039	-0.005	-0.088	0.024	0.483	1.914	1.294	1.294	1.279	1.284	1.274	1.216
0.229	0.005	-0.049	-0.005	-0.029	-0.044	0.474	1.953	1.279	1.284	1.279	1.289	1.294	1.221
0.210	0.005	-0.059	-0.005	-0.034	-0.122	0.479	1.992	1.270	1.279	1.279	1.289	1.284	1.216
0.195	0.005	-0.034	-0.005	-0.127	-0.127	0.479	1.958	1.255	1.270	1.284	1.294	1.260	1.230
0.176	-0.020	0.010	-0.005	-0.171	-0.049	0.479	1.885	1.235	1.250	1.284	1.294	1.260	1.255
0.063	-0.034	0.049	0.005	-0.205	0.000	0.479	1.914	1.196	1.230	1.279	1.299	1.260	1.270
-0.049	0.000	0.034	0.010	-0.181	0.024	0.479	1.899	1.182	1.226	1.260	1.294	1.279	1.274
-0.015	-0.005	0.015	0.010	-0.132	-0.010	0.479	1.929	1.211	1.221	1.245	1.289	1.294	1.270
-0.146	0.015	0.039	0.010	-0.098	-0.039	0.474	1.943	1.187	1.211	1.240	1.279	1.299	1.270
0.034	0.024	0.015	-0.005	-0.005	-0.054	0.474	1.924	1.255	1.230	1.230	1.270	1.318	1.279
0.068	0.029	0.000	-0.015	0.200	-0.020	0.474	1.958	1.265	1.240	1.230	1.265	1.357	1.313
-0.059	0.029	-0.029	-0.010	0.220	0.000	0.469	1.987	1.230	1.235	1.221	1.260	1.328	1.323
-0.093	0.015	-0.073	-0.010	0.088	0.000	0.464	1.968	1.235	1.226	1.211	1.245	1.270	1.309
-0.146	0.005	-0.078	-0.005	-0.049	-0.039	0.469	1.997	1.230	1.221	1.211	1.240	1.221	1.265
-0.151	-0.005	-0.093	-0.005	-0.156	-0.078	0.464	1.973	1.235	1.226	1.211	1.230	1.201	1.240
-0.190	-0.005	-0.151	0.015	-0.039	-0.078	0.464	1.997	1.230	1.221	1.196	1.235	1.240	1.240
-0.059	0.000	-0.107	0.015	0.024	-0.044	0.454	1.948	1.279	1.245	1.226	1.240	1.255	1.255
-0.029	0.015	0.010	0.020	0.029	0.010	0.459	1.973	1.279	1.260	1.265	1.260	1.255	1.270
-0.020	-0.005	0.068	0.020	0.044	0.024	0.454	1.958	1.279	1.265	1.274	1.270	1.265	1.274
0.000	-0.024	0.078	0.005	0.073	0.044	0.459	1.948	1.274	1.260	1.274	1.270	1.274	1.274
0.029	-0.029	0.142	-0.005	0.059	0.010	0.459	1.904	1.274	1.265	1.289	1.279	1.265	1.265
-0.020	-0.029	0.186	-0.024	0.024	0.015	0.464	1.904	1.245	1.265	1.289	1.284	1.260	1.265
-0.059	-0.029	0.200	-0.005	0.034	0.005	0.459	1.899	1.230	1.250	1.284	1.294	1.274	1.265
-0.078	-0.010	0.107	0.020	0.107	0.005	0.464	1.895	1.226	1.245	1.245	1.294	1.299	1.274
-0.142	0.000	-0.132	0.005	0.122	0.059	0.464	1.914	1.211	1.230	1.177	1.260	1.289	1.289
-0.254	0.015	-0.166	-0.005	0.151	0.088	0.454	1.938	1.187	1.216	1.187	1.240	1.284	1.299
-0.190	0.020	-0.068	-0.005	0.269	0.127	0.459	1.953	1.240	1.235	1.226	1.245	1.309	1.318
0.000	0.015	0.063	0.000	0.308	0.146	0.454	1.958	1.309	1.260	1.270	1.265	1.309	1.318
0.151	0.010	0.171	0.000	0.254	0.142	0.459	2.065	1.338	1.284	1.299	1.274	1.279	1.304
0.205	-0.005	0.225	-0.005	0.063	0.098	0.459	1.948	1.333	1.299	1.309	1.284	1.226	1.265
0.151	-0.005	0.190	0.000	-0.073	0.000	0.464	2.056	1.304	1.294	1.289	1.289	1.206	1.221
0.054	-0.005	0.073	0.005	-0.122	-0.098	0.464	1.943	1.255	1.279	1.255	1.284	1.206	1.187
-0.020	0.020	-0.044	0.000	-0.205	-0.137	0.474	2.026	1.240	1.265	1.226	1.270	1.201	1.182
-0.054	0.029	-0.137	0.005	-0.146	-0.112	0.469	2.012	1.230	1.255	1.216	1.260	1.235	1.201
-0.068	0.005	-0.137	-0.005	-0.107	-0.117	0.474	1.929	1.221	1.235	1.221	1.255	1.245	1.211
-0.024	-0.020	-0.093	-0.010	-0.073	-0.112	0.469	1.929	1.235	1.230	1.235	1.255	1.260	1.226
-0.034	-0.015	-0.054	-0.010	-0.039	-0.098	0.474	1.870	1.226	1.235	1.245	1.255	1.265	1.240
0.039	-0.005	-0.024	-0.015	-0.059	-0.029	0.469	1.909	1.245	1.240	1.250	1.260	1.260	1.265
0.195	-0.005	-0.063	-0.015	-0.034	0.034	0.469	1.953	1.299	1.260	1.240	1.260	1.270	1.284
0.229	-0.020	-0.127	-0.005	-0.107	0.073	0.469	1.929	1.289	1.265	1.230	1.255	1.240	1.279
0.137	-0.005	-0.122	-0.005	-0.195	0.068	0.469	1.855	1.255	1.260	1.240	1.255	1.221	1.260
0.146	-0.015	-0.107	0.000	-0.156	0.073	0.464	1.914	1.250	1.255	1.245	1.260	1.245	1.255
0.122	-0.005	-0.059	0.005	-0.093	0.010	0.464	1.973	1.245	1.255	1.265	1.270	1.265	1.245
0.015	0.015	0.044	0.005	-0.020	-0.044	0.474	1.987	1.221	1.250	1.284	1.284	1.289	1.240
-0.078	0.015	0.122	0.005	0.098	-0.059	0.464	1.924	1.196	1.235	1.294	1.294	1.318	1.265
-0.122	0.029	0.166	0.005	0.200	-0.039	0.469	1.978	1.201	1.230	1.289	1.304	1.343	1.294
-0.112	0.024	0.059	0.005	0.303	-0.024	0.469	1.992	1.230	1.226	1.240	1.289	1.357	1.318
-0.098	0.029	-0.010	0.034	0.264	0.059	0.469	2.002	1.250	1.230	1.226	1.284	1.323	1.338
-0.073	0.029	0.024	0.034	0.151	0.078	0.464	2.002	1.270	1.240	1.235	1.274	1.279	1.318
-0.015	0.000	0.029	0.015	0.005	0.044	0.469	1.963	1.289	1.245	1.240	1.260	1.230	1.284
0.112	-0.010	0.039	0.005	-0.098	-0.034	0.469	1.982	1.323	1.265	1.245	1.255	1.211	1.240
0.356	-0.020	0.029	-0.015	-0.078	-0.098	0.469	1.958	1.372	1.299	1.260	1.255	1.221	1.221
0.361	-0.010	0.039	-0.029	-0.103	-0.127	0.464	1.948	1.333	1.309	1.274	1.260	1.226	1.211
0.234	-0.020	-0.005	-0.029	-0.142	-0.088	0.474	1.919	1.260	1.289	1.265	1.265	1.226	1.226
0.088	-0.020	-0.156	-0.024	-0.020	0.044	0.469	1.919	1.201	1.255	1.221	1.260	1.274	1.279
-0.083	-0.005	-0.171	-0.015	0.054	0.181	0.469	1.924	1.157	1.230	1.230	1.265	1.289	1.318
-0.244	0.010	-0.181	0.015	-0.063	0.205	0.464	1.904	1.143	1.206	1.216	1.255	1.245	1.299
-0.332	0.020	-0.132	0.010	-0.156	0.166	0.464	1.890	1.143	1.191	1.221	1.250	1.221	1.265
-0.396	0.034	-0.034	0.010	-0.181	0.020	0.464	1.919	1.152	1.182	1.235	1.250	1.216	1.211
-0.269	0.039	0.029	0.010	-0.103	-0.112	0.469	1.953	1.221	1.201	1.235	1.260	1.245	1.187
-0.176	0.029	-0.156	0.010	-0.059	-0.156	0.464	1.943	1.245	1.206	1.177	1.235	1.250	1.191
-0.068	0.010	-0.239	0.010	-0.073	-0.176	0.469	1.963	1.270	1.216	1.172	1.221	1.235	1.201
-0.005	0.005	-0.098	-0.005	-0.098	-0.088	0.469	1.982	1.289	1.245	1.230	1.230	1.235	1.235
0.098	-0.015	0.210	-0.005	-0.020	-0.020	0.474	1.968	1.309	1.265	1.323	1.270	1.265	1.260
0.098	-0.020	0.430	-0.005	0.103	0.015	0.469	1.978	1.299	1.279	1.367	1.304	1.309	1.289
0.063	-0.020	0.483	-0.005	0.195	0.054	0.474	1.987	1.279	1.279	1.357	1.328	1.338	1.313
0.029	-0.039	0.430	0.005	0.151	0.137	0.469	1.978	1.265	1.265	1.313	1.328	1.323	1.338
0.039	-0.029	0.347	0.000	0.156	0.186	0.474	1.968	1.279	1.270	1.279	1.323	1.323	1.343
0.063	-0.005	0.200	0.000	0.068	0.215	0.479	1.914	1.279	1.274	1.240	1.294	1.289	1.333
0.073	0.010	0.059	0.010	-0.078	0.151	0.474	1.914	1.279	1.274	1.211	1.274	1.245	1.284
0.112	0.020	-0.044	0.015	-0.132	0.015	0.479	1.982	1.289	1.279	1.201	1.255	1.230	1.230
0.132	0.024	-0.166	0.015	-0.078	-0.098	0.474	1.885	1.274	1.274	1.191	1.240	1.245	1.211
0.132	-0.010	-0.195	0.010	0.054	-0.156	0.474	1.963	1.265	1.260	1.201	1.240	1.274	1.211
0.103	0.000	-0.166	0.010	0.132	-0.195	0.469	1.958	1.245	1.255	1.226	1.245	1.289	1.226
0.068	0.000	-0.112	0.010	0.249	-0.156	0.474	1.875	1.230	1.250	1.245	1.250	1.309	1.255
0.010	0.010	-0.132	0.010	0.200	-0.073	0.469	1.968	1.216	1.240	1.240	1.250	1.279	1.284
-0.020	0.015	-0.161	0.010	0.151	-0.034	0.474	1.973	1.226	1.235	1.230	1.245	1.260	1.284
0.015	0.010	-0.117	0.005	0.112	-0.005	0.469	1.953	1.240	1.240	1.245	1.250	1.240	1.279
0.000	0.015	-0.039	-0.005	-0.024	0.029	0.469	1.924	1.240	1.245	1.260	1.255	1.211	1.265
-0.010	0.015	-0.024	-0.005	-0.151	0.068	0.469	1.968	1.240	1.240	1.255	1.260	1.187	1.255
-0.063	0.029	-0.054	0.000	-0.229	0.098	0.474	2.021	1.240	1.240	1.245	1.260	1.187	1.240
-0.112	0.005	-0.059	0.000	-0.190	0.093	0.474	2.002	1.230	1.230	1.240	1.260	1.221	1.240
-0.127	-0.005	-0.034	0.000	-0.171	0.151	0.474	1.973	1.230	1.226	1.245	1.265	1.235	1.250
-0.078	-0.010	0.000	0.010	-0.156	0.181	0.479	2.012	1.260	1.235	1.250	1.265	1.245	1.255
-0.039	-0.015	0.024	-0.005	-0.107	0.127	0.474	1.924	1.270	1.245	1.250	1.265	1.265	1.240
0.142	-0.005	0.005	0.000	-0.024	0.024	0.474	1.963	1.313	1.270	1.255	1.270	1.284	1.230
0.151	-0.010	0.015	0.000	0.024	-0.034	0.474	1.914	1.284	1.274	1.260	1.274	1.289	1.230
0.112	-0.015	0.000	0.000	0.005	-0.117	0.479	1.938	1.265	1.265	1.255	1.274	1.270	1.221
0.005	-0.010	0.000	0.000	-0.054	-0.151	0.474	1.934	1.226	1.250	1.250	1.270	1.255	1.221
-0.093	-0.010	0.005	0.005	0.049	-0.117	0.479	1.904	1.187	1.230	1.255	1.274	1.289	1.245
-0.171	0.005	0.020	0.010	0.166	-0.093	0.474	1.909	1.177	1.216	1.245	1.274	1.318	1.279
-0.234	0.000	-0.010	0.005	0.146	-0.024	0.479	1.948	1.177	1.201	1.226	1.265	1.294	1.299
-0.264	-0.010	-0.029	0.010	0.068	0.005	0.474	1.958	1.196	1.201	1.211	1.250	1.265	1.294
-0.210	-0.005	0.000	0.010	0.020	0.054	0.479	1.938	1.226	1.211	1.221	1.250	1.245	1.294
-0.210	-0.010	-0.005	0.015	-0.020	0.078	0.474	1.978	1.240	1.216	1.216	1.245	1.235	1.284
-0.122	0.010	-0.020	0.010	-0.068	0.054	0.474	1.982	1.274	1.240	1.221	1.240	1.221	1.255
-0.049	0.005	0.029	0.000	-0.122	0.015	0.474	2.002	1.299	1.255	1.240	1.245	1.211	1.230
0.088	0.005	0.020	0.005	-0.132	-0.059	0.474	2.002	1.328	1.279	1.245	1.245	1.216	1.206
0.254	0.010	-0.049	0.005	-0.024	-0.161	0.469	1.973	1.348	1.299	1.240	1.250	1.250	1.191
0.254	0.000	-0.190	0.000	0.063	-0.176	0.474	2.002	1.318	1.294	1.221	1.245	1.270	1.211
0.161	-0.005	-0.107	0.000	0.015	-0.112	0.479	1.953	1.270	1.289	1.265	1.255	1.255	1.240
0.151	0.010	0.034	-0.005	0.078	-0.005	0.474	1.943	1.260	1.289	1.313	1.279	1.284	1.284
0.127	0.015	0.078	0.000	0.132	0.083	0.474	1.958	1.250	1.279	1.313	1.299	1.299	1.309
0.063	0.005	0.151	0.005	0.093	0.093	0.474	1.904	1.230	1.265	1.318	1.309	1.294	1.309
0.010	0.010	0.220	0.010	0.063	0.098	0.474	1.929	1.221	1.255	1.318	1.318	1.289	1.304
-0.010	-0.010	0.166	0.005	0.039	0.088	0.469	1.914	1.230	1.235	1.274	1.309	1.284	1.294
0.034	-0.024	-0.068	0.000	-0.005	0.059	0.474	1.914	1.240	1.226	1.201	1.274	1.270	1.279
0.034	-0.015	-0.137	-0.005	0.054	0.039	0.469	1.924	1.245	1.230	1.196	1.260	1.284	1.274
0.034	0.005	-0.063	0.000	0.073	0.024	0.474	1.914	1.245	1.245	1.230	1.260	1.279	1.270
0.073	0.010	0.029	0.015	0.020	0.010	0.469	1.904	1.255	1.255	1.260	1.265	1.260	1.265
0.063	0.010	0.083	0.010	-0.059	0.039	0.474	2.021	1.260	1.250	1.265	1.270	1.240	1.265
0.034	0.010	0.078	-0.005	-0.015	0.020	0.469	1.924	1.245	1.250	1.265	1.270	1.255	1.260
0.073	0.010	0.117	-0.015	-0.015	-0.015	0.474	2.026	1.270	1.255	1.270	1.270	1.260	1.245
0.186	0.024	0.078	-0.005	-0.010	-0.010	0.474	2.017	1.299	1.274	1.260	1.274	1.270	1.255
0.054	0.020	0.034	-0.005	0.044	0.015	0.474	2.046	1.245	1.260	1.245	1.274	1.284	1.270
-0.103	-0.005	0.029	-0.005	0.103	0.049	0.474	1.953	1.216	1.235	1.245	1.274	1.294	1.289
-0.210	-0.005	0.020	0.000	0.083	0.117	0.474	1.914	1.196	1.221	1.235	1.265	1.284	1.304
-0.249	-0.029	-0.005	0.000	0.117	0.112	0.469	1.938	1.206	1.206	1.221	1.260	1.284	1.299
-0.269	-0.005	0.010	0.010	0.151	0.059	0.479	1.982	1.216	1.216	1.226	1.260	1.284	1.279
-0.288	-0.029	-0.068	0.015	0.093	-0.005	0.474	1.929	1.216	1.206	1.191	1.245	1.250	1.250
-0.107	-0.020	-0.127	0.005	-0.010	-0.073	0.474	1.929	1.284	1.230	1.191	1.230	1.211	1.221
0.049	-0.020	-0.093	0.020	-0.127	-0.132	0.469	1.919	1.313	1.260	1.221	1.230	1.182	1.191
0.127	-0.024	-0.029	0.029	-0.181	-0.122	0.469	1.982	1.313	1.274	1.250	1.245	1.187	1.196
0.176	0.000	0.020	0.024	-0.210	-0.122	0.469	1.968	1.309	1.294	1.270	1.255	1.196	1.191
0.342	0.034	0.005	0.000	-0.244	-0.093	0.469	1.982	1.348	1.318	1.279	1.260	1.206	1.206
0.366	0.039	-0.039	-0.015	-0.132	-0.039	0.469	1.943	1.313	1.318	1.279	1.265	1.255	1.230
0.215	0.024	-0.112	-0.024	-0.015	0.005	0.469	1.963	1.245	1.284	1.260	1.270	1.289	1.260
0.024	0.010	-0.142	-0.010	0.083	0.015	0.469	1.973	1.191	1.250	1.250	1.274	1.313	1.274
-0.107	0.015	-0.151	-0.005	0.112	-0.005	0.469	1.958	1.172	1.226	1.245	1.274	1.304	1.284
-0.190	0.015	-0.083	-0.005	0.063	0.010	0.469	1.963	1.172	1.211	1.255	1.274	1.279	1.284
-0.381	0.024	0.044	0.005	-0.024	0.010	0.469	1.978	1.133	1.191	1.265	1.279	1.255	1.279
-0.430	0.029	0.142	0.010	-0.112	0.015	0.474	2.007	1.162	1.187	1.274	1.284	1.245	1.270
-0.396	0.020	0.229	0.010	-0.107	0.083	0.469	1.968	1.196	1.191	1.270	1.289	1.260	1.284
-0.332	0.005	0.181	0.005	-0.010	0.122	0.479	1.958	1.240	1.196	1.235	1.279	1.294	1.294
-0.107	-0.010	0.117	0.000	0.015	0.151	0.469	1.943	1.309	1.226	1.216	1.265	1.289	1.304
0.059	-0.024	0.088	-0.010	-0.024	0.107	0.469	1.938	1.343	1.255	1.216	1.255	1.270	1.279
0.137	-0.034	-0.093	-0.005	0.103	0.049	0.469	1.924	1.338	1.274	1.177	1.240	1.289	1.265
0.171	-0.020	-0.195	-0.005	0.103	-0.029	0.474	1.909	1.323	1.284	1.187	1.230	1.265	1.245
0.352	-0.024	-0.176	-0.005	0.034	-0.098	0.474	1.938	1.353	1.309	1.226	1.230	1.230	1.221
0.293	-0.020	-0.049	0.000	-0.020	-0.137	0.474	1.929	1.294	1.309	1.284	1.245	1.226	1.211
0.220	-0.015	0.044	0.005	-0.039	-0.112	0.474	1.909	1.255	1.294	1.309	1.274	1.230	1.221
0.112	0.000	0.127	0.000	-0.049	-0.073	0.474	1.919	1.216	1.279	1.323	1.294	1.245	1.240
0.005	0.015	0.176	0.005	0.010	-0.063	0.474	1.938	1.191	1.255	1.318	1.309	1.274	1.255
-0.044	0.020	0.142	0.010	-0.010	-0.054	0.474	1.934	1.191	1.235	1.284	1.309	1.279	1.260
-0.049	0.020	0.049	0.015	0.117	-0.020	0.474	1.958	1.211	1.226	1.245	1.299	1.323	1.284
-0.029	0.010	0.010	0.015	0.264	0.000	0.479	1.968	1.235	1.226	1.230	1.289	1.353	1.318
0.059	0.015	-0.063	0.015	0.298	0.054	0.479	2.002	1.274	1.235	1.216	1.274	1.333	1.338
0.107	0.024	-0.073	0.010	0.176	0.107	0.474	1.982	1.294	1.255	1.226	1.260	1.284	1.333
0.186	0.029	-0.054	0.015	0.068	0.112	0.479	1.963	1.318	1.274	1.245	1.255	1.245	1.309
0.317	0.000	-0.020	0.010	-0.083	0.112	0.474	1.963	1.343	1.289	1.260	1.260	1.211	1.274
0.254	-0.010	-0.132	0.005	-0.166	0.059	0.483	2.017	1.299	1.284	1.230	1.250	1.196	1.235
0.044	-0.010	-0.239	0.005	-0.151	0.029	0.479	1.924	1.221	1.255	1.211	1.245	1.211	1.221
-0.127	-0.010	-0.112	0.005	-0.093	-0.005	0.483	1.982	1.177	1.230	1.255	1.255	1.235	1.216
-0.239	-0.015	-0.005	0.010	-0.010	-0.029	0.479	1.968	1.162	1.216	1.270	1.270	1.265	1.226
-0.283	-0.010	0.068	0.000	-0.005	-0.010	0.479	1.973	1.172	1.201	1.270	1.274	1.270	1.245
-0.259	-0.020	0.132	-0.005	-0.005	0.034	0.479	1.885	1.187	1.201	1.265	1.279	1.270	1.260
-0.186	-0.015	0.205	-0.005	-0.015	-0.010	0.483	1.934	1.226	1.211	1.270	1.284	1.265	1.245
-0.146	0.000	0.205	0.000	0.015	-0.024	0.483	1.895	1.240	1.226	1.255	1.279	1.279	1.255
-0.063	0.010	0.156	0.000	0.073	-0.049	0.483	1.875	1.260	1.235	1.235	1.274	1.289	1.255
-0.020	0.005	0.098	0.000	0.098	-0.059	0.483	1.934	1.260	1.240	1.221	1.265	1.289	1.265
-0.098	-0.020	0.005	0.000	0.054	-0.044	0.483	1.890	1.245	1.230	1.201	1.245	1.265	1.265
-0.127	-0.005	-0.039	-0.005	-0.044	-0.054	0.488	1.987	1.245	1.235	1.196	1.235	1.226	1.255
-0.103	-0.005	-0.063	0.000	-0.103	-0.020	0.483	2.036	1.265	1.240	1.201	1.230	1.216	1.250
-0.029	-0.010	-0.088	0.005	-0.156	0.020	0.483	2.021	1.289	1.255	1.206	1.230	1.201	1.245
0.059	0.015	-0.137	0.000	-0.239	0.015	0.483	2.021	1.309	1.274	1.216	1.226	1.187	1.226
0.093	-0.005	-0.156	0.000	-0.264	0.044	0.488	1.968	1.309	1.279	1.226	1.230	1.191	1.221
0.127	-0.005	-0.117	0.000	-0.166	0.049	0.488	1.958	1.299	1.289	1.255	1.245	1.235	1.230
0.073	0.000	-0.098	0.000	-0.078	0.083	0.488	1.968	1.260	1.279	1.260	1.255	1.260	1.245
0.029	0.005	-0.127	-0.005	-0.029	0.073	0.483	1.963	1.245	1.274	1.260	1.265	1.274	1.250
0.024	0.015	-0.112	0.000	-0.029	0.049	0.488	1.934	1.245	1.270	1.265	1.270	1.265	1.245
0.107	0.020	-0.020	0.000	-0.039	0.010	0.493	1.899	1.265	1.274	1.294	1.284	1.265	1.245
0.215	0.015	0.088	0.005	-0.063	-0.020	0.493	1.924	1.289	1.279	1.318	1.299	1.265	1.245
0.259	0.010	0.151	0.005	-0.015	-0.068	0.488	1.890	1.284	1.279	1.323	1.313	1.289	1.240
0.439	-0.015	0.137	-0.005	0.010	-0.137	0.493	1.924	1.328	1.289	1.309	1.313	1.299	1.240
0.586	0.000	0.107	0.000	0.049	-0.122	0.488	1.909	1.338	1.304	1.304	1.318	1.318	1.265
0.459	0.029	0.117	0.000	0.161	-0.107	0.498	1.919	1.270	1.304	1.309	1.323	1.348	1.294
0.161	0.010	0.039	0.005	0.249	-0.020	0.493	1.934	1.172	1.250	1.265	1.313	1.362	1.338
-0.112	0.000	-0.063	0.000	0.249	0.005	0.493	1.948	1.123	1.201	1.226	1.289	1.343	1.343
-0.249	-0.015	-0.107	0.000	0.132	0.020	0.493	1.987	1.123	1.172	1.196	1.270	1.289	1.328
-0.312	-0.005	-0.088	0.000	0.088	0.000	0.498	2.002	1.157	1.172	1.196	1.255	1.265	1.304
-0.332	0.000	-0.039	0.000	-0.044	0.005	0.493	1.997	1.182	1.172	1.201	1.240	1.226	1.284
-0.464	0.034	0.034	-0.005	-0.132	0.015	0.493	1.978	1.172	1.182	1.216	1.240	1.201	1.260
-0.552	0.029	0.122	-0.005	-0.142	0.024	0.493	1.997	1.172	1.177	1.226	1.240	1.211	1.250
-0.537	0.024	0.142	-0.005	-0.132	0.044	0.488	1.963	1.196	1.182	1.216	1.240	1.221	1.245
-0.405	0.024	0.146	0.010	-0.054	0.044	0.493	1.948	1.255	1.201	1.216	1.245	1.245	1.250
-0.186	0.000	0.112	0.020	-0.015	0.054	0.488	1.943	1.323	1.230	1.211	1.240	1.255	1.250
0.015	-0.044	0.093	0.000	0.010	0.054	0.498	1.948	1.362	1.260	1.221	1.235	1.255	1.255
0.186	-0.044	0.049	-0.005	0.088	0.054	0.488	1.914	1.377	1.294	1.226	1.240	1.274	1.260
0.259	-0.049	-0.010	0.000	0.103	0.068	0.498	1.899	1.357	1.309	1.235	1.240	1.265	1.270
0.278	-0.034	-0.044	0.015	0.176	0.088	0.493	1.904	1.328	1.318	1.245	1.255	1.284	1.279
0.195	-0.015	-0.044	0.010	0.176	0.112	0.503	1.992	1.284	1.313	1.265	1.260	1.270	1.279
0.010	-0.005	-0.176	0.015	0.146	0.073	0.493	1.875	1.211	1.279	1.230	1.255	1.255	1.265
-0.117	0.020	-0.215	0.010	0.127	0.049	0.498	1.978	1.196	1.260	1.230	1.250	1.245	1.250
-0.049	0.020	-0.151	-0.010	0.044	-0.044	0.493	1.909	1.230	1.255	1.250	1.250	1.226	1.216
0.151	0.034	-0.098	-0.020	0.127	-0.107	0.498	1.924	1.289	1.274	1.270	1.265	1.250	1.211
0.303	0.029	-0.049	-0.005	0.127	-0.112	0.498	1.938	1.323	1.294	1.289	1.279	1.260	1.221
0.430	0.059	-0.010	0.015	0.044	-0.083	0.498	2.036	1.348	1.318	1.309	1.299	1.245	1.235
0.352	0.039	0.005	0.024	-0.044	-0.059	0.498	1.978	1.294	1.304	1.304	1.304	1.240	1.240
0.327	-0.015	-0.303	0.005	-0.122	-0.063	0.493	2.002	1.274	1.270	1.216	1.274	1.230	1.230
0.127	-0.020	-0.205	-0.005	-0.088	-0.059	0.498	1.997	1.201	1.245	1.255	1.274	1.245	1.235
-0.132	-0.005	-0.029	-0.010	-0.068	-0.054	0.498	1.992	1.143	1.221	1.289	1.284	1.260	1.245
-0.205	-0.020	0.127	-0.020	-0.098	-0.049	0.498	1.953	1.152	1.201	1.304	1.294	1.265	1.255
-0.332	-0.024	0.195	-0.015	-0.103	-0.010	0.503	1.885	1.123	1.177	1.284	1.299	1.270	1.265
-0.498	-0.015	0.269	-0.020	-0.117	0.015	0.503	2.002	1.113	1.162	1.265	1.294	1.274	1.274
-0.513	0.000	0.249	-0.015	-0.137	-0.039	0.503	1.895	1.152	1.162	1.230	1.284	1.265	1.260
