0.005	0.010	0.000	0.000	0.000	0.005	0.039	2.695	2.505	2.085	1.992	1.904	1.909	1.899
0.005	0.000	0.000	0.005	0.010	0.000	0.034	2.676	2.344	2.158	2.036	1.943	1.919	1.904
0.010	0.005	0.005	-0.005	-0.005	0.000	0.039	2.681	2.231	2.183	2.075	1.982	1.934	1.909
0.005	0.005	0.000	0.005	0.020	-0.010	0.034	2.705	2.153	2.178	2.104	2.021	1.958	1.919
0.010	0.015	0.000	0.000	0.020	0.005	0.039	2.686	2.090	2.158	2.119	2.056	1.982	1.938
0.000	0.010	0.005	0.005	0.010	0.005	0.039	2.690	2.041	2.124	2.124	2.080	2.012	1.958
0.000	0.000	0.005	0.000	0.010	0.010	0.039	2.690	2.017	2.090	2.114	2.095	2.031	1.978
0.000	-0.010	0.010	0.000	0.000	0.005	0.039	2.690	1.997	2.065	2.104	2.100	2.046	1.997
0.000	-0.010	0.000	0.000	-0.005	0.000	0.039	2.700	1.982	2.041	2.085	2.100	2.061	2.012
0.000	0.000	0.005	0.000	0.000	0.015	0.039	2.676	1.978	2.026	2.070	2.100	2.070	2.026
-0.010	0.000	0.005	-0.005	0.000	-0.005	0.039	2.695	1.968	2.012	2.051	2.090	2.075	2.036
-0.005	0.010	-0.005	0.000	-0.005	0.000	0.039	2.671	1.968	2.002	2.036	2.085	2.075	2.051
-0.005	0.000	-0.005	0.000	-0.005	0.000	0.039	2.676	1.963	1.987	2.021	2.070	2.070	2.056
0.005	0.005	0.000	0.000	-0.010	0.010	0.039	2.681	1.968	1.982	2.012	2.061	2.065	2.061
-0.005	0.010	0.000	0.000	-0.010	-0.005	0.039	2.671	1.968	1.978	2.002	2.046	2.061	2.056
-0.005	0.005	-0.005	0.000	-0.005	0.010	0.039	2.681	1.968	1.973	1.992	2.041	2.056	2.056
0.000	0.000	0.000	-0.005	0.000	0.005	0.039	2.700	1.968	1.973	1.987	2.031	2.051	2.056
0.005	0.005	0.000	0.005	0.005	0.015	0.039	2.686	1.968	1.973	1.982	2.026	2.041	2.051
0.010	0.010	0.000	0.000	0.010	0.005	0.039	2.715	1.978	1.978	1.982	2.017	2.036	2.046
0.010	0.000	0.000	0.005	0.005	0.005	0.039	2.681	1.978	1.973	1.978	2.012	2.026	2.036
0.010	-0.005	0.000	0.005	0.010	0.005	0.039	2.700	1.978	1.973	1.978	2.007	2.021	2.036
0.020	-0.005	0.005	0.005	0.010	0.000	0.034	2.686	1.978	1.973	1.978	2.002	2.017	2.031
0.015	0.010	0.005	0.000	0.000	0.000	0.039	2.686	1.978	1.978	1.978	2.002	2.012	2.021
0.020	0.015	0.005	0.005	-0.005	0.000	0.039	2.686	1.973	1.982	1.978	1.997	2.002	2.017
0.000	0.000	0.005	0.005	0.000	-0.005	0.039	2.646	1.958	1.973	1.973	1.997	2.002	2.012
0.005	0.005	0.000	0.000	0.000	-0.005	0.039	2.651	1.958	1.968	1.973	1.992	1.997	2.002
-0.005	-0.010	0.000	-0.005	0.000	-0.010	0.039	2.710	1.953	1.958	1.968	1.992	1.992	2.002
-0.024	0.000	0.000	-0.010	-0.015	0.000	0.039	2.778	1.963	1.958	1.963	1.987	1.987	1.997
-0.020	-0.010	0.000	-0.005	-0.020	0.010	0.039	2.734	1.958	1.953	1.963	1.987	1.982	1.997
-0.015	0.000	0.000	0.000	-0.029	0.000	0.039	2.739	1.963	1.963	1.963	1.982	1.978	1.992
-0.020	0.000	0.000	0.000	-0.054	-0.005	0.039	2.739	1.973	1.963	1.958	1.982	1.973	1.982
-0.020	0.000	0.000	0.000	-0.049	0.000	0.039	2.661	1.963	1.963	1.963	1.982	1.978	1.982
-0.010	-0.005	0.000	0.000	-0.039	0.010	0.039	2.632	1.958	1.958	1.958	1.982	1.982	1.982
0.000	-0.005	0.005	0.005	0.000	-0.024	0.039	2.617	1.953	1.958	1.958	1.982	1.987	1.978
-0.005	0.005	0.000	0.005	0.024	0.000	0.039	2.681	1.953	1.958	1.958	1.982	1.992	1.987
-0.005	0.005	0.000	0.000	0.029	0.005	0.039	2.725	1.963	1.958	1.958	1.982	1.987	1.987
0.005	0.010	0.000	0.005	0.039	0.005	0.039	2.690	1.963	1.963	1.958	1.978	1.987	1.992
0.005	0.005	0.000	0.010	0.063	0.010	0.039	2.632	1.953	1.958	1.963	1.982	1.992	1.992
0.005	0.000	0.000	0.005	0.083	0.005	0.039	2.686	1.958	1.958	1.958	1.978	1.992	1.992
0.005	-0.005	0.000	0.010	0.078	0.015	0.039	2.632	1.948	1.953	1.958	1.978	1.987	1.992
0.015	0.005	0.005	0.005	0.063	0.010	0.039	2.695	1.958	1.953	1.958	1.973	1.978	1.987
0.000	0.000	0.005	0.000	0.024	0.015	0.039	2.681	1.948	1.948	1.953	1.973	1.968	1.982
-0.024	0.000	0.000	0.000	0.024	0.005	0.039	2.695	1.948	1.948	1.953	1.973	1.968	1.973
0.005	-0.005	0.000	0.005	0.024	-0.005	0.039	2.666	1.953	1.948	1.953	1.973	1.968	1.968
0.029	-0.005	0.005	0.000	0.000	-0.005	0.039	2.671	1.958	1.948	1.953	1.973	1.958	1.963
0.034	-0.005	0.005	0.000	-0.020	0.005	0.039	2.671	1.948	1.948	1.953	1.968	1.958	1.963
0.029	0.020	0.005	0.000	-0.015	-0.005	0.034	2.666	1.943	1.953	1.948	1.968	1.958	1.963
0.029	0.005	0.005	-0.005	-0.015	-0.005	0.039	2.676	1.943	1.948	1.948	1.968	1.958	1.958
0.015	0.000	0.000	0.000	-0.024	0.000	0.034	2.671	1.934	1.943	1.943	1.968	1.958	1.958
-0.005	-0.005	0.000	-0.005	-0.029	-0.020	0.039	2.676	1.929	1.934	1.943	1.963	1.953	1.953
-0.005	0.000	0.000	0.000	-0.024	-0.005	0.039	2.700	1.934	1.934	1.943	1.963	1.958	1.953
-0.010	0.005	-0.005	0.000	-0.020	0.005	0.039	2.681	1.934	1.934	1.938	1.963	1.958	1.963
-0.005	0.010	0.000	0.000	-0.015	0.000	0.039	2.700	1.934	1.938	1.938	1.958	1.958	1.958
-0.005	0.015	0.000	0.000	-0.010	-0.005	0.039	2.681	1.934	1.934	1.938	1.958	1.958	1.958
-0.010	0.005	0.000	0.000	-0.015	0.005	0.039	2.695	1.938	1.934	1.938	1.958	1.958	1.958
-0.010	-0.005	0.005	0.000	-0.005	-0.005	0.039	2.681	1.938	1.934	1.934	1.958	1.958	1.958
-0.005	0.000	-0.005	0.005	-0.010	-0.005	0.039	2.700	1.938	1.934	1.934	1.958	1.953	1.958
-0.010	0.015	0.005	0.005	-0.005	0.000	0.039	2.695	1.938	1.938	1.938	1.953	1.958	1.958
0.000	0.015	0.005	0.005	0.000	-0.005	0.039	2.666	1.938	1.943	1.938	1.958	1.953	1.958
-0.005	0.000	0.005	0.000	-0.010	0.000	0.039	2.695	1.938	1.934	1.934	1.953	1.948	1.953
0.005	0.000	0.000	0.000	-0.015	0.000	0.039	2.695	1.938	1.934	1.934	1.953	1.948	1.953
-0.010	-0.005	0.000	0.000	-0.020	-0.015	0.039	2.666	1.929	1.929	1.934	1.953	1.948	1.943
0.000	-0.005	-0.005	0.000	-0.005	0.015	0.039	2.681	1.934	1.929	1.929	1.953	1.948	1.953
-0.005	-0.010	-0.005	0.005	0.005	0.010	0.039	2.681	1.934	1.929	1.929	1.948	1.953	1.953
0.000	-0.005	0.000	0.005	0.010	-0.010	0.039	2.646	1.924	1.929	1.929	1.948	1.948	1.948
0.015	-0.005	-0.005	0.000	0.005	0.015	0.039	2.646	1.929	1.929	1.929	1.948	1.948	1.953
0.000	-0.005	0.000	0.000	0.024	0.010	0.039	2.642	1.919	1.924	1.929	1.948	1.953	1.953
-0.005	0.015	0.000	0.000	0.015	0.000	0.039	2.642	1.919	1.929	1.924	1.943	1.948	1.948
0.010	0.010	0.005	0.000	0.005	-0.015	0.039	2.632	1.914	1.924	1.929	1.943	1.943	1.943
0.005	0.010	0.000	0.000	-0.005	0.010	0.034	2.754	1.924	1.924	1.924	1.943	1.938	1.948
0.005	0.010	0.005	-0.005	0.000	0.005	0.034	2.720	1.934	1.924	1.924	1.943	1.938	1.943
0.005	0.005	0.005	-0.005	-0.015	0.005	0.034	2.734	1.938	1.929	1.924	1.943	1.934	1.938
0.000	0.000	0.005	-0.005	-0.020	0.005	0.034	2.627	1.924	1.924	1.924	1.943	1.934	1.938
0.015	0.000	0.000	0.000	-0.010	-0.010	0.039	2.720	1.929	1.924	1.924	1.943	1.938	1.938
0.005	-0.005	0.000	0.000	-0.010	0.005	0.039	2.676	1.924	1.924	1.924	1.943	1.938	1.943
0.000	-0.010	0.005	0.005	-0.005	0.015	0.039	2.656	1.924	1.919	1.924	1.943	1.943	1.943
0.015	-0.005	0.005	0.005	0.005	-0.005	0.039	2.686	1.924	1.924	1.924	1.943	1.943	1.934
0.000	0.005	0.000	0.005	0.005	0.010	0.039	2.632	1.924	1.924	1.924	1.943	1.938	1.943
0.005	-0.005	0.005	0.000	0.005	0.010	0.039	2.700	1.924	1.924	1.924	1.943	1.938	1.938
-0.005	0.000	0.000	0.010	0.010	0.000	0.039	2.729	1.924	1.924	1.919	1.943	1.943	1.938
-0.010	0.005	-0.005	0.005	0.039	0.005	0.039	2.690	1.924	1.919	1.919	1.943	1.948	1.943
0.000	0.005	0.000	0.010	0.093	-0.005	0.039	2.676	1.924	1.919	1.919	1.943	1.958	1.948
0.005	-0.005	-0.005	0.005	0.093	-0.005	0.039	2.690	1.929	1.924	1.919	1.938	1.953	1.948
-0.010	0.015	-0.005	0.000	0.068	-0.020	0.039	2.700	1.924	1.924	1.919	1.938	1.938	1.938
-0.015	0.015	0.005	-0.005	0.010	-0.010	0.039	2.676	1.919	1.924	1.919	1.934	1.924	1.934
0.000	0.015	0.005	-0.005	-0.020	0.000	0.039	2.671	1.919	1.919	1.919	1.934	1.914	1.934
0.015	0.010	0.000	-0.010	-0.024	0.000	0.039	2.681	1.924	1.919	1.919	1.934	1.919	1.929
0.015	0.000	0.000	-0.010	-0.039	0.005	0.039	2.700	1.924	1.919	1.919	1.934	1.919	1.924
0.024	0.005	-0.005	-0.010	-0.044	0.010	0.039	2.695	1.929	1.919	1.919	1.934	1.919	1.924
0.015	0.005	0.000	-0.010	-0.039	0.005	0.039	2.681	1.919	1.919	1.919	1.934	1.924	1.924
0.005	0.000	0.000	-0.005	-0.020	0.000	0.039	2.700	1.914	1.919	1.919	1.934	1.934	1.924
-0.010	-0.005	0.000	0.000	-0.020	0.000	0.039	2.676	1.909	1.914	1.914	1.938	1.934	1.929
-0.005	0.000	0.000	0.000	-0.044	-0.010	0.039	2.695	1.909	1.914	1.914	1.938	1.924	1.924
-0.010	-0.010	0.000	0.010	-0.068	0.005	0.039	2.671	1.904	1.909	1.914	1.938	1.924	1.924
-0.010	-0.005	0.000	0.005	-0.083	-0.010	0.039	2.676	1.904	1.909	1.909	1.934	1.919	1.919
-0.015	-0.015	0.000	0.000	-0.063	0.010	0.039	2.676	1.904	1.904	1.909	1.929	1.924	1.924
0.000	-0.010	0.000	0.005	-0.029	-0.005	0.039	2.695	1.909	1.909	1.909	1.934	1.938	1.924
0.000	-0.005	0.005	0.010	0.020	0.024	0.039	2.676	1.909	1.909	1.909	1.934	1.948	1.943
0.000	-0.010	-0.005	0.005	0.059	0.000	0.039	2.695	1.909	1.904	1.904	1.929	1.953	1.934
-0.005	0.010	0.000	0.000	0.107	0.024	0.039	2.671	1.909	1.909	1.909	1.929	1.958	1.948
0.000	0.000	0.000	0.005	0.093	0.010	0.039	2.676	1.909	1.909	1.909	1.929	1.943	1.943
-0.005	-0.015	0.000	0.000	0.098	-0.005	0.039	2.700	1.909	1.904	1.904	1.924	1.938	1.938
0.000	0.005	0.000	0.000	0.107	-0.005	0.034	2.690	1.919	1.914	1.909	1.929	1.938	1.934
-0.005	-0.010	0.005	0.005	0.103	-0.024	0.039	2.676	1.909	1.909	1.909	1.929	1.934	1.934
-0.005	-0.005	0.000	0.005	0.073	-0.039	0.034	2.646	1.904	1.909	1.904	1.929	1.919	1.919
0.000	0.000	0.005	0.005	0.005	0.005	0.039	2.661	1.909	1.909	1.904	1.924	1.904	1.929
-0.005	0.005	0.005	0.000	-0.005	0.005	0.034	2.651	1.919	1.914	1.909	1.924	1.904	1.919
-0.005	0.029	0.005	0.005	0.005	-0.005	0.039	2.651	1.914	1.919	1.909	1.929	1.914	1.914
-0.010	0.020	0.000	0.005	-0.034	-0.005	0.039	2.642	1.904	1.909	1.909	1.929	1.904	1.909
0.000	0.010	0.000	0.005	-0.049	-0.005	0.039	2.720	1.909	1.904	1.904	1.924	1.909	1.914
0.000	-0.005	0.000	0.005	-0.039	0.005	0.039	2.734	1.914	1.904	1.904	1.929	1.909	1.914
0.000	-0.010	0.000	0.005	-0.020	0.010	0.039	2.622	1.899	1.899	1.904	1.924	1.919	1.919
0.005	-0.010	-0.005	0.000	-0.020	0.000	0.039	2.715	1.904	1.899	1.904	1.924	1.919	1.914
0.005	-0.020	0.000	0.000	-0.024	0.010	0.039	2.744	1.904	1.899	1.899	1.919	1.919	1.919
0.005	-0.015	0.000	0.005	-0.034	0.010	0.039	2.651	1.899	1.899	1.899	1.919	1.914	1.914
0.000	0.000	-0.005	0.005	-0.015	0.005	0.039	2.646	1.895	1.904	1.899	1.919	1.919	1.914
0.010	-0.005	-0.005	0.000	-0.010	-0.005	0.039	2.690	1.899	1.899	1.899	1.919	1.919	1.914
0.005	-0.005	-0.005	-0.005	-0.015	0.005	0.039	2.695	1.899	1.899	1.899	1.919	1.914	1.919
0.000	0.010	0.005	-0.005	-0.020	0.010	0.039	2.705	1.909	1.904	1.899	1.919	1.914	1.919
0.010	0.005	0.005	-0.005	-0.010	0.005	0.039	2.710	1.899	1.904	1.899	1.914	1.914	1.909
0.015	0.010	0.005	0.000	-0.010	0.005	0.039	2.700	1.904	1.904	1.904	1.919	1.914	1.914
0.005	0.005	0.010	0.000	-0.005	0.005	0.039	2.686	1.899	1.904	1.899	1.919	1.919	1.914
0.000	0.015	0.005	0.000	-0.005	-0.005	0.039	2.666	1.895	1.904	1.904	1.919	1.914	1.914
-0.005	0.024	0.010	0.000	0.000	-0.010	0.039	2.700	1.904	1.904	1.904	1.919	1.914	1.914
0.000	0.015	0.005	0.000	-0.010	0.010	0.039	2.686	1.904	1.899	1.899	1.919	1.919	1.919
0.000	0.010	0.005	0.005	0.000	0.005	0.039	2.671	1.895	1.899	1.899	1.919	1.919	1.919
0.000	0.005	-0.005	0.000	-0.005	0.005	0.039	2.676	1.899	1.895	1.895	1.919	1.914	1.914
-0.010	0.010	0.005	0.000	0.000	0.005	0.039	2.690	1.899	1.895	1.895	1.919	1.919	1.914
0.000	-0.005	0.000	0.005	0.005	0.005	0.039	2.695	1.899	1.895	1.895	1.919	1.914	1.914
0.000	-0.005	0.000	0.000	0.000	0.010	0.039	2.676	1.895	1.895	1.895	1.914	1.914	1.914
0.000	-0.015	-0.005	0.005	0.000	0.005	0.039	2.686	1.899	1.890	1.890	1.914	1.914	1.914
-0.010	-0.005	-0.005	-0.005	0.000	0.000	0.039	2.700	1.904	1.895	1.890	1.909	1.909	1.909
-0.010	-0.005	0.000	-0.005	0.000	0.005	0.039	2.700	1.904	1.899	1.890	1.909	1.909	1.909
0.000	0.005	-0.005	0.005	0.005	0.005	0.039	2.681	1.904	1.899	1.895	1.914	1.909	1.909
-0.010	0.005	0.000	0.000	0.000	0.005	0.039	2.681	1.904	1.899	1.895	1.914	1.909	1.909
-0.005	0.010	0.005	0.005	0.000	-0.015	0.039	2.686	1.899	1.899	1.899	1.914	1.909	1.904
0.005	0.000	-0.005	0.000	0.005	-0.020	0.039	2.700	1.904	1.899	1.895	1.914	1.909	1.904
0.005	0.005	0.000	0.000	0.000	0.010	0.039	2.695	1.909	1.904	1.899	1.914	1.909	1.914
0.010	0.005	0.005	0.000	0.005	0.005	0.039	2.671	1.904	1.904	1.899	1.914	1.909	1.914
-0.010	0.005	0.000	-0.005	0.005	0.000	0.039	2.681	1.899	1.899	1.899	1.914	1.909	1.904
0.005	-0.010	0.000	0.000	0.000	0.005	0.039	2.681	1.899	1.899	1.899	1.914	1.909	1.914
0.010	-0.010	-0.005	0.000	0.005	0.005	0.039	2.676	1.895	1.895	1.895	1.914	1.909	1.909
0.000	-0.005	0.000	0.000	-0.005	0.005	0.039	2.690	1.895	1.895	1.895	1.914	1.909	1.909
0.000	-0.010	0.000	0.005	-0.005	0.010	0.039	2.661	1.895	1.895	1.895	1.914	1.909	1.914
-0.005	0.000	-0.005	0.010	0.000	-0.010	0.039	2.646	1.890	1.895	1.895	1.914	1.909	1.909
0.000	-0.005	0.000	0.005	-0.005	0.005	0.039	2.656	1.885	1.890	1.895	1.914	1.909	1.909
0.005	-0.005	0.005	0.000	0.005	-0.020	0.039	2.773	1.904	1.895	1.895	1.914	1.909	1.904
0.005	0.000	0.000	0.000	0.000	0.010	0.039	2.642	1.899	1.895	1.890	1.914	1.909	1.909
0.005	-0.010	0.000	0.005	-0.005	-0.005	0.039	2.661	1.895	1.890	1.890	1.909	1.904	1.904
0.010	0.005	0.000	0.000	0.000	0.010	0.039	2.720	1.899	1.895	1.890	1.909	1.909	1.909
0.000	-0.005	0.000	-0.005	0.005	0.000	0.039	2.734	1.904	1.895	1.890	1.909	1.909	1.904
0.000	0.005	0.000	0.000	0.020	0.015	0.039	2.637	1.895	1.899	1.890	1.909	1.914	1.914
0.005	0.000	0.005	0.000	0.020	0.015	0.039	2.715	1.904	1.895	1.895	1.914	1.909	1.909
-0.010	0.020	-0.005	0.000	-0.010	0.005	0.039	2.637	1.895	1.899	1.895	1.914	1.904	1.909
-0.005	0.020	0.000	0.005	-0.015	0.010	0.039	2.681	1.895	1.895	1.890	1.914	1.899	1.904
-0.005	0.015	0.005	0.005	-0.005	0.020	0.039	2.627	1.890	1.895	1.895	1.909	1.904	1.909
-0.010	0.015	-0.005	0.005	0.005	0.000	0.039	2.690	1.890	1.895	1.895	1.909	1.909	1.904
0.000	0.000	0.000	0.000	-0.010	-0.039	0.034	2.720	1.895	1.890	1.890	1.909	1.904	1.895
-0.005	0.000	0.010	0.000	-0.015	-0.039	0.039	2.700	1.899	1.890	1.890	1.909	1.904	1.895
0.010	0.005	0.000	0.000	-0.015	-0.015	0.039	2.651	1.895	1.895	1.890	1.909	1.904	1.904
0.000	-0.005	0.000	0.000	-0.015	0.005	0.039	2.695	1.895	1.890	1.890	1.909	1.904	1.909
0.005	-0.005	0.000	0.000	0.010	0.005	0.039	2.676	1.895	1.890	1.890	1.909	1.914	1.909
0.005	-0.010	0.005	0.005	0.034	-0.005	0.039	2.666	1.895	1.890	1.890	1.909	1.919	1.914
0.000	0.000	0.000	-0.005	0.098	0.020	0.039	2.661	1.895	1.890	1.890	1.909	1.929	1.924
0.000	-0.005	0.000	0.005	0.063	0.015	0.039	2.686	1.895	1.890	1.885	1.909	1.914	1.919
0.000	-0.005	0.000	0.005	0.029	0.005	0.039	2.666	1.890	1.890	1.885	1.904	1.899	1.909
0.005	-0.005	-0.005	0.000	-0.005	0.005	0.039	2.681	1.895	1.890	1.885	1.904	1.890	1.904
0.000	-0.005	0.000	0.000	-0.020	-0.005	0.039	2.695	1.895	1.890	1.885	1.904	1.890	1.899
0.005	-0.010	0.000	0.000	-0.020	-0.005	0.039	2.695	1.895	1.890	1.890	1.904	1.890	1.895
0.010	-0.020	0.005	0.005	-0.015	-0.010	0.039	2.686	1.895	1.890	1.890	1.909	1.895	1.895
0.010	-0.015	0.000	0.000	-0.005	-0.005	0.039	2.690	1.895	1.890	1.890	1.904	1.899	1.899
0.000	-0.005	0.005	0.000	0.000	-0.010	0.039	2.705	1.895	1.895	1.890	1.909	1.904	1.895
0.005	-0.010	0.005	0.000	-0.005	0.005	0.039	2.690	1.895	1.895	1.890	1.909	1.904	1.904
0.000	0.000	0.005	0.005	-0.010	0.005	0.039	2.681	1.890	1.895	1.895	1.909	1.899	1.899
0.005	0.000	0.000	0.000	-0.020	0.015	0.039	2.681	1.890	1.890	1.890	1.909	1.899	1.904
0.000	0.015	0.005	0.005	-0.010	0.005	0.039	2.666	1.895	1.899	1.895	1.909	1.904	1.904
0.000	0.034	0.000	0.000	0.005	0.005	0.039	2.700	1.895	1.899	1.895	1.909	1.909	1.904
0.010	0.010	0.005	0.000	-0.015	-0.005	0.039	2.690	1.895	1.890	1.895	1.909	1.899	1.899
-0.005	0.005	-0.005	0.000	-0.015	0.015	0.039	2.676	1.890	1.890	1.890	1.909	1.899	1.904
-0.010	0.010	0.000	0.000	-0.029	0.015	0.039	2.695	1.890	1.890	1.890	1.909	1.899	1.899
0.000	0.005	0.000	0.005	-0.005	0.000	0.039	2.695	1.890	1.885	1.890	1.909	1.904	1.904
-0.005	0.000	0.005	0.005	0.020	0.010	0.039	2.700	1.895	1.885	1.885	1.909	1.914	1.904
0.000	0.005	0.005	0.000	0.020	0.005	0.039	2.686	1.890	1.890	1.890	1.904	1.909	1.904
0.000	0.000	0.000	-0.005	0.015	0.000	0.039	2.695	1.895	1.885	1.885	1.904	1.904	1.904
0.005	0.000	0.000	-0.005	-0.015	0.000	0.039	2.646	1.890	1.885	1.885	1.904	1.895	1.899
0.005	0.000	0.000	0.000	-0.029	0.015	0.039	2.651	1.885	1.885	1.885	1.904	1.890	1.904
0.005	0.000	-0.005	0.005	-0.034	0.010	0.039	2.764	1.899	1.890	1.885	1.904	1.895	1.899
-0.005	0.005	0.000	0.010	-0.020	-0.005	0.039	2.637	1.895	1.890	1.890	1.904	1.895	1.895
-0.005	0.010	0.005	0.005	-0.044	0.005	0.039	2.734	1.890	1.890	1.885	1.904	1.895	1.895
0.005	0.020	0.005	0.000	-0.059	0.015	0.039	2.720	1.895	1.895	1.890	1.904	1.890	1.895
0.010	0.015	0.000	-0.005	-0.034	0.010	0.039	2.715	1.899	1.895	1.890	1.904	1.899	1.899
0.000	0.020	0.005	-0.005	-0.024	0.010	0.039	2.710	1.899	1.895	1.890	1.904	1.899	1.899
0.000	0.005	0.000	-0.005	-0.029	-0.015	0.039	2.720	1.899	1.895	1.890	1.909	1.904	1.895
0.000	0.015	0.000	0.000	-0.005	-0.010	0.039	2.725	1.890	1.895	1.890	1.909	1.909	1.899
0.005	-0.005	0.000	0.005	0.054	0.005	0.034	2.666	1.890	1.885	1.895	1.909	1.924	1.909
0.010	-0.005	0.000	0.000	0.083	0.005	0.039	2.710	1.899	1.890	1.890	1.909	1.929	1.914
0.010	0.000	0.000	0.000	0.151	-0.005	0.039	2.700	1.899	1.890	1.890	1.909	1.943	1.919
0.005	0.000	0.000	0.000	0.176	-0.010	0.039	2.617	1.885	1.890	1.890	1.909	1.934	1.924
-0.020	-0.005	0.005	0.000	0.171	-0.024	0.039	2.690	1.885	1.885	1.885	1.909	1.929	1.919
-0.015	-0.015	0.000	0.000	0.151	0.005	0.034	2.622	1.885	1.880	1.885	1.904	1.914	1.924
0.000	-0.005	-0.005	-0.005	0.137	-0.005	0.039	2.705	1.895	1.885	1.885	1.904	1.904	1.914
0.015	-0.010	0.000	0.000	0.044	0.024	0.039	2.676	1.899	1.885	1.885	1.904	1.880	1.914
0.010	0.000	0.005	0.000	-0.020	0.015	0.039	2.705	1.899	1.890	1.885	1.899	1.870	1.895
0.015	-0.005	0.000	0.000	-0.044	-0.005	0.039	2.671	1.895	1.890	1.885	1.899	1.870	1.885
0.015	-0.005	0.000	0.000	-0.073	0.015	0.039	2.671	1.895	1.890	1.890	1.899	1.870	1.885
0.005	0.010	0.000	0.005	-0.068	-0.005	0.039	2.681	1.885	1.895	1.890	1.904	1.880	1.875
0.000	0.000	0.000	0.000	-0.073	-0.024	0.039	2.676	1.885	1.890	1.890	1.904	1.885	1.875
0.005	0.020	0.000	0.005	-0.073	-0.020	0.039	2.695	1.890	1.895	1.890	1.904	1.890	1.880
0.000	0.000	0.000	0.010	-0.063	-0.020	0.039	2.695	1.885	1.885	1.890	1.904	1.895	1.880
0.000	0.005	0.000	0.005	-0.059	-0.015	0.039	2.676	1.880	1.885	1.885	1.904	1.899	1.890
-0.010	0.000	0.005	0.005	-0.049	0.010	0.039	2.700	1.885	1.885	1.885	1.904	1.899	1.899
-0.005	-0.010	0.000	0.005	-0.049	0.005	0.039	2.671	1.880	1.880	1.885	1.904	1.899	1.899
0.005	-0.005	0.000	0.010	-0.029	-0.010	0.039	2.690	1.890	1.885	1.880	1.904	1.904	1.899
0.000	-0.005	0.000	0.005	-0.024	0.015	0.039	2.671	1.885	1.880	1.885	1.904	1.904	1.904
0.015	0.000	0.000	0.005	-0.020	0.005	0.039	2.671	1.890	1.885	1.885	1.899	1.899	1.899
0.010	0.000	0.000	0.000	-0.015	0.000	0.034	2.671	1.885	1.885	1.885	1.899	1.899	1.899
0.010	-0.005	0.005	0.000	-0.015	-0.010	0.039	2.690	1.885	1.880	1.885	1.899	1.899	1.899
0.010	0.005	0.000	0.005	0.000	0.005	0.039	2.690	1.885	1.885	1.885	1.904	1.899	1.899
0.005	0.010	0.000	0.000	0.000	0.005	0.034	2.700	1.890	1.885	1.880	1.899	1.904	1.904
-0.005	0.010	0.000	-0.005	0.000	0.005	0.039	2.700	1.890	1.890	1.885	1.899	1.899	1.904
-0.005	0.005	-0.005	0.000	0.005	0.005	0.034	2.700	1.890	1.885	1.880	1.899	1.899	1.904
-0.010	0.010	0.005	0.000	0.010	-0.005	0.039	2.705	1.890	1.885	1.885	1.904	1.899	1.899
-0.015	0.000	0.005	0.000	0.005	0.010	0.039	2.695	1.890	1.885	1.885	1.904	1.899	1.899
-0.010	0.000	0.000	0.005	0.000	-0.010	0.039	2.676	1.890	1.885	1.880	1.904	1.899	1.895
0.000	0.010	0.005	0.005	0.020	0.005	0.039	2.637	1.885	1.890	1.885	1.904	1.904	1.899
-0.005	0.000	0.000	0.005	0.000	-0.010	0.039	2.646	1.880	1.880	1.885	1.904	1.895	1.899
-0.010	0.000	0.000	0.000	-0.010	0.000	0.039	2.651	1.899	1.885	1.885	1.904	1.890	1.895
-0.015	0.000	0.000	0.000	-0.010	-0.005	0.039	2.646	1.890	1.885	1.885	1.904	1.895	1.890
0.000	-0.005	0.000	0.000	0.005	0.000	0.039	2.720	1.895	1.890	1.885	1.899	1.899	1.899
0.000	-0.005	0.000	0.000	0.015	-0.010	0.039	2.749	1.895	1.890	1.885	1.899	1.899	1.895
0.000	-0.015	-0.005	0.000	0.000	0.000	0.039	2.759	1.904	1.890	1.885	1.899	1.895	1.899
-0.005	-0.005	-0.005	0.005	-0.020	0.000	0.039	2.632	1.904	1.895	1.885	1.904	1.890	1.895
0.010	0.005	0.000	0.005	-0.029	0.005	0.039	2.720	1.904	1.895	1.890	1.904	1.890	1.895
0.010	-0.005	0.000	0.000	-0.044	0.005	0.039	2.744	1.899	1.895	1.890	1.904	1.890	1.890
-0.005	0.005	0.000	0.000	-0.010	0.015	0.039	2.651	1.890	1.895	1.895	1.904	1.904	1.895
0.005	0.005	0.000	0.005	0.034	0.020	0.039	2.749	1.899	1.899	1.895	1.909	1.914	1.904
0.010	0.010	0.005	0.000	0.020	0.010	0.039	2.700	1.899	1.899	1.895	1.909	1.909	1.899
0.010	0.000	-0.005	0.000	0.010	0.005	0.039	2.651	1.895	1.895	1.890	1.909	1.904	1.899
0.010	0.005	0.005	0.000	0.039	0.000	0.039	2.690	1.895	1.899	1.895	1.909	1.914	1.904
0.000	0.000	0.005	0.000	0.039	0.010	0.039	2.651	1.895	1.895	1.895	1.909	1.909	1.909
0.005	0.000	0.000	0.000	0.024	0.005	0.039	2.700	1.895	1.895	1.895	1.909	1.909	1.904
0.010	0.000	0.000	0.000	0.015	-0.010	0.039	2.676	1.890	1.895	1.890	1.909	1.904	1.904
0.015	-0.005	0.000	0.005	0.010	-0.005	0.039	2.695	1.895	1.895	1.890	1.909	1.904	1.904
0.010	0.015	0.000	0.000	0.010	0.005	0.039	2.700	1.895	1.899	1.890	1.909	1.904	1.904
0.010	0.005	-0.005	0.005	0.000	0.010	0.039	2.676	1.895	1.895	1.890	1.909	1.899	1.904
0.005	0.000	-0.005	0.000	0.000	0.005	0.039	2.666	1.885	1.890	1.890	1.909	1.904	1.904
0.000	-0.010	-0.005	0.000	0.005	0.005	0.039	2.671	1.885	1.885	1.885	1.909	1.904	1.904
-0.005	-0.015	0.000	0.000	0.000	-0.005	0.039	2.671	1.880	1.880	1.885	1.904	1.899	1.899
0.000	-0.005	0.000	0.000	0.005	-0.005	0.039	2.690	1.885	1.880	1.885	1.904	1.899	1.899
-0.010	0.000	-0.005	0.005	0.005	0.010	0.034	2.676	1.880	1.880	1.885	1.904	1.899	1.899
-0.010	0.010	0.000	0.005	0.005	-0.005	0.039	2.705	1.890	1.885	1.885	1.904	1.899	1.899
-0.005	0.010	0.000	0.000	0.000	0.010	0.039	2.690	1.890	1.890	1.885	1.904	1.899	1.904
-0.010	0.020	0.005	0.000	-0.005	-0.005	0.039	2.700	1.895	1.895	1.890	1.904	1.895	1.895
0.000	0.015	0.000	0.000	0.005	-0.010	0.039	2.686	1.890	1.890	1.890	1.904	1.899	1.895
0.005	0.005	0.000	0.000	0.010	-0.029	0.034	2.681	1.890	1.885	1.885	1.904	1.899	1.890
0.005	0.005	0.005	0.005	0.000	-0.010	0.039	2.681	1.890	1.890	1.885	1.904	1.899	1.899
0.000	0.005	0.000	0.005	0.010	-0.010	0.039	2.681	1.890	1.890	1.885	1.909	1.899	1.899
0.010	0.000	0.000	0.010	-0.015	-0.005	0.039	2.705	1.895	1.890	1.885	1.909	1.895	1.899
0.000	0.000	0.010	0.010	-0.020	0.005	0.039	2.666	1.885	1.885	1.885	1.909	1.895	1.899
-0.005	-0.010	0.005	0.005	-0.010	0.015	0.039	2.690	1.890	1.885	1.885	1.904	1.899	1.904
-0.005	0.000	0.005	0.005	-0.005	0.005	0.039	2.695	1.890	1.885	1.885	1.904	1.904	1.899
0.000	-0.010	0.000	0.005	-0.015	0.015	0.039	2.671	1.890	1.885	1.880	1.904	1.899	1.904
0.000	-0.015	0.000	0.005	-0.010	0.015	0.039	2.686	1.890	1.885	1.885	1.904	1.899	1.899
-0.010	-0.010	0.000	0.005	-0.010	-0.005	0.039	2.686	1.885	1.885	1.885	1.899	1.899	1.895
0.005	-0.015	0.000	0.000	-0.010	0.005	0.039	2.632	1.885	1.885	1.880	1.899	1.899	1.899
-0.005	0.000	0.000	0.000	0.000	0.005	0.039	2.646	1.880	1.885	1.885	1.899	1.899	1.895
0.005	0.005	0.000	-0.005	0.005	0.015	0.039	2.661	1.880	1.885	1.885	1.899	1.899	1.899
-0.005	0.015	0.000	-0.005	0.015	0.005	0.034	2.773	1.895	1.885	1.885	1.899	1.899	1.899
0.005	0.020	0.000	-0.005	0.029	0.015	0.039	2.729	1.895	1.890	1.890	1.899	1.904	1.904
-0.005	0.010	0.005	-0.005	0.029	0.015	0.039	2.759	1.899	1.885	1.885	1.904	1.904	1.899
-0.010	0.015	0.005	-0.005	0.015	0.010	0.039	2.710	1.895	1.890	1.890	1.904	1.895	1.899
0.005	0.005	0.000	0.000	-0.010	0.005	0.039	2.725	1.904	1.895	1.890	1.904	1.895	1.895
0.005	0.000	0.005	0.000	0.000	-0.015	0.034	2.637	1.895	1.890	1.890	1.909	1.899	1.890
0.010	0.005	0.000	0.000	0.020	-0.015	0.039	2.729	1.895	1.895	1.890	1.909	1.904	1.895
-0.005	0.010	0.000	0.005	0.015	-0.005	0.039	2.661	1.890	1.890	1.890	1.909	1.904	1.899
0.005	0.005	-0.005	0.000	0.005	0.010	0.039	2.749	1.899	1.895	1.890	1.909	1.904	1.904
-0.015	0.000	0.000	0.000	0.029	-0.010	0.039	2.690	1.890	1.890	1.890	1.909	1.909	1.899
0.000	0.000	0.005	0.000	0.024	0.005	0.039	2.720	1.895	1.890	1.890	1.909	1.904	1.904
0.010	-0.020	-0.005	0.005	-0.015	0.015	0.039	2.690	1.899	1.885	1.885	1.904	1.895	1.904
0.020	-0.010	0.000	0.005	-0.044	0.015	0.039	2.710	1.899	1.895	1.890	1.904	1.890	1.899
0.024	-0.015	0.000	0.005	-0.078	0.024	0.039	2.690	1.899	1.890	1.890	1.909	1.880	1.895
0.024	0.000	0.000	0.000	-0.093	0.029	0.039	2.681	1.895	1.895	1.890	1.904	1.885	1.890
0.010	-0.005	0.000	0.005	-0.098	-0.020	0.039	2.690	1.885	1.890	1.890	1.904	1.885	1.880
0.005	-0.005	0.000	0.005	-0.044	-0.029	0.039	2.671	1.880	1.885	1.890	1.909	1.904	1.885
0.000	-0.005	0.005	0.010	-0.044	-0.020	0.039	2.681	1.880	1.885	1.890	1.909	1.904	1.890
-0.010	0.000	0.000	0.010	-0.044	0.015	0.039	2.681	1.875	1.880	1.885	1.909	1.904	1.904
-0.020	-0.005	0.005	0.005	0.029	0.034	0.039	2.686	1.880	1.880	1.885	1.909	1.929	1.914
-0.015	0.000	0.005	0.005	0.146	0.015	0.039	2.686	1.885	1.885	1.885	1.909	1.953	1.924
-0.010	0.015	0.000	0.000	0.215	-0.010	0.039	2.671	1.890	1.885	1.885	1.909	1.958	1.924
-0.010	0.005	0.000	0.000	0.234	0.000	0.039	2.681	1.890	1.885	1.885	1.909	1.948	1.934
0.005	0.005	-0.005	-0.005	0.186	-0.024	0.039	2.700	1.899	1.885	1.885	1.904	1.914	1.924
-0.005	0.005	-0.005	0.005	0.034	-0.010	0.039	2.695	1.899	1.890	1.885	1.899	1.870	1.909
0.015	0.005	0.005	0.000	-0.039	0.000	0.039	2.695	1.899	1.895	1.890	1.899	1.860	1.895
0.010	0.000	0.000	0.000	-0.073	0.000	0.039	2.676	1.895	1.895	1.885	1.899	1.860	1.885
0.015	-0.015	0.005	0.000	-0.073	0.000	0.039	2.695	1.895	1.885	1.885	1.904	1.875	1.880
-0.005	0.005	0.000	0.005	-0.054	0.005	0.034	2.695	1.890	1.890	1.890	1.904	1.885	1.880
0.000	-0.005	0.000	0.005	-0.044	0.005	0.039	2.681	1.885	1.885	1.885	1.904	1.890	1.880
0.005	0.005	0.000	0.005	-0.044	0.010	0.039	2.690	1.885	1.890	1.890	1.904	1.895	1.890
0.005	0.005	0.005	0.005	-0.029	0.010	0.034	2.695	1.890	1.885	1.885	1.904	1.899	1.890
-0.010	0.005	0.005	0.000	-0.024	-0.005	0.039	2.690	1.885	1.885	1.885	1.904	1.899	1.885
0.005	0.010	0.000	0.000	-0.010	-0.024	0.039	2.690	1.885	1.885	1.885	1.904	1.899	1.890
-0.005	0.010	0.005	0.000	-0.005	0.010	0.039	2.700	1.885	1.885	1.885	1.904	1.904	1.899
-0.005	0.015	-0.005	0.000	-0.015	-0.005	0.039	2.676	1.885	1.890	1.885	1.904	1.899	1.895
-0.005	0.005	0.000	0.000	-0.020	-0.015	0.039	2.686	1.890	1.885	1.885	1.899	1.895	1.895
0.000	0.000	0.005	0.000	-0.034	0.015	0.039	2.642	1.885	1.885	1.885	1.904	1.899	1.899
0.000	0.000	0.000	0.005	-0.015	0.010	0.039	2.651	1.880	1.885	1.885	1.904	1.904	1.899
0.000	0.005	0.000	0.015	-0.015	0.005	0.039	2.642	1.895	1.885	1.885	1.909	1.899	1.899
-0.005	0.005	0.005	0.010	-0.020	0.005	0.039	2.642	1.890	1.885	1.885	1.904	1.899	1.899
0.000	0.000	0.000	0.010	-0.005	-0.010	0.039	2.632	1.880	1.885	1.885	1.904	1.904	1.899
0.000	-0.010	0.000	0.000	-0.005	-0.034	0.039	2.734	1.885	1.880	1.880	1.899	1.899	1.890
-0.005	-0.005	0.005	-0.005	0.005	-0.015	0.039	2.715	1.890	1.885	1.885	1.899	1.904	1.899
0.005	0.000	0.005	-0.010	0.005	-0.005	0.039	2.646	1.890	1.885	1.885	1.899	1.899	1.899
0.010	0.005	0.000	-0.005	-0.005	-0.005	0.039	2.720	1.895	1.885	1.885	1.895	1.895	1.899
0.010	0.005	0.005	-0.005	-0.020	0.010	0.039	2.720	1.895	1.890	1.885	1.899	1.890	1.899
0.005	0.000	0.000	-0.005	-0.020	0.020	0.039	2.671	1.890	1.885	1.880	1.899	1.890	1.899
0.000	0.010	0.000	0.000	-0.005	0.015	0.039	2.705	1.890	1.890	1.885	1.899	1.899	1.899
-0.005	-0.005	0.000	0.000	0.015	0.010	0.039	2.690	1.885	1.885	1.885	1.899	1.904	1.899
-0.005	0.000	0.000	-0.005	0.015	0.005	0.039	2.734	1.885	1.885	1.880	1.899	1.899	1.895
-0.005	-0.005	0.005	0.000	0.024	0.020	0.039	2.695	1.885	1.885	1.885	1.899	1.904	1.899
-0.005	0.000	0.005	0.005	0.039	0.010	0.039	2.739	1.895	1.890	1.885	1.904	1.909	1.904
0.000	-0.005	0.000	0.000	0.088	0.010	0.039	2.710	1.895	1.885	1.885	1.904	1.919	1.904
-0.005	0.000	0.010	0.000	0.078	-0.005	0.039	2.681	1.895	1.890	1.885	1.904	1.909	1.904
0.005	0.015	0.005	0.000	0.049	-0.020	0.034	2.681	1.895	1.895	1.890	1.904	1.895	1.899
0.000	0.010	0.000	0.000	0.010	0.005	0.039	2.705	1.895	1.895	1.890	1.904	1.890	1.899
0.005	0.005	0.000	0.000	-0.015	0.000	0.039	2.666	1.895	1.890	1.890	1.904	1.885	1.895
0.015	0.005	0.005	0.000	-0.020	-0.005	0.039	2.671	1.890	1.890	1.890	1.904	1.885	1.890
0.015	0.005	0.005	0.000	-0.024	-0.005	0.039	2.681	1.890	1.890	1.885	1.904	1.890	1.890
0.005	0.010	0.005	0.005	-0.005	-0.015	0.039	2.671	1.880	1.890	1.890	1.904	1.899	1.890
0.000	-0.005	0.005	0.010	0.000	0.000	0.039	2.695	1.885	1.885	1.885	1.909	1.899	1.895
0.005	-0.015	0.005	0.010	0.000	0.000	0.039	2.671	1.885	1.880	1.885	1.904	1.899	1.899
0.000	0.005	-0.005	0.005	-0.005	0.010	0.039	2.695	1.885	1.885	1.885	1.904	1.895	1.899
0.005	0.010	0.000	0.005	-0.020	0.005	0.039	2.700	1.895	1.885	1.885	1.904	1.895	1.899
0.005	0.010	0.000	0.010	-0.020	0.010	0.039	2.695	1.890	1.885	1.885	1.899	1.895	1.895
0.005	0.005	-0.005	0.005	-0.010	-0.010	0.034	2.676	1.890	1.885	1.880	1.899	1.895	1.890
0.005	0.005	0.000	0.000	-0.005	0.010	0.039	2.671	1.890	1.885	1.885	1.899	1.899	1.899
0.000	0.005	0.000	0.005	-0.010	0.010	0.039	2.700	1.895	1.885	1.885	1.904	1.899	1.895
0.010	0.000	0.000	0.010	-0.005	0.005	0.039	2.676	1.885	1.885	1.880	1.904	1.899	1.899
-0.005	0.000	0.005	0.005	-0.005	0.010	0.039	2.705	1.885	1.885	1.885	1.899	1.899	1.899
0.000	0.010	0.000	0.000	-0.005	-0.005	0.034	2.705	1.885	1.890	1.885	1.899	1.899	1.899
-0.010	0.010	0.000	-0.005	0.000	0.010	0.034	2.710	1.890	1.890	1.885	1.899	1.899	1.899
-0.005	-0.005	0.000	0.005	0.000	0.010	0.039	2.700	1.895	1.885	1.885	1.899	1.899	1.899
0.005	0.000	0.005	0.000	0.000	0.005	0.039	2.695	1.895	1.890	1.885	1.904	1.899	1.899
0.005	-0.005	0.000	0.000	0.005	0.010	0.039	2.690	1.895	1.885	1.885	1.904	1.899	1.895
0.010	0.000	0.000	0.000	-0.005	-0.020	0.039	2.681	1.895	1.890	1.885	1.904	1.895	1.890
0.000	-0.005	0.000	0.000	-0.005	0.005	0.039	2.642	1.880	1.885	1.885	1.904	1.899	1.899
0.005	-0.015	0.005	0.000	0.005	-0.010	0.039	2.651	1.880	1.880	1.885	1.904	1.899	1.899
0.000	-0.005	0.000	0.005	0.010	0.000	0.039	2.710	1.890	1.885	1.885	1.904	1.899	1.899
-0.005	-0.005	0.000	0.005	0.000	-0.005	0.039	2.646	1.885	1.885	1.880	1.904	1.899	1.899
0.000	-0.015	0.000	0.000	0.000	-0.010	0.039	2.646	1.880	1.880	1.880	1.899	1.899	1.895
-0.005	0.005	0.005	0.000	0.005	-0.015	0.039	2.700	1.880	1.885	1.880	1.899	1.899	1.895
0.010	0.005	0.000	0.005	0.005	0.005	0.039	2.725	1.895	1.890	1.880	1.899	1.895	1.904
0.010	-0.010	0.000	0.000	0.000	0.010	0.039	2.637	1.890	1.885	1.880	1.899	1.895	1.899
0.005	0.000	0.000	0.000	0.000	0.015	0.039	2.632	1.895	1.885	1.885	1.899	1.895	1.899
0.000	0.005	0.000	0.005	0.000	0.015	0.039	2.720	1.895	1.890	1.885	1.899	1.895	1.899
0.000	0.000	-0.005	0.005	0.005	0.010	0.039	2.651	1.890	1.890	1.885	1.904	1.899	1.899
-0.005	-0.005	0.000	0.005	-0.010	-0.010	0.039	2.739	1.899	1.890	1.885	1.899	1.890	1.890
-0.005	0.005	0.000	0.005	-0.005	-0.005	0.039	2.690	1.895	1.895	1.885	1.904	1.899	1.890
-0.010	0.010	0.005	0.005	0.005	0.000	0.039	2.715	1.890	1.895	1.890	1.904	1.904	1.895
-0.020	0.005	0.005	0.005	0.034	0.005	0.039	2.695	1.890	1.890	1.890	1.909	1.909	1.904
-0.020	0.000	0.005	0.005	0.010	-0.015	0.034	2.725	1.895	1.890	1.890	1.904	1.899	1.895
-0.015	0.010	0.005	0.000	-0.039	0.005	0.039	2.710	1.895	1.895	1.885	1.904	1.885	1.895
-0.034	0.000	-0.005	0.000	-0.044	-0.015	0.039	2.666	1.880	1.885	1.885	1.904	1.890	1.890
-0.015	-0.005	0.005	0.005	-0.024	0.000	0.039	2.705	1.885	1.885	1.885	1.904	1.899	1.895
0.005	-0.015	0.000	0.000	-0.020	-0.020	0.039	2.686	1.890	1.885	1.880	1.899	1.899	1.890
0.029	-0.010	0.000	0.005	-0.039	0.015	0.039	2.671	1.899	1.890	1.885	1.904	1.890	1.899
0.044	-0.015	0.005	0.000	-0.024	0.000	0.039	2.676	1.895	1.890	1.885	1.904	1.899	1.895
0.044	-0.020	0.000	0.000	-0.015	0.024	0.039	2.666	1.890	1.890	1.885	1.899	1.904	1.904
0.029	-0.005	0.000	-0.005	0.015	0.020	0.039	2.705	1.885	1.890	1.885	1.904	1.909	1.904
0.020	0.005	0.005	0.000	0.063	0.015	0.039	2.695	1.885	1.890	1.885	1.904	1.919	1.909
0.005	0.005	0.000	0.000	0.024	-0.010	0.039	2.681	1.880	1.885	1.890	1.904	1.899	1.899
-0.005	0.010	0.000	0.000	0.015	-0.010	0.039	2.710	1.885	1.885	1.885	1.904	1.899	1.899
0.000	0.015	0.000	0.000	0.000	-0.010	0.039	2.700	1.885	1.885	1.885	1.904	1.895	1.899
-0.010	0.015	0.000	0.000	0.029	-0.029	0.039	2.705	1.885	1.885	1.885	1.904	1.904	1.895
0.000	0.010	0.005	0.000	0.068	-0.020	0.039	2.676	1.890	1.885	1.885	1.904	1.914	1.904
-0.005	0.010	0.000	0.005	0.088	0.005	0.039	2.676	1.885	1.885	1.885	1.904	1.914	1.914
-0.005	0.000	0.000	0.015	0.073	-0.010	0.034	2.681	1.890	1.880	1.885	1.909	1.909	1.909
-0.005	0.000	0.000	0.010	0.098	0.020	0.039	2.700	1.885	1.885	1.885	1.904	1.914	1.919
-0.005	-0.005	0.000	0.010	0.088	0.010	0.039	2.700	1.890	1.880	1.885	1.909	1.909	1.909
0.000	0.000	0.000	0.029	0.005	0.000	0.039	2.690	1.890	1.885	1.885	1.904	1.880	1.899
0.005	-0.005	0.005	0.029	-0.039	-0.005	0.039	2.695	1.890	1.880	1.885	1.904	1.875	1.890
-0.010	-0.005	0.005	0.015	-0.059	0.010	0.039	2.695	1.890	1.885	1.880	1.899	1.880	1.890
0.005	-0.005	0.005	-0.005	-0.059	0.005	0.039	2.656	1.885	1.885	1.880	1.890	1.880	1.885
-0.005	0.005	0.000	-0.015	-0.044	-0.010	0.039	2.690	1.885	1.885	1.880	1.890	1.885	1.880
0.000	0.010	0.000	-0.024	-0.024	0.005	0.039	2.666	1.885	1.890	1.880	1.890	1.890	1.890
0.000	0.010	0.000	-0.029	-0.020	-0.015	0.039	2.637	1.875	1.885	1.880	1.890	1.890	1.885
0.005	0.015	0.000	-0.020	-0.005	0.010	0.039	2.651	1.875	1.880	1.885	1.895	1.895	1.890
0.000	0.015	0.005	-0.020	-0.020	0.010	0.039	2.700	1.890	1.880	1.885	1.899	1.890	1.890
-0.005	0.005	0.005	-0.010	-0.039	0.005	0.039	2.642	1.880	1.880	1.880	1.899	1.890	1.890
0.000	0.010	0.000	-0.005	-0.034	-0.015	0.039	2.646	1.880	1.880	1.880	1.904	1.895	1.885
0.010	0.010	0.000	0.000	-0.005	-0.005	0.039	2.744	1.890	1.880	1.880	1.904	1.899	1.890
0.010	0.015	0.000	0.010	-0.005	0.020	0.039	2.739	1.895	1.890	1.880	1.904	1.899	1.899
0.000	0.005	0.005	0.015	-0.005	0.010	0.039	2.720	1.895	1.885	1.885	1.904	1.899	1.899
0.015	-0.010	0.005	0.015	-0.020	-0.005	0.039	2.612	1.895	1.885	1.885	1.904	1.899	1.890
0.015	-0.005	0.000	0.015	0.000	0.000	0.039	2.744	1.895	1.885	1.885	1.904	1.899	1.899
0.010	-0.005	0.000	0.010	-0.010	-0.020	0.039	2.646	1.890	1.885	1.885	1.899	1.899	1.895
0.020	-0.015	0.000	0.005	-0.015	0.005	0.039	2.627	1.885	1.880	1.880	1.899	1.895	1.899
0.010	-0.010	0.005	0.005	-0.020	0.000	0.039	2.690	1.880	1.880	1.880	1.899	1.895	1.895
0.005	-0.015	0.000	0.005	-0.034	-0.024	0.039	2.627	1.875	1.880	1.880	1.899	1.890	1.890
0.005	-0.010	-0.005	0.010	-0.024	-0.010	0.039	2.695	1.875	1.880	1.875	1.899	1.890	1.895
-0.005	-0.005	0.000	0.005	0.000	0.000	0.034	2.734	1.885	1.880	1.875	1.899	1.899	1.895
-0.010	0.005	0.000	0.005	0.034	0.010	0.039	2.700	1.885	1.885	1.880	1.895	1.904	1.899
-0.005	0.000	0.005	0.000	0.044	0.020	0.039	2.690	1.885	1.885	1.880	1.899	1.904	1.904
-0.005	0.015	0.005	-0.005	0.034	0.039	0.039	2.715	1.885	1.890	1.880	1.899	1.899	1.909
-0.015	0.005	0.005	-0.005	-0.020	0.039	0.039	2.705	1.885	1.885	1.880	1.895	1.885	1.899
-0.015	0.005	0.005	0.000	-0.039	0.029	0.034	2.686	1.885	1.885	1.885	1.895	1.880	1.890
-0.010	0.005	0.000	0.000	0.020	0.005	0.039	2.676	1.885	1.885	1.880	1.904	1.899	1.890
-0.005	-0.005	0.005	0.010	0.044	0.005	0.039	2.671	1.885	1.880	1.880	1.904	1.909	1.895
-0.010	0.010	0.005	0.005	0.068	-0.020	0.039	2.671	1.885	1.885	1.880	1.904	1.909	1.895
-0.005	0.005	0.000	0.015	0.049	0.010	0.039	2.695	1.890	1.885	1.880	1.904	1.904	1.904
-0.005	0.000	0.000	0.010	0.049	0.005	0.039	2.666	1.885	1.885	1.880	1.899	1.899	1.899
-0.005	-0.005	0.000	0.000	0.024	0.005	0.039	2.690	1.885	1.880	1.885	1.899	1.895	1.899
-0.005	-0.010	-0.005	-0.005	0.015	0.005	0.039	2.690	1.890	1.880	1.880	1.895	1.890	1.895
0.005	-0.005	0.005	-0.005	-0.005	-0.010	0.039	2.690	1.885	1.880	1.880	1.895	1.880	1.885
0.015	-0.010	0.000	-0.005	-0.015	0.000	0.039	2.671	1.890	1.880	1.880	1.895	1.885	1.890
0.010	-0.015	0.000	0.000	-0.015	-0.029	0.039	2.671	1.880	1.875	1.880	1.899	1.885	1.880
0.010	0.015	0.000	0.005	-0.010	-0.005	0.039	2.666	1.880	1.885	1.885	1.899	1.890	1.890
0.010	0.010	-0.005	0.000	-0.010	0.005	0.039	2.676	1.880	1.880	1.880	1.899	1.890	1.890
0.005	0.010	0.000	0.005	-0.005	0.000	0.039	2.690	1.875	1.880	1.880	1.899	1.895	1.890
-0.005	-0.005	0.000	0.005	-0.005	-0.010	0.039	2.686	1.875	1.880	1.880	1.899	1.895	1.890
0.005	0.000	0.000	0.010	-0.005	0.000	0.039	2.676	1.880	1.880	1.880	1.899	1.895	1.890
-0.010	-0.005	0.005	0.010	0.000	-0.005	0.039	2.671	1.880	1.875	1.880	1.899	1.895	1.890
0.000	0.020	0.000	0.010	-0.005	0.005	0.039	2.676	1.880	1.885	1.875	1.899	1.895	1.895
-0.005	0.010	0.000	0.000	0.000	0.005	0.039	2.690	1.885	1.880	1.875	1.895	1.895	1.895
-0.010	0.000	0.000	-0.010	-0.005	0.000	0.039	2.686	1.885	1.880	1.875	1.890	1.890	1.890
0.005	0.005	0.000	-0.005	-0.005	-0.005	0.039	2.642	1.885	1.880	1.880	1.895	1.890	1.895
0.010	0.005	0.000	-0.010	0.000	-0.020	0.034	2.656	1.880	1.880	1.880	1.895	1.890	1.885
0.010	-0.005	0.000	-0.010	-0.005	0.005	0.039	2.637	1.890	1.880	1.875	1.895	1.890	1.895
0.000	-0.005	0.005	-0.010	-0.005	-0.010	0.039	2.646	1.880	1.880	1.875	1.895	1.890	1.885
0.000	0.000	0.000	0.000	0.000	0.010	0.039	2.725	1.890	1.880	1.875	1.899	1.890	1.895
0.010	0.000	0.005	0.000	0.000	0.010	0.039	2.729	1.895	1.880	1.875	1.899	1.895	1.895
0.015	0.000	-0.005	0.005	0.000	-0.010	0.039	2.734	1.895	1.885	1.875	1.899	1.890	1.890
0.015	-0.005	-0.005	0.010	-0.005	0.015	0.039	2.720	1.885	1.880	1.880	1.899	1.895	1.895
0.000	0.000	0.000	0.005	0.000	0.015	0.039	2.720	1.885	1.885	1.880	1.899	1.890	1.895
-0.024	-0.005	0.005	0.000	0.000	-0.005	0.039	2.720	1.880	1.880	1.880	1.899	1.895	1.890
-0.024	0.000	0.005	0.005	-0.005	0.005	0.039	2.661	1.880	1.880	1.880	1.895	1.895	1.890
-0.005	0.000	0.005	0.005	0.000	0.015	0.039	2.651	1.885	1.880	1.880	1.895	1.895	1.895
0.015	0.010	0.000	0.005	0.000	0.010	0.039	2.695	1.895	1.885	1.880	1.899	1.895	1.895
0.029	0.000	0.005	0.005	-0.010	0.005	0.039	2.695	1.885	1.885	1.880	1.899	1.890	1.890
0.049	0.015	0.000	0.005	-0.005	0.005	0.039	2.705	1.890	1.890	1.885	1.904	1.890	1.890
0.020	-0.005	-0.005	0.005	-0.015	0.000	0.039	2.627	1.875	1.885	1.880	1.899	1.895	1.890
0.000	0.000	0.005	0.000	-0.005	-0.005	0.039	2.700	1.875	1.880	1.885	1.899	1.895	1.890
0.005	0.005	0.000	0.015	-0.010	-0.005	0.039	2.666	1.875	1.880	1.880	1.899	1.890	1.890
0.005	-0.005	0.000	0.010	-0.015	-0.020	0.039	2.671	1.875	1.875	1.880	1.899	1.890	1.890
0.000	0.000	0.000	0.010	-0.010	-0.015	0.039	2.671	1.875	1.875	1.875	1.899	1.895	1.890
-0.005	-0.005	0.000	0.005	-0.005	0.000	0.039	2.671	1.880	1.875	1.875	1.895	1.895	1.895
0.005	-0.005	0.000	0.005	-0.005	0.005	0.039	2.676	1.880	1.875	1.875	1.895	1.890	1.895
0.000	0.000	0.000	0.000	-0.005	0.010	0.039	2.671	1.875	1.875	1.875	1.895	1.890	1.895
-0.005	-0.010	0.000	-0.005	-0.005	0.000	0.039	2.695	1.880	1.875	1.875	1.890	1.890	1.890
-0.020	0.000	0.000	-0.005	0.000	-0.015	0.039	2.700	1.880	1.875	1.875	1.890	1.890	1.885
-0.010	0.000	0.005	-0.005	0.005	-0.010	0.039	2.671	1.880	1.875	1.875	1.890	1.890	1.890
-0.020	0.005	0.005	-0.005	-0.005	-0.010	0.039	2.700	1.880	1.875	1.875	1.890	1.890	1.890
-0.010	0.005	0.000	0.000	0.000	-0.005	0.039	2.690	1.885	1.875	1.875	1.890	1.890	1.890
-0.015	0.015	0.000	0.005	0.015	0.005	0.039	2.705	1.890	1.885	1.875	1.895	1.895	1.890
-0.005	0.020	0.005	0.010	0.020	0.005	0.039	2.690	1.890	1.885	1.880	1.895	1.895	1.890
-0.015	0.010	0.005	0.010	0.024	-0.005	0.039	2.681	1.885	1.885	1.880	1.895	1.895	1.890
-0.020	0.000	0.005	0.005	0.015	-0.020	0.039	2.681	1.885	1.885	1.880	1.895	1.890	1.885
-0.015	0.005	0.005	0.005	0.015	0.015	0.039	2.681	1.885	1.885	1.880	1.895	1.895	1.895
-0.005	0.000	0.005	0.000	0.015	0.015	0.039	2.690	1.890	1.885	1.880	1.895	1.895	1.895
0.005	0.000	0.000	0.010	0.020	0.010	0.039	2.695	1.890	1.885	1.880	1.899	1.895	1.895
0.010	-0.005	0.000	0.015	0.029	0.000	0.039	2.681	1.890	1.885	1.880	1.899	1.895	1.895
0.010	-0.005	-0.005	0.020	0.010	0.000	0.039	2.666	1.885	1.885	1.880	1.899	1.890	1.890
0.024	0.005	-0.005	0.015	0.024	0.010	0.039	2.690	1.890	1.885	1.880	1.899	1.895	1.895
0.029	-0.024	-0.005	0.005	0.015	0.005	0.039	2.686	1.885	1.875	1.880	1.895	1.890	1.890
0.015	-0.020	-0.005	-0.005	0.010	0.000	0.039	2.681	1.880	1.880	1.880	1.895	1.890	1.890
0.005	-0.005	-0.005	-0.010	0.010	0.005	0.039	2.646	1.880	1.880	1.880	1.895	1.890	1.890
0.000	0.010	-0.005	-0.010	0.015	-0.005	0.039	2.646	1.870	1.880	1.880	1.890	1.890	1.885
0.000	0.010	-0.005	-0.005	0.015	0.000	0.039	2.671	1.885	1.880	1.880	1.895	1.890	1.890
-0.010	0.020	0.000	-0.010	0.015	0.005	0.039	2.637	1.875	1.880	1.880	1.895	1.890	1.890
0.005	0.005	0.000	-0.005	0.015	0.005	0.039	2.725	1.885	1.880	1.880	1.899	1.895	1.890
-0.005	0.010	0.000	-0.005	0.015	0.000	0.039	2.710	1.885	1.880	1.880	1.895	1.890	1.890
-0.010	0.010	0.005	-0.005	-0.015	0.020	0.034	2.749	1.890	1.880	1.880	1.899	1.885	1.895
-0.005	0.015	0.005	0.005	-0.029	0.015	0.034	2.612	1.885	1.885	1.880	1.899	1.885	1.890
-0.005	0.020	0.010	0.010	-0.024	0.015	0.039	2.720	1.885	1.885	1.880	1.904	1.890	1.885
0.000	0.005	0.005	0.015	-0.034	0.010	0.039	2.710	1.885	1.880	1.880	1.904	1.890	1.890
-0.005	0.010	0.000	0.010	-0.010	0.020	0.044	2.671	1.880	1.880	1.880	1.899	1.895	1.895
0.005	0.005	0.005	0.005	-0.005	0.020	0.039	2.637	1.880	1.880	1.875	1.899	1.895	1.895
0.015	-0.005	0.005	-0.010	0.005	0.010	0.039	2.686	1.890	1.880	1.880	1.895	1.899	1.890
0.010	-0.005	0.000	-0.015	0.005	-0.005	0.039	2.690	1.885	1.880	1.875	1.890	1.895	1.890
0.015	-0.010	0.000	-0.020	0.010	-0.020	0.039	2.676	1.880	1.875	1.875	1.895	1.895	1.885
0.010	-0.010	0.000	-0.015	0.010	-0.020	0.039	2.642	1.875	1.880	1.875	1.895	1.895	1.890
0.005	-0.005	0.000	0.000	0.005	-0.039	0.039	2.686	1.875	1.880	1.875	1.899	1.890	1.880
0.005	-0.005	0.000	0.010	0.015	-0.005	0.039	2.676	1.875	1.875	1.875	1.899	1.895	1.895
0.015	-0.005	0.000	0.010	0.020	0.000	0.039	2.671	1.880	1.875	1.875	1.899	1.899	1.895
-0.005	0.000	-0.005	0.010	0.020	0.010	0.039	2.666	1.870	1.875	1.875	1.895	1.895	1.899
0.000	0.000	0.000	0.005	0.015	0.005	0.034	2.686	1.880	1.875	1.875	1.895	1.890	1.895
0.005	0.005	0.000	0.010	0.020	0.015	0.039	2.671	1.880	1.875	1.875	1.895	1.895	1.899
0.005	-0.005	0.005	0.010	0.024	0.000	0.039	2.686	1.880	1.875	1.875	1.895	1.895	1.890
0.000	0.010	0.005	0.010	0.020	-0.020	0.034	2.690	1.880	1.880	1.875	1.895	1.890	1.885
0.005	0.024	0.000	0.000	-0.020	-0.010	0.039	2.705	1.885	1.885	1.880	1.890	1.875	1.885
0.010	0.010	0.005	0.000	-0.029	-0.005	0.039	2.676	1.885	1.880	1.880	1.890	1.880	1.885
0.005	0.010	0.005	0.000	-0.024	-0.015	0.039	2.700	1.880	1.880	1.880	1.890	1.885	1.885
0.010	0.005	0.000	-0.005	-0.020	0.005	0.039	2.705	1.890	1.880	1.875	1.895	1.885	1.890
0.000	0.000	0.000	-0.005	-0.024	0.000	0.039	2.695	1.885	1.880	1.875	1.895	1.885	1.885
-0.010	0.000	-0.005	0.005	-0.010	0.005	0.039	2.666	1.875	1.875	1.875	1.895	1.890	1.890
-0.039	-0.005	0.005	0.005	-0.005	-0.005	0.039	2.676	1.870	1.870	1.875	1.899	1.890	1.885
-0.015	-0.005	0.000	0.015	0.000	0.020	0.034	2.690	1.880	1.875	1.875	1.895	1.895	1.895
0.015	0.000	-0.005	0.010	-0.015	0.005	0.039	2.700	1.895	1.880	1.875	1.895	1.890	1.890
0.029	0.010	-0.005	0.005	-0.020	0.015	0.039	2.686	1.890	1.885	1.875	1.895	1.890	1.890
0.039	0.005	0.000	0.010	0.000	0.024	0.039	2.661	1.890	1.885	1.875	1.895	1.895	1.895
0.024	0.010	0.005	0.005	0.059	0.015	0.039	2.700	1.890	1.885	1.880	1.895	1.904	1.895
0.005	0.000	0.000	0.005	0.005	-0.015	0.039	2.710	1.885	1.885	1.880	1.895	1.890	1.885
0.010	0.000	0.000	0.005	-0.024	0.005	0.039	2.686	1.880	1.880	1.880	1.895	1.880	1.885
-0.010	0.005	-0.005	0.005	0.000	-0.015	0.039	2.686	1.875	1.875	1.880	1.895	1.890	1.885
-0.010	0.000	0.000	0.010	0.029	0.015	0.039	2.705	1.880	1.880	1.880	1.899	1.899	1.899
-0.015	0.005	0.000	0.005	0.020	0.015	0.039	2.646	1.875	1.875	1.880	1.895	1.895	1.895
-0.015	0.000	0.005	0.005	-0.005	0.010	0.039	2.656	1.875	1.875	1.875	1.899	1.885	1.890
-0.015	0.005	0.005	0.010	-0.020	-0.005	0.039	2.793	1.870	1.875	1.875	1.895	1.885	1.885
-0.015	0.005	0.000	0.005	-0.020	0.015	0.039	2.734	1.885	1.875	1.875	1.895	1.885	1.895
-0.005	0.015	0.005	0.005	-0.034	0.010	0.039	2.627	1.885	1.880	1.875	1.895	1.880	1.885
0.015	0.005	0.005	0.005	-0.029	0.005	0.039	2.744	1.895	1.885	1.880	1.899	1.885	1.885
0.010	-0.005	0.000	0.005	-0.034	-0.015	0.039	2.754	1.895	1.885	1.875	1.895	1.885	1.880
0.005	0.015	-0.005	0.000	-0.020	0.010	0.039	2.651	1.885	1.885	1.880	1.895	1.890	1.890
-0.005	0.010	-0.005	0.000	-0.024	0.005	0.039	2.710	1.885	1.885	1.880	1.895	1.890	1.890
-0.005	0.015	0.000	-0.005	-0.020	0.005	0.039	2.651	1.880	1.885	1.880	1.895	1.890	1.890
0.000	0.005	0.005	-0.005	0.000	-0.005	0.039	2.681	1.880	1.880	1.880	1.895	1.895	1.890
-0.010	-0.005	0.005	-0.010	0.005	-0.015	0.039	2.720	1.880	1.875	1.880	1.895	1.895	1.885
-0.005	-0.010	-0.005	-0.005	0.005	-0.010	0.034	2.705	1.880	1.875	1.875	1.895	1.895	1.890
-0.005	0.000	0.000	-0.005	0.000	-0.005	0.039	2.632	1.875	1.875	1.875	1.895	1.890	1.890
-0.005	-0.010	0.000	0.000	0.015	-0.015	0.039	2.690	1.875	1.875	1.875	1.895	1.895	1.885
-0.005	-0.010	0.000	0.000	0.015	0.000	0.039	2.725	1.885	1.875	1.875	1.895	1.895	1.895
-0.010	0.015	0.005	0.000	0.024	-0.005	0.039	2.700	1.885	1.885	1.880	1.899	1.895	1.895
-0.010	0.000	0.005	0.000	0.020	-0.015	0.039	2.671	1.880	1.880	1.880	1.895	1.895	1.895
0.005	0.005	0.000	0.000	0.015	0.000	0.039	2.671	1.885	1.880	1.880	1.899	1.895	1.895
-0.005	0.000	0.005	0.000	0.015	0.005	0.039	2.710	1.890	1.880	1.880	1.899	1.895	1.895
0.000	-0.010	0.000	0.005	0.024	-0.015	0.039	2.661	1.885	1.880	1.880	1.899	1.899	1.895
0.010	-0.005	-0.005	0.000	0.029	-0.005	0.039	2.681	1.885	1.880	1.880	1.899	1.899	1.895
0.005	-0.010	0.005	0.000	0.024	-0.005	0.039	2.681	1.885	1.880	1.880	1.895	1.895	1.895
0.010	-0.015	0.000	0.005	0.029	-0.010	0.039	2.690	1.885	1.880	1.880	1.895	1.895	1.895
0.005	-0.010	-0.005	0.005	0.029	-0.005	0.039	2.671	1.885	1.880	1.875	1.895	1.895	1.895
0.010	-0.010	0.000	0.000	0.029	-0.010	0.039	2.671	1.885	1.880	1.875	1.895	1.890	1.895
0.020	-0.005	0.000	0.005	0.020	0.000	0.039	2.690	1.885	1.885	1.875	1.895	1.890	1.895
0.005	-0.005	-0.005	0.000	0.020	0.000	0.039	2.676	1.885	1.880	1.880	1.895	1.890	1.890
0.005	-0.010	0.005	0.000	0.010	0.005	0.039	2.690	1.885	1.880	1.880	1.895	1.890	1.890
0.010	0.000	0.005	0.005	0.005	-0.005	0.039	2.666	1.885	1.885	1.880	1.895	1.890	1.890
0.015	0.010	0.000	0.005	0.005	-0.005	0.034	2.700	1.885	1.885	1.880	1.899	1.890	1.885
0.010	0.005	0.005	0.000	0.000	-0.029	0.039	2.671	1.880	1.885	1.885	1.899	1.890	1.885
0.010	0.005	0.005	0.000	0.000	0.005	0.039	2.671	1.880	1.885	1.880	1.899	1.890	1.895
0.005	0.010	0.005	0.000	0.005	0.005	0.039	2.686	1.880	1.880	1.880	1.899	1.895	1.895
-0.005	0.010	0.005	0.000	0.000	0.005	0.039	2.690	1.880	1.880	1.880	1.899	1.895	1.895
-0.010	0.010	0.000	0.000	-0.005	0.000	0.034	2.705	1.880	1.880	1.880	1.899	1.890	1.890
-0.005	0.020	0.000	0.000	-0.005	0.000	0.039	2.695	1.885	1.885	1.880	1.899	1.895	1.890
0.000	0.024	0.000	0.005	0.000	0.005	0.039	2.676	1.885	1.885	1.880	1.904	1.895	1.895
0.000	0.015	0.005	0.005	-0.005	0.010	0.039	2.686	1.880	1.885	1.880	1.899	1.895	1.895
0.000	0.005	0.005	0.005	-0.010	0.005	0.039	2.681	1.880	1.880	1.880	1.899	1.895	1.890
0.000	0.000	0.005	0.005	-0.005	0.005	0.039	2.637	1.880	1.875	1.880	1.899	1.890	1.895
0.005	0.000	0.000	0.000	-0.010	0.010	0.039	2.651	1.880	1.875	1.875	1.899	1.890	1.895
0.000	-0.005	-0.005	0.000	-0.015	0.005	0.039	2.642	1.870	1.875	1.875	1.895	1.890	1.890
0.000	-0.005	-0.005	0.000	-0.020	0.010	0.039	2.637	1.870	1.875	1.870	1.895	1.885	1.890
0.000	-0.005	0.000	0.000	-0.024	0.000	0.039	2.734	1.880	1.875	1.870	1.890	1.885	1.885
-0.005	-0.005	0.000	-0.005	-0.020	-0.015	0.039	2.739	1.885	1.875	1.870	1.890	1.885	1.880
0.000	-0.005	0.005	0.000	-0.020	0.020	0.039	2.749	1.890	1.880	1.875	1.890	1.890	1.890
0.000	0.000	-0.005	0.000	-0.015	0.010	0.039	2.646	1.880	1.885	1.875	1.890	1.890	1.890
0.000	-0.005	0.000	0.000	-0.015	0.010	0.039	2.720	1.885	1.880	1.875	1.890	1.890	1.890
0.000	0.005	0.000	0.000	-0.015	0.010	0.039	2.715	1.890	1.885	1.880	1.895	1.890	1.890
0.000	0.000	-0.005	0.005	-0.020	0.010	0.039	2.681	1.885	1.880	1.880	1.895	1.890	1.890
0.000	-0.020	0.000	0.000	-0.015	0.015	0.034	2.632	1.880	1.880	1.880	1.895	1.890	1.890
-0.010	0.000	0.005	0.005	-0.005	0.000	0.039	2.695	1.880	1.885	1.880	1.899	1.895	1.885
0.000	0.024	-0.005	0.000	-0.010	0.000	0.039	2.715	1.885	1.890	1.885	1.899	1.890	1.890
-0.005	-0.005	0.000	0.000	-0.010	0.005	0.039	2.690	1.880	1.880	1.885	1.899	1.890	1.890
-0.005	-0.020	0.000	0.000	-0.015	0.010	0.039	2.627	1.880	1.875	1.880	1.895	1.890	1.895
-0.005	-0.010	0.000	-0.005	-0.010	0.020	0.039	2.695	1.885	1.880	1.875	1.895	1.895	1.890
0.005	-0.005	0.000	0.000	0.000	0.010	0.039	2.671	1.885	1.880	1.880	1.895	1.895	1.890
0.005	0.010	0.000	0.000	0.000	0.010	0.034	2.671	1.880	1.885	1.880	1.899	1.895	1.895
-0.010	0.024	0.005	0.005	0.000	0.015	0.039	2.681	1.880	1.885	1.880	1.899	1.895	1.895
0.000	0.024	0.005	0.015	0.005	0.005	0.039	2.676	1.885	1.890	1.885	1.899	1.899	1.895
0.005	0.073	0.000	0.005	0.010	0.010	0.034	2.686	1.885	1.899	1.885	1.899	1.895	1.890
0.010	0.054	0.005	0.005	0.015	0.005	0.039	2.671	1.885	1.890	1.885	1.899	1.899	1.895
0.010	-0.010	0.005	0.000	0.020	0.005	0.039	2.700	1.885	1.870	1.880	1.899	1.899	1.895
-0.005	-0.029	0.005	0.000	0.020	0.000	0.034	2.710	1.885	1.870	1.875	1.899	1.895	1.895
0.000	-0.020	-0.005	0.005	0.015	0.000	0.039	2.671	1.885	1.875	1.875	1.895	1.895	1.895
0.000	-0.020	0.000	-0.005	0.015	-0.015	0.039	2.705	1.890	1.875	1.875	1.895	1.895	1.890
-0.010	-0.020	0.000	-0.005	0.015	-0.005	0.039	2.676	1.880	1.880	1.875	1.895	1.895	1.895
-0.010	0.005	0.000	0.005	0.005	0.005	0.039	2.705	1.885	1.890	1.880	1.899	1.890	1.895
-0.010	0.005	0.005	0.000	0.000	-0.020	0.039	2.676	1.885	1.890	1.880	1.899	1.890	1.885
-0.005	0.015	0.000	0.005	0.010	0.000	0.039	2.671	1.885	1.885	1.880	1.899	1.895	1.890
0.000	0.010	0.005	0.005	-0.005	0.005	0.039	2.671	1.885	1.885	1.880	1.899	1.890	1.895
0.000	0.000	0.000	0.005	0.010	0.005	0.039	2.690	1.885	1.880	1.880	1.899	1.895	1.895
0.000	0.034	0.000	0.005	0.000	0.000	0.039	2.690	1.885	1.890	1.885	1.899	1.895	1.895
0.000	0.020	-0.005	0.005	-0.010	-0.005	0.039	2.676	1.880	1.885	1.880	1.899	1.890	1.890
0.000	-0.020	-0.005	0.005	-0.015	0.020	0.039	2.671	1.880	1.870	1.875	1.895	1.890	1.895
0.000	-0.015	-0.005	0.005	0.015	0.020	0.039	2.690	1.885	1.875	1.880	1.899	1.899	1.895
0.000	-0.020	0.000	0.000	0.049	0.000	0.039	2.700	1.880	1.875	1.875	1.899	1.904	1.895
0.015	-0.015	0.000	0.005	0.068	-0.005	0.039	2.681	1.885	1.875	1.880	1.895	1.904	1.899
0.010	-0.010	0.000	0.005	0.054	0.010	0.039	2.686	1.885	1.880	1.880	1.895	1.899	1.899
-0.005	-0.005	0.000	0.005	0.029	0.010	0.039	2.646	1.875	1.880	1.880	1.895	1.890	1.899
0.000	0.005	-0.005	0.005	0.010	0.015	0.039	2.656	1.880	1.880	1.875	1.895	1.885	1.895
0.010	-0.015	0.000	0.000	0.005	0.010	0.039	2.642	1.890	1.875	1.880	1.895	1.885	1.890
0.005	-0.015	0.000	0.005	0.005	0.005	0.039	2.646	1.885	1.885	1.880	1.895	1.885	1.890
0.010	0.005	0.005	0.005	-0.010	-0.005	0.039	2.729	1.895	1.890	1.880	1.899	1.885	1.880
0.005	-0.010	0.000	0.005	-0.015	-0.005	0.039	2.744	1.890	1.880	1.880	1.899	1.885	1.885
-0.005	0.010	0.005	0.000	0.000	0.000	0.039	2.739	1.895	1.890	1.885	1.899	1.890	1.890
0.000	0.015	0.005	-0.005	-0.010	0.000	0.039	2.749	1.904	1.895	1.890	1.899	1.890	1.890
0.005	0.015	0.005	-0.005	-0.010	0.005	0.039	2.642	1.890	1.895	1.890	1.899	1.895	1.890
0.005	0.015	0.005	-0.005	-0.005	0.000	0.039	2.744	1.895	1.890	1.890	1.899	1.895	1.885
0.000	0.010	0.005	0.000	-0.010	-0.005	0.039	2.666	1.885	1.890	1.890	1.904	1.895	1.890
-0.005	0.010	0.000	0.000	-0.015	0.000	0.039	2.720	1.890	1.890	1.885	1.904	1.895	1.890
0.000	0.010	-0.005	0.000	-0.020	0.005	0.039	2.690	1.885	1.890	1.885	1.899	1.895	1.895
0.005	-0.005	0.000	0.010	-0.034	0.000	0.039	2.622	1.885	1.880	1.885	1.904	1.895	1.890
0.000	-0.005	0.005	0.000	-0.020	0.005	0.039	2.671	1.880	1.880	1.885	1.904	1.899	1.899
0.010	-0.015	0.000	-0.005	-0.015	0.010	0.039	2.622	1.875	1.875	1.880	1.899	1.899	1.895
0.000	-0.010	0.000	0.005	0.000	-0.024	0.039	2.705	1.880	1.880	1.880	1.904	1.899	1.890
-0.005	-0.005	0.000	0.000	0.005	0.010	0.039	2.681	1.880	1.875	1.880	1.899	1.904	1.899
0.005	-0.010	0.010	0.000	0.020	0.000	0.039	2.686	1.880	1.880	1.880	1.899	1.904	1.899
-0.010	-0.010	0.005	-0.005	0.029	0.010	0.039	2.715	1.885	1.880	1.880	1.899	1.904	1.904
0.005	-0.020	0.000	0.000	0.034	0.000	0.039	2.676	1.890	1.880	1.880	1.895	1.904	1.899
-0.005	0.020	0.000	-0.005	0.024	0.010	0.039	2.681	1.885	1.890	1.880	1.899	1.899	1.904
-0.010	0.034	0.005	-0.005	0.034	-0.005	0.034	2.671	1.885	1.895	1.885	1.899	1.899	1.899
0.000	0.000	0.000	0.005	0.029	-0.005	0.039	2.695	1.890	1.880	1.880	1.899	1.895	1.895
0.000	-0.020	0.000	0.010	0.005	-0.010	0.039	2.690	1.890	1.875	1.880	1.899	1.890	1.895
0.000	-0.005	0.005	0.010	-0.010	-0.010	0.034	2.676	1.885	1.880	1.880	1.899	1.885	1.890
-0.005	-0.005	0.005	0.010	-0.029	0.005	0.039	2.700	1.885	1.880	1.880	1.899	1.885	1.890
-0.005	0.015	0.000	0.000	0.000	0.000	0.039	2.681	1.890	1.890	1.880	1.899	1.895	1.890
-0.005	-0.005	0.000	0.000	-0.010	0.000	0.039	2.705	1.890	1.885	1.880	1.899	1.895	1.890
0.010	-0.020	0.000	0.005	-0.034	0.010	0.039	2.681	1.890	1.880	1.880	1.899	1.885	1.890
0.005	-0.005	0.000	0.000	-0.024	0.000	0.039	2.681	1.890	1.885	1.880	1.899	1.890	1.885
-0.005	-0.010	0.000	0.000	-0.010	0.024	0.039	2.700	1.885	1.885	1.880	1.899	1.895	1.895
-0.005	0.005	0.000	0.000	-0.015	0.029	0.039	2.700	1.890	1.890	1.880	1.899	1.895	1.895
0.010	0.024	0.000	-0.005	-0.020	0.024	0.039	2.695	1.895	1.895	1.885	1.899	1.890	1.890
0.015	0.020	0.000	-0.005	-0.020	0.015	0.039	2.676	1.890	1.895	1.885	1.899	1.895	1.895
0.015	0.000	0.000	0.000	-0.005	0.020	0.039	2.695	1.890	1.885	1.885	1.904	1.899	1.895
0.010	-0.010	0.000	-0.005	-0.005	0.005	0.039	2.671	1.885	1.885	1.885	1.899	1.895	1.890
0.010	0.000	0.000	0.000	-0.010	-0.024	0.039	2.671	1.885	1.885	1.885	1.904	1.895	1.885
0.000	0.000	0.000	0.000	0.000	-0.010	0.039	2.686	1.880	1.885	1.885	1.904	1.899	1.890
0.000	0.010	-0.005	0.000	0.015	-0.020	0.039	2.651	1.880	1.885	1.885	1.904	1.904	1.895
0.000	0.005	0.000	-0.005	0.015	-0.024	0.039	2.637	1.875	1.880	1.885	1.899	1.899	1.890
0.000	0.010	0.005	-0.005	0.010	-0.020	0.039	2.637	1.875	1.880	1.880	1.899	1.899	1.895
0.000	0.000	0.000	-0.005	0.015	-0.034	0.039	2.773	1.885	1.875	1.880	1.899	1.895	1.895
0.000	0.000	0.000	0.000	0.015	0.000	0.039	2.637	1.880	1.880	1.880	1.899	1.899	1.904
0.005	0.000	0.000	0.005	0.005	0.000	0.039	2.627	1.875	1.875	1.875	1.899	1.895	1.904
0.010	-0.010	0.000	0.005	0.005	0.015	0.039	2.729	1.885	1.875	1.875	1.899	1.895	1.904
0.005	-0.010	0.005	0.000	0.000	0.015	0.039	2.705	1.885	1.875	1.880	1.895	1.890	1.904
0.000	0.005	0.000	0.000	0.005	0.015	0.039	2.637	1.885	1.880	1.875	1.895	1.890	1.895
0.000	-0.015	0.000	0.005	0.000	0.015	0.039	2.715	1.890	1.875	1.875	1.895	1.895	1.895
0.005	-0.005	0.005	0.000	0.005	0.024	0.039	2.651	1.880	1.880	1.875	1.895	1.890	1.899
-0.005	0.010	0.000	0.000	0.005	0.010	0.039	2.661	1.875	1.880	1.875	1.895	1.895	1.890
0.000	0.010	0.000	0.000	0.010	0.010	0.039	2.651	1.875	1.880	1.875	1.895	1.890	1.890
-0.005	0.020	0.000	0.005	0.000	0.015	0.039	2.686	1.880	1.885	1.880	1.895	1.890	1.890
-0.005	0.020	0.005	0.005	0.000	-0.015	0.039	2.617	1.875	1.880	1.880	1.895	1.890	1.885
-0.005	0.010	0.000	0.010	-0.005	-0.005	0.039	2.695	1.880	1.875	1.880	1.895	1.890	1.890
0.000	-0.005	0.000	0.005	-0.005	0.000	0.039	2.715	1.885	1.875	1.875	1.895	1.890	1.890
-0.015	0.010	0.000	0.010	0.000	0.000	0.039	2.710	1.885	1.880	1.880	1.899	1.890	1.890
-0.005	0.005	0.005	0.005	0.000	-0.020	0.039	2.681	1.890	1.880	1.875	1.895	1.895	1.885
0.005	0.015	0.000	0.005	0.000	0.000	0.039	2.686	1.890	1.880	1.880	1.899	1.895	1.890
-0.005	0.000	0.000	0.005	-0.005	-0.005	0.039	2.705	1.890	1.880	1.875	1.895	1.890	1.890
0.000	-0.005	0.005	0.005	0.000	-0.005	0.039	2.686	1.890	1.880	1.880	1.895	1.890	1.890
-0.005	-0.005	0.000	0.000	0.005	-0.005	0.039	2.661	1.885	1.880	1.875	1.895	1.895	1.895
0.000	0.000	0.000	-0.005	0.005	0.020	0.034	2.671	1.885	1.880	1.875	1.895	1.895	1.895
0.000	-0.005	0.000	0.005	0.005	0.015	0.039	2.690	1.885	1.880	1.880	1.895	1.895	1.895
0.000	-0.005	0.005	0.005	0.000	0.010	0.039	2.690	1.885	1.880	1.880	1.895	1.890	1.890
0.005	0.000	0.005	0.000	0.000	-0.005	0.039	2.661	1.885	1.885	1.880	1.895	1.890	1.885
0.000	0.005	0.000	0.000	0.005	0.005	0.039	2.700	1.885	1.880	1.880	1.895	1.890	1.890
0.010	0.005	0.000	-0.005	0.015	0.015	0.039	2.666	1.885	1.885	1.875	1.895	1.895	1.895
0.010	0.000	0.000	-0.005	0.015	0.005	0.039	2.700	1.890	1.885	1.880	1.895	1.890	1.890
0.010	0.010	0.000	0.000	-0.005	-0.005	0.039	2.690	1.885	1.885	1.880	1.899	1.885	1.885
0.005	-0.005	0.000	0.000	0.000	0.005	0.039	2.681	1.885	1.880	1.880	1.899	1.890	1.890
0.005	-0.005	0.000	0.005	0.000	-0.010	0.039	2.681	1.880	1.880	1.885	1.899	1.890	1.890
-0.005	-0.010	0.005	0.005	-0.024	-0.005	0.039	2.686	1.880	1.875	1.880	1.899	1.885	1.890
-0.005	-0.005	0.005	0.005	-0.020	0.005	0.039	2.700	1.880	1.875	1.880	1.895	1.890	1.890
-0.005	0.000	0.000	0.000	-0.010	0.000	0.039	2.681	1.880	1.880	1.875	1.895	1.890	1.890
-0.010	0.005	0.000	0.000	-0.010	-0.005	0.039	2.686	1.880	1.885	1.880	1.899	1.895	1.890
-0.005	-0.005	0.000	0.000	-0.005	0.000	0.039	2.681	1.885	1.880	1.880	1.899	1.895	1.895
0.005	-0.005	0.000	0.005	0.000	0.020	0.039	2.676	1.885	1.880	1.880	1.899	1.895	1.895
0.005	-0.010	0.000	0.010	0.000	0.005	0.039	2.681	1.880	1.880	1.875	1.895	1.895	1.895
0.005	-0.005	0.000	0.005	0.005	0.005	0.039	2.686	1.880	1.880	1.875	1.895	1.895	1.890
0.000	0.005	0.000	0.005	0.010	0.000	0.039	2.637	1.875	1.880	1.875	1.895	1.895	1.895
0.010	-0.010	0.005	0.005	0.005	0.005	0.039	2.656	1.875	1.875	1.875	1.895	1.890	1.890
0.010	-0.010	0.000	0.000	-0.005	0.005	0.039	2.715	1.890	1.880	1.875	1.895	1.890	1.895
0.020	-0.005	0.005	0.000	-0.010	0.005	0.039	2.642	1.885	1.885	1.880	1.895	1.890	1.890
0.000	-0.005	0.000	0.000	-0.005	0.015	0.039	2.637	1.875	1.880	1.875	1.895	1.890	1.895
0.000	-0.010	0.005	0.000	-0.024	0.029	0.039	2.725	1.880	1.880	1.875	1.895	1.890	1.895
-0.005	0.000	0.005	-0.005	-0.020	0.020	0.039	2.710	1.885	1.880	1.875	1.895	1.890	1.890
-0.010	0.015	0.000	0.000	-0.020	-0.010	0.039	2.637	1.875	1.885	1.880	1.895	1.885	1.880
-0.010	0.029	0.005	0.005	0.005	0.005	0.039	2.622	1.885	1.885	1.880	1.899	1.899	1.890
-0.010	0.034	0.005	0.000	0.034	-0.005	0.039	2.734	1.875	1.885	1.880	1.899	1.904	1.890
-0.010	0.034	0.005	0.000	0.029	-0.005	0.039	2.681	1.880	1.885	1.880	1.899	1.899	1.890
-0.010	0.044	-0.005	0.000	0.020	0.000	0.039	2.725	1.885	1.885	1.885	1.899	1.895	1.899
0.000	0.029	0.000	0.000	-0.010	0.010	0.039	2.695	1.890	1.885	1.880	1.899	1.885	1.895
0.000	-0.005	0.000	0.005	-0.029	0.000	0.039	2.622	1.880	1.870	1.875	1.899	1.880	1.890
0.005	-0.034	0.005	0.005	-0.122	-0.010	0.039	2.690	1.880	1.870	1.870	1.895	1.860	1.875
-0.005	-0.010	-0.005	0.005	-0.205	-0.010	0.039	2.705	1.880	1.875	1.870	1.890	1.851	1.870
0.005	-0.010	0.000	0.000	-0.181	-0.010	0.039	2.700	1.885	1.875	1.875	1.890	1.865	1.865
0.010	-0.024	0.005	0.005	-0.132	-0.015	0.039	2.671	1.880	1.875	1.875	1.890	1.880	1.870
0.020	-0.005	0.000	0.005	-0.063	-0.029	0.039	2.666	1.880	1.880	1.875	1.895	1.904	1.875
0.020	0.005	0.000	0.000	0.000	-0.063	0.039	2.710	1.885	1.880	1.875	1.895	1.919	1.880
0.015	0.000	-0.005	0.005	0.107	-0.034	0.039	2.666	1.880	1.880	1.880	1.899	1.943	1.904
0.010	-0.010	0.005	0.000	0.210	-0.044	0.039	2.671	1.875	1.875	1.880	1.899	1.958	1.919
0.005	-0.010	0.000	0.005	0.317	-0.005	0.039	2.676	1.875	1.875	1.880	1.904	1.973	1.948
0.000	-0.024	0.005	0.010	0.342	0.015	0.039	2.676	1.885	1.875	1.880	1.904	1.958	1.953
-0.005	-0.020	0.000	0.000	0.322	0.005	0.039	2.705	1.890	1.875	1.875	1.899	1.934	1.948
0.005	-0.024	-0.005	0.005	0.273	0.010	0.039	2.686	1.895	1.880	1.875	1.895	1.909	1.934
0.005	0.044	0.000	-0.005	0.151	0.024	0.039	2.690	1.899	1.909	1.885	1.890	1.875	1.919
-0.005	0.059	0.005	0.000	0.068	0.029	0.039	2.690	1.895	1.899	1.890	1.895	1.855	1.899
-0.005	0.010	0.005	-0.005	0.039	0.020	0.034	2.700	1.890	1.885	1.885	1.895	1.860	1.885
0.005	-0.015	0.005	-0.005	0.024	0.039	0.039	2.686	1.890	1.880	1.885	1.899	1.865	1.880
0.000	0.000	0.000	-0.005	0.015	0.039	0.039	2.681	1.880	1.885	1.885	1.895	1.870	1.880
0.000	-0.010	0.000	0.000	-0.029	0.039	0.039	2.695	1.885	1.880	1.880	1.899	1.865	1.875
-0.015	-0.010	0.000	0.010	-0.078	0.015	0.039	2.676	1.880	1.880	1.880	1.899	1.860	1.865
-0.005	0.000	0.005	0.015	-0.093	0.024	0.039	2.690	1.875	1.880	1.880	1.899	1.870	1.865
0.005	-0.010	0.005	0.005	-0.117	0.005	0.039	2.676	1.875	1.875	1.880	1.895	1.865	1.860
-0.005	-0.005	0.000	0.000	-0.122	0.020	0.039	2.666	1.875	1.875	1.875	1.895	1.870	1.865
-0.005	0.010	0.000	-0.005	-0.127	0.010	0.039	2.686	1.875	1.880	1.875	1.890	1.875	1.865
0.000	0.020	-0.005	-0.010	-0.107	0.000	0.039	2.700	1.875	1.880	1.875	1.895	1.880	1.870
0.000	0.020	0.000	-0.005	-0.103	-0.015	0.039	2.695	1.875	1.875	1.875	1.895	1.885	1.870
-0.005	-0.010	0.005	-0.005	-0.098	0.000	0.039	2.686	1.875	1.870	1.875	1.895	1.890	1.880
0.000	0.000	0.000	0.005	-0.093	0.000	0.039	2.651	1.880	1.875	1.875	1.899	1.895	1.880
0.000	0.005	0.005	0.005	-0.073	0.000	0.039	2.651	1.870	1.875	1.875	1.899	1.895	1.885
0.000	0.034	0.005	0.005	-0.054	-0.005	0.039	2.642	1.890	1.885	1.875	1.899	1.899	1.890
0.000	0.020	0.005	0.010	-0.044	-0.029	0.039	2.646	1.885	1.880	1.880	1.899	1.899	1.885
0.000	-0.024	0.000	0.010	-0.034	-0.010	0.039	2.642	1.875	1.870	1.875	1.895	1.899	1.890
0.000	-0.024	0.000	0.010	-0.015	0.005	0.039	2.725	1.880	1.870	1.875	1.895	1.904	1.904
0.005	0.034	0.005	0.005	-0.010	-0.005	0.039	2.710	1.890	1.890	1.880	1.895	1.904	1.899
0.000	0.044	0.000	0.000	0.000	-0.015	0.039	2.651	1.890	1.890	1.880	1.895	1.904	1.899
0.000	0.015	0.005	0.000	0.005	0.015	0.039	2.720	1.895	1.885	1.880	1.895	1.899	1.909
0.005	0.015	0.005	-0.005	0.010	0.000	0.039	2.729	1.895	1.885	1.885	1.899	1.899	1.904
0.010	0.005	0.000	0.000	-0.005	0.000	0.039	2.666	1.890	1.885	1.880	1.895	1.895	1.899
0.000	-0.010	0.005	-0.005	0.000	0.000	0.039	2.729	1.885	1.875	1.880	1.895	1.895	1.899
0.005	-0.039	0.000	-0.005	0.005	0.005	0.039	2.695	1.885	1.875	1.875	1.895	1.895	1.895
-0.005	-0.005	0.000	0.000	-0.005	0.005	0.039	2.725	1.890	1.885	1.875	1.895	1.890	1.895
-0.010	-0.010	0.005	0.005	0.000	0.005	0.039	2.690	1.885	1.880	1.880	1.899	1.895	1.895
0.005	0.010	-0.005	0.005	0.015	0.000	0.039	2.720	1.885	1.890	1.880	1.899	1.895	1.895
0.005	0.024	0.005	0.000	0.010	-0.005	0.039	2.710	1.890	1.895	1.885	1.899	1.895	1.895
0.000	0.034	0.000	0.005	0.010	-0.005	0.039	2.676	1.885	1.895	1.890	1.899	1.895	1.895
0.005	0.005	0.000	0.000	0.020	-0.010	0.039	2.695	1.885	1.885	1.885	1.904	1.899	1.895
0.010	-0.015	0.005	0.000	0.010	-0.005	0.039	2.705	1.890	1.875	1.880	1.904	1.895	1.890
-0.010	-0.020	0.000	0.005	0.010	0.005	0.039	2.671	1.885	1.875	1.880	1.899	1.899	1.899
0.005	-0.024	0.000	0.000	0.015	-0.029	0.039	2.676	1.885	1.875	1.875	1.899	1.899	1.890
0.005	0.005	0.000	0.005	0.015	0.015	0.039	2.666	1.880	1.885	1.880	1.899	1.895	1.899
0.000	0.005	0.000	0.000	0.010	0.005	0.039	2.656	1.880	1.885	1.880	1.899	1.895	1.899
-0.010	0.000	0.000	0.000	0.010	0.005	0.039	2.690	1.880	1.880	1.880	1.899	1.895	1.895
0.000	-0.005	-0.005	0.000	0.015	0.005	0.039	2.671	1.880	1.880	1.880	1.895	1.895	1.895
0.000	0.000	0.005	0.000	0.010	0.005	0.039	2.695	1.885	1.880	1.880	1.899	1.895	1.895
0.000	-0.010	0.005	0.005	0.015	-0.005	0.039	2.686	1.880	1.875	1.875	1.895	1.890	1.890
0.000	-0.010	0.000	0.005	0.010	0.000	0.039	2.695	1.885	1.875	1.875	1.899	1.895	1.890
0.000	0.005	0.000	0.005	0.005	0.000	0.039	2.666	1.885	1.880	1.875	1.895	1.895	1.890
-0.005	-0.005	0.000	0.005	0.000	0.005	0.039	2.681	1.880	1.880	1.875	1.895	1.890	1.890
0.005	0.000	0.000	0.005	0.010	0.000	0.039	2.676	1.885	1.880	1.880	1.895	1.895	1.890
-0.005	0.005	0.000	0.005	0.005	0.000	0.039	2.695	1.885	1.880	1.880	1.899	1.890	1.890
0.010	0.005	0.005	0.000	0.005	0.000	0.039	2.690	1.890	1.885	1.880	1.895	1.895	1.890
0.000	0.010	0.000	0.000	0.005	-0.020	0.039	2.676	1.880	1.885	1.880	1.899	1.890	1.890
-0.005	0.015	0.000	0.000	0.000	0.015	0.039	2.676	1.885	1.885	1.880	1.899	1.890	1.895
0.000	-0.015	0.000	0.000	0.010	0.015	0.039	2.676	1.885	1.875	1.880	1.899	1.895	1.899
0.015	0.000	0.005	-0.005	0.010	0.000	0.039	2.690	1.890	1.885	1.880	1.899	1.895	1.890
0.005	0.005	0.000	0.000	0.015	0.015	0.039	2.686	1.885	1.885	1.880	1.899	1.899	1.899
0.005	-0.005	0.000	0.000	0.005	0.005	0.039	2.686	1.885	1.880	1.880	1.899	1.895	1.890
0.000	-0.010	0.005	0.005	0.005	0.010	0.039	2.632	1.875	1.880	1.880	1.899	1.895	1.895
0.010	-0.005	0.000	0.000	0.010	0.010	0.039	2.646	1.880	1.880	1.875	1.895	1.895	1.890
0.000	-0.020	0.000	0.005	0.005	0.010	0.039	2.671	1.875	1.875	1.875	1.899	1.890	1.890
0.005	-0.015	0.000	0.005	0.010	-0.005	0.039	2.773	1.890	1.875	1.875	1.895	1.895	1.890
0.005	-0.020	0.000	0.005	0.015	-0.010	0.039	2.637	1.895	1.880	1.875	1.895	1.890	1.885
0.010	-0.010	-0.005	0.005	0.000	-0.024	0.039	2.739	1.895	1.885	1.875	1.895	1.885	1.880
0.015	0.010	-0.005	0.005	-0.005	0.000	0.039	2.734	1.899	1.895	1.880	1.895	1.890	1.890
0.000	0.010	0.000	0.000	-0.005	0.000	0.039	2.642	1.890	1.890	1.885	1.899	1.890	1.890
0.005	0.010	0.005	-0.005	-0.015	0.000	0.039	2.710	1.880	1.890	1.885	1.899	1.885	1.885
0.005	-0.005	0.005	0.005	-0.015	0.005	0.039	2.671	1.885	1.885	1.885	1.899	1.890	1.890
-0.005	0.020	0.000	0.005	-0.015	0.010	0.039	2.642	1.875	1.890	1.885	1.899	1.895	1.895
-0.005	0.024	0.000	0.000	-0.005	0.010	0.039	2.729	1.885	1.885	1.885	1.904	1.895	1.895
0.000	0.029	0.000	0.000	-0.005	0.005	0.039	2.695	1.890	1.890	1.885	1.899	1.895	1.895
-0.005	0.020	0.005	0.000	0.000	0.015	0.039	2.632	1.880	1.885	1.885	1.904	1.899	1.899
-0.020	0.005	0.005	0.005	0.015	0.015	0.039	2.681	1.875	1.875	1.885	1.904	1.904	1.899
-0.020	-0.005	0.000	0.000	0.000	0.005	0.039	2.651	1.875	1.875	1.880	1.899	1.895	1.895
0.000	0.010	0.005	0.000	-0.005	0.005	0.039	2.695	1.885	1.880	1.875	1.899	1.895	1.895
0.005	-0.005	0.005	0.005	-0.005	-0.015	0.039	2.651	1.880	1.875	1.880	1.899	1.895	1.890
0.015	-0.024	0.005	0.005	0.000	-0.024	0.039	2.681	1.885	1.870	1.875	1.899	1.895	1.885
0.005	-0.010	0.000	0.005	-0.024	-0.010	0.039	2.686	1.880	1.880	1.875	1.895	1.885	1.890
0.000	-0.010	-0.005	0.000	-0.034	-0.029	0.044	2.695	1.885	1.875	1.870	1.895	1.885	1.880
0.005	-0.020	0.000	0.005	-0.029	0.000	0.039	2.676	1.880	1.875	1.875	1.890	1.890	1.895
0.015	-0.010	-0.005	0.000	-0.020	-0.015	0.039	2.671	1.885	1.880	1.875	1.890	1.890	1.890
0.015	0.000	0.005	0.005	-0.010	-0.015	0.039	2.705	1.890	1.885	1.875	1.895	1.890	1.885
0.005	0.029	0.000	0.005	0.015	-0.005	0.039	2.666	1.880	1.895	1.880	1.895	1.899	1.895
0.005	0.010	0.005	0.010	0.015	-0.005	0.039	2.676	1.880	1.880	1.880	1.899	1.895	1.895
0.000	-0.020	0.005	0.000	0.015	-0.015	0.039	2.695	1.875	1.875	1.875	1.895	1.895	1.890
0.000	0.029	0.005	0.000	-0.015	-0.024	0.039	2.700	1.885	1.890	1.880	1.899	1.885	1.885
0.005	0.049	0.005	0.000	-0.024	0.015	0.039	2.700	1.890	1.895	1.885	1.899	1.890	1.895
0.000	0.000	0.000	0.000	-0.020	0.024	0.039	2.681	1.885	1.880	1.885	1.899	1.890	1.899
0.000	0.005	0.005	-0.005	0.020	0.034	0.039	2.700	1.890	1.880	1.880	1.899	1.899	1.899
0.005	0.010	0.000	0.000	0.054	0.054	0.039	2.671	1.890	1.885	1.880	1.899	1.909	1.909
-0.010	0.005	-0.005	0.000	0.098	0.054	0.039	2.671	1.880	1.885	1.880	1.899	1.919	1.914
-0.005	-0.010	-0.005	0.000	0.151	0.059	0.039	2.686	1.885	1.875	1.880	1.899	1.929	1.919
0.000	-0.005	0.000	-0.005	0.205	0.054	0.039	2.690	1.890	1.885	1.880	1.899	1.929	1.919
0.005	0.020	0.000	0.000	0.161	0.000	0.039	2.690	1.890	1.895	1.885	1.899	1.904	1.904
-0.010	0.010	0.010	0.005	0.098	-0.010	0.039	2.681	1.890	1.885	1.885	1.899	1.885	1.890
0.005	-0.039	0.010	0.005	0.049	-0.039	0.039	2.695	1.890	1.870	1.880	1.899	1.875	1.875
0.005	-0.029	0.005	0.005	0.024	-0.034	0.039	2.690	1.885	1.875	1.875	1.895	1.870	1.875
0.010	0.005	0.005	-0.005	-0.005	-0.049	0.039	2.686	1.885	1.890	1.880	1.895	1.870	1.870
-0.005	-0.005	0.000	0.000	-0.044	-0.039	0.039	2.627	1.875	1.885	1.875	1.895	1.870	1.875
0.000	0.020	0.005	-0.005	-0.068	-0.029	0.039	2.646	1.870	1.885	1.880	1.895	1.870	1.870
0.005	0.015	0.005	-0.005	-0.078	-0.039	0.039	2.642	1.870	1.875	1.880	1.895	1.870	1.870
0.000	-0.010	0.005	0.000	-0.088	0.000	0.039	2.642	1.865	1.870	1.875	1.895	1.875	1.880
0.000	-0.020	0.005	0.000	-0.073	0.000	0.039	2.744	1.880	1.870	1.875	1.895	1.885	1.880
0.010	0.010	0.010	0.005	-0.044	0.000	0.039	2.744	1.885	1.880	1.875	1.895	1.895	1.885
-0.005	0.029	0.000	0.005	-0.039	0.005	0.039	2.729	1.890	1.880	1.880	1.895	1.895	1.890
0.010	0.005	-0.005	0.000	-0.044	0.005	0.039	2.744	1.880	1.875	1.875	1.895	1.895	1.890
0.005	-0.010	-0.005	0.010	-0.034	0.010	0.039	2.725	1.885	1.875	1.875	1.899	1.899	1.895
0.000	0.005	-0.010	0.015	-0.029	0.015	0.039	2.715	1.885	1.880	1.875	1.899	1.895	1.890
-0.005	0.005	-0.005	0.010	-0.034	0.005	0.039	2.642	1.880	1.880	1.875	1.895	1.895	1.890
-0.005	-0.005	-0.005	0.000	-0.029	0.015	0.034	2.637	1.875	1.870	1.875	1.890	1.890	1.890
-0.010	-0.059	0.000	0.000	-0.029	0.024	0.039	2.681	1.875	1.860	1.870	1.890	1.890	1.895
-0.005	-0.029	0.000	0.005	-0.020	0.015	0.039	2.705	1.870	1.870	1.870	1.890	1.895	1.890
0.005	0.015	0.005	0.005	0.010	0.015	0.039	2.656	1.870	1.880	1.875	1.890	1.899	1.895
0.000	-0.010	0.000	0.000	0.010	0.005	0.039	2.739	1.875	1.870	1.870	1.890	1.895	1.895
0.005	-0.054	0.005	-0.005	0.005	0.010	0.039	2.690	1.880	1.865	1.870	1.885	1.890	1.890
0.005	0.020	0.005	-0.005	0.010	-0.015	0.039	2.671	1.880	1.890	1.875	1.890	1.890	1.885
0.005	0.039	0.010	-0.005	0.010	0.010	0.039	2.695	1.885	1.890	1.880	1.890	1.890	1.890
0.000	0.034	0.005	0.000	0.005	-0.005	0.039	2.671	1.880	1.885	1.880	1.895	1.890	1.890
0.015	0.024	0.000	0.005	0.005	0.000	0.039	2.666	1.885	1.885	1.880	1.895	1.890	1.890
0.015	0.044	0.000	0.015	0.000	0.000	0.039	2.681	1.885	1.885	1.880	1.899	1.890	1.890
0.010	0.029	0.000	0.010	-0.015	-0.005	0.039	2.676	1.880	1.875	1.880	1.899	1.890	1.885
0.005	-0.024	0.000	0.005	-0.010	0.010	0.039	2.671	1.880	1.865	1.875	1.895	1.890	1.890
0.000	-0.024	0.000	0.005	0.000	0.010	0.039	2.695	1.880	1.870	1.875	1.895	1.895	1.890
0.010	0.010	-0.005	0.000	0.000	0.005	0.039	2.681	1.885	1.880	1.875	1.895	1.890	1.890
0.000	0.005	-0.005	0.010	0.010	0.010	0.039	2.695	1.880	1.875	1.875	1.895	1.895	1.895
-0.010	0.015	0.000	0.000	0.015	0.000	0.039	2.676	1.880	1.880	1.875	1.895	1.895	1.890
-0.010	0.005	0.005	-0.005	0.010	0.005	0.039	2.695	1.880	1.875	1.875	1.890	1.890	1.890
-0.010	0.010	0.000	-0.005	-0.020	0.000	0.039	2.671	1.880	1.875	1.875	1.890	1.875	1.885
-0.010	0.010	0.000	-0.015	-0.039	0.000	0.039	2.671	1.880	1.875	1.875	1.890	1.875	1.880
-0.010	-0.010	-0.005	0.000	-0.063	0.000	0.039	2.681	1.875	1.870	1.870	1.890	1.875	1.880
-0.010	0.015	0.005	0.010	-0.044	-0.015	0.039	2.695	1.885	1.880	1.875	1.895	1.880	1.875
0.005	-0.005	0.000	0.005	-0.020	-0.010	0.039	2.686	1.885	1.875	1.875	1.895	1.890	1.880
0.000	0.015	0.000	0.005	-0.015	-0.005	0.039	2.700	1.885	1.885	1.875	1.895	1.890	1.885
0.010	0.005	0.005	0.005	-0.010	0.005	0.039	2.671	1.885	1.885	1.880	1.895	1.890	1.890
0.005	0.005	0.010	0.005	-0.015	0.000	0.039	2.700	1.890	1.885	1.880	1.895	1.890	1.890
0.010	-0.015	0.000	0.010	-0.010	0.000	0.039	2.686	1.885	1.880	1.875	1.895	1.890	1.890
0.000	0.005	0.005	0.010	-0.010	-0.020	0.039	2.686	1.880	1.885	1.880	1.899	1.895	1.885
0.010	0.034	0.000	0.005	-0.005	0.005	0.039	2.686	1.885	1.895	1.880	1.899	1.895	1.895
0.000	0.034	0.005	0.010	0.015	-0.010	0.039	2.642	1.880	1.890	1.885	1.904	1.904	1.890
-0.005	-0.005	0.005	0.015	0.044	-0.005	0.039	2.651	1.875	1.875	1.880	1.904	1.909	1.899
0.005	0.000	0.000	0.010	0.068	0.015	0.039	2.646	1.895	1.880	1.880	1.904	1.914	1.904
0.000	-0.010	0.005	0.010	0.098	0.024	0.039	2.646	1.890	1.880	1.875	1.899	1.914	1.914
-0.005	-0.010	0.000	0.005	0.146	0.015	0.039	2.725	1.890	1.880	1.880	1.899	1.924	1.914
0.005	-0.015	0.000	-0.005	0.161	0.010	0.039	2.700	1.895	1.885	1.880	1.895	1.914	1.909
0.005	-0.005	0.000	-0.020	0.127	0.015	0.039	2.734	1.899	1.890	1.880	1.890	1.899	1.909
0.005	-0.005	-0.005	-0.029	0.034	-0.005	0.039	2.666	1.890	1.885	1.875	1.885	1.870	1.890
0.005	-0.015	0.000	-0.024	-0.029	0.015	0.039	2.725	1.899	1.890	1.880	1.890	1.860	1.885
0.000	-0.010	-0.005	-0.024	-0.054	-0.010	0.039	2.754	1.899	1.890	1.880	1.895	1.860	1.870
0.010	-0.005	0.000	-0.005	-0.073	-0.010	0.034	2.637	1.890	1.895	1.885	1.899	1.865	1.870
0.020	0.005	0.005	0.010	-0.063	0.010	0.039	2.754	1.895	1.895	1.890	1.904	1.875	1.875
0.020	0.000	0.005	0.015	-0.049	-0.005	0.039	2.690	1.890	1.895	1.895	1.909	1.890	1.875
0.000	0.015	0.005	0.029	-0.049	0.000	0.039	2.622	1.875	1.895	1.890	1.914	1.895	1.880
-0.010	0.039	0.000	0.029	-0.034	0.000	0.039	2.695	1.875	1.895	1.890	1.914	1.899	1.885
-0.024	0.044	0.000	0.020	-0.034	0.000	0.039	2.622	1.870	1.885	1.890	1.914	1.904	1.890
-0.029	0.010	0.000	0.015	-0.020	-0.020	0.039	2.705	1.875	1.870	1.885	1.909	1.909	1.890
-0.039	0.010	0.005	0.005	-0.015	0.005	0.039	2.671	1.875	1.875	1.880	1.904	1.904	1.899
-0.015	-0.024	0.000	0.000	-0.010	-0.010	0.039	2.671	1.880	1.865	1.875	1.899	1.904	1.895
0.000	-0.020	0.010	0.000	0.000	0.000	0.039	2.700	1.885	1.870	1.875	1.895	1.904	1.904
0.015	-0.059	0.005	0.000	-0.005	-0.005	0.039	2.676	1.890	1.870	1.870	1.895	1.899	1.899
0.010	-0.024	-0.005	0.000	-0.010	0.005	0.039	2.681	1.885	1.880	1.870	1.890	1.895	1.899
0.015	-0.010	0.000	-0.005	0.000	0.005	0.039	2.666	1.885	1.885	1.875	1.890	1.895	1.895
0.000	-0.005	0.000	-0.005	0.000	-0.005	0.039	2.690	1.880	1.885	1.875	1.890	1.895	1.895
0.005	0.024	0.000	0.000	-0.005	0.000	0.039	2.690	1.885	1.890	1.880	1.890	1.890	1.895
0.005	0.020	-0.005	-0.005	0.005	-0.005	0.039	2.671	1.885	1.885	1.880	1.895	1.895	1.895
0.010	0.015	0.005	0.000	0.010	0.000	0.039	2.690	1.885	1.885	1.880	1.899	1.895	1.895
0.010	-0.015	0.000	-0.005	0.000	0.000	0.039	2.690	1.885	1.875	1.880	1.895	1.890	1.895
0.000	-0.034	0.000	0.000	0.000	0.015	0.039	2.700	1.885	1.870	1.875	1.895	1.890	1.895
0.005	-0.044	-0.005	0.000	0.010	0.010	0.039	2.681	1.885	1.875	1.875	1.895	1.895	1.899
0.020	-0.015	0.005	0.005	0.005	0.024	0.039	2.681	1.890	1.890	1.880	1.899	1.895	1.895
0.015	0.054	0.005	0.005	-0.005	0.000	0.039	2.681	1.890	1.904	1.885	1.899	1.890	1.885
0.005	0.034	0.005	0.000	-0.005	-0.010	0.039	2.705	1.890	1.899	1.885	1.899	1.890	1.885
0.000	0.020	0.000	0.000	-0.005	0.000	0.039	2.686	1.890	1.885	1.885	1.904	1.895	1.890
0.000	0.015	0.010	0.000	-0.010	0.005	0.039	2.681	1.885	1.885	1.885	1.904	1.895	1.895
-0.005	0.044	0.005	0.000	-0.015	0.000	0.039	2.700	1.890	1.895	1.890	1.904	1.895	1.890
-0.010	0.029	0.010	0.000	-0.010	0.005	0.039	2.676	1.885	1.880	1.885	1.904	1.899	1.895
-0.005	-0.068	0.005	0.000	-0.005	0.010	0.039	2.695	1.880	1.860	1.875	1.899	1.899	1.899
-0.005	-0.073	0.000	0.000	0.010	0.010	0.039	2.676	1.880	1.865	1.870	1.895	1.899	1.895
0.005	-0.039	-0.010	0.000	0.029	-0.005	0.039	2.651	1.885	1.875	1.870	1.895	1.904	1.899
0.015	0.020	-0.015	0.005	0.024	-0.015	0.039	2.642	1.885	1.899	1.875	1.895	1.895	1.890
0.010	0.000	-0.005	0.005	0.005	0.000	0.039	2.661	1.875	1.885	1.880	1.895	1.890	1.895
0.005	-0.015	-0.005	0.010	-0.029	-0.005	0.039	2.754	1.885	1.875	1.875	1.895	1.880	1.890
-0.005	-0.029	-0.005	0.000	-0.068	0.015	0.039	2.642	1.875	1.875	1.880	1.890	1.870	1.885
0.000	0.010	0.005	0.000	-0.122	0.000	0.039	2.725	1.875	1.885	1.880	1.895	1.865	1.875
0.015	-0.010	0.005	0.005	-0.098	0.000	0.039	2.749	1.890	1.880	1.880	1.895	1.875	1.875
0.020	0.044	0.005	0.000	-0.073	0.000	0.039	2.725	1.890	1.899	1.890	1.899	1.890	1.880
0.005	0.132	0.010	0.000	-0.054	0.015	0.039	2.710	1.895	1.924	1.899	1.904	1.899	1.890
-0.005	0.015	0.005	0.000	0.010	0.024	0.039	2.725	1.890	1.875	1.890	1.909	1.919	1.899
0.005	-0.063	0.005	0.000	0.034	0.010	0.039	2.705	1.890	1.860	1.880	1.909	1.919	1.904
0.000	0.010	0.000	0.000	0.073	-0.005	0.039	2.656	1.885	1.890	1.880	1.904	1.924	1.904
-0.024	0.049	0.000	0.000	0.137	-0.005	0.039	2.715	1.890	1.895	1.885	1.909	1.934	1.914
-0.044	0.054	0.000	0.005	0.176	-0.010	0.039	2.695	1.885	1.890	1.890	1.909	1.938	1.919
-0.029	0.024	-0.005	0.005	0.205	-0.020	0.039	2.700	1.890	1.885	1.885	1.909	1.934	1.924
-0.005	0.024	-0.005	0.010	0.205	-0.010	0.039	2.686	1.899	1.885	1.885	1.909	1.924	1.929
0.000	0.000	-0.005	0.010	0.181	0.005	0.039	2.646	1.895	1.885	1.885	1.904	1.909	1.924
0.005	-0.005	-0.010	0.005	0.127	0.020	0.039	2.710	1.899	1.885	1.880	1.899	1.890	1.914
0.005	-0.034	-0.005	0.010	0.039	0.005	0.039	2.671	1.890	1.875	1.880	1.899	1.870	1.904
0.010	-0.039	0.000	0.000	0.005	0.005	0.039	2.681	1.890	1.880	1.880	1.895	1.870	1.885
0.010	0.024	0.005	0.000	-0.015	0.015	0.039	2.705	1.895	1.904	1.885	1.899	1.870	1.885
0.020	0.010	0.010	0.005	-0.020	0.020	0.039	2.676	1.895	1.890	1.890	1.899	1.875	1.885
0.024	-0.078	0.000	-0.005	-0.034	-0.005	0.039	2.671	1.885	1.870	1.880	1.899	1.875	1.875
0.010	-0.083	0.000	-0.005	-0.063	0.024	0.039	2.686	1.880	1.870	1.875	1.895	1.870	1.875
-0.005	-0.029	0.000	-0.005	-0.078	0.024	0.039	2.695	1.880	1.885	1.875	1.895	1.875	1.875
-0.010	0.054	0.005	-0.005	-0.078	0.020	0.039	2.705	1.885	1.909	1.890	1.899	1.880	1.875
-0.020	0.024	0.005	-0.005	-0.083	0.010	0.039	2.676	1.880	1.890	1.890	1.899	1.880	1.875
-0.005	-0.005	0.005	-0.010	-0.078	0.010	0.039	2.695	1.875	1.875	1.885	1.899	1.890	1.880
0.010	-0.029	0.000	-0.005	-0.068	0.000	0.039	2.676	1.880	1.875	1.880	1.899	1.890	1.880
0.010	0.015	0.000	0.000	-0.063	0.000	0.039	2.690	1.880	1.890	1.880	1.904	1.895	1.885
0.010	0.020	0.000	0.015	-0.049	0.010	0.039	2.681	1.880	1.885	1.885	1.909	1.899	1.890
0.000	-0.005	0.005	0.015	-0.039	0.010	0.039	2.676	1.875	1.875	1.880	1.904	1.904	1.895
0.000	0.015	0.005	0.020	-0.034	0.010	0.039	2.700	1.885	1.880	1.880	1.909	1.904	1.899
-0.005	0.034	0.000	0.024	-0.024	-0.029	0.039	2.671	1.880	1.885	1.880	1.904	1.904	1.890
-0.005	0.063	0.000	0.015	-0.010	0.020	0.039	2.681	1.890	1.890	1.880	1.899	1.909	1.909
-0.005	0.005	-0.005	0.005	-0.005	0.020	0.039	2.671	1.885	1.870	1.875	1.895	1.899	1.904
-0.015	-0.015	0.000	-0.010	-0.029	0.010	0.039	2.700	1.885	1.870	1.870	1.890	1.890	1.899
-0.005	-0.010	0.000	-0.020	-0.029	0.015	0.039	2.700	1.885	1.875	1.875	1.885	1.890	1.899
0.005	-0.020	0.005	-0.020	-0.020	0.005	0.034	2.676	1.890	1.875	1.875	1.890	1.890	1.895
-0.005	0.005	0.000	-0.010	0.000	-0.010	0.039	2.690	1.890	1.885	1.875	1.895	1.895	1.890
-0.005	-0.010	0.005	0.005	0.015	0.005	0.039	2.666	1.885	1.880	1.880	1.899	1.899	1.899
0.000	-0.034	0.000	0.010	0.024	0.000	0.039	2.646	1.880	1.875	1.875	1.899	1.899	1.899
-0.005	-0.049	0.000	0.005	0.010	-0.024	0.039	2.656	1.875	1.870	1.875	1.899	1.895	1.890
0.005	-0.044	0.005	0.015	-0.010	-0.044	0.039	2.651	1.895	1.875	1.875	1.895	1.890	1.885
0.000	-0.029	0.010	0.010	0.000	-0.020	0.039	2.646	1.885	1.880	1.880	1.895	1.890	1.890
0.005	-0.029	0.005	0.000	-0.005	-0.024	0.039	2.734	1.890	1.880	1.880	1.895	1.890	1.890
0.005	-0.049	0.005	-0.005	-0.010	-0.010	0.034	2.739	1.895	1.880	1.875	1.895	1.890	1.890
0.005	0.103	0.005	-0.005	-0.010	-0.005	0.039	2.739	1.904	1.934	1.895	1.899	1.890	1.895
0.010	0.142	0.005	0.000	0.000	0.000	0.039	2.710	1.890	1.924	1.904	1.904	1.895	1.895
0.024	0.044	0.000	0.010	0.015	0.015	0.039	2.622	1.890	1.890	1.899	1.909	1.899	1.899
0.015	-0.010	0.000	0.005	0.054	0.015	0.039	2.705	1.875	1.870	1.890	1.909	1.914	1.904
0.005	0.005	0.000	0.000	0.068	0.015	0.039	2.637	1.875	1.880	1.885	1.904	1.914	1.904
-0.005	0.078	0.000	-0.010	0.068	0.005	0.039	2.739	1.885	1.895	1.890	1.904	1.909	1.904
-0.020	0.039	0.005	-0.005	0.073	0.005	0.039	2.695	1.880	1.880	1.885	1.904	1.909	1.899
-0.010	-0.054	0.010	-0.005	0.093	0.015	0.039	2.632	1.875	1.855	1.875	1.904	1.914	1.909
0.000	-0.024	0.005	0.010	0.078	0.015	0.039	2.690	1.885	1.875	1.875	1.904	1.904	1.909
-0.005	0.063	0.000	0.010	0.068	0.020	0.039	2.690	1.895	1.899	1.880	1.899	1.899	1.909
-0.005	0.020	0.000	0.000	0.029	0.015	0.039	2.710	1.895	1.880	1.880	1.899	1.890	1.895
-0.005	-0.029	0.000	0.005	0.010	0.015	0.039	2.676	1.890	1.875	1.875	1.895	1.885	1.895
-0.005	-0.015	-0.005	0.010	-0.020	0.015	0.039	2.700	1.890	1.880	1.875	1.895	1.880	1.890
0.010	-0.015	0.000	0.000	-0.034	0.010	0.039	2.676	1.895	1.885	1.875	1.895	1.875	1.885
0.015	-0.020	0.000	0.005	-0.034	-0.015	0.039	2.681	1.895	1.885	1.880	1.895	1.880	1.875
0.010	-0.015	0.000	0.000	-0.029	0.020	0.039	2.681	1.885	1.885	1.880	1.895	1.885	1.890
0.005	0.005	0.000	0.000	-0.029	0.015	0.039	2.671	1.885	1.890	1.885	1.899	1.890	1.885
0.010	-0.020	0.005	0.015	-0.024	0.010	0.039	2.661	1.880	1.880	1.885	1.904	1.890	1.890
-0.005	-0.024	0.000	0.020	-0.020	0.010	0.039	2.695	1.875	1.875	1.880	1.904	1.895	1.890
-0.005	-0.020	0.000	0.005	-0.020	0.010	0.039	2.686	1.880	1.875	1.875	1.899	1.895	1.890
-0.010	-0.015	-0.005	0.005	-0.010	-0.005	0.039	2.695	1.880	1.880	1.875	1.895	1.895	1.885
0.000	-0.020	0.000	-0.005	-0.015	-0.005	0.039	2.700	1.885	1.875	1.875	1.895	1.890	1.885
-0.005	0.049	0.000	0.000	-0.015	-0.010	0.039	2.686	1.890	1.899	1.880	1.895	1.895	1.890
0.010	0.039	0.005	-0.010	-0.005	-0.029	0.039	2.686	1.890	1.890	1.885	1.895	1.895	1.885
0.015	-0.034	0.000	0.010	0.000	-0.005	0.039	2.676	1.880	1.870	1.880	1.904	1.895	1.895
0.000	-0.034	0.000	0.020	-0.005	0.000	0.039	2.700	1.880	1.875	1.875	1.904	1.895	1.895
0.000	0.000	0.005	-0.005	-0.005	-0.015	0.039	2.700	1.885	1.885	1.880	1.895	1.890	1.895
-0.005	0.024	0.005	-0.034	-0.005	0.010	0.039	2.686	1.885	1.890	1.880	1.885	1.890	1.899
0.015	-0.020	0.005	-0.039	-0.005	0.010	0.039	2.666	1.885	1.880	1.880	1.890	1.890	1.899
0.020	-0.005	0.000	-0.039	0.000	0.005	0.039	2.681	1.890	1.885	1.880	1.895	1.890	1.895
-0.015	0.000	0.005	-0.024	-0.005	0.015	0.039	2.695	1.880	1.885	1.880	1.899	1.895	1.895
-0.024	0.005	0.005	-0.010	0.000	0.010	0.039	2.700	1.875	1.885	1.880	1.904	1.895	1.895
-0.039	0.034	0.000	0.015	0.000	0.005	0.039	2.695	1.880	1.890	1.885	1.909	1.899	1.890
-0.034	0.049	0.000	0.034	0.010	0.000	0.039	2.690	1.885	1.890	1.885	1.914	1.904	1.899
-0.015	0.059	0.000	0.034	0.015	0.005	0.039	2.642	1.885	1.890	1.890	1.909	1.904	1.899
0.000	0.044	0.005	0.024	0.010	0.000	0.039	2.646	1.880	1.885	1.885	1.904	1.904	1.895
-0.005	0.015	0.005	0.015	0.005	0.005	0.039	2.642	1.875	1.875	1.880	1.899	1.899	1.899
-0.005	0.000	0.000	0.010	0.015	0.010	0.039	2.642	1.875	1.870	1.875	1.899	1.899	1.899
0.024	-0.015	0.000	0.010	0.010	-0.010	0.039	2.720	1.890	1.870	1.875	1.895	1.895	1.895
0.039	-0.015	0.000	0.005	0.000	0.010	0.039	2.725	1.899	1.875	1.870	1.890	1.895	1.895
0.039	-0.020	-0.005	0.010	0.000	0.015	0.039	2.749	1.899	1.880	1.875	1.895	1.890	1.895
0.049	-0.015	0.000	0.000	0.000	0.000	0.039	2.720	1.899	1.890	1.875	1.890	1.890	1.890
0.049	0.005	-0.005	0.005	0.000	0.000	0.039	2.725	1.904	1.895	1.880	1.895	1.890	1.890
0.020	-0.010	0.000	-0.005	-0.005	-0.024	0.039	2.710	1.890	1.890	1.885	1.895	1.885	1.885
0.000	-0.005	-0.005	-0.015	0.000	-0.005	0.039	2.656	1.880	1.890	1.885	1.895	1.890	1.890
0.005	-0.010	-0.005	-0.015	0.000	0.000	0.039	2.646	1.875	1.885	1.885	1.895	1.890	1.890
-0.015	-0.015	-0.005	-0.010	-0.005	0.010	0.039	2.695	1.875	1.880	1.885	1.899	1.890	1.895
-0.024	-0.020	0.010	0.000	0.005	0.010	0.039	2.729	1.880	1.875	1.885	1.904	1.895	1.895
-0.029	-0.015	0.010	0.000	0.020	0.015	0.039	2.666	1.880	1.880	1.880	1.904	1.899	1.899
-0.015	0.005	0.000	0.005	0.034	0.005	0.039	2.715	1.890	1.885	1.880	1.899	1.904	1.895
-0.015	0.010	0.000	0.005	0.024	0.015	0.039	2.700	1.890	1.885	1.880	1.899	1.899	1.895
0.005	0.000	-0.005	0.015	0.010	0.005	0.039	2.681	1.890	1.885	1.880	1.899	1.895	1.895
0.000	0.000	-0.005	0.010	-0.010	0.005	0.039	2.671	1.885	1.880	1.880	1.899	1.890	1.890
-0.034	0.000	0.005	0.010	-0.024	0.024	0.039	2.695	1.870	1.875	1.880	1.899	1.890	1.895
-0.103	0.000	0.005	0.005	-0.029	0.034	0.039	2.681	1.860	1.870	1.875	1.899	1.890	1.895
-0.103	0.000	0.005	0.005	-0.020	0.039	0.039	2.676	1.865	1.870	1.875	1.895	1.890	1.899
-0.054	0.000	0.010	0.000	-0.020	0.034	0.039	2.681	1.885	1.875	1.875	1.895	1.890	1.895
-0.020	0.015	0.005	0.000	-0.015	0.044	0.039	2.666	1.895	1.880	1.875	1.895	1.890	1.895
0.020	0.000	0.000	0.000	-0.015	0.020	0.039	2.705	1.909	1.885	1.875	1.895	1.890	1.885
0.088	-0.005	0.005	0.005	0.000	0.000	0.039	2.690	1.919	1.895	1.880	1.899	1.895	1.885
0.122	-0.005	0.000	0.010	0.005	-0.015	0.034	2.686	1.914	1.904	1.885	1.899	1.899	1.880
0.127	0.000	0.000	0.005	0.029	-0.020	0.039	2.681	1.909	1.904	1.890	1.899	1.899	1.885
0.098	0.010	0.000	0.000	0.039	-0.039	0.039	2.695	1.895	1.904	1.895	1.904	1.904	1.885
0.083	0.000	0.005	-0.015	0.049	-0.059	0.039	2.681	1.885	1.895	1.895	1.899	1.904	1.885
0.039	-0.005	0.005	-0.010	0.044	-0.068	0.039	2.681	1.870	1.885	1.890	1.909	1.904	1.890
0.015	-0.005	0.000	-0.005	0.049	-0.054	0.039	2.700	1.870	1.875	1.885	1.909	1.904	1.895
-0.020	0.000	-0.005	0.000	0.039	-0.024	0.039	2.695	1.865	1.875	1.880	1.904	1.899	1.904
-0.034	0.005	0.000	-0.005	-0.005	-0.010	0.039	2.681	1.870	1.875	1.880	1.904	1.890	1.899
-0.029	0.000	0.000	0.005	-0.020	-0.010	0.039	2.690	1.870	1.870	1.875	1.904	1.885	1.899
-0.034	-0.005	-0.005	0.020	-0.015	0.000	0.039	2.690	1.880	1.870	1.875	1.904	1.895	1.899
-0.029	0.024	0.000	0.015	-0.005	0.005	0.039	2.690	1.880	1.880	1.875	1.899	1.895	1.899
-0.039	0.020	0.000	0.010	0.000	-0.005	0.039	2.695	1.880	1.875	1.875	1.895	1.895	1.895
-0.039	0.015	0.000	0.005	-0.005	0.024	0.039	2.690	1.890	1.875	1.875	1.895	1.890	1.899
-0.024	0.015	0.010	0.005	-0.024	0.015	0.039	2.676	1.890	1.880	1.875	1.895	1.885	1.895
-0.029	0.005	0.000	0.010	-0.024	-0.020	0.039	2.632	1.880	1.875	1.875	1.895	1.885	1.885
-0.020	0.000	0.000	0.005	-0.024	0.005	0.039	2.646	1.880	1.880	1.875	1.890	1.890	1.895
-0.020	0.000	-0.005	0.000	-0.010	0.015	0.039	2.739	1.880	1.875	1.875	1.890	1.890	1.895
-0.005	0.005	0.000	-0.005	-0.005	0.024	0.039	2.773	1.899	1.880	1.875	1.895	1.895	1.895
-0.005	0.000	0.000	0.000	0.000	0.005	0.039	2.734	1.899	1.885	1.875	1.895	1.890	1.890
0.000	-0.029	0.000	0.000	-0.010	0.034	0.039	2.734	1.895	1.880	1.875	1.895	1.890	1.895
0.010	-0.039	0.005	0.000	0.005	0.020	0.039	2.739	1.904	1.880	1.880	1.899	1.895	1.890
0.015	0.010	0.000	0.000	0.015	0.029	0.039	2.690	1.904	1.904	1.885	1.899	1.895	1.895
0.015	0.020	0.000	-0.005	0.015	-0.005	0.039	2.710	1.890	1.904	1.890	1.899	1.895	1.890
0.010	0.024	0.000	-0.010	0.015	0.015	0.039	2.637	1.880	1.899	1.890	1.899	1.895	1.895
0.029	0.000	0.000	0.000	0.005	0.015	0.039	2.651	1.885	1.890	1.890	1.904	1.895	1.895
0.029	0.005	0.000	0.000	0.010	0.015	0.039	2.715	1.890	1.885	1.890	1.904	1.895	1.895
0.010	0.000	0.005	0.000	-0.005	0.000	0.039	2.686	1.880	1.885	1.890	1.904	1.895	1.890
-0.020	0.015	0.000	0.000	-0.020	0.000	0.039	2.612	1.865	1.880	1.885	1.904	1.895	1.885
-0.020	0.024	0.000	0.010	-0.024	-0.020	0.039	2.666	1.870	1.880	1.880	1.904	1.890	1.885
-0.010	-0.005	0.000	0.010	-0.020	-0.005	0.039	2.642	1.870	1.870	1.875	1.904	1.895	1.890
-0.020	-0.024	0.000	0.005	-0.020	-0.005	0.039	2.700	1.875	1.865	1.870	1.899	1.895	1.895
-0.005	-0.015	0.000	0.010	-0.015	-0.010	0.039	2.676	1.880	1.870	1.870	1.895	1.895	1.890
0.000	-0.005	0.005	0.000	0.000	0.005	0.039	2.690	1.885	1.875	1.870	1.890	1.899	1.899
0.005	0.000	0.005	-0.005	0.010	-0.005	0.039	2.695	1.890	1.880	1.875	1.890	1.899	1.895
0.015	-0.005	-0.005	-0.015	0.024	-0.010	0.039	2.676	1.890	1.880	1.875	1.890	1.895	1.895
0.024	-0.005	-0.005	-0.015	0.034	-0.020	0.039	2.671	1.890	1.885	1.875	1.890	1.895	1.895
0.024	-0.005	0.000	-0.005	0.024	0.000	0.039	2.676	1.890	1.885	1.880	1.895	1.890	1.899
0.015	-0.005	-0.005	0.005	0.020	0.000	0.039	2.700	1.885	1.880	1.880	1.899	1.890	1.895
0.010	-0.005	0.005	0.000	0.005	0.015	0.039	2.676	1.885	1.885	1.885	1.899	1.890	1.895
0.010	-0.005	0.000	0.010	0.000	0.000	0.039	2.681	1.880	1.880	1.880	1.899	1.890	1.890
0.010	0.000	0.000	0.034	-0.005	0.005	0.039	2.700	1.885	1.880	1.880	1.909	1.890	1.890
0.000	-0.005	0.005	0.039	-0.005	-0.005	0.039	2.681	1.880	1.880	1.880	1.904	1.895	1.890
-0.015	0.000	0.005	0.034	0.000	0.015	0.039	2.705	1.880	1.880	1.880	1.904	1.899	1.899
-0.005	-0.010	0.005	0.005	0.010	0.015	0.039	2.676	1.885	1.875	1.875	1.895	1.895	1.895
-0.005	-0.005	0.005	-0.020	0.015	0.010	0.039	2.705	1.885	1.880	1.880	1.885	1.890	1.895
-0.005	0.024	0.005	-0.010	0.015	0.005	0.039	2.681	1.885	1.890	1.880	1.895	1.895	1.890
-0.024	0.029	0.005	0.000	0.015	0.005	0.039	2.705	1.880	1.890	1.880	1.899	1.895	1.890
-0.020	0.020	0.000	-0.010	0.005	0.005	0.039	2.686	1.885	1.885	1.880	1.895	1.890	1.890
-0.020	0.029	0.000	-0.010	0.000	0.005	0.039	2.700	1.885	1.885	1.880	1.895	1.890	1.890
-0.005	0.005	0.005	-0.015	-0.010	0.000	0.039	2.700	1.890	1.880	1.880	1.899	1.890	1.885
0.005	0.000	0.000	-0.010	-0.010	0.000	0.039	2.695	1.890	1.885	1.880	1.899	1.890	1.890
0.020	0.000	0.005	-0.005	-0.005	0.010	0.039	2.700	1.895	1.880	1.880	1.899	1.890	1.890
0.010	-0.010	0.005	-0.005	-0.010	-0.010	0.039	2.690	1.890	1.885	1.880	1.899	1.890	1.885
-0.005	0.005	0.005	-0.005	-0.010	0.005	0.039	2.700	1.885	1.890	1.880	1.899	1.895	1.890
-0.005	-0.005	0.000	-0.005	0.000	-0.005	0.039	2.646	1.880	1.880	1.880	1.899	1.895	1.890
0.015	-0.015	0.005	0.000	-0.005	0.005	0.039	2.651	1.880	1.875	1.880	1.899	1.895	1.895
0.010	0.015	0.000	0.000	-0.005	0.005	0.039	2.637	1.875	1.880	1.880	1.899	1.895	1.895
0.005	0.005	0.000	0.000	-0.015	0.000	0.034	2.646	1.870	1.875	1.875	1.899	1.895	1.890
-0.005	0.015	0.000	-0.005	-0.015	0.005	0.039	2.642	1.870	1.875	1.875	1.895	1.895	1.895
-0.010	-0.005	0.000	-0.010	-0.005	-0.005	0.039	2.715	1.875	1.865	1.875	1.895	1.895	1.890
-0.005	-0.054	0.000	-0.005	-0.005	-0.024	0.039	2.710	1.875	1.855	1.870	1.890	1.890	1.885
0.010	-0.044	-0.005	0.000	0.000	0.005	0.039	2.627	1.875	1.870	1.870	1.890	1.890	1.895
0.015	0.005	-0.005	0.005	-0.005	0.005	0.039	2.627	1.875	1.880	1.870	1.895	1.890	1.895
0.010	0.015	0.000	0.024	-0.005	0.005	0.039	2.744	1.885	1.885	1.875	1.895	1.890	1.890
0.010	0.010	0.005	0.024	0.000	-0.005	0.039	2.671	1.880	1.880	1.880	1.895	1.890	1.890
-0.005	0.015	0.000	0.020	0.005	0.005	0.039	2.637	1.875	1.880	1.875	1.895	1.895	1.890
-0.005	-0.005	0.005	0.010	0.005	0.000	0.039	2.695	1.875	1.870	1.875	1.890	1.895	1.895
-0.010	0.000	0.005	-0.005	0.005	-0.005	0.039	2.612	1.875	1.875	1.875	1.890	1.890	1.890
-0.005	0.020	0.000	-0.015	0.010	0.000	0.039	2.681	1.880	1.880	1.875	1.885	1.890	1.890
-0.020	0.034	0.005	-0.010	0.010	0.005	0.039	2.651	1.875	1.880	1.875	1.890	1.890	1.890
-0.010	0.039	0.005	-0.005	0.010	0.000	0.039	2.695	1.880	1.880	1.875	1.895	1.890	1.890
-0.005	0.010	0.000	0.000	0.005	-0.005	0.039	2.666	1.875	1.870	1.875	1.895	1.890	1.885
0.015	0.005	0.005	0.005	0.010	-0.005	0.039	2.676	1.885	1.875	1.875	1.895	1.890	1.890
0.015	-0.010	0.000	0.010	-0.005	-0.015	0.039	2.686	1.885	1.870	1.875	1.895	1.885	1.880
0.000	-0.054	0.000	0.010	0.005	0.005	0.039	2.671	1.880	1.860	1.870	1.895	1.890	1.890
0.005	-0.015	0.000	0.005	0.000	0.005	0.039	2.666	1.880	1.875	1.870	1.890	1.890	1.890
0.020	-0.005	0.000	0.005	0.000	0.010	0.039	2.671	1.880	1.875	1.870	1.890	1.885	1.885
0.020	-0.020	0.000	0.005	-0.005	0.005	0.039	2.671	1.880	1.875	1.870	1.890	1.885	1.890
0.000	-0.005	-0.005	-0.015	-0.010	0.005	0.039	2.695	1.875	1.875	1.875	1.885	1.880	1.885
-0.005	0.005	0.005	-0.020	0.000	0.005	0.039	2.681	1.875	1.875	1.875	1.885	1.885	1.885
0.000	-0.015	0.000	-0.015	0.000	-0.010	0.039	2.705	1.880	1.875	1.875	1.885	1.885	1.880
-0.010	0.010	0.000	-0.005	0.005	-0.010	0.039	2.705	1.880	1.880	1.875	1.895	1.885	1.880
-0.010	0.015	0.000	0.015	0.005	0.015	0.039	2.695	1.880	1.880	1.875	1.899	1.890	1.890
-0.005	0.010	0.000	0.029	0.000	0.010	0.039	2.686	1.885	1.880	1.875	1.899	1.890	1.885
0.000	-0.005	0.000	0.034	0.000	0.005	0.039	2.681	1.880	1.875	1.875	1.899	1.895	1.885
0.010	-0.015	0.000	0.024	0.010	0.015	0.039	2.700	1.890	1.880	1.875	1.895	1.895	1.890
0.010	-0.005	0.000	0.024	0.005	0.005	0.039	2.695	1.890	1.885	1.875	1.895	1.895	1.890
0.005	0.010	0.000	0.005	0.010	0.000	0.039	2.695	1.885	1.890	1.880	1.890	1.890	1.890
0.005	0.024	0.005	0.000	0.005	0.005	0.039	2.676	1.885	1.890	1.880	1.890	1.890	1.890
0.000	0.010	0.005	-0.010	0.005	0.010	0.039	2.700	1.885	1.885	1.880	1.890	1.890	1.890
-0.024	0.010	0.005	-0.015	0.005	0.005	0.039	2.671	1.875	1.880	1.880	1.890	1.890	1.885
-0.015	0.015	0.005	-0.020	0.010	0.005	0.039	2.700	1.880	1.880	1.880	1.890	1.890	1.885
-0.020	0.020	0.000	-0.020	0.005	-0.005	0.044	2.681	1.875	1.875	1.875	1.895	1.890	1.885
-0.054	-0.020	0.005	-0.005	0.000	-0.024	0.039	2.676	1.865	1.865	1.875	1.895	1.885	1.885
-0.073	-0.020	0.010	0.000	-0.005	0.010	0.039	2.642	1.860	1.860	1.870	1.899	1.890	1.890
-0.059	-0.010	0.005	0.020	0.000	-0.005	0.039	2.651	1.870	1.865	1.870	1.895	1.890	1.885
-0.010	0.000	0.000	0.015	0.005	0.010	0.039	2.642	1.890	1.875	1.870	1.890	1.890	1.895
0.024	0.020	-0.010	0.010	0.000	-0.005	0.039	2.627	1.895	1.885	1.870	1.890	1.890	1.890
0.063	0.020	-0.005	0.000	0.000	0.005	0.039	2.720	1.904	1.890	1.875	1.890	1.890	1.890
0.103	0.020	0.000	0.005	0.005	0.005	0.039	2.690	1.919	1.895	1.885	1.890	1.890	1.890
0.132	0.005	0.000	-0.005	0.010	0.010	0.039	2.734	1.919	1.899	1.885	1.895	1.890	1.890
0.127	0.005	0.000	-0.005	0.000	0.005	0.039	2.739	1.899	1.899	1.890	1.895	1.890	1.890
0.098	0.005	0.000	-0.005	-0.005	0.005	0.039	2.734	1.899	1.899	1.890	1.899	1.890	1.890
0.068	0.000	0.000	0.005	0.000	-0.010	0.039	2.715	1.885	1.890	1.890	1.904	1.895	1.885
0.029	-0.005	0.000	0.010	0.005	0.005	0.039	2.661	1.870	1.885	1.890	1.909	1.899	1.890
-0.034	0.005	0.000	0.000	0.000	0.005	0.039	2.651	1.855	1.875	1.885	1.904	1.895	1.895
-0.044	0.010	0.000	0.000	0.005	0.005	0.039	2.686	1.860	1.870	1.880	1.899	1.899	1.895
-0.063	-0.010	-0.005	-0.005	0.015	0.010	0.039	2.632	1.851	1.860	1.875	1.899	1.899	1.895
-0.073	0.000	0.000	0.000	0.010	0.010	0.039	2.671	1.855	1.860	1.875	1.895	1.895	1.895
-0.068	-0.015	0.005	-0.005	0.005	0.005	0.039	2.651	1.865	1.855	1.870	1.895	1.890	1.895
-0.059	0.000	0.015	-0.005	0.005	-0.005	0.039	2.695	1.870	1.865	1.870	1.890	1.890	1.890
-0.049	0.005	0.005	0.010	0.010	-0.005	0.039	2.671	1.875	1.865	1.870	1.890	1.890	1.890
-0.024	0.000	0.010	0.005	0.005	0.000	0.039	2.690	1.880	1.870	1.870	1.890	1.890	1.890
-0.020	0.000	0.010	-0.005	0.000	0.000	0.039	2.690	1.885	1.875	1.870	1.885	1.885	1.890
0.000	-0.020	0.010	-0.010	0.000	-0.020	0.039	2.681	1.890	1.870	1.870	1.885	1.880	1.880
0.005	-0.015	0.010	-0.005	0.005	0.000	0.039	2.671	1.890	1.880	1.870	1.885	1.885	1.890
0.000	0.005	0.010	-0.005	0.000	0.010	0.039	2.671	1.885	1.885	1.875	1.890	1.880	1.890
0.015	0.029	0.010	0.010	0.000	0.000	0.039	2.686	1.890	1.890	1.880	1.895	1.885	1.885
0.015	0.024	0.010	0.015	-0.010	0.005	0.039	2.700	1.890	1.890	1.880	1.899	1.885	1.885
0.010	0.024	0.010	0.020	-0.005	0.005	0.039	2.681	1.885	1.890	1.885	1.899	1.890	1.885
0.015	0.005	0.005	0.020	0.000	0.010	0.039	2.690	1.885	1.880	1.880	1.899	1.895	1.890
0.015	-0.010	0.000	0.005	-0.005	-0.005	0.039	2.695	1.885	1.875	1.875	1.895	1.890	1.885
0.015	-0.010	0.000	0.010	-0.010	0.000	0.039	2.710	1.885	1.880	1.875	1.895	1.890	1.885
0.020	-0.010	-0.005	0.010	-0.010	-0.015	0.039	2.676	1.885	1.880	1.875	1.895	1.890	1.885
0.024	-0.010	-0.005	0.010	0.000	0.005	0.039	2.681	1.885	1.875	1.875	1.899	1.895	1.890
0.015	0.005	-0.005	0.010	0.010	-0.005	0.039	2.676	1.880	1.885	1.880	1.895	1.895	1.890
-0.005	0.024	-0.010	-0.010	-0.005	0.005	0.039	2.695	1.875	1.885	1.880	1.890	1.885	1.895
-0.020	0.020	-0.010	-0.005	-0.005	0.010	0.039	2.686	1.875	1.875	1.875	1.895	1.890	1.890
-0.044	0.010	-0.005	0.000	-0.005	0.005	0.039	2.671	1.870	1.870	1.875	1.895	1.890	1.890
-0.029	0.010	0.000	0.000	0.000	0.005	0.039	2.681	1.875	1.870	1.875	1.895	1.890	1.885
-0.015	0.010	-0.005	-0.005	0.015	0.005	0.039	2.700	1.880	1.875	1.875	1.895	1.895	1.890
-0.015	0.000	-0.005	-0.010	0.015	-0.005	0.039	2.671	1.875	1.875	1.875	1.890	1.890	1.890
-0.010	0.005	0.000	-0.005	0.010	0.000	0.039	2.681	1.885	1.875	1.875	1.895	1.890	1.890
-0.005	0.000	0.000	0.000	-0.005	0.005	0.039	2.656	1.885	1.875	1.875	1.895	1.885	1.885
0.020	0.005	-0.005	-0.005	-0.010	0.005	0.039	2.642	1.885	1.880	1.875	1.890	1.885	1.890
0.034	0.005	-0.005	0.000	-0.005	0.005	0.039	2.651	1.885	1.880	1.875	1.895	1.890	1.890
0.039	-0.015	0.000	0.010	-0.015	0.015	0.039	2.642	1.895	1.875	1.875	1.895	1.885	1.890
0.034	-0.015	0.000	0.005	-0.015	-0.015	0.039	2.637	1.885	1.880	1.875	1.895	1.890	1.880
0.034	-0.005	0.005	0.010	-0.020	0.005	0.039	2.729	1.890	1.885	1.880	1.899	1.890	1.890
0.024	-0.005	0.000	0.015	-0.015	0.010	0.039	2.627	1.885	1.885	1.880	1.899	1.890	1.890
0.024	-0.010	0.000	0.015	-0.005	0.005	0.039	2.734	1.885	1.880	1.880	1.899	1.895	1.890
0.005	-0.005	0.000	0.010	-0.005	-0.005	0.039	2.739	1.885	1.885	1.880	1.899	1.895	1.885
0.000	-0.005	-0.005	0.010	-0.005	0.000	0.039	2.627	1.880	1.880	1.875	1.895	1.890	1.890
-0.005	-0.020	-0.005	0.015	-0.015	-0.010	0.039	2.729	1.885	1.880	1.875	1.895	1.890	1.885
-0.010	-0.024	0.000	0.000	-0.005	-0.015	0.039	2.676	1.880	1.875	1.875	1.895	1.895	1.885
-0.005	0.000	-0.005	-0.020	0.000	-0.020	0.039	2.720	1.885	1.880	1.875	1.890	1.890	1.890
-0.010	0.005	0.000	-0.034	-0.005	0.005	0.039	2.690	1.885	1.885	1.880	1.885	1.885	1.890
-0.010	0.000	0.005	-0.029	0.000	0.005	0.039	2.729	1.890	1.880	1.880	1.890	1.890	1.890
-0.010	0.000	0.005	-0.015	0.000	0.010	0.039	2.666	1.880	1.885	1.880	1.895	1.890	1.895
0.010	0.015	0.005	-0.005	-0.010	0.005	0.039	2.729	1.895	1.885	1.885	1.899	1.890	1.890
0.000	0.034	0.005	0.005	-0.005	0.010	0.039	2.710	1.890	1.895	1.885	1.909	1.895	1.890
-0.015	0.024	0.015	0.020	-0.015	0.005	0.039	2.676	1.885	1.890	1.890	1.909	1.895	1.890
-0.005	0.015	0.015	0.015	-0.020	0.010	0.039	2.700	1.880	1.885	1.890	1.909	1.895	1.895
0.000	0.000	0.015	0.010	-0.015	0.010	0.039	2.681	1.885	1.880	1.880	1.904	1.899	1.895
-0.005	-0.010	0.010	0.005	-0.015	0.005	0.039	2.676	1.880	1.875	1.880	1.899	1.899	1.895
0.005	-0.015	0.010	0.005	0.000	0.005	0.039	2.676	1.885	1.875	1.880	1.899	1.904	1.895
0.015	0.000	0.005	0.010	0.015	-0.010	0.039	2.676	1.880	1.880	1.880	1.899	1.904	1.895
0.020	0.015	0.010	0.020	0.029	-0.005	0.039	2.695	1.875	1.880	1.880	1.904	1.904	1.899
-0.005	0.005	0.005	0.024	0.039	-0.024	0.039	2.690	1.875	1.875	1.880	1.899	1.904	1.895
-0.005	0.005	-0.005	0.015	0.039	0.005	0.039	2.681	1.875	1.875	1.875	1.899	1.904	1.904
-0.005	0.000	-0.010	0.005	0.044	-0.005	0.039	2.690	1.880	1.875	1.875	1.890	1.899	1.899
-0.010	-0.005	-0.005	-0.010	0.034	-0.005	0.039	2.676	1.880	1.870	1.875	1.890	1.890	1.895
0.000	-0.010	0.005	-0.010	0.029	-0.005	0.039	2.690	1.885	1.875	1.875	1.890	1.890	1.895
0.000	0.000	-0.005	-0.010	0.024	0.005	0.039	2.681	1.885	1.880	1.875	1.890	1.885	1.895
0.000	0.010	0.000	0.000	0.015	0.000	0.039	2.681	1.885	1.880	1.875	1.890	1.885	1.890
0.000	0.000	0.000	-0.005	0.020	-0.020	0.039	2.681	1.880	1.880	1.875	1.890	1.885	1.885
0.005	0.000	-0.005	0.000	0.020	-0.015	0.039	2.671	1.880	1.880	1.875	1.895	1.885	1.885
-0.005	0.000	-0.005	-0.005	0.020	-0.010	0.039	2.695	1.875	1.875	1.875	1.895	1.885	1.885
0.010	-0.015	-0.005	-0.005	0.020	-0.015	0.039	2.666	1.880	1.875	1.875	1.895	1.890	1.890
0.015	0.005	-0.005	-0.005	0.020	0.005	0.039	2.705	1.885	1.880	1.875	1.895	1.890	1.890
0.000	0.000	0.000	-0.005	0.010	0.010	0.039	2.681	1.880	1.880	1.880	1.895	1.885	1.890
-0.005	0.005	-0.005	0.005	0.005	0.010	0.039	2.690	1.880	1.880	1.875	1.895	1.885	1.890
-0.010	-0.020	0.000	0.000	-0.005	0.000	0.039	2.695	1.880	1.875	1.875	1.895	1.885	1.885
-0.010	-0.020	-0.005	-0.005	-0.010	0.005	0.039	2.686	1.880	1.875	1.875	1.895	1.885	1.885
0.005	0.005	-0.005	-0.005	-0.015	0.005	0.039	2.646	1.880	1.880	1.875	1.890	1.885	1.890
-0.010	0.010	0.000	0.010	-0.020	0.000	0.039	2.651	1.875	1.875	1.875	1.895	1.885	1.880
-0.005	0.005	0.000	0.010	-0.024	0.010	0.039	2.642	1.870	1.875	1.875	1.895	1.885	1.885
-0.010	0.005	-0.005	0.020	-0.024	-0.010	0.039	2.642	1.870	1.875	1.875	1.895	1.885	1.880
-0.005	0.015	0.000	0.010	-0.024	0.005	0.039	2.637	1.870	1.875	1.875	1.895	1.890	1.885
-0.010	0.015	0.005	0.000	-0.020	-0.015	0.039	2.734	1.875	1.870	1.875	1.890	1.890	1.880
-0.005	0.015	0.005	-0.005	-0.010	0.005	0.039	2.715	1.875	1.870	1.875	1.890	1.890	1.890
-0.015	0.000	0.005	0.005	0.000	0.010	0.039	2.725	1.880	1.870	1.875	1.895	1.890	1.890
-0.015	0.010	0.010	0.029	0.015	0.015	0.039	2.632	1.880	1.875	1.875	1.899	1.899	1.895
-0.005	0.000	0.005	0.083	0.029	-0.005	0.039	2.720	1.890	1.875	1.875	1.909	1.904	1.895
0.000	-0.024	0.005	0.049	0.034	-0.005	0.039	2.656	1.885	1.870	1.870	1.895	1.899	1.895
0.015	-0.010	0.005	-0.005	0.039	0.005	0.039	2.651	1.885	1.875	1.870	1.880	1.895	1.899
0.005	-0.005	0.010	-0.034	0.034	0.005	0.039	2.710	1.890	1.880	1.870	1.875	1.885	1.895
0.020	-0.020	0.005	-0.054	0.020	0.010	0.039	2.612	1.885	1.880	1.875	1.875	1.875	1.890
0.029	-0.020	0.005	-0.044	0.010	0.005	0.039	2.666	1.885	1.875	1.875	1.880	1.875	1.885
0.020	-0.020	0.005	-0.024	0.000	0.010	0.039	2.744	1.875	1.875	1.875	1.890	1.875	1.885
0.010	0.000	0.000	-0.015	-0.020	0.010	0.039	2.695	1.880	1.885	1.875	1.895	1.875	1.875
-0.005	0.015	0.005	0.000	-0.024	0.005	0.039	2.686	1.875	1.885	1.880	1.899	1.875	1.875
-0.034	0.015	0.000	0.005	-0.034	0.020	0.039	2.700	1.870	1.875	1.875	1.899	1.880	1.880
-0.073	0.010	0.000	0.010	-0.039	0.005	0.034	2.671	1.860	1.870	1.870	1.895	1.880	1.880
-0.054	0.000	-0.005	0.000	-0.024	0.005	0.039	2.671	1.870	1.865	1.870	1.895	1.885	1.880
-0.029	0.010	0.000	0.000	-0.024	-0.015	0.039	2.681	1.880	1.870	1.870	1.895	1.885	1.875
0.010	0.005	0.000	0.005	-0.024	0.010	0.039	2.666	1.885	1.875	1.870	1.890	1.890	1.885
0.049	-0.010	0.000	0.005	-0.020	-0.005	0.039	2.671	1.890	1.875	1.875	1.890	1.885	1.880
0.068	0.010	0.000	0.000	-0.015	0.020	0.039	2.690	1.899	1.890	1.875	1.890	1.890	1.890
0.088	0.015	-0.005	-0.010	-0.010	0.005	0.039	2.681	1.899	1.890	1.880	1.890	1.890	1.885
0.088	0.024	0.000	-0.015	-0.010	0.005	0.039	2.681	1.895	1.895	1.880	1.890	1.890	1.885
0.068	0.029	0.000	-0.010	0.000	0.010	0.039	2.695	1.890	1.890	1.890	1.899	1.895	1.890
0.039	0.010	-0.005	0.010	0.005	-0.005	0.039	2.710	1.885	1.885	1.885	1.904	1.895	1.885
0.010	0.020	-0.005	0.015	0.000	0.015	0.039	2.671	1.875	1.885	1.885	1.904	1.899	1.895
-0.005	0.015	0.005	0.010	0.010	0.020	0.039	2.671	1.870	1.875	1.880	1.904	1.904	1.899
-0.029	0.020	0.005	0.015	0.024	0.010	0.039	2.666	1.865	1.875	1.880	1.904	1.904	1.899
-0.024	0.024	-0.005	0.020	0.015	-0.005	0.039	2.676	1.870	1.870	1.875	1.904	1.899	1.890
-0.029	-0.015	0.000	0.015	-0.005	-0.005	0.039	2.690	1.875	1.865	1.870	1.895	1.895	1.895
-0.020	-0.020	0.000	0.015	-0.005	-0.029	0.039	2.656	1.875	1.865	1.870	1.895	1.890	1.885
-0.020	-0.044	0.000	0.005	-0.010	0.015	0.039	2.695	1.875	1.860	1.865	1.890	1.890	1.899
-0.020	-0.034	-0.005	0.000	-0.005	0.010	0.039	2.671	1.875	1.865	1.865	1.885	1.885	1.895
-0.020	-0.010	0.005	0.005	-0.010	-0.005	0.039	2.676	1.875	1.875	1.870	1.885	1.880	1.885
-0.020	-0.005	0.010	0.000	-0.020	0.005	0.039	2.686	1.875	1.875	1.870	1.885	1.880	1.885
0.000	0.005	0.005	0.000	-0.010	0.000	0.039	2.671	1.885	1.880	1.870	1.885	1.880	1.885
0.020	0.000	0.005	0.000	0.000	-0.010	0.039	2.642	1.885	1.880	1.875	1.885	1.885	1.885
0.020	0.015	0.000	0.000	0.024	0.005	0.039	2.656	1.885	1.880	1.875	1.890	1.890	1.890
0.020	0.024	-0.005	-0.005	0.039	-0.010	0.039	2.651	1.890	1.885	1.875	1.890	1.895	1.890
-0.005	0.024	0.000	0.000	0.039	0.015	0.039	2.646	1.880	1.885	1.880	1.895	1.895	1.895
0.000	0.015	0.005	0.005	0.054	0.010	0.039	2.627	1.875	1.880	1.880	1.895	1.895	1.895
-0.005	-0.005	0.000	0.000	0.034	0.000	0.039	2.646	1.880	1.875	1.875	1.895	1.890	1.890
-0.005	-0.005	0.010	0.005	0.039	-0.015	0.039	2.734	1.885	1.875	1.880	1.895	1.890	1.885
-0.015	-0.005	0.010	0.020	0.039	-0.005	0.039	2.749	1.885	1.880	1.880	1.899	1.895	1.890
-0.054	0.020	-0.005	0.029	0.029	0.000	0.039	2.632	1.875	1.880	1.875	1.899	1.890	1.890
-0.063	0.005	0.000	0.024	0.010	0.005	0.039	2.749	1.885	1.875	1.875	1.895	1.885	1.890
-0.068	-0.005	0.000	-0.005	0.000	0.000	0.039	2.646	1.875	1.875	1.875	1.885	1.880	1.885
-0.054	-0.010	-0.005	-0.020	-0.010	-0.005	0.039	2.646	1.875	1.870	1.870	1.880	1.875	1.885
-0.020	-0.010	0.000	-0.034	-0.005	-0.015	0.039	2.686	1.885	1.875	1.870	1.880	1.880	1.875
0.015	-0.015	-0.005	-0.010	0.000	0.015	0.039	2.617	1.890	1.880	1.870	1.890	1.885	1.885
0.054	0.000	-0.005	-0.005	-0.005	0.015	0.039	2.671	1.895	1.890	1.875	1.895	1.880	1.885
0.054	0.005	0.000	0.024	-0.020	-0.005	0.039	2.749	1.899	1.890	1.885	1.899	1.880	1.880
0.073	0.020	-0.005	0.034	-0.024	0.005	0.039	2.695	1.899	1.895	1.885	1.904	1.885	1.880
0.068	0.015	-0.005	0.010	-0.020	-0.010	0.039	2.676	1.895	1.890	1.885	1.895	1.885	1.875
0.039	0.020	-0.005	0.005	-0.020	0.000	0.039	2.671	1.875	1.890	1.885	1.899	1.890	1.885
0.005	0.000	0.005	0.000	-0.034	0.015	0.039	2.695	1.870	1.875	1.885	1.895	1.890	1.890
0.000	-0.024	0.020	-0.010	-0.044	-0.005	0.039	2.686	1.870	1.870	1.885	1.895	1.885	1.880
0.005	-0.024	0.015	-0.005	-0.034	-0.024	0.029	2.676	1.875	1.870	1.880	1.895	1.890	1.880
0.005	-0.024	0.010	0.000	-0.034	-0.029	0.029	2.671	1.870	1.870	1.875	1.895	1.890	1.885
0.000	-0.015	0.005	0.000	-0.034	-0.034	0.029	2.666	1.875	1.875	1.875	1.895	1.890	1.885
0.010	0.000	0.005	0.005	-0.010	0.010	0.029	2.690	1.880	1.880	1.875	1.895	1.899	1.899
0.000	0.034	-0.005	0.015	-0.005	0.024	0.029	2.671	1.875	1.885	1.875	1.899	1.899	1.904
-0.024	0.049	-0.005	0.000	0.029	0.015	0.029	2.695	1.875	1.885	1.880	1.895	1.904	1.904
-0.039	0.054	-0.005	-0.005	0.039	0.010	0.029	2.700	1.875	1.880	1.880	1.895	1.904	1.899
-0.034	0.034	-0.005	-0.005	0.034	-0.005	0.029	2.695	1.875	1.875	1.875	1.895	1.899	1.895
-0.015	-0.005	0.000	-0.010	0.024	0.005	0.029	2.681	1.880	1.870	1.875	1.890	1.890	1.899
0.000	-0.020	0.005	-0.005	0.024	0.000	0.029	2.671	1.885	1.870	1.870	1.890	1.890	1.895
0.015	-0.020	0.005	-0.005	0.020	0.015	0.029	2.705	1.885	1.870	1.870	1.890	1.890	1.895
0.010	-0.020	0.000	0.005	0.029	-0.005	0.029	2.705	1.885	1.875	1.870	1.895	1.890	1.890
0.015	-0.015	0.000	0.005	0.024	0.015	0.029	2.695	1.885	1.875	1.870	1.895	1.890	1.895
0.015	-0.005	0.000	0.015	0.015	0.015	0.029	2.676	1.885	1.880	1.870	1.895	1.885	1.890
0.015	0.000	-0.005	0.005	-0.010	0.000	0.029	2.686	1.880	1.885	1.875	1.890	1.880	1.885
-0.005	0.000	0.000	0.000	-0.010	-0.005	0.029	2.705	1.880	1.885	1.875	1.890	1.880	1.880
-0.005	0.005	0.005	-0.005	-0.005	-0.010	0.029	2.695	1.885	1.880	1.880	1.890	1.885	1.880
0.005	0.005	0.015	-0.005	0.005	-0.020	0.029	2.690	1.885	1.880	1.880	1.890	1.890	1.880
0.010	-0.015	0.005	-0.005	0.015	-0.010	0.029	2.690	1.885	1.875	1.880	1.895	1.890	1.885
0.005	0.000	0.015	0.010	0.024	0.000	0.029	2.646	1.880	1.880	1.880	1.899	1.895	1.890
0.005	-0.005	0.020	0.024	0.034	0.000	0.029	2.651	1.875	1.880	1.880	1.904	1.899	1.895
0.024	-0.005	0.010	0.010	0.054	0.010	0.029	2.773	1.890	1.880	1.880	1.899	1.904	1.899
-0.015	0.000	0.015	-0.010	0.034	0.005	0.029	2.627	1.880	1.880	1.875	1.890	1.895	1.895
-0.034	-0.015	0.005	-0.029	0.024	0.005	0.029	2.734	1.885	1.875	1.875	1.885	1.885	1.895
-0.039	-0.005	0.000	-0.039	0.005	0.005	0.029	2.739	1.890	1.880	1.875	1.885	1.880	1.885
-0.015	-0.005	-0.005	-0.034	-0.010	0.000	0.029	2.710	1.895	1.885	1.875	1.885	1.875	1.885
0.005	0.000	-0.005	-0.005	-0.024	0.000	0.029	2.632	1.890	1.890	1.880	1.899	1.875	1.880
0.049	0.005	-0.005	0.020	-0.034	0.005	0.029	2.642	1.895	1.890	1.880	1.904	1.880	1.880
0.044	0.000	-0.005	0.010	-0.039	-0.015	0.029	2.622	1.885	1.885	1.885	1.904	1.885	1.875
0.073	0.005	-0.005	0.010	-0.039	0.000	0.029	2.651	1.885	1.885	1.885	1.899	1.890	1.885
0.049	0.010	-0.010	0.010	-0.029	0.005	0.029	2.725	1.880	1.885	1.885	1.904	1.895	1.885
0.020	0.000	-0.005	0.010	-0.020	-0.005	0.029	2.690	1.875	1.880	1.885	1.904	1.899	1.890
-0.010	0.010	-0.005	0.005	-0.020	0.005	0.029	2.627	1.865	1.875	1.880	1.899	1.899	1.895
-0.015	0.000	-0.005	0.005	-0.010	0.020	0.029	2.690	1.870	1.870	1.875	1.899	1.899	1.895
-0.039	0.015	-0.005	0.005	0.000	0.024	0.029	2.754	1.875	1.870	1.875	1.899	1.899	1.899
-0.039	0.000	-0.005	0.000	-0.005	0.024	0.029	2.695	1.880	1.870	1.875	1.895	1.899	1.899
-0.029	0.005	0.000	0.005	-0.010	0.020	0.029	2.671	1.880	1.875	1.875	1.895	1.895	1.899
-0.010	-0.020	-0.005	0.000	-0.020	0.020	0.029	2.666	1.885	1.875	1.870	1.895	1.890	1.895
-0.005	-0.005	-0.005	0.005	0.005	0.010	0.029	2.690	1.885	1.880	1.875	1.895	1.899	1.890
-0.010	-0.005	0.000	0.010	0.024	0.005	0.029	2.690	1.885	1.880	1.875	1.895	1.899	1.895
0.005	-0.010	0.010	0.010	0.015	-0.015	0.029	2.666	1.885	1.880	1.880	1.895	1.895	1.885
-0.005	-0.024	0.010	0.010	-0.005	-0.034	0.029	2.666	1.880	1.875	1.875	1.895	1.885	1.880
-0.005	-0.024	0.015	0.015	-0.024	-0.054	0.029	2.690	1.875	1.875	1.875	1.895	1.880	1.875
-0.010	-0.034	0.005	0.010	-0.044	-0.068	0.029	2.676	1.880	1.870	1.875	1.890	1.875	1.875
-0.005	-0.034	0.005	0.005	-0.034	-0.059	0.029	2.671	1.875	1.875	1.875	1.890	1.880	1.875
0.000	-0.024	0.015	0.005	-0.005	-0.044	0.029	2.671	1.875	1.875	1.875	1.895	1.890	1.885
0.000	-0.015	0.005	0.024	0.005	-0.049	0.029	2.695	1.880	1.875	1.875	1.899	1.895	1.890
0.005	0.000	-0.005	0.024	0.000	0.000	0.029	2.705	1.890	1.885	1.875	1.895	1.895	1.899
-0.005	0.054	-0.010	0.010	0.000	0.034	0.029	2.681	1.885	1.899	1.880	1.890	1.895	1.909
0.005	0.049	-0.005	-0.005	0.005	0.029	0.029	2.700	1.890	1.895	1.885	1.890	1.895	1.904
0.005	0.078	0.000	-0.015	0.024	0.034	0.029	2.705	1.885	1.899	1.890	1.895	1.899	1.899
0.010	0.034	0.000	-0.015	0.054	0.029	0.029	2.700	1.890	1.880	1.885	1.899	1.904	1.904
0.010	0.020	-0.015	-0.015	0.073	0.039	0.029	2.695	1.890	1.885	1.880	1.899	1.909	1.904
0.010	0.015	-0.015	-0.010	0.063	0.020	0.029	2.671	1.890	1.880	1.880	1.899	1.899	1.899
0.005	0.010	-0.010	-0.010	0.049	0.015	0.029	2.710	1.890	1.885	1.880	1.899	1.895	1.895
0.005	0.039	0.000	-0.005	0.049	0.015	0.029	2.690	1.890	1.890	1.885	1.904	1.895	1.895
-0.005	0.015	0.005	0.010	0.059	0.015	0.029	2.671	1.885	1.880	1.885	1.904	1.899	1.899
0.000	-0.010	0.010	0.010	0.024	0.010	0.029	2.686	1.885	1.875	1.880	1.904	1.890	1.890
-0.005	-0.005	0.000	0.024	-0.005	0.000	0.029	2.676	1.880	1.875	1.875	1.904	1.885	1.890
0.000	-0.020	0.005	0.005	-0.034	0.005	0.029	2.637	1.875	1.875	1.875	1.895	1.875	1.885
-0.005	0.034	0.005	-0.005	-0.024	0.005	0.029	2.651	1.875	1.885	1.880	1.890	1.880	1.885
0.010	0.020	0.010	-0.024	-0.015	-0.010	0.029	2.642	1.875	1.880	1.875	1.890	1.885	1.875
0.005	-0.020	0.010	-0.024	-0.005	-0.015	0.029	2.637	1.870	1.865	1.875	1.890	1.885	1.880
0.000	-0.020	0.005	0.010	-0.010	0.010	0.029	2.729	1.875	1.870	1.875	1.904	1.890	1.890
0.005	-0.015	0.005	0.049	-0.005	0.005	0.029	2.681	1.890	1.875	1.875	1.909	1.899	1.890
0.015	-0.005	0.005	0.049	0.005	0.000	0.029	2.715	1.890	1.880	1.875	1.904	1.899	1.895
0.000	-0.024	0.010	0.005	0.010	0.000	0.029	2.754	1.895	1.875	1.875	1.890	1.895	1.890
0.000	-0.034	0.010	-0.015	0.000	-0.005	0.029	2.646	1.885	1.875	1.875	1.885	1.890	1.890
0.010	-0.024	0.005	-0.015	-0.015	0.000	0.024	2.715	1.890	1.880	1.875	1.885	1.885	1.890
-0.005	0.005	0.010	-0.015	-0.015	-0.005	0.029	2.651	1.880	1.890	1.880	1.890	1.880	1.885
-0.015	0.005	0.005	-0.020	-0.020	0.005	0.029	2.700	1.880	1.890	1.880	1.890	1.885	1.885
-0.015	0.010	0.005	-0.024	-0.024	-0.015	0.029	2.690	1.885	1.890	1.885	1.890	1.885	1.880
-0.010	0.010	0.000	-0.024	-0.020	-0.005	0.029	2.715	1.885	1.890	1.880	1.895	1.890	1.885
-0.010	0.005	0.000	-0.010	-0.010	0.010	0.029	2.661	1.880	1.885	1.880	1.899	1.895	1.890
-0.005	0.005	-0.005	0.005	-0.010	0.005	0.029	2.739	1.890	1.880	1.880	1.904	1.895	1.890
-0.010	0.005	0.000	0.010	-0.010	0.010	0.029	2.695	1.885	1.885	1.880	1.904	1.895	1.895
-0.010	0.015	-0.005	0.000	-0.005	0.000	0.029	2.676	1.885	1.885	1.880	1.899	1.895	1.890
0.005	-0.015	0.000	-0.005	-0.005	-0.024	0.029	2.676	1.885	1.875	1.880	1.899	1.895	1.885
0.010	0.000	0.000	-0.005	0.000	-0.020	0.029	2.690	1.885	1.880	1.880	1.895	1.895	1.890
0.000	-0.029	0.000	-0.010	-0.005	0.000	0.029	2.681	1.880	1.870	1.875	1.895	1.895	1.895
0.015	-0.054	0.010	0.000	-0.005	0.010	0.029	2.666	1.885	1.870	1.875	1.899	1.895	1.895
0.024	-0.029	0.005	0.005	0.005	0.010	0.029	2.666	1.885	1.880	1.880	1.899	1.895	1.895
0.015	0.034	-0.005	0.010	0.000	-0.020	0.029	2.710	1.890	1.899	1.880	1.899	1.895	1.890
0.024	0.073	0.000	0.015	-0.010	0.010	0.029	2.690	1.890	1.909	1.890	1.899	1.895	1.899
0.005	0.039	0.010	0.020	-0.010	0.010	0.029	2.681	1.885	1.890	1.890	1.909	1.899	1.895
0.000	0.000	0.000	0.024	-0.015	0.015	0.029	2.686	1.880	1.875	1.885	1.904	1.899	1.899
-0.005	0.000	0.005	0.015	-0.010	0.000	0.029	2.700	1.880	1.875	1.880	1.904	1.899	1.895
-0.010	-0.010	0.000	0.005	-0.010	0.020	0.029	2.700	1.885	1.875	1.880	1.899	1.899	1.899
-0.010	-0.015	-0.005	0.000	0.000	0.000	0.029	2.681	1.880	1.875	1.875	1.895	1.899	1.895
-0.010	0.000	0.000	-0.015	0.024	0.015	0.029	2.671	1.885	1.880	1.875	1.895	1.899	1.899
-0.005	-0.010	0.000	-0.024	0.020	0.000	0.024	2.681	1.885	1.875	1.875	1.890	1.895	1.895
-0.015	-0.010	0.000	-0.034	0.020	0.000	0.029	2.695	1.875	1.875	1.875	1.885	1.890	1.895
-0.059	-0.015	-0.005	-0.029	0.020	-0.005	0.029	2.700	1.875	1.875	1.875	1.890	1.890	1.890
-0.049	0.005	0.000	0.010	0.024	-0.005	0.029	2.690	1.875	1.880	1.880	1.899	1.895	1.895
-0.107	0.015	0.005	0.044	0.034	0.005	0.029	2.700	1.865	1.875	1.875	1.909	1.899	1.890
-0.161	0.010	0.000	0.034	0.029	0.005	0.029	2.666	1.851	1.865	1.870	1.899	1.899	1.895
-0.166	0.015	0.000	0.020	0.020	0.005	0.029	2.695	1.865	1.865	1.870	1.895	1.890	1.895
-0.059	-0.005	-0.005	0.020	0.010	-0.015	0.029	2.681	1.899	1.870	1.870	1.890	1.890	1.885
0.054	0.000	0.000	-0.005	0.000	-0.005	0.029	2.695	1.934	1.890	1.870	1.885	1.885	1.885
0.137	0.000	0.005	-0.005	-0.005	-0.005	0.029	2.646	1.938	1.909	1.885	1.890	1.885	1.890
0.239	0.000	-0.010	0.000	0.005	-0.010	0.029	2.646	1.948	1.919	1.890	1.895	1.890	1.885
0.293	0.005	-0.020	0.000	0.005	-0.010	0.029	2.642	1.943	1.929	1.899	1.899	1.890	1.885
0.264	0.015	-0.015	0.010	0.010	-0.005	0.029	2.646	1.909	1.924	1.904	1.909	1.895	1.890
0.195	0.015	-0.010	0.029	0.010	-0.015	0.029	2.715	1.885	1.909	1.909	1.919	1.899	1.890
0.117	0.015	-0.005	0.015	-0.005	0.015	0.029	2.725	1.870	1.895	1.904	1.919	1.904	1.899
0.029	0.005	0.000	0.010	0.000	0.000	0.029	2.720	1.855	1.880	1.899	1.919	1.904	1.899
-0.049	-0.005	-0.005	0.034	-0.005	0.010	0.029	2.720	1.846	1.865	1.885	1.919	1.909	1.904
-0.093	-0.020	0.000	0.068	-0.010	0.005	0.029	2.622	1.836	1.855	1.880	1.924	1.909	1.899
-0.122	-0.010	0.000	0.054	-0.010	0.000	0.029	2.734	1.851	1.851	1.870	1.909	1.904	1.899
-0.107	-0.005	0.015	0.015	-0.010	-0.005	0.029	2.666	1.865	1.855	1.870	1.890	1.904	1.899
-0.093	0.000	0.029	-0.020	-0.039	-0.020	0.029	2.705	1.875	1.860	1.865	1.875	1.885	1.895
-0.088	-0.010	0.020	-0.029	-0.088	0.015	0.029	2.681	1.875	1.865	1.865	1.870	1.870	1.895
-0.107	0.000	0.029	-0.059	-0.093	0.039	0.029	2.632	1.870	1.870	1.865	1.870	1.870	1.890
-0.088	0.029	0.024	-0.054	-0.073	0.044	0.029	2.676	1.880	1.880	1.865	1.875	1.875	1.890
-0.049	0.024	0.034	-0.015	-0.083	0.029	0.029	2.749	1.899	1.885	1.875	1.890	1.875	1.875
-0.010	0.020	0.034	0.005	-0.068	-0.005	0.029	2.695	1.909	1.890	1.880	1.899	1.880	1.875
-0.015	0.020	0.029	0.015	-0.034	-0.039	0.029	2.686	1.899	1.890	1.880	1.904	1.895	1.870
-0.117	0.024	0.020	0.000	0.024	-0.029	0.029	2.681	1.855	1.875	1.875	1.895	1.909	1.885
-0.273	0.005	0.010	-0.005	0.078	-0.034	0.029	2.671	1.816	1.855	1.870	1.895	1.919	1.890
-0.303	-0.005	-0.010	-0.010	0.088	-0.020	0.029	2.681	1.831	1.846	1.855	1.885	1.914	1.904
-0.220	-0.015	-0.024	-0.034	0.103	-0.024	0.029	2.671	1.870	1.851	1.851	1.875	1.904	1.904
-0.029	0.010	-0.015	-0.039	0.098	-0.015	0.029	2.681	1.934	1.880	1.860	1.875	1.890	1.899
0.151	0.034	-0.005	-0.034	0.078	-0.029	0.034	2.690	1.978	1.919	1.875	1.880	1.880	1.895
0.308	0.024	-0.020	0.015	0.088	0.010	0.029	2.690	2.002	1.943	1.895	1.904	1.890	1.904
0.435	0.005	-0.015	0.034	0.088	0.024	0.029	2.686	2.007	1.953	1.909	1.914	1.895	1.904
0.464	-0.015	-0.029	0.015	0.088	0.010	0.029	2.705	1.978	1.953	1.919	1.914	1.899	1.899
0.405	-0.010	-0.024	0.010	0.073	0.005	0.029	2.695	1.934	1.948	1.929	1.919	1.899	1.899
0.322	-0.015	-0.029	-0.005	0.059	-0.005	0.029	2.700	1.899	1.929	1.924	1.924	1.899	1.890
0.186	-0.010	-0.024	-0.020	0.059	-0.020	0.029	2.661	1.855	1.904	1.919	1.919	1.904	1.895
0.015	-0.015	-0.024	-0.034	0.059	0.005	0.029	2.671	1.807	1.870	1.904	1.919	1.909	1.904
-0.146	-0.015	-0.024	-0.034	0.068	0.015	0.029	2.700	1.787	1.841	1.890	1.914	1.909	1.909
-0.244	-0.024	0.000	0.000	0.054	0.029	0.029	2.686	1.787	1.821	1.875	1.919	1.909	1.909
-0.298	-0.020	0.000	0.020	0.010	0.020	0.029	2.695	1.807	1.816	1.860	1.914	1.895	1.904
-0.264	-0.015	0.010	0.029	-0.049	0.039	0.029	2.676	1.836	1.826	1.855	1.904	1.880	1.899
-0.190	-0.010	0.020	0.029	-0.073	0.024	0.029	2.700	1.870	1.841	1.851	1.890	1.875	1.890
-0.166	-0.005	0.039	0.029	-0.093	-0.020	0.029	2.676	1.885	1.855	1.855	1.885	1.875	1.870
-0.127	-0.005	0.054	0.034	-0.112	-0.020	0.029	2.583	1.880	1.865	1.865	1.885	1.870	1.875
-0.098	0.005	0.034	0.010	-0.127	-0.024	0.029	1.343	1.743	1.841	1.851	1.875	1.865	1.860
-0.054	0.000	0.024	-0.005	-0.171	-0.049	0.029	1.162	1.621	1.787	1.831	1.860	1.846	1.851
-0.005	-0.010	0.024	-0.010	-0.259	-0.015	0.029	1.123	1.543	1.729	1.802	1.851	1.821	1.855
0.034	-0.010	0.024	-0.010	-0.327	0.020	0.029	1.133	1.479	1.670	1.763	1.831	1.807	1.846
0.034	-0.005	0.020	0.000	-0.352	0.063	0.029	1.172	1.445	1.611	1.724	1.812	1.802	1.846
0.054	0.000	0.010	0.005	-0.210	0.068	0.029	1.108	1.406	1.558	1.680	1.787	1.836	1.846
0.039	-0.005	0.005	0.005	-0.063	0.049	0.029	1.108	1.377	1.514	1.636	1.758	1.851	1.846
0.039	0.005	0.005	0.005	0.020	-0.005	0.029	1.211	1.367	1.484	1.592	1.719	1.836	1.831
0.029	0.010	0.000	0.010	0.146	-0.024	0.029	1.211	1.362	1.455	1.558	1.685	1.831	1.826
0.024	0.015	-0.005	0.010	0.264	-0.024	0.029	1.123	1.353	1.431	1.523	1.646	1.812	1.826
0.015	0.010	-0.010	0.005	0.356	-0.024	0.029	1.113	1.348	1.411	1.494	1.611	1.777	1.816
-0.010	0.005	0.000	0.005	0.396	-0.015	0.029	1.172	1.333	1.387	1.465	1.577	1.733	1.797
-0.020	0.005	-0.020	0.005	0.347	0.020	0.029	1.152	1.333	1.377	1.436	1.543	1.670	1.768
0.005	-0.005	-0.015	0.005	0.225	0.000	0.029	1.123	1.338	1.367	1.416	1.514	1.592	1.714
0.020	0.005	-0.010	0.000	0.112	-0.005	0.029	1.187	1.343	1.367	1.401	1.484	1.528	1.655
0.039	0.005	-0.020	0.000	-0.015	0.005	0.029	1.191	1.343	1.362	1.387	1.460	1.479	1.611
0.068	0.010	-0.034	0.000	-0.083	0.034	0.029	1.147	1.333	1.362	1.377	1.440	1.450	1.567
0.044	0.010	-0.029	0.000	-0.078	0.024	0.029	1.191	1.318	1.353	1.372	1.426	1.445	1.533
0.029	0.005	-0.010	0.000	-0.049	0.034	0.029	1.177	1.304	1.338	1.367	1.416	1.445	1.514
0.005	0.005	-0.020	0.005	-0.015	0.020	0.029	1.147	1.274	1.323	1.353	1.406	1.440	1.489
-0.127	0.020	-0.005	0.010	0.039	0.034	0.029	1.147	1.230	1.294	1.343	1.396	1.440	1.484
-0.239	0.010	0.024	0.005	0.088	0.010	0.029	1.157	1.196	1.270	1.328	1.382	1.436	1.460
-0.225	0.005	0.020	-0.005	0.142	0.015	0.034	1.147	1.211	1.255	1.304	1.362	1.431	1.455
-0.122	0.015	-0.015	-0.020	0.093	0.010	0.034	1.162	1.250	1.255	1.284	1.343	1.392	1.436
-0.029	0.015	-0.020	-0.015	0.024	0.010	0.034	1.143	1.265	1.265	1.274	1.328	1.353	1.411
0.054	0.010	-0.020	-0.010	-0.049	0.029	0.029	1.177	1.279	1.265	1.270	1.318	1.323	1.392
0.176	-0.010	-0.039	0.000	-0.073	0.000	0.029	1.172	1.294	1.274	1.265	1.309	1.313	1.362
0.264	-0.010	-0.049	0.005	-0.059	-0.015	0.034	1.157	1.284	1.279	1.270	1.309	1.313	1.343
0.298	-0.010	-0.024	0.015	-0.010	-0.063	0.034	1.177	1.260	1.274	1.279	1.309	1.323	1.323
0.225	-0.015	0.015	0.049	0.024	-0.088	0.029	1.167	1.211	1.255	1.284	1.318	1.328	1.323
0.171	-0.005	0.039	0.054	0.005	-0.063	0.029	1.162	1.182	1.240	1.284	1.313	1.318	1.328
0.054	0.010	0.044	0.024	-0.015	-0.015	0.029	1.152	1.138	1.216	1.265	1.299	1.309	1.333
-0.034	0.010	0.044	-0.005	-0.093	0.020	0.034	1.162	1.113	1.182	1.240	1.274	1.279	1.323
-0.068	0.005	0.024	-0.020	-0.190	0.029	0.034	1.177	1.108	1.162	1.211	1.260	1.245	1.304
-0.078	0.015	0.020	-0.029	-0.254	0.107	0.029	1.177	1.113	1.147	1.191	1.240	1.230	1.299
-0.083	0.005	0.039	-0.029	-0.225	0.146	0.029	1.162	1.113	1.138	1.182	1.230	1.240	1.294
-0.132	0.005	0.020	-0.020	-0.142	0.146	0.034	1.187	1.099	1.128	1.162	1.226	1.255	1.284
