0.029	0.000	0.000	0.000	-0.005	-0.005	0.039	3.970	1.582	2.520	2.705	-9.136	-0.786	2.017
0.000	0.000	0.000	0.005	0.010	-0.015	0.039	3.970	1.880	2.339	2.651	-5.894	-2.363	0.840
0.000	-0.005	-0.005	0.000	0.005	-0.005	0.039	3.960	2.002	2.231	2.559	-3.574	-2.812	-0.166
-0.015	0.000	0.000	0.005	-0.010	0.005	0.044	3.940	1.982	2.148	2.476	-1.914	-2.646	-0.869
-0.005	0.000	-0.005	0.005	-0.020	-0.005	0.044	3.970	1.904	2.061	2.383	-0.732	-2.173	-1.250
0.010	0.000	0.005	0.000	-0.010	-0.015	0.044	3.960	1.807	1.973	2.285	0.103	-1.572	-1.362
0.029	0.010	0.000	0.005	-0.010	0.000	0.044	3.911	1.699	1.880	2.187	0.679	-0.972	-1.270
0.020	0.005	0.000	0.005	-0.029	-0.020	0.044	3.955	1.611	1.787	2.090	1.069	-0.425	-1.060
0.005	0.020	0.005	0.005	-0.044	-0.005	0.039	3.970	1.553	1.704	1.992	1.328	0.054	-0.767
-0.010	0.010	0.000	0.010	-0.015	0.010	0.044	3.955	1.514	1.631	1.899	1.489	0.454	-0.435
-0.039	0.020	0.005	0.000	0.054	0.010	0.044	3.965	1.504	1.577	1.821	1.582	0.786	-0.103
-0.039	0.010	0.005	-0.005	0.083	-0.005	0.044	3.965	1.519	1.548	1.748	1.631	1.025	0.200
-0.044	0.005	0.000	0.000	0.063	0.000	0.039	3.955	1.533	1.528	1.689	1.646	1.196	0.474
-0.044	-0.005	0.000	-0.005	0.029	-0.015	0.044	3.960	1.562	1.523	1.641	1.646	1.313	0.693
-0.029	-0.005	0.000	0.000	0.010	-0.005	0.044	3.936	1.597	1.533	1.611	1.636	1.401	0.894
-0.015	-0.005	0.000	0.000	0.005	0.000	0.039	3.955	1.631	1.553	1.592	1.626	1.465	1.055
0.005	-0.005	-0.005	-0.005	0.015	0.005	0.039	3.955	1.665	1.572	1.587	1.616	1.509	1.177
0.015	-0.010	-0.010	0.000	0.020	-0.005	0.044	3.965	1.694	1.602	1.587	1.606	1.538	1.274
0.024	-0.010	-0.005	0.000	0.015	-0.005	0.039	3.970	1.719	1.631	1.597	1.606	1.558	1.353
0.029	-0.005	-0.005	0.000	0.015	-0.020	0.044	3.975	1.748	1.655	1.616	1.606	1.567	1.411
0.024	0.000	-0.005	0.005	0.024	-0.005	0.044	3.955	1.758	1.680	1.631	1.616	1.582	1.465
0.024	0.015	0.000	0.005	0.005	-0.015	0.039	3.965	1.777	1.709	1.655	1.626	1.587	1.494
0.010	0.010	0.000	0.005	0.024	0.020	0.044	3.950	1.792	1.724	1.675	1.641	1.611	1.533
0.005	0.015	0.005	0.000	0.039	0.015	0.039	3.931	1.802	1.743	1.694	1.655	1.626	1.558
0.005	0.015	0.005	0.000	-0.010	0.005	0.044	3.936	1.816	1.763	1.714	1.670	1.621	1.567
0.010	0.010	0.005	0.000	-0.054	0.010	0.044	4.014	1.836	1.777	1.729	1.685	1.631	1.587
-0.005	0.015	0.005	0.005	-0.044	0.005	0.044	3.906	1.846	1.797	1.748	1.709	1.650	1.602
-0.010	0.010	0.005	0.005	-0.034	-0.005	0.044	3.955	1.860	1.807	1.763	1.724	1.675	1.621
-0.010	0.010	0.000	0.005	-0.015	-0.010	0.044	3.970	1.875	1.821	1.777	1.738	1.694	1.641
0.000	0.005	0.005	0.005	-0.015	-0.020	0.044	3.911	1.890	1.836	1.792	1.758	1.709	1.655
0.010	-0.010	0.005	0.000	-0.034	0.015	0.044	3.979	1.904	1.851	1.807	1.768	1.719	1.685
0.000	-0.005	0.000	-0.005	-0.010	0.005	0.039	3.960	1.924	1.870	1.821	1.787	1.743	1.694
0.015	-0.010	0.000	0.000	0.015	0.010	0.044	3.975	1.943	1.880	1.836	1.802	1.763	1.719
0.020	-0.015	-0.005	-0.005	0.015	0.005	0.044	3.975	1.953	1.895	1.851	1.816	1.777	1.733
0.010	0.000	-0.005	-0.005	0.010	0.000	0.044	3.960	1.968	1.919	1.870	1.836	1.787	1.748
0.005	-0.020	-0.005	0.000	-0.005	0.005	0.044	3.945	1.978	1.924	1.880	1.851	1.802	1.763
0.000	-0.029	-0.005	-0.005	-0.005	0.024	0.044	3.960	1.992	1.938	1.899	1.865	1.816	1.782
0.010	-0.015	-0.005	0.000	-0.010	0.024	0.039	3.955	2.012	1.958	1.914	1.875	1.831	1.797
-0.005	-0.005	0.005	-0.005	0.015	0.015	0.039	3.950	2.021	1.978	1.929	1.895	1.855	1.807
0.005	0.000	-0.005	0.005	0.020	0.005	0.044	3.931	2.031	1.987	1.948	1.914	1.870	1.826
-0.005	0.010	0.005	0.000	0.029	-0.020	0.039	3.975	2.051	2.007	1.963	1.929	1.885	1.836
-0.005	0.029	0.005	0.005	0.015	-0.010	0.044	3.955	2.065	2.021	1.978	1.943	1.899	1.855
-0.005	0.024	0.005	0.000	0.020	-0.010	0.044	3.940	2.075	2.031	1.997	1.963	1.914	1.870
-0.005	0.029	0.000	0.005	0.029	0.000	0.044	3.926	2.090	2.046	2.007	1.978	1.934	1.890
-0.005	0.005	0.005	0.005	0.020	-0.005	0.044	3.901	2.095	2.051	2.021	1.992	1.948	1.904
-0.005	0.010	0.010	0.000	0.005	0.005	0.044	3.936	2.114	2.065	2.031	2.007	1.958	1.924
-0.005	0.000	0.000	0.000	-0.010	0.005	0.044	3.999	2.134	2.080	2.041	2.017	1.968	1.934
0.000	0.000	0.000	0.000	0.015	0.000	0.039	3.960	2.153	2.095	2.056	2.031	1.992	1.948
0.005	0.000	-0.005	0.005	0.005	-0.010	0.044	3.965	2.168	2.114	2.070	2.041	1.997	1.963
0.005	-0.010	-0.005	0.005	-0.044	0.010	0.044	3.975	2.183	2.124	2.080	2.056	1.997	1.973
0.005	-0.010	-0.005	0.005	-0.112	0.010	0.044	3.970	2.192	2.139	2.095	2.065	1.997	1.978
0.005	-0.020	-0.010	0.010	-0.122	0.000	0.044	3.965	2.202	2.148	2.109	2.080	2.017	1.987
0.000	-0.010	-0.005	0.000	-0.107	0.010	0.039	3.970	2.212	2.168	2.129	2.095	2.046	2.007
0.005	0.000	-0.005	0.000	0.039	0.015	0.039	3.975	2.227	2.183	2.144	2.114	2.100	2.036
0.010	0.000	0.000	0.000	0.112	-0.010	0.039	3.970	2.236	2.197	2.158	2.134	2.124	2.051
0.000	0.000	0.000	0.000	0.063	-0.024	0.044	3.984	2.251	2.207	2.168	2.144	2.114	2.065
-0.005	0.005	0.005	0.000	0.024	-0.015	0.044	3.950	2.261	2.222	2.183	2.158	2.114	2.085
-0.010	0.015	0.010	0.000	0.039	0.000	0.039	3.970	2.271	2.231	2.197	2.173	2.134	2.104
-0.005	0.015	0.010	0.010	0.039	0.005	0.044	3.965	2.280	2.246	2.212	2.187	2.148	2.114
-0.015	0.010	0.005	0.005	0.015	0.010	0.044	3.965	2.290	2.251	2.222	2.197	2.153	2.124
-0.010	0.005	0.010	0.010	0.015	0.005	0.044	3.960	2.305	2.266	2.231	2.207	2.168	2.134
-0.015	0.005	0.005	0.000	0.005	0.005	0.039	3.979	2.314	2.275	2.241	2.222	2.178	2.148
-0.010	-0.005	0.005	-0.005	-0.010	-0.010	0.039	3.955	2.324	2.285	2.251	2.227	2.187	2.158
-0.005	0.000	0.000	-0.005	-0.039	0.005	0.044	3.975	2.339	2.295	2.261	2.241	2.192	2.168
-0.005	0.000	0.000	0.000	0.010	0.000	0.044	4.048	2.358	2.310	2.275	2.256	2.222	2.183
0.005	-0.005	0.000	-0.005	0.068	0.005	0.044	3.975	2.368	2.324	2.290	2.266	2.251	2.202
0.005	-0.010	-0.005	-0.010	0.078	-0.005	0.039	3.970	2.373	2.334	2.295	2.275	2.256	2.217
0.005	-0.024	-0.010	0.000	0.088	-0.005	0.044	3.965	2.383	2.339	2.310	2.290	2.266	2.227
0.010	-0.010	-0.005	0.000	0.068	0.010	0.039	3.975	2.393	2.354	2.319	2.305	2.271	2.246
0.015	0.000	-0.005	0.005	0.034	0.010	0.039	3.965	2.397	2.368	2.334	2.314	2.271	2.251
0.005	0.000	-0.005	0.010	-0.005	-0.005	0.039	3.965	2.402	2.373	2.344	2.324	2.271	2.251
0.000	0.005	0.000	0.000	-0.029	0.010	0.039	3.979	2.412	2.383	2.354	2.334	2.285	2.266
0.000	0.005	-0.005	0.005	-0.039	0.010	0.044	3.960	2.422	2.397	2.363	2.344	2.295	2.271
0.005	0.010	0.000	0.000	-0.049	0.005	0.044	3.970	2.432	2.402	2.373	2.354	2.310	2.280
0.010	0.005	0.005	0.005	-0.029	0.010	0.044	3.975	2.441	2.412	2.383	2.368	2.329	2.300
0.000	0.020	0.005	0.005	-0.068	0.000	0.039	3.970	2.446	2.422	2.393	2.378	2.329	2.305
0.000	0.024	0.005	0.000	-0.063	0.020	0.044	3.975	2.456	2.432	2.402	2.388	2.349	2.319
-0.005	0.000	0.005	0.005	-0.024	0.010	0.039	3.960	2.461	2.432	2.412	2.397	2.368	2.329
-0.010	0.000	0.005	0.000	0.005	0.005	0.039	3.975	2.471	2.437	2.417	2.407	2.383	2.344
-0.010	0.005	0.005	-0.005	0.005	-0.010	0.044	3.975	2.480	2.446	2.427	2.417	2.393	2.358
-0.010	-0.010	0.000	0.000	0.005	-0.015	0.044	3.931	2.485	2.451	2.432	2.422	2.397	2.368
-0.010	0.000	0.000	0.000	0.010	0.005	0.039	3.975	2.495	2.466	2.441	2.432	2.407	2.383
-0.010	0.000	0.000	0.000	0.010	-0.020	0.044	3.965	2.500	2.471	2.446	2.441	2.417	2.383
0.000	-0.020	-0.005	0.000	0.000	-0.005	0.039	3.989	2.515	2.480	2.451	2.441	2.422	2.397
0.000	-0.005	-0.010	0.000	-0.005	0.005	0.039	3.975	2.524	2.495	2.461	2.451	2.427	2.412
0.010	-0.010	-0.005	0.000	-0.005	0.000	0.044	3.965	2.534	2.500	2.471	2.461	2.437	2.417
0.005	-0.005	0.000	0.000	-0.015	0.005	0.039	3.970	2.534	2.505	2.480	2.471	2.441	2.422
0.000	0.000	0.000	0.000	-0.020	0.010	0.039	3.965	2.539	2.515	2.490	2.480	2.446	2.432
0.015	0.005	0.005	0.000	-0.010	0.010	0.039	3.975	2.554	2.524	2.500	2.490	2.456	2.437
0.000	0.010	0.005	0.000	-0.005	-0.010	0.039	3.975	2.559	2.534	2.505	2.495	2.471	2.441
0.000	0.005	0.005	0.005	0.005	0.005	0.039	3.975	2.563	2.539	2.515	2.505	2.480	2.461
0.000	0.020	0.005	0.000	0.005	0.010	0.039	3.975	2.573	2.549	2.524	2.515	2.490	2.471
0.005	0.024	0.005	0.005	0.024	0.000	0.044	3.979	2.583	2.559	2.534	2.524	2.505	2.476
0.000	0.010	0.010	0.000	0.024	-0.010	0.044	3.979	2.588	2.563	2.539	2.529	2.510	2.485
0.005	0.015	0.005	0.000	0.010	-0.005	0.044	3.955	2.593	2.568	2.544	2.539	2.510	2.490
-0.005	0.010	0.005	0.000	-0.010	-0.015	0.039	3.960	2.593	2.573	2.554	2.544	2.515	2.495
-0.010	-0.005	0.000	0.000	-0.015	-0.005	0.039	3.950	2.593	2.573	2.559	2.554	2.524	2.505
-0.005	-0.010	0.000	0.000	-0.005	0.005	0.039	3.960	2.607	2.578	2.559	2.559	2.539	2.520
0.020	-0.005	-0.005	0.000	0.005	0.010	0.039	3.975	2.617	2.588	2.568	2.563	2.544	2.524
0.015	-0.020	0.005	0.000	-0.010	0.005	0.044	3.970	2.622	2.593	2.573	2.568	2.544	2.529
0.005	-0.015	0.000	0.000	-0.005	-0.005	0.044	3.970	2.627	2.598	2.578	2.573	2.554	2.534
0.024	-0.015	-0.005	0.005	-0.010	-0.015	0.044	3.955	2.637	2.612	2.583	2.583	2.559	2.539
0.020	-0.010	-0.005	0.010	0.000	-0.010	0.044	3.975	2.642	2.617	2.593	2.588	2.568	2.549
0.010	-0.010	-0.010	0.005	0.029	0.005	0.044	3.965	2.642	2.622	2.598	2.598	2.583	2.563
0.010	0.000	0.000	0.000	0.020	0.000	0.044	3.916	2.642	2.627	2.607	2.603	2.583	2.568
0.005	0.000	0.005	0.005	0.039	0.000	0.039	3.970	2.651	2.632	2.617	2.607	2.593	2.573
0.005	-0.010	0.005	-0.005	0.015	-0.010	0.044	3.975	2.656	2.637	2.617	2.612	2.588	2.573
0.005	0.000	0.005	-0.005	-0.029	0.010	0.039	3.965	2.661	2.646	2.627	2.617	2.583	2.583
-0.005	0.005	0.005	0.000	-0.054	0.005	0.044	3.970	2.666	2.651	2.632	2.627	2.593	2.583
-0.020	0.010	0.005	0.000	-0.020	0.000	0.039	3.975	2.671	2.651	2.637	2.637	2.612	2.593
-0.024	0.020	0.010	0.000	0.005	-0.005	0.044	3.975	2.676	2.666	2.646	2.642	2.622	2.603
-0.024	0.015	0.010	0.010	0.054	0.010	0.039	3.955	2.681	2.661	2.651	2.651	2.642	2.617
-0.005	0.005	0.005	0.010	0.029	-0.010	0.044	4.043	2.700	2.671	2.651	2.651	2.637	2.617
-0.015	0.010	0.000	0.005	0.034	-0.029	0.039	3.975	2.700	2.681	2.656	2.656	2.642	2.622
-0.005	-0.005	0.000	0.000	0.000	0.000	0.044	3.979	2.710	2.681	2.661	2.661	2.637	2.632
-0.010	0.020	0.000	-0.005	-0.044	0.005	0.039	3.970	2.705	2.695	2.671	2.661	2.632	2.632
-0.010	0.005	-0.005	-0.010	-0.044	0.010	0.044	3.955	2.710	2.690	2.676	2.666	2.642	2.637
-0.005	0.000	-0.010	-0.010	0.000	0.010	0.039	3.979	2.720	2.695	2.676	2.676	2.661	2.642
-0.005	0.000	-0.005	-0.010	-0.005	0.024	0.039	3.960	2.720	2.700	2.681	2.681	2.666	2.651
0.010	-0.005	-0.005	0.000	-0.020	0.005	0.044	3.970	2.725	2.705	2.686	2.686	2.666	2.651
0.010	-0.020	-0.005	-0.005	-0.005	-0.005	0.039	3.911	2.725	2.705	2.690	2.690	2.671	2.656
0.010	-0.010	0.005	0.000	-0.034	-0.020	0.044	3.960	2.729	2.715	2.700	2.695	2.671	2.661
0.005	-0.010	0.005	0.005	-0.054	-0.005	0.044	3.975	2.734	2.715	2.705	2.705	2.671	2.661
0.005	0.000	0.010	0.005	-0.024	0.000	0.044	3.970	2.739	2.725	2.710	2.710	2.690	2.676
0.000	0.005	0.000	0.005	-0.005	0.015	0.039	3.965	2.739	2.729	2.715	2.715	2.700	2.690
-0.010	0.015	0.005	0.000	0.059	0.005	0.039	3.970	2.749	2.734	2.720	2.725	2.725	2.695
-0.005	0.015	0.000	0.005	0.103	0.015	0.044	3.965	2.749	2.739	2.725	2.729	2.734	2.710
0.000	0.010	0.010	0.005	0.073	0.010	0.044	3.965	2.759	2.744	2.729	2.734	2.725	2.710
0.000	0.020	0.000	0.005	0.024	-0.005	0.044	3.926	2.764	2.749	2.734	2.734	2.710	2.705
-0.005	0.010	0.000	0.000	0.005	-0.005	0.044	3.984	2.769	2.749	2.734	2.739	2.715	2.705
0.000	0.015	0.005	0.005	0.029	-0.015	0.044	3.975	2.773	2.754	2.744	2.744	2.729	2.715
0.005	-0.005	0.005	0.005	0.024	-0.005	0.044	3.979	2.773	2.754	2.744	2.749	2.729	2.720
0.015	-0.015	0.000	0.005	0.005	-0.005	0.039	3.955	2.778	2.759	2.744	2.749	2.729	2.725
0.015	-0.015	-0.005	0.000	-0.010	0.005	0.044	3.979	2.788	2.764	2.749	2.754	2.729	2.729
0.015	-0.020	-0.005	0.000	-0.015	-0.005	0.044	3.979	2.788	2.769	2.754	2.754	2.734	2.725
0.005	-0.010	-0.005	0.000	-0.015	-0.005	0.044	3.975	2.788	2.773	2.754	2.759	2.739	2.725
0.015	-0.010	-0.005	0.005	-0.020	-0.005	0.044	3.979	2.788	2.778	2.764	2.759	2.739	2.734
0.005	-0.005	0.000	-0.005	-0.029	-0.020	0.039	3.975	2.793	2.783	2.764	2.764	2.744	2.734
0.010	0.010	-0.005	0.005	-0.039	-0.015	0.039	3.970	2.798	2.788	2.773	2.773	2.749	2.739
0.010	0.005	0.005	0.005	-0.034	0.010	0.039	3.970	2.798	2.793	2.778	2.778	2.759	2.749
0.005	0.020	0.005	0.000	-0.005	0.000	0.039	3.975	2.798	2.798	2.783	2.783	2.773	2.759
-0.005	0.015	0.010	0.005	0.015	0.024	0.044	3.979	2.808	2.793	2.788	2.788	2.783	2.769
-0.005	0.010	0.005	0.000	0.024	0.015	0.044	3.965	2.808	2.798	2.788	2.793	2.783	2.773
-0.010	0.024	0.005	0.000	0.039	0.005	0.044	3.979	2.812	2.808	2.788	2.793	2.793	2.778
-0.024	0.034	0.000	0.000	0.054	0.005	0.044	3.931	2.808	2.808	2.793	2.803	2.798	2.783
-0.015	0.005	0.005	0.005	0.049	-0.015	0.044	3.940	2.812	2.803	2.798	2.803	2.793	2.783
-0.010	0.005	0.000	0.000	0.029	0.010	0.039	3.984	2.822	2.808	2.798	2.803	2.793	2.793
0.000	0.000	-0.005	0.000	0.015	0.015	0.039	3.945	2.822	2.808	2.798	2.803	2.788	2.793
0.005	-0.010	0.000	0.000	-0.010	0.005	0.039	3.965	2.827	2.808	2.803	2.808	2.788	2.788
0.010	-0.010	-0.005	0.005	-0.020	-0.010	0.039	3.965	2.832	2.812	2.803	2.808	2.788	2.783
0.000	-0.015	-0.005	-0.005	-0.034	0.029	0.039	3.970	2.832	2.817	2.808	2.808	2.793	2.798
0.010	-0.020	-0.005	0.000	-0.034	0.044	0.044	3.965	2.837	2.822	2.808	2.812	2.798	2.803
0.010	-0.010	-0.005	0.000	-0.039	0.044	0.044	3.911	2.832	2.827	2.808	2.817	2.798	2.798
0.020	-0.029	-0.005	0.000	-0.039	0.000	0.044	3.965	2.837	2.822	2.812	2.817	2.803	2.788
0.010	-0.020	-0.005	0.000	-0.044	-0.010	0.039	3.970	2.842	2.827	2.817	2.822	2.803	2.793
0.000	-0.015	0.000	-0.005	-0.054	-0.024	0.039	3.975	2.837	2.827	2.817	2.822	2.808	2.793
0.010	-0.005	0.000	0.010	-0.039	-0.034	0.039	3.975	2.842	2.837	2.827	2.832	2.812	2.798
0.005	0.015	0.005	0.000	-0.029	-0.034	0.039	3.979	2.847	2.842	2.827	2.837	2.822	2.808
0.000	0.020	0.005	0.000	0.044	-0.029	0.044	3.975	2.852	2.847	2.832	2.842	2.847	2.817
-0.005	0.020	0.010	0.005	0.078	-0.029	0.044	3.979	2.852	2.847	2.837	2.847	2.856	2.827
-0.005	0.020	0.005	0.000	0.068	-0.024	0.044	4.077	2.866	2.852	2.842	2.847	2.847	2.837
-0.010	0.015	0.005	0.000	0.068	-0.039	0.039	3.975	2.866	2.852	2.842	2.847	2.847	2.837
-0.005	0.015	0.010	0.005	0.068	0.010	0.044	3.979	2.871	2.856	2.847	2.856	2.852	2.852
-0.005	0.024	0.005	-0.005	0.049	0.015	0.039	3.965	2.871	2.866	2.847	2.852	2.842	2.852
-0.005	0.005	0.005	0.000	0.005	0.015	0.039	3.975	2.866	2.856	2.852	2.856	2.832	2.847
0.005	-0.020	0.000	0.000	-0.020	0.029	0.044	3.975	2.871	2.856	2.852	2.856	2.832	2.847
0.010	-0.010	-0.005	-0.005	-0.015	0.000	0.044	3.979	2.876	2.861	2.847	2.861	2.842	2.837
0.005	-0.020	-0.010	0.005	-0.015	-0.020	0.044	3.960	2.871	2.861	2.852	2.861	2.847	2.837
0.010	-0.020	-0.005	0.000	-0.005	0.005	0.044	3.926	2.871	2.861	2.852	2.861	2.852	2.847
0.005	-0.015	-0.005	0.000	-0.015	0.005	0.044	3.970	2.871	2.866	2.856	2.861	2.852	2.847
0.010	-0.010	-0.005	0.000	-0.005	-0.005	0.039	3.965	2.881	2.866	2.861	2.866	2.856	2.847
0.005	-0.010	0.000	0.000	-0.010	0.015	0.039	3.975	2.881	2.871	2.861	2.871	2.856	2.852
0.000	0.000	0.000	0.000	-0.034	0.005	0.044	3.970	2.881	2.876	2.866	2.871	2.852	2.852
-0.005	0.005	0.000	0.005	-0.020	-0.010	0.044	3.965	2.881	2.881	2.866	2.876	2.861	2.852
-0.005	0.015	0.000	0.000	0.049	0.010	0.044	3.975	2.886	2.881	2.871	2.881	2.886	2.871
-0.010	0.015	0.010	0.000	0.073	0.015	0.044	3.975	2.891	2.881	2.876	2.886	2.891	2.876
-0.005	0.010	0.005	0.005	0.034	0.010	0.039	3.945	2.891	2.881	2.876	2.886	2.876	2.876
-0.010	0.015	0.005	0.010	-0.005	0.010	0.044	3.965	2.891	2.886	2.876	2.886	2.866	2.871
-0.005	0.020	0.010	0.000	-0.020	-0.010	0.044	3.965	2.896	2.891	2.881	2.886	2.866	2.866
-0.010	0.000	0.005	0.005	-0.015	0.015	0.039	3.960	2.896	2.886	2.876	2.891	2.876	2.876
0.000	0.010	0.000	0.000	-0.010	0.000	0.039	3.965	2.905	2.891	2.881	2.891	2.881	2.871
0.010	0.010	-0.005	0.000	0.000	0.005	0.044	3.960	2.905	2.896	2.886	2.896	2.886	2.881
0.005	0.000	0.000	0.000	-0.005	-0.029	0.044	3.979	2.910	2.896	2.886	2.896	2.886	2.871
0.010	-0.015	0.000	0.005	-0.005	-0.005	0.044	3.965	2.910	2.896	2.886	2.896	2.886	2.881
0.010	-0.020	-0.005	0.000	-0.034	-0.005	0.044	3.999	2.915	2.896	2.886	2.896	2.881	2.881
0.015	-0.010	-0.005	0.000	-0.039	-0.005	0.039	3.965	2.910	2.900	2.891	2.900	2.881	2.881
0.010	-0.010	-0.005	0.005	-0.039	-0.010	0.044	3.975	2.910	2.905	2.891	2.900	2.886	2.881
0.010	-0.010	0.000	0.005	-0.063	0.015	0.039	3.945	2.910	2.905	2.896	2.900	2.886	2.886
0.010	0.000	0.000	0.000	-0.049	0.015	0.039	3.965	2.910	2.910	2.900	2.905	2.896	2.891
0.000	0.010	0.000	0.000	0.024	-0.005	0.039	3.975	2.910	2.910	2.905	2.910	2.915	2.896
0.005	0.010	0.005	0.000	0.039	-0.010	0.039	3.975	2.915	2.910	2.905	2.915	2.915	2.900
-0.005	0.015	0.010	0.000	0.039	0.010	0.044	3.975	2.915	2.915	2.910	2.915	2.915	2.910
-0.005	0.010	0.005	0.000	0.015	0.010	0.044	3.936	2.915	2.910	2.910	2.920	2.910	2.910
-0.005	0.015	0.005	0.005	0.015	-0.005	0.044	3.965	2.910	2.915	2.905	2.920	2.910	2.910
-0.005	0.015	0.005	0.005	0.005	0.015	0.039	3.970	2.920	2.915	2.910	2.920	2.910	2.915
-0.005	-0.005	0.005	0.000	0.034	0.005	0.044	3.975	2.920	2.910	2.910	2.925	2.920	2.915
-0.005	-0.015	0.005	0.000	0.054	0.010	0.044	3.979	2.925	2.910	2.910	2.925	2.925	2.920
0.000	-0.010	0.000	0.005	0.063	0.010	0.039	3.975	2.930	2.915	2.905	2.925	2.925	2.920
-0.005	0.005	0.000	0.000	0.029	0.005	0.044	3.970	2.930	2.925	2.910	2.920	2.915	2.920
0.000	-0.005	-0.005	0.000	-0.010	0.000	0.044	3.965	2.935	2.925	2.910	2.920	2.905	2.910
0.010	-0.010	-0.005	0.000	-0.020	-0.010	0.044	3.965	2.939	2.925	2.915	2.925	2.905	2.905
0.005	-0.005	-0.005	0.000	-0.015	-0.010	0.044	3.970	2.935	2.925	2.915	2.925	2.910	2.910
0.010	-0.005	-0.005	0.005	-0.015	-0.020	0.044	3.970	2.935	2.930	2.920	2.930	2.915	2.905
0.015	-0.005	-0.005	0.000	-0.020	-0.005	0.044	3.975	2.939	2.930	2.920	2.930	2.915	2.910
0.005	-0.005	-0.005	0.000	-0.020	-0.010	0.039	3.965	2.935	2.930	2.925	2.935	2.920	2.915
0.000	0.010	0.000	0.000	-0.005	-0.010	0.039	3.965	2.935	2.935	2.925	2.935	2.930	2.920
-0.005	0.000	0.010	0.000	-0.005	0.000	0.039	3.975	2.930	2.930	2.930	2.939	2.930	2.925
0.000	0.005	0.010	0.000	-0.010	0.005	0.044	3.970	2.939	2.935	2.930	2.939	2.930	2.930
-0.010	0.005	0.000	0.000	-0.005	0.010	0.044	3.965	2.939	2.935	2.930	2.939	2.935	2.930
-0.005	0.005	0.000	-0.005	-0.044	0.015	0.044	3.970	2.939	2.935	2.930	2.939	2.920	2.935
-0.010	0.005	0.010	0.005	-0.044	0.005	0.039	3.975	2.939	2.939	2.930	2.944	2.930	2.930
-0.005	0.010	0.005	0.005	-0.044	0.015	0.044	3.979	2.949	2.939	2.935	2.944	2.935	2.935
-0.039	0.010	0.005	0.000	-0.010	0.005	0.039	3.975	2.939	2.939	2.935	2.949	2.944	2.935
-0.029	-0.005	0.005	0.000	0.015	-0.010	0.044	3.965	2.949	2.935	2.930	2.944	2.949	2.935
0.000	-0.010	0.000	0.000	0.054	-0.005	0.039	3.975	2.954	2.944	2.930	2.944	2.959	2.944
0.020	-0.020	0.000	0.005	0.068	0.005	0.039	3.955	2.959	2.944	2.935	2.949	2.959	2.954
0.034	-0.020	-0.005	-0.005	0.073	0.005	0.044	3.970	2.964	2.949	2.935	2.949	2.954	2.954
0.044	-0.020	-0.005	-0.005	0.059	0.010	0.044	3.975	2.969	2.954	2.939	2.949	2.949	2.954
0.024	-0.015	0.000	0.000	0.010	0.000	0.044	3.960	2.959	2.954	2.944	2.949	2.935	2.944
0.024	0.000	-0.005	0.000	0.015	0.005	0.044	3.970	2.959	2.959	2.944	2.954	2.939	2.944
0.000	-0.005	0.000	0.000	0.024	0.000	0.044	3.970	2.949	2.949	2.949	2.959	2.944	2.944
-0.005	-0.005	0.005	0.000	0.000	0.005	0.039	3.984	2.949	2.949	2.949	2.959	2.944	2.944
-0.010	0.005	0.000	0.000	-0.015	0.005	0.039	3.970	2.949	2.949	2.949	2.959	2.939	2.944
-0.020	0.015	0.005	0.005	-0.068	0.000	0.044	3.979	2.954	2.954	2.949	2.959	2.930	2.935
-0.029	0.029	0.000	0.000	-0.093	-0.015	0.039	3.975	2.954	2.954	2.949	2.959	2.930	2.930
-0.034	0.049	0.000	0.000	-0.098	0.000	0.044	3.975	2.954	2.964	2.954	2.964	2.935	2.939
-0.020	0.024	0.005	0.000	-0.103	-0.005	0.044	3.970	2.954	2.949	2.949	2.964	2.939	2.939
-0.015	0.020	0.000	0.005	-0.063	-0.005	0.044	3.970	2.959	2.954	2.949	2.964	2.959	2.944
-0.020	0.010	0.000	-0.005	-0.044	0.010	0.044	3.975	2.959	2.949	2.949	2.964	2.959	2.954
-0.010	-0.005	0.005	0.000	-0.068	0.015	0.044	3.970	2.964	2.949	2.949	2.964	2.959	2.959
0.000	-0.015	0.000	0.000	-0.054	0.010	0.039	3.975	2.964	2.949	2.949	2.964	2.964	2.959
0.005	-0.015	0.000	0.000	0.093	-0.005	0.044	3.965	2.969	2.954	2.949	2.969	3.003	2.974
0.000	-0.005	0.000	0.000	0.156	0.010	0.039	3.970	2.969	2.964	2.954	2.969	3.008	2.983
0.015	-0.020	-0.005	0.005	0.137	0.015	0.039	3.970	2.969	2.959	2.954	2.969	2.983	2.988
0.010	-0.005	0.000	0.005	0.078	0.015	0.039	3.979	2.974	2.964	2.954	2.969	2.969	2.979
0.015	-0.005	0.000	0.000	0.059	0.005	0.044	3.955	2.974	2.969	2.959	2.969	2.964	2.974
0.020	-0.010	-0.005	0.000	0.068	-0.005	0.044	3.945	2.974	2.969	2.959	2.969	2.964	2.969
0.000	-0.010	0.000	0.000	0.024	-0.024	0.044	3.950	2.964	2.964	2.959	2.969	2.949	2.954
0.005	-0.005	0.005	0.000	0.020	-0.034	0.044	3.965	2.969	2.969	2.964	2.969	2.954	2.959
0.000	0.005	0.005	0.005	0.039	-0.010	0.039	3.965	2.964	2.969	2.964	2.974	2.964	2.964
-0.005	0.010	0.005	0.005	0.024	-0.005	0.039	3.979	2.969	2.969	2.964	2.974	2.964	2.964
-0.010	0.015	0.010	0.000	-0.005	0.005	0.039	3.975	2.974	2.969	2.964	2.979	2.954	2.969
-0.005	0.015	0.010	0.005	-0.020	0.000	0.039	3.975	2.974	2.969	2.969	2.979	2.954	2.964
-0.005	0.015	0.005	0.005	0.005	0.005	0.044	3.970	2.974	2.969	2.969	2.983	2.969	2.969
-0.005	0.015	0.005	0.000	0.010	0.015	0.039	3.984	2.979	2.969	2.969	2.979	2.974	2.969
-0.005	0.005	0.000	0.000	-0.005	0.000	0.039	3.970	2.974	2.969	2.964	2.979	2.969	2.969
0.010	-0.005	0.005	0.005	-0.024	0.005	0.044	3.960	2.979	2.969	2.969	2.979	2.969	2.969
0.000	-0.015	0.000	-0.005	-0.044	0.010	0.039	3.960	2.979	2.969	2.964	2.979	2.964	2.969
0.005	-0.020	0.000	0.000	-0.034	0.020	0.044	3.970	2.979	2.969	2.964	2.979	2.969	2.974
0.005	-0.010	-0.005	0.000	-0.020	0.034	0.044	3.984	2.983	2.974	2.964	2.979	2.974	2.979
0.010	-0.015	0.000	0.000	0.010	0.034	0.039	3.975	2.983	2.974	2.964	2.983	2.983	2.979
0.015	0.000	-0.005	0.000	-0.020	0.000	0.039	3.970	2.983	2.979	2.969	2.983	2.969	2.969
0.005	-0.005	-0.010	0.000	-0.029	0.015	0.039	3.965	2.979	2.979	2.969	2.983	2.974	2.974
0.010	-0.024	-0.010	0.000	-0.015	0.010	0.044	3.965	2.979	2.974	2.969	2.983	2.979	2.974
0.005	-0.020	0.000	0.000	0.005	0.000	0.044	3.970	2.979	2.979	2.974	2.983	2.983	2.979
0.005	0.000	0.000	0.000	0.024	-0.039	0.044	3.975	2.979	2.983	2.974	2.983	2.983	2.969
0.010	0.010	0.000	0.005	-0.005	-0.078	0.044	3.970	2.979	2.983	2.979	2.988	2.974	2.959
0.005	0.010	0.005	0.005	-0.010	-0.078	0.044	3.965	2.974	2.983	2.979	2.988	2.979	2.969
0.000	0.010	0.005	0.005	-0.034	-0.020	0.044	3.970	2.974	2.983	2.979	2.988	2.974	2.983
-0.005	0.029	0.010	0.005	-0.083	0.005	0.044	3.975	2.974	2.983	2.983	2.988	2.964	2.983
-0.005	0.029	0.005	0.000	-0.137	0.024	0.044	3.984	2.983	2.983	2.974	2.988	2.959	2.979
-0.005	0.015	0.010	0.000	-0.146	0.044	0.044	3.960	2.979	2.974	2.979	2.993	2.964	2.983
0.000	0.010	0.005	0.000	-0.093	0.024	0.039	3.975	2.983	2.979	2.974	2.993	2.988	2.983
0.005	0.000	0.000	0.000	0.049	0.029	0.044	3.965	2.983	2.974	2.974	2.998	3.032	3.003
0.000	0.005	0.000	0.000	0.195	0.005	0.039	3.979	2.988	2.979	2.974	2.998	3.057	3.013
0.000	-0.005	0.000	0.005	0.244	0.020	0.044	3.965	2.988	2.979	2.974	2.998	3.052	3.027
0.000	-0.010	0.000	0.005	0.137	0.024	0.039	3.960	2.993	2.979	2.974	2.988	3.003	3.022
0.000	-0.015	0.000	-0.005	0.049	0.024	0.039	3.970	2.993	2.983	2.974	2.988	2.969	3.008
0.000	-0.005	0.000	0.000	-0.020	0.024	0.044	3.975	2.993	2.988	2.974	2.988	2.959	2.988
0.010	0.000	-0.005	-0.005	-0.020	0.015	0.039	3.979	2.998	2.988	2.979	2.988	2.964	2.983
0.005	-0.005	-0.005	0.000	-0.029	0.005	0.039	3.975	2.988	2.988	2.979	2.988	2.969	2.974
0.000	0.015	0.000	0.000	-0.015	-0.010	0.039	3.970	2.988	2.988	2.983	2.993	2.974	2.974
0.000	0.000	0.000	0.005	0.005	-0.020	0.044	3.970	2.988	2.988	2.983	2.998	2.983	2.979
0.000	0.005	0.000	0.000	0.024	-0.029	0.039	3.970	2.993	2.993	2.983	2.998	2.993	2.979
0.000	0.005	0.000	0.000	0.015	-0.015	0.044	3.970	2.993	2.988	2.983	2.998	2.993	2.988
0.000	0.024	0.005	0.005	0.020	-0.015	0.039	3.970	2.988	2.993	2.988	3.003	2.993	2.988
-0.005	0.020	0.010	0.000	0.010	-0.015	0.039	3.975	2.993	2.993	2.988	3.003	2.988	2.988
-0.015	0.020	0.010	0.005	-0.015	-0.005	0.044	3.975	2.993	2.993	2.988	3.003	2.988	2.993
-0.005	0.010	0.000	0.005	-0.020	-0.024	0.044	3.960	2.988	2.988	2.983	3.003	2.988	2.988
-0.005	0.005	0.000	0.000	-0.020	0.000	0.044	3.960	2.988	2.983	2.983	2.998	2.993	2.998
0.000	-0.005	0.000	0.000	-0.015	0.010	0.044	3.979	2.998	2.988	2.983	3.003	2.993	2.998
0.005	-0.010	0.005	0.005	-0.015	0.015	0.044	3.979	2.998	2.988	2.983	3.003	2.998	2.998
0.015	-0.020	-0.005	0.000	-0.010	0.010	0.044	3.960	2.998	2.988	2.979	2.998	2.998	2.998
0.010	-0.020	-0.010	0.000	-0.010	0.010	0.039	3.965	2.998	2.988	2.983	2.998	2.993	2.998
0.015	-0.029	-0.005	0.000	-0.005	-0.005	0.039	3.960	2.993	2.988	2.983	2.998	2.998	2.993
0.015	-0.020	-0.005	0.000	0.000	0.020	0.039	3.984	2.998	2.993	2.983	2.998	2.998	3.003
0.015	-0.024	-0.005	-0.005	0.000	0.015	0.044	3.975	3.003	2.993	2.983	2.998	2.998	2.998
0.005	0.005	-0.005	0.000	-0.010	0.015	0.044	3.960	2.998	3.003	2.988	3.003	2.993	2.998
0.015	0.015	0.005	0.005	-0.010	0.000	0.044	3.960	2.993	3.003	2.993	3.003	2.993	2.993
0.005	0.029	0.000	0.005	-0.029	-0.010	0.039	3.970	2.998	3.003	2.998	3.008	2.988	2.993
-0.005	0.024	0.005	0.000	-0.044	-0.020	0.044	3.970	2.993	2.998	2.998	3.008	2.988	2.988
-0.020	0.024	0.010	0.000	-0.054	-0.024	0.039	3.989	2.988	2.993	2.993	3.008	2.988	2.988
-0.005	0.020	0.005	0.005	-0.059	-0.005	0.044	3.975	2.993	2.993	2.993	3.008	2.993	2.993
-0.015	0.015	0.010	0.000	-0.073	-0.005	0.044	3.970	2.993	2.993	2.993	3.008	2.993	2.998
-0.024	0.010	0.005	0.000	-0.054	0.024	0.039	3.979	2.993	2.993	2.988	3.008	3.003	3.008
-0.005	0.005	0.005	0.000	-0.029	0.024	0.044	3.975	3.003	2.993	2.993	3.008	3.013	3.008
-0.005	0.000	0.005	0.000	0.015	0.010	0.044	3.975	3.003	2.993	2.988	3.008	3.022	3.008
-0.005	0.000	0.000	0.000	0.063	0.015	0.044	3.970	3.003	2.998	2.988	3.008	3.027	3.018
0.000	-0.015	-0.005	0.005	0.083	0.015	0.044	3.970	3.003	2.993	2.988	3.008	3.027	3.022
0.005	-0.015	0.000	-0.005	0.107	-0.005	0.044	3.970	3.003	2.993	2.993	3.003	3.027	3.022
0.010	-0.015	-0.010	0.005	0.127	-0.010	0.039	3.965	3.008	2.998	2.988	3.008	3.027	3.018
0.010	-0.020	-0.005	0.005	0.117	-0.010	0.044	3.970	3.008	3.003	2.988	3.008	3.018	3.018
0.015	-0.015	-0.005	0.000	0.078	-0.015	0.044	3.975	3.008	3.003	2.993	3.008	2.998	3.013
0.005	-0.010	0.000	0.000	0.005	-0.015	0.044	3.979	3.008	3.003	2.993	3.008	2.979	3.003
0.005	-0.015	0.000	0.000	-0.005	0.005	0.044	3.975	3.003	3.003	2.993	3.008	2.983	3.003
0.000	-0.005	0.000	0.005	-0.010	-0.015	0.044	3.950	3.003	3.003	2.998	3.008	2.988	2.998
0.000	0.000	0.000	0.005	-0.024	0.010	0.044	3.979	3.003	3.003	3.003	3.008	2.988	3.003
0.005	0.010	0.005	0.000	-0.034	0.005	0.039	3.970	3.003	3.003	3.003	3.013	2.993	2.998
0.000	0.010	0.005	0.000	-0.029	0.010	0.039	3.989	3.003	3.003	3.003	3.013	2.998	2.998
-0.015	0.010	0.010	0.000	-0.020	0.000	0.039	3.965	2.998	3.003	3.003	3.013	3.003	2.998
-0.010	0.015	0.010	0.000	-0.015	0.020	0.039	3.970	3.003	3.008	3.003	3.018	3.008	3.008
-0.010	0.010	0.010	0.000	-0.020	0.020	0.044	3.970	3.003	3.003	3.003	3.018	3.008	3.008
0.005	0.005	0.000	0.005	-0.029	-0.005	0.044	3.965	3.008	3.003	2.998	3.018	3.008	3.003
0.010	0.000	0.000	0.005	-0.029	0.000	0.044	3.970	3.008	3.003	2.998	3.018	3.008	3.003
0.005	0.000	0.000	0.000	-0.063	0.005	0.044	3.970	3.008	3.008	2.998	3.013	2.998	3.003
0.010	-0.010	0.000	0.000	-0.088	-0.024	0.039	3.975	3.008	2.998	2.998	3.013	2.993	2.993
0.015	-0.005	-0.010	-0.005	-0.068	-0.010	0.039	3.975	3.008	3.003	2.993	3.013	3.003	2.998
0.010	-0.005	0.000	-0.005	-0.034	-0.015	0.044	3.975	3.008	3.003	2.993	3.013	3.013	3.003
0.005	-0.010	-0.005	-0.005	-0.024	-0.029	0.044	3.975	3.003	2.998	2.998	3.013	3.008	3.003
0.015	-0.005	-0.005	0.000	-0.034	-0.005	0.044	3.979	3.008	3.003	2.998	3.013	3.013	3.013
0.010	-0.005	-0.005	0.000	0.000	0.005	0.039	3.965	3.003	3.003	2.998	3.018	3.022	3.018
0.005	0.005	0.000	0.005	0.005	-0.005	0.039	3.960	3.003	3.003	3.003	3.018	3.018	3.018
-0.010	0.010	0.000	0.005	0.034	0.015	0.039	3.970	2.998	3.003	3.003	3.018	3.027	3.027
0.005	0.015	0.010	-0.005	0.054	0.010	0.039	3.979	3.008	3.003	3.003	3.018	3.027	3.027
0.000	0.010	0.005	0.000	0.083	0.010	0.044	3.979	3.008	3.008	3.003	3.018	3.032	3.027
-0.010	0.015	0.005	0.000	0.146	0.015	0.044	3.975	3.008	3.008	3.003	3.022	3.047	3.037
-0.010	0.015	0.010	0.000	0.171	-0.005	0.044	3.975	3.013	3.008	3.003	3.022	3.042	3.037
-0.005	0.010	0.005	0.000	0.166	0.015	0.039	3.955	3.018	3.008	3.003	3.022	3.037	3.042
-0.015	0.000	0.005	0.005	0.107	-0.010	0.039	3.950	3.013	3.008	3.003	3.018	3.013	3.027
-0.005	-0.010	0.005	0.000	0.068	-0.005	0.039	3.975	3.013	3.003	3.003	3.018	3.003	3.027
-0.010	-0.015	0.000	0.000	0.015	-0.010	0.044	3.970	3.018	3.008	3.003	3.018	2.988	3.013
0.005	-0.015	0.000	0.000	-0.049	0.005	0.044	3.970	3.018	3.008	2.998	3.018	2.979	3.008
0.010	-0.010	-0.005	0.000	-0.073	-0.015	0.044	3.970	3.018	3.013	3.003	3.013	2.983	2.993
0.015	-0.010	-0.005	0.000	-0.068	0.010	0.044	3.965	3.018	3.013	3.003	3.018	2.988	2.998
0.000	-0.005	-0.010	0.000	-0.044	0.005	0.044	3.965	3.008	3.013	3.003	3.018	3.008	3.003
0.010	0.010	-0.005	0.000	-0.020	0.015	0.039	3.970	3.013	3.018	3.008	3.018	3.013	3.008
0.010	0.005	-0.005	0.005	-0.015	0.015	0.039	3.979	3.013	3.013	3.008	3.022	3.018	3.008
0.005	0.005	-0.005	0.000	-0.029	0.020	0.034	3.970	3.008	3.013	3.008	3.022	3.013	3.013
0.005	-0.005	0.000	0.000	-0.024	0.015	0.039	3.960	3.008	3.008	3.008	3.022	3.013	3.013
-0.010	0.005	0.000	-0.005	-0.010	0.010	0.039	3.979	3.008	3.008	3.008	3.022	3.018	3.013
-0.005	0.010	0.005	0.000	-0.020	0.010	0.039	3.979	3.008	3.008	3.008	3.022	3.018	3.013
0.000	0.010	0.005	0.000	-0.044	0.020	0.044	3.975	3.008	3.008	3.008	3.022	3.008	3.018
-0.005	0.000	0.010	0.000	-0.073	-0.005	0.044	3.965	3.008	3.008	3.008	3.022	3.003	3.008
-0.010	0.015	0.010	0.000	-0.073	-0.020	0.044	3.965	3.008	3.008	3.008	3.022	3.008	3.003
-0.005	0.024	0.005	0.005	-0.098	-0.024	0.039	3.965	3.008	3.013	3.008	3.022	3.003	3.003
0.000	0.015	0.005	-0.005	-0.132	-0.015	0.039	3.975	3.008	3.008	3.008	3.022	2.998	3.003
0.000	0.020	0.005	0.005	-0.093	-0.034	0.044	3.965	3.008	3.013	3.008	3.022	3.018	3.003
0.000	0.015	0.000	0.005	0.000	-0.020	0.039	3.960	3.008	3.008	3.003	3.027	3.047	3.022
0.005	0.010	-0.005	0.005	0.039	-0.015	0.039	3.965	3.013	3.008	3.003	3.027	3.042	3.032
0.010	-0.005	-0.005	0.000	0.049	-0.015	0.039	3.955	3.013	3.003	2.998	3.022	3.042	3.032
0.005	-0.020	0.000	0.000	0.020	0.020	0.039	3.975	3.013	3.003	3.003	3.018	3.022	3.042
0.000	-0.010	-0.005	0.000	0.015	0.024	0.039	3.931	3.008	3.008	3.003	3.018	3.022	3.037
0.005	-0.010	0.000	0.005	0.029	0.020	0.044	3.936	3.008	3.008	3.003	3.022	3.027	3.037
0.015	-0.010	-0.005	0.000	0.068	0.000	0.029	4.136	3.027	3.013	3.003	3.018	3.027	3.032
0.005	-0.010	0.000	0.005	0.083	0.024	0.029	3.945	3.022	3.013	3.003	3.018	3.032	3.037
-0.005	-0.005	0.000	0.000	0.127	0.020	0.029	3.940	3.013	3.013	3.008	3.022	3.042	3.037
-0.010	-0.010	0.005	0.005	0.112	-0.010	0.029	3.921	3.008	3.013	3.008	3.022	3.027	3.022
-0.005	0.005	0.005	0.005	0.044	-0.024	0.029	3.975	3.013	3.018	3.008	3.022	3.003	3.018
-0.005	0.005	0.010	0.005	0.015	-0.020	0.039	3.926	3.008	3.013	3.008	3.022	3.008	3.018
-0.020	0.010	0.010	0.000	0.015	-0.005	0.044	3.936	3.003	3.013	3.008	3.022	3.008	3.018
-0.015	0.000	0.005	0.000	-0.020	0.000	0.044	4.116	3.022	3.013	3.008	3.022	3.003	3.018
-0.005	-0.015	0.005	0.000	-0.063	-0.005	0.039	3.975	3.022	3.008	3.008	3.022	2.993	3.008
0.000	-0.010	0.005	0.000	-0.059	0.015	0.039	3.960	3.022	3.013	3.008	3.022	3.003	3.018
-0.005	-0.010	0.000	0.005	-0.049	0.024	0.044	3.955	3.013	3.013	3.008	3.022	3.013	3.018
-0.005	-0.015	0.000	0.005	-0.020	0.024	0.044	3.965	3.013	3.013	3.008	3.027	3.022	3.018
0.015	-0.015	0.000	0.000	-0.005	0.015	0.044	3.970	3.018	3.013	3.008	3.027	3.022	3.018
0.010	-0.005	-0.005	0.000	-0.005	-0.005	0.044	3.970	3.018	3.018	3.008	3.022	3.022	3.013
0.010	-0.015	-0.010	0.000	-0.029	-0.029	0.044	3.960	3.013	3.013	3.003	3.022	3.013	3.003
0.000	-0.005	0.000	0.005	-0.039	-0.039	0.044	3.945	3.008	3.013	3.008	3.027	3.013	3.003
0.010	-0.010	-0.005	0.005	-0.020	-0.049	0.039	3.960	3.008	3.008	3.008	3.022	3.018	3.013
0.010	-0.010	0.000	0.005	-0.015	-0.039	0.039	3.921	3.003	3.008	3.008	3.022	3.022	3.018
0.010	-0.005	0.000	0.005	-0.010	-0.024	0.039	3.960	3.003	3.008	3.008	3.022	3.022	3.022
0.000	0.005	0.000	0.005	-0.010	-0.010	0.044	4.014	3.022	3.013	3.008	3.022	3.022	3.022
0.005	0.015	0.005	0.005	-0.005	0.015	0.044	3.926	3.013	3.018	3.013	3.022	3.027	3.037
0.000	0.015	0.005	0.005	0.015	0.024	0.044	3.970	3.013	3.018	3.013	3.027	3.027	3.037
-0.010	0.020	0.010	0.005	0.015	0.029	0.044	3.970	3.013	3.018	3.018	3.027	3.027	3.037
-0.010	0.024	0.010	0.005	0.000	0.020	0.039	3.970	3.018	3.018	3.013	3.027	3.022	3.027
-0.010	0.024	0.010	0.005	-0.005	0.024	0.039	3.970	3.018	3.018	3.013	3.027	3.022	3.032
-0.005	0.015	0.000	0.005	-0.005	0.024	0.039	3.970	3.018	3.013	3.013	3.027	3.022	3.027
-0.005	0.024	0.005	0.005	0.000	0.039	0.039	3.970	3.022	3.018	3.013	3.027	3.022	3.032
-0.005	0.005	0.000	0.000	0.005	0.039	0.044	3.979	3.022	3.013	3.008	3.027	3.027	3.032
0.010	-0.010	0.000	0.005	0.000	0.034	0.044	3.940	3.022	3.013	3.008	3.027	3.022	3.027
0.010	0.000	0.000	0.005	0.000	0.015	0.039	3.950	3.018	3.013	3.008	3.027	3.022	3.022
0.005	-0.015	0.000	0.000	-0.005	0.010	0.039	3.945	3.018	3.013	3.008	3.022	3.018	3.018
0.015	0.000	-0.005	0.000	-0.010	-0.005	0.039	3.931	3.013	3.018	3.013	3.022	3.018	3.018
0.010	-0.015	-0.005	-0.005	0.005	-0.010	0.044	3.960	3.008	3.008	3.008	3.022	3.022	3.013
0.010	0.000	-0.005	0.000	0.005	-0.024	0.044	4.102	3.022	3.013	3.008	3.022	3.022	3.013
0.010	0.000	-0.005	0.005	0.015	-0.049	0.044	3.931	3.018	3.018	3.008	3.027	3.022	3.008
0.005	0.015	-0.005	0.000	0.010	-0.039	0.039	4.092	3.032	3.022	3.013	3.022	3.022	3.018
0.005	0.015	0.000	-0.005	0.015	-0.024	0.044	3.970	3.027	3.018	3.013	3.027	3.022	3.022
-0.005	0.000	0.000	0.000	0.015	-0.010	0.044	3.965	3.018	3.018	3.013	3.027	3.022	3.027
-0.010	0.010	0.005	0.000	0.034	0.000	0.044	3.970	3.018	3.022	3.018	3.027	3.032	3.032
-0.005	0.005	0.010	0.000	0.024	0.005	0.039	3.970	3.018	3.018	3.018	3.032	3.027	3.037
-0.015	0.015	0.005	0.000	0.015	0.020	0.039	3.970	3.022	3.022	3.018	3.032	3.027	3.032
-0.005	0.010	0.010	0.000	0.010	0.010	0.039	3.970	3.022	3.018	3.018	3.032	3.022	3.032
0.000	-0.005	0.005	-0.005	-0.005	0.020	0.044	3.970	3.022	3.018	3.013	3.032	3.022	3.032
0.000	-0.020	0.005	0.005	-0.015	0.010	0.044	3.955	3.022	3.013	3.013	3.032	3.018	3.027
0.000	-0.015	0.000	0.005	-0.010	0.010	0.044	3.931	3.013	3.013	3.013	3.027	3.027	3.027
0.010	-0.020	-0.005	0.005	-0.010	0.020	0.039	3.940	3.018	3.013	3.008	3.027	3.022	3.027
0.015	-0.020	-0.005	0.005	-0.005	0.005	0.039	3.955	3.018	3.013	3.008	3.027	3.027	3.022
0.010	-0.020	-0.005	0.000	0.005	0.000	0.044	3.926	3.013	3.013	3.008	3.027	3.022	3.022
0.005	0.005	-0.005	0.000	-0.010	0.010	0.044	3.916	3.008	3.018	3.008	3.027	3.022	3.022
0.010	0.000	-0.005	0.000	0.005	0.000	0.044	3.926	3.008	3.008	3.008	3.027	3.027	3.027
0.000	0.005	0.000	-0.005	0.020	0.005	0.039	3.979	3.008	3.013	3.008	3.027	3.027	3.027
-0.005	0.010	-0.005	0.000	0.015	0.010	0.039	3.960	3.013	3.013	3.008	3.027	3.027	3.027
-0.005	0.000	0.000	0.005	-0.020	-0.010	0.044	3.970	3.013	3.008	3.008	3.022	3.013	3.022
-0.010	-0.005	0.010	0.000	-0.039	-0.010	0.039	3.979	3.013	3.008	3.008	3.022	3.013	3.018
0.000	-0.005	0.010	0.000	-0.005	-0.024	0.039	3.975	3.018	3.013	3.013	3.027	3.022	3.018
0.000	0.000	0.005	0.000	0.000	-0.005	0.044	3.960	3.013	3.013	3.013	3.022	3.022	3.022
-0.010	0.000	0.005	0.005	0.005	-0.029	0.044	3.960	3.013	3.013	3.013	3.022	3.027	3.018
0.000	0.005	0.000	0.005	0.015	-0.005	0.039	3.945	3.013	3.018	3.013	3.027	3.027	3.027
-0.005	0.000	0.005	0.005	0.024	0.000	0.039	3.926	3.013	3.013	3.013	3.027	3.032	3.032
-0.005	0.005	0.005	-0.005	0.034	-0.010	0.039	3.940	3.013	3.013	3.013	3.027	3.027	3.032
-0.005	-0.005	0.005	0.000	0.068	0.005	0.044	3.950	3.013	3.013	3.013	3.027	3.037	3.037
0.000	0.005	-0.005	0.000	0.054	-0.005	0.039	4.082	3.027	3.018	3.008	3.022	3.027	3.032
0.000	-0.015	-0.005	0.000	0.078	-0.005	0.044	3.931	3.022	3.008	3.008	3.027	3.032	3.032
0.005	-0.005	-0.005	0.005	0.083	-0.005	0.044	4.092	3.042	3.018	3.008	3.027	3.032	3.037
0.010	-0.010	-0.005	0.000	-0.010	0.005	0.029	3.960	3.032	3.022	3.008	3.022	3.003	3.027
0.005	-0.005	-0.005	0.000	-0.049	-0.015	0.029	3.975	3.032	3.027	3.013	3.022	2.993	3.013
0.005	0.010	0.000	0.000	-0.103	0.005	0.029	3.979	3.027	3.032	3.018	3.027	2.988	3.008
0.005	0.020	-0.005	-0.005	-0.078	0.034	0.029	3.960	3.022	3.032	3.022	3.027	3.008	3.018
-0.005	0.020	0.000	-0.005	-0.078	0.029	0.029	3.960	3.018	3.027	3.022	3.032	3.008	3.013
0.000	0.044	0.000	0.000	-0.063	0.029	0.029	3.960	3.018	3.027	3.022	3.032	3.018	3.018
-0.005	0.010	0.000	0.005	-0.073	0.039	0.029	3.950	3.013	3.013	3.018	3.037	3.022	3.022
-0.005	-0.010	0.005	0.000	-0.049	0.029	0.029	3.940	3.013	3.008	3.018	3.037	3.032	3.022
-0.005	0.005	-0.005	0.010	0.015	0.015	0.044	3.950	3.008	3.013	3.018	3.037	3.047	3.032
-0.005	-0.010	0.010	0.000	0.073	0.000	0.039	3.940	3.008	3.008	3.018	3.032	3.062	3.032
0.005	0.010	0.005	0.000	0.049	-0.015	0.044	3.940	3.013	3.018	3.013	3.032	3.042	3.037
0.005	0.005	0.010	0.000	0.029	-0.015	0.044	4.102	3.032	3.018	3.013	3.032	3.032	3.032
0.000	-0.010	0.000	0.000	0.039	-0.010	0.039	3.936	3.022	3.013	3.008	3.032	3.037	3.032
0.000	0.015	-0.005	0.000	0.029	-0.010	0.044	3.911	3.013	3.022	3.013	3.027	3.027	3.037
0.000	0.005	-0.005	0.000	-0.010	-0.010	0.044	4.136	3.032	3.018	3.013	3.027	3.018	3.027
0.005	-0.024	0.000	0.000	0.000	-0.024	0.044	3.975	3.032	3.013	3.013	3.027	3.022	3.022
0.005	-0.024	-0.010	0.000	-0.005	-0.034	0.039	3.965	3.022	3.013	3.008	3.027	3.018	3.022
0.005	-0.039	-0.005	0.010	-0.005	-0.049	0.044	3.970	3.022	3.013	3.013	3.027	3.022	3.018
0.000	-0.015	-0.005	-0.005	-0.015	-0.010	0.044	3.970	3.018	3.018	3.013	3.022	3.018	3.032
0.000	-0.010	-0.005	0.000	-0.005	-0.020	0.044	3.965	3.018	3.022	3.018	3.027	3.022	3.027
-0.005	0.005	0.000	0.000	0.068	0.000	0.044	3.965	3.018	3.022	3.018	3.032	3.047	3.037
0.000	0.005	0.000	0.005	0.098	-0.010	0.044	3.955	3.018	3.022	3.018	3.032	3.047	3.037
0.000	0.020	0.000	0.000	0.112	0.010	0.044	3.945	3.018	3.027	3.022	3.032	3.047	3.047
0.000	0.044	0.005	0.000	0.093	0.010	0.044	3.936	3.018	3.027	3.022	3.037	3.037	3.047
0.000	-0.015	0.010	0.000	0.049	-0.010	0.044	3.945	3.018	3.013	3.018	3.032	3.022	3.037
0.005	-0.029	0.000	0.000	0.015	-0.005	0.039	4.067	3.027	3.008	3.013	3.032	3.013	3.027
-0.010	-0.015	0.010	0.005	-0.005	0.020	0.044	3.940	3.022	3.018	3.018	3.032	3.013	3.032
-0.010	0.015	0.010	0.000	-0.044	0.015	0.044	4.082	3.037	3.032	3.018	3.032	3.008	3.022
0.000	0.044	0.005	0.000	-0.059	0.010	0.044	3.965	3.037	3.042	3.022	3.032	3.008	3.018
0.000	0.054	0.000	0.000	-0.059	0.015	0.039	3.975	3.032	3.037	3.027	3.037	3.013	3.022
0.000	0.034	0.005	0.000	-0.049	0.005	0.044	3.970	3.022	3.032	3.027	3.037	3.022	3.022
0.010	0.015	0.000	-0.005	-0.044	0.005	0.039	3.970	3.022	3.022	3.022	3.037	3.027	3.022
0.005	-0.010	0.000	0.005	-0.044	-0.005	0.044	3.955	3.022	3.018	3.018	3.037	3.027	3.022
0.015	-0.010	-0.005	-0.005	-0.024	0.000	0.044	3.965	3.018	3.013	3.018	3.037	3.032	3.027
0.010	-0.029	-0.005	0.000	-0.024	-0.005	0.044	3.921	3.013	3.008	3.013	3.037	3.032	3.027
0.010	-0.039	-0.005	0.000	-0.010	0.010	0.039	3.921	3.013	3.008	3.013	3.032	3.037	3.032
0.005	-0.024	-0.005	0.000	-0.010	0.010	0.044	3.970	3.013	3.013	3.013	3.032	3.032	3.037
0.015	-0.024	0.000	0.000	-0.010	0.005	0.039	3.965	3.018	3.013	3.013	3.027	3.032	3.032
0.005	-0.005	0.005	0.005	0.000	0.000	0.039	3.955	3.013	3.018	3.013	3.032	3.032	3.037
-0.005	-0.005	0.010	0.000	0.000	0.010	0.039	3.965	3.013	3.018	3.013	3.027	3.032	3.032
0.000	0.005	0.005	0.000	0.005	0.015	0.039	4.028	3.027	3.022	3.013	3.032	3.032	3.037
-0.005	0.010	0.010	0.000	0.005	0.000	0.039	3.945	3.018	3.022	3.018	3.032	3.027	3.032
-0.010	0.034	0.000	0.005	0.000	0.000	0.044	4.072	3.027	3.027	3.018	3.032	3.027	3.032
-0.010	0.029	0.000	0.000	0.005	-0.020	0.044	4.126	3.047	3.032	3.022	3.032	3.032	3.027
-0.015	0.020	0.005	0.000	0.005	0.010	0.039	3.984	3.037	3.032	3.022	3.037	3.032	3.037
0.000	0.010	0.005	0.005	0.000	0.015	0.039	3.965	3.037	3.027	3.022	3.037	3.032	3.037
0.000	0.010	0.000	0.000	0.005	0.000	0.044	3.955	3.027	3.027	3.022	3.037	3.032	3.032
0.000	0.010	0.000	0.000	0.005	-0.005	0.039	3.970	3.027	3.032	3.022	3.037	3.032	3.032
0.000	-0.005	-0.005	-0.005	0.010	0.000	0.044	3.892	3.018	3.022	3.022	3.037	3.032	3.032
0.005	-0.015	0.000	0.000	0.005	0.015	0.039	3.921	3.042	3.022	3.018	3.037	3.032	3.037
0.005	-0.005	-0.005	0.005	0.000	0.005	0.044	3.911	3.047	3.032	3.018	3.037	3.032	3.032
0.005	-0.010	-0.005	0.000	0.005	0.015	0.044	3.955	3.037	3.032	3.022	3.037	3.032	3.037
0.005	-0.005	-0.005	0.000	-0.005	0.015	0.039	3.960	3.032	3.032	3.027	3.037	3.032	3.037
0.010	-0.005	0.000	0.000	0.005	0.010	0.044	3.955	3.022	3.027	3.027	3.037	3.032	3.032
0.000	-0.005	0.000	0.000	0.005	0.010	0.039	3.984	3.027	3.027	3.022	3.037	3.032	3.032
0.005	-0.005	0.010	0.000	0.010	0.010	0.044	3.960	3.027	3.027	3.027	3.042	3.037	3.032
0.005	0.015	-0.005	0.000	0.005	0.000	0.039	3.955	3.022	3.032	3.027	3.042	3.032	3.032
0.000	0.015	0.000	0.005	0.000	-0.005	0.044	3.965	3.018	3.027	3.022	3.042	3.032	3.032
0.005	0.005	0.005	0.000	0.000	0.015	0.039	3.950	3.018	3.022	3.022	3.042	3.037	3.042
-0.015	0.010	0.005	0.005	-0.010	0.010	0.039	3.931	3.013	3.018	3.022	3.042	3.037	3.037
-0.020	0.010	0.000	0.000	0.005	0.000	0.044	4.092	3.027	3.022	3.022	3.037	3.037	3.037
-0.015	0.015	0.005	0.000	0.005	-0.005	0.039	3.970	3.032	3.027	3.018	3.037	3.037	3.037
-0.010	-0.015	0.000	0.000	0.010	-0.010	0.039	3.970	3.027	3.013	3.018	3.037	3.037	3.032
0.000	-0.020	-0.005	0.000	0.010	-0.020	0.039	3.931	3.022	3.018	3.018	3.037	3.032	3.032
0.005	-0.005	-0.005	0.000	0.000	-0.005	0.044	3.916	3.022	3.022	3.018	3.037	3.032	3.037
0.010	-0.010	-0.005	0.000	-0.005	-0.020	0.044	4.082	3.037	3.027	3.018	3.037	3.027	3.027
0.020	-0.029	-0.005	0.000	0.010	-0.010	0.044	3.970	3.032	3.022	3.018	3.037	3.032	3.037
0.020	-0.054	-0.005	0.000	0.024	-0.010	0.044	3.965	3.027	3.018	3.018	3.032	3.037	3.042
0.010	-0.044	-0.005	0.000	0.020	0.010	0.044	3.960	3.022	3.018	3.018	3.032	3.032	3.042
0.015	-0.015	0.005	0.005	0.000	-0.005	0.044	3.975	3.027	3.027	3.018	3.037	3.027	3.037
0.005	0.039	-0.005	0.005	-0.005	0.010	0.039	3.960	3.022	3.047	3.027	3.037	3.027	3.037
-0.015	0.059	0.000	0.000	-0.010	-0.005	0.044	3.960	3.018	3.037	3.032	3.037	3.022	3.027
-0.010	0.029	0.000	0.010	-0.015	0.000	0.044	3.955	3.018	3.027	3.027	3.042	3.027	3.032
-0.015	0.015	0.010	0.015	-0.020	-0.010	0.044	3.901	3.013	3.022	3.027	3.042	3.027	3.032
-0.005	0.034	0.005	0.015	-0.059	0.010	0.044	3.965	3.018	3.022	3.027	3.042	3.022	3.027
-0.015	0.029	0.005	0.010	-0.083	0.005	0.044	3.975	3.018	3.022	3.022	3.042	3.018	3.027
-0.010	0.020	0.010	0.005	-0.103	0.000	0.039	3.936	3.013	3.018	3.022	3.037	3.018	3.027
-0.020	-0.005	0.010	0.000	-0.093	0.010	0.039	3.931	3.018	3.008	3.013	3.037	3.022	3.027
-0.015	-0.015	0.000	0.000	-0.063	0.010	0.044	3.955	3.018	3.008	3.008	3.032	3.032	3.032
-0.010	-0.029	0.000	-0.005	-0.015	0.000	0.044	4.053	3.032	3.008	3.008	3.032	3.042	3.032
0.000	-0.029	0.000	0.000	-0.063	0.005	0.044	3.989	3.037	3.013	3.008	3.027	3.022	3.032
0.005	-0.024	-0.005	0.005	-0.117	-0.005	0.039	3.965	3.032	3.022	3.008	3.027	3.008	3.022
0.010	0.010	-0.005	0.005	-0.088	0.000	0.039	3.979	3.032	3.037	3.018	3.032	3.022	3.022
0.020	0.024	-0.005	0.010	-0.020	0.005	0.039	3.975	3.032	3.037	3.022	3.032	3.047	3.037
0.020	0.029	-0.005	0.000	0.059	0.020	0.039	3.975	3.032	3.037	3.027	3.037	3.062	3.047
0.015	0.039	0.000	-0.005	0.054	0.015	0.039	3.940	3.027	3.032	3.027	3.037	3.052	3.047
0.005	0.005	0.005	-0.005	-0.005	0.034	0.044	3.979	3.022	3.022	3.022	3.037	3.032	3.047
0.015	0.000	-0.005	0.000	-0.039	0.034	0.044	3.960	3.022	3.018	3.022	3.037	3.022	3.042
0.010	-0.044	0.000	-0.005	-0.054	0.015	0.044	3.979	3.022	3.008	3.018	3.032	3.018	3.027
0.000	-0.024	0.000	0.000	-0.068	0.034	0.044	3.960	3.018	3.018	3.018	3.037	3.018	3.032
-0.005	0.010	0.005	0.005	-0.054	0.029	0.039	3.960	3.022	3.027	3.018	3.037	3.027	3.032
-0.020	0.015	0.005	0.005	-0.024	0.020	0.044	3.979	3.018	3.022	3.022	3.037	3.037	3.032
-0.010	0.010	0.010	0.005	0.044	0.020	0.039	3.970	3.022	3.022	3.022	3.042	3.057	3.037
-0.010	-0.005	0.005	0.005	0.054	0.000	0.039	3.960	3.022	3.018	3.022	3.037	3.047	3.037
-0.005	-0.010	0.005	0.000	0.034	-0.015	0.044	3.984	3.022	3.018	3.018	3.037	3.042	3.032
0.005	0.005	0.005	-0.005	0.010	-0.024	0.044	3.979	3.027	3.027	3.018	3.037	3.027	3.032
-0.005	0.020	-0.005	0.000	-0.010	-0.044	0.044	3.970	3.027	3.032	3.018	3.037	3.027	3.022
-0.005	0.000	0.000	0.005	0.020	-0.059	0.044	3.950	3.022	3.022	3.018	3.037	3.037	3.027
0.000	-0.029	0.000	0.000	0.049	-0.044	0.039	3.979	3.027	3.013	3.018	3.037	3.042	3.037
0.015	0.010	0.000	-0.005	0.078	-0.029	0.044	3.955	3.027	3.032	3.022	3.037	3.047	3.047
0.015	-0.010	0.000	0.000	0.054	-0.010	0.039	3.940	3.022	3.018	3.018	3.032	3.032	3.047
0.000	-0.024	-0.005	-0.005	0.049	0.010	0.044	3.965	3.018	3.018	3.013	3.037	3.032	3.047
0.010	-0.024	-0.005	0.000	0.034	0.034	0.044	3.965	3.022	3.018	3.018	3.032	3.027	3.052
0.010	0.020	0.000	-0.005	0.083	0.024	0.044	3.975	3.027	3.032	3.022	3.037	3.042	3.047
0.005	0.024	0.000	-0.005	0.151	0.010	0.044	3.965	3.027	3.032	3.022	3.037	3.062	3.047
0.000	0.034	0.005	-0.005	0.176	0.015	0.039	3.965	3.027	3.032	3.027	3.042	3.057	3.052
0.000	0.005	0.005	-0.005	0.151	0.034	0.039	3.979	3.027	3.022	3.022	3.037	3.047	3.057
-0.005	0.015	0.000	0.000	0.098	0.000	0.039	3.975	3.022	3.027	3.022	3.037	3.027	3.042
-0.020	0.024	0.005	0.005	0.063	-0.039	0.044	3.960	3.022	3.022	3.022	3.037	3.018	3.022
-0.015	-0.010	0.005	0.005	0.103	-0.049	0.039	3.975	3.027	3.013	3.022	3.042	3.037	3.022
0.010	-0.098	0.005	0.005	0.166	-0.068	0.044	3.970	3.032	2.998	3.013	3.037	3.052	3.027
0.005	-0.054	0.010	0.000	0.137	-0.063	0.044	3.984	3.027	3.018	3.013	3.032	3.037	3.027
0.010	0.015	-0.005	0.005	0.078	-0.049	0.044	3.960	3.027	3.037	3.018	3.032	3.022	3.032
-0.005	0.029	0.000	0.000	0.044	-0.024	0.039	3.975	3.027	3.037	3.022	3.037	3.018	3.032
0.000	0.068	0.005	0.000	0.020	-0.005	0.039	3.965	3.032	3.047	3.027	3.037	3.013	3.032
0.000	0.029	0.000	-0.005	-0.020	0.005	0.044	3.975	3.027	3.027	3.027	3.032	3.003	3.027
0.010	-0.034	-0.005	0.000	-0.063	0.015	0.044	3.955	3.022	3.008	3.018	3.037	3.008	3.027
0.015	-0.034	-0.005	0.000	-0.015	0.020	0.044	3.970	3.027	3.018	3.018	3.037	3.022	3.027
0.005	-0.034	-0.010	0.005	0.029	0.024	0.044	3.965	3.027	3.018	3.018	3.037	3.037	3.037
0.010	-0.020	-0.005	0.010	-0.010	0.039	0.044	3.965	3.027	3.022	3.018	3.037	3.027	3.032
0.000	0.000	0.000	0.005	-0.020	0.039	0.039	3.975	3.022	3.027	3.022	3.037	3.027	3.032
0.000	0.029	0.000	0.005	-0.044	0.020	0.044	3.965	3.022	3.032	3.027	3.037	3.022	3.022
-0.015	0.054	0.005	0.000	-0.049	0.034	0.039	3.970	3.018	3.037	3.027	3.037	3.022	3.027
-0.005	0.029	0.010	0.005	-0.059	0.015	0.044	3.955	3.022	3.027	3.027	3.042	3.022	3.022
-0.015	0.029	0.005	0.000	-0.083	0.034	0.039	3.940	3.013	3.018	3.022	3.042	3.018	3.027
-0.015	-0.005	0.000	0.000	-0.127	0.034	0.039	3.970	3.018	3.008	3.018	3.037	3.013	3.022
-0.010	-0.024	0.005	0.000	-0.098	0.010	0.039	3.970	3.022	3.008	3.013	3.037	3.027	3.018
-0.005	-0.044	0.000	0.005	-0.068	0.029	0.044	3.965	3.018	3.003	3.013	3.037	3.037	3.027
-0.010	-0.049	0.005	0.000	-0.049	0.005	0.039	3.975	3.018	3.003	3.008	3.032	3.037	3.027
-0.010	0.044	0.005	0.000	-0.029	0.010	0.039	3.965	3.022	3.042	3.018	3.032	3.037	3.032
-0.005	0.068	0.000	-0.005	-0.068	0.010	0.039	3.970	3.027	3.037	3.022	3.032	3.027	3.032
0.000	0.098	0.000	-0.005	-0.059	-0.010	0.044	3.979	3.027	3.042	3.027	3.037	3.027	3.027
0.010	-0.024	-0.005	-0.005	-0.098	-0.005	0.044	3.970	3.018	2.998	3.018	3.032	3.018	3.027
0.010	-0.098	-0.005	-0.005	-0.103	-0.020	0.044	3.979	3.018	2.983	3.003	3.032	3.018	3.018
0.024	-0.044	-0.010	0.000	-0.078	-0.005	0.039	3.984	3.027	3.013	3.008	3.027	3.027	3.027
0.015	-0.020	-0.005	-0.005	-0.093	0.005	0.044	3.970	3.022	3.022	3.008	3.027	3.022	3.027
0.015	-0.044	0.000	-0.005	-0.068	0.000	0.039	3.970	3.018	3.013	3.008	3.027	3.027	3.032
0.010	0.034	0.005	-0.005	-0.044	-0.010	0.044	3.975	3.022	3.042	3.022	3.032	3.032	3.032
0.015	0.049	0.005	0.005	-0.024	0.005	0.044	3.955	3.022	3.042	3.027	3.037	3.042	3.037
0.000	0.068	0.000	0.005	-0.010	0.005	0.039	3.979	3.022	3.037	3.027	3.042	3.042	3.042
0.000	0.093	0.000	0.015	0.020	-0.005	0.044	4.092	3.037	3.042	3.032	3.042	3.052	3.042
0.000	0.015	0.005	0.010	0.029	0.005	0.044	3.975	3.032	3.013	3.027	3.042	3.052	3.047
-0.005	-0.015	0.010	0.000	0.054	0.010	0.044	3.970	3.027	3.013	3.022	3.042	3.052	3.052
-0.010	0.000	0.005	0.000	0.063	0.010	0.039	3.970	3.027	3.022	3.018	3.037	3.052	3.052
-0.015	0.000	0.010	0.000	0.073	0.005	0.039	3.965	3.022	3.022	3.022	3.037	3.047	3.052
-0.005	-0.005	0.005	0.000	0.073	-0.010	0.044	3.970	3.027	3.022	3.022	3.042	3.047	3.047
0.000	-0.034	0.005	0.005	0.078	-0.005	0.044	3.965	3.027	3.018	3.018	3.037	3.042	3.047
0.005	-0.024	0.000	0.005	0.083	-0.005	0.044	3.975	3.032	3.018	3.018	3.037	3.042	3.052
0.000	-0.005	-0.005	0.005	0.073	0.000	0.044	3.960	3.027	3.032	3.018	3.032	3.037	3.047
-0.005	-0.005	-0.005	0.000	0.073	0.015	0.039	3.970	3.027	3.027	3.018	3.037	3.037	3.047
-0.005	0.005	-0.005	0.000	0.068	0.010	0.039	3.970	3.022	3.027	3.022	3.032	3.032	3.042
0.000	-0.015	-0.005	0.010	0.068	0.010	0.039	3.965	3.027	3.022	3.022	3.037	3.032	3.042
0.000	-0.015	-0.005	0.000	0.073	0.010	0.039	3.970	3.027	3.022	3.018	3.037	3.032	3.037
0.005	-0.010	0.000	0.005	0.059	-0.020	0.044	3.979	3.022	3.022	3.022	3.037	3.027	3.027
-0.005	0.010	0.000	0.010	0.054	0.005	0.044	3.979	3.027	3.032	3.022	3.037	3.032	3.037
0.000	0.000	0.000	0.010	0.054	0.010	0.044	3.960	3.022	3.027	3.022	3.037	3.032	3.037
0.005	0.015	-0.005	0.010	0.049	0.015	0.044	3.955	3.018	3.027	3.027	3.037	3.032	3.037
0.005	-0.005	0.010	0.000	0.044	0.020	0.039	3.975	3.022	3.022	3.027	3.037	3.027	3.037
0.000	0.010	0.005	0.005	0.029	0.015	0.039	3.965	3.022	3.027	3.022	3.037	3.027	3.032
-0.005	-0.005	0.010	-0.005	-0.005	0.005	0.039	3.975	3.022	3.018	3.018	3.037	3.018	3.027
0.005	-0.034	0.010	-0.005	-0.073	0.000	0.044	3.984	3.027	3.013	3.018	3.037	3.003	3.018
0.000	0.000	0.005	-0.005	-0.054	0.000	0.044	3.950	3.022	3.022	3.018	3.037	3.018	3.022
-0.005	-0.010	0.005	0.000	-0.024	-0.005	0.044	3.965	3.022	3.022	3.018	3.037	3.032	3.018
-0.005	0.029	0.000	0.005	0.005	-0.020	0.044	3.965	3.022	3.037	3.022	3.037	3.037	3.027
-0.010	0.034	-0.005	0.000	0.010	-0.015	0.039	3.940	3.018	3.027	3.022	3.037	3.037	3.027
0.000	0.020	-0.005	0.005	-0.010	-0.024	0.044	3.965	3.018	3.022	3.022	3.037	3.027	3.027
0.005	0.024	-0.005	0.000	-0.029	-0.020	0.039	3.979	3.022	3.018	3.018	3.037	3.027	3.032
0.005	-0.029	0.000	0.000	-0.020	-0.010	0.039	3.975	3.022	3.008	3.013	3.032	3.027	3.032
0.024	-0.034	-0.005	0.005	-0.068	-0.020	0.044	3.960	3.027	3.013	3.008	3.032	3.018	3.022
0.034	-0.024	-0.005	0.005	-0.059	-0.005	0.044	3.970	3.022	3.018	3.013	3.032	3.022	3.027
0.015	0.010	0.000	0.005	-0.034	-0.024	0.044	3.979	3.022	3.027	3.018	3.032	3.027	3.022
0.005	-0.010	0.000	0.000	-0.005	-0.005	0.044	3.970	3.022	3.018	3.013	3.032	3.037	3.032
0.005	-0.015	0.000	-0.005	0.000	-0.020	0.039	3.970	3.018	3.018	3.018	3.032	3.037	3.032
-0.005	0.005	0.005	-0.005	-0.005	-0.039	0.039	3.984	3.018	3.022	3.018	3.032	3.032	3.027
-0.015	-0.010	0.010	-0.005	-0.034	-0.063	0.039	3.984	3.018	3.018	3.013	3.032	3.022	3.018
-0.010	-0.005	0.000	-0.005	-0.020	-0.034	0.039	3.975	3.022	3.018	3.013	3.032	3.027	3.032
-0.010	0.000	0.005	0.000	-0.029	-0.015	0.044	4.082	3.032	3.022	3.018	3.032	3.027	3.037
-0.015	0.015	0.000	0.000	-0.044	-0.015	0.039	3.975	3.032	3.027	3.018	3.032	3.022	3.032
-0.015	0.015	0.005	0.000	-0.039	0.000	0.044	3.970	3.027	3.027	3.022	3.032	3.027	3.037
-0.020	-0.005	0.000	0.000	-0.034	0.000	0.039	3.970	3.027	3.022	3.022	3.037	3.032	3.037
-0.010	0.000	0.005	0.005	0.005	0.005	0.039	3.926	3.022	3.022	3.022	3.042	3.042	3.037
0.000	-0.005	0.000	0.000	0.039	-0.005	0.044	3.970	3.022	3.022	3.022	3.037	3.047	3.042
0.005	0.010	-0.005	0.000	0.093	0.005	0.044	3.975	3.027	3.027	3.018	3.042	3.062	3.052
0.005	-0.005	-0.010	0.005	0.107	0.010	0.044	3.975	3.032	3.022	3.018	3.042	3.057	3.052
0.010	0.005	-0.005	0.005	0.088	0.020	0.044	3.970	3.032	3.027	3.022	3.042	3.047	3.057
0.010	0.000	0.000	0.015	0.088	0.039	0.044	3.960	3.027	3.027	3.022	3.042	3.047	3.057
0.015	0.000	0.000	0.005	0.054	0.024	0.039	3.975	3.032	3.022	3.022	3.037	3.027	3.047
0.005	0.000	0.005	0.005	0.000	0.010	0.039	3.960	3.032	3.027	3.022	3.037	3.013	3.032
-0.005	0.000	0.005	0.005	-0.054	-0.010	0.039	3.965	3.022	3.027	3.022	3.032	3.003	3.018
0.000	0.005	0.005	-0.005	-0.059	-0.010	0.039	3.979	3.027	3.027	3.022	3.037	3.008	3.018
0.000	0.015	0.010	-0.005	-0.049	0.005	0.044	3.984	3.027	3.027	3.027	3.037	3.018	3.022
-0.005	0.020	0.010	-0.005	-0.078	0.005	0.044	3.984	3.022	3.027	3.022	3.037	3.018	3.018
0.005	0.015	0.010	-0.005	-0.059	-0.020	0.044	3.960	3.022	3.027	3.027	3.042	3.022	3.018
-0.005	0.015	0.010	0.000	-0.068	-0.015	0.044	3.975	3.022	3.027	3.027	3.042	3.027	3.022
0.005	0.010	0.000	0.000	-0.049	-0.024	0.044	3.970	3.022	3.022	3.022	3.042	3.037	3.022
0.000	0.000	0.000	0.000	0.059	-0.015	0.039	3.975	3.022	3.018	3.022	3.042	3.066	3.042
-0.005	-0.005	0.005	-0.005	0.073	-0.039	0.039	3.936	3.022	3.018	3.018	3.037	3.057	3.047
0.000	-0.010	0.005	-0.005	0.015	-0.010	0.044	3.975	3.027	3.018	3.018	3.037	3.032	3.047
0.005	-0.020	-0.005	-0.005	-0.049	-0.039	0.044	3.965	3.027	3.018	3.013	3.037	3.018	3.032
0.005	0.000	-0.010	-0.005	-0.024	-0.059	0.039	3.975	3.027	3.022	3.013	3.032	3.027	3.027
-0.015	0.015	-0.005	0.005	0.020	-0.029	0.039	3.970	3.022	3.032	3.018	3.037	3.042	3.042
0.000	0.010	0.000	-0.010	0.073	-0.010	0.039	3.970	3.027	3.027	3.022	3.037	3.052	3.052
0.010	-0.020	0.000	-0.005	0.088	0.029	0.044	3.965	3.027	3.018	3.018	3.032	3.052	3.066
0.005	-0.029	0.010	-0.005	0.049	0.073	0.039	3.970	3.027	3.022	3.022	3.037	3.037	3.066
0.015	-0.020	-0.005	0.000	0.020	0.068	0.044	3.921	3.027	3.027	3.018	3.032	3.027	3.052
0.005	-0.015	0.000	0.000	0.000	0.059	0.044	3.965	3.022	3.022	3.018	3.037	3.022	3.042
0.010	-0.010	0.000	0.010	0.088	0.044	0.039	3.970	3.027	3.027	3.022	3.042	3.052	3.042
0.020	0.024	0.000	0.010	0.151	0.034	0.039	3.975	3.032	3.042	3.027	3.042	3.066	3.052
-0.005	0.044	0.005	0.005	0.127	0.029	0.039	3.984	3.027	3.037	3.032	3.042	3.047	3.047
-0.005	0.073	0.000	-0.005	0.020	0.015	0.044	3.970	3.027	3.047	3.032	3.037	3.013	3.032
-0.020	0.078	0.005	-0.020	-0.063	-0.015	0.039	3.970	3.022	3.037	3.032	3.037	2.993	3.013
-0.020	0.020	0.005	-0.015	-0.112	0.010	0.044	3.970	3.018	3.018	3.027	3.037	2.993	3.013
-0.020	-0.005	0.000	-0.005	-0.127	0.020	0.039	3.975	3.018	3.008	3.022	3.042	3.003	3.013
0.000	-0.049	0.005	0.000	-0.122	0.005	0.044	3.975	3.022	3.003	3.018	3.042	3.013	3.013
0.015	-0.054	0.000	0.005	-0.117	0.010	0.039	3.984	3.027	3.003	3.008	3.037	3.022	3.013
0.020	-0.020	-0.005	0.010	-0.093	-0.015	0.039	3.970	3.027	3.022	3.013	3.037	3.032	3.018
0.015	0.005	-0.005	0.005	-0.054	0.010	0.044	3.970	3.027	3.027	3.018	3.037	3.042	3.032
0.020	-0.044	-0.010	0.010	-0.029	-0.005	0.044	3.960	3.018	3.008	3.008	3.032	3.047	3.032
0.015	-0.063	-0.010	0.015	0.000	-0.029	0.044	3.965	3.018	3.008	3.008	3.032	3.047	3.032
0.015	-0.024	-0.010	0.010	0.000	-0.020	0.044	3.965	3.018	3.022	3.013	3.032	3.042	3.037
0.015	-0.010	0.000	0.005	0.010	-0.020	0.039	4.082	3.037	3.027	3.018	3.032	3.037	3.037
0.005	0.010	0.000	0.005	0.010	-0.010	0.044	3.965	3.032	3.032	3.022	3.032	3.037	3.042
0.005	0.020	0.005	0.005	0.020	0.000	0.039	3.975	3.032	3.037	3.027	3.037	3.042	3.047
0.000	0.015	0.010	0.005	0.024	-0.005	0.039	3.984	3.027	3.032	3.027	3.042	3.042	3.037
-0.020	0.044	0.005	0.005	0.020	0.015	0.044	3.960	3.027	3.037	3.027	3.042	3.037	3.047
-0.010	-0.005	0.005	0.005	0.000	0.020	0.044	3.960	3.027	3.022	3.027	3.042	3.032	3.047
-0.010	-0.015	0.000	0.005	-0.015	0.015	0.044	3.960	3.022	3.018	3.022	3.042	3.027	3.037
-0.010	-0.068	0.010	0.005	-0.010	0.005	0.039	3.975	3.022	3.003	3.018	3.037	3.027	3.037
-0.005	-0.059	0.005	-0.005	-0.015	-0.029	0.039	3.979	3.027	3.013	3.013	3.032	3.027	3.027
0.005	-0.010	0.005	-0.005	-0.005	0.000	0.044	3.970	3.027	3.037	3.018	3.032	3.032	3.037
0.020	0.073	0.000	-0.005	0.005	0.000	0.044	3.965	3.032	3.052	3.032	3.037	3.037	3.037
0.005	-0.010	0.000	0.000	0.000	-0.005	0.044	3.970	3.022	3.018	3.022	3.037	3.032	3.037
0.000	0.020	-0.005	0.000	-0.005	0.000	0.044	3.955	3.027	3.037	3.027	3.037	3.032	3.037
-0.005	0.166	-0.005	0.000	0.000	0.000	0.039	3.965	3.027	3.071	3.042	3.047	3.037	3.037
-0.005	0.049	-0.005	0.000	-0.005	0.010	0.044	3.970	3.022	3.022	3.032	3.047	3.037	3.037
-0.015	-0.029	-0.005	-0.005	0.000	0.005	0.039	3.979	3.018	2.998	3.018	3.042	3.037	3.037
-0.010	-0.029	-0.010	-0.005	-0.005	0.010	0.044	3.931	3.018	3.003	3.013	3.037	3.032	3.037
-0.005	0.010	-0.005	-0.005	-0.010	0.020	0.039	3.970	3.022	3.022	3.013	3.037	3.032	3.042
-0.005	0.000	0.000	0.005	-0.020	0.000	0.044	3.955	3.018	3.018	3.018	3.037	3.032	3.027
-0.010	0.000	0.000	0.000	-0.005	-0.010	0.044	3.975	3.022	3.022	3.018	3.037	3.032	3.037
-0.005	0.059	0.010	0.010	0.000	0.010	0.044	3.975	3.027	3.037	3.027	3.037	3.037	3.042
0.005	0.068	0.005	0.010	0.010	0.010	0.039	3.955	3.027	3.037	3.027	3.042	3.042	3.042
0.024	-0.015	0.010	0.005	0.010	-0.015	0.039	3.970	3.032	3.013	3.022	3.042	3.037	3.037
0.020	-0.044	0.015	0.000	0.015	0.010	0.039	3.979	3.032	3.008	3.018	3.037	3.042	3.042
0.010	-0.088	0.010	0.000	0.020	0.005	0.039	3.940	3.027	3.003	3.013	3.037	3.037	3.042
0.005	-0.010	0.005	0.010	0.015	-0.015	0.044	3.965	3.027	3.027	3.013	3.037	3.037	3.032
-0.020	0.063	0.000	0.005	0.010	-0.005	0.039	3.950	3.018	3.047	3.022	3.032	3.032	3.037
-0.020	0.005	-0.010	0.000	0.005	-0.020	0.039	3.970	3.018	3.018	3.018	3.032	3.027	3.032
-0.015	-0.063	-0.010	0.005	0.000	-0.015	0.044	3.975	3.018	3.003	3.008	3.032	3.027	3.032
-0.005	-0.020	-0.015	0.005	0.010	0.000	0.044	3.965	3.027	3.022	3.013	3.027	3.032	3.037
0.005	0.010	-0.015	0.000	0.000	-0.010	0.044	3.970	3.032	3.027	3.018	3.032	3.027	3.032
0.024	-0.049	-0.020	0.000	0.005	0.015	0.044	3.975	3.032	3.013	3.013	3.032	3.027	3.037
0.029	-0.020	-0.005	0.015	0.005	0.005	0.044	3.955	3.027	3.027	3.022	3.037	3.027	3.032
0.015	0.059	0.005	0.000	0.005	0.000	0.044	3.960	3.027	3.052	3.032	3.037	3.027	3.032
0.024	-0.010	0.010	0.000	0.000	0.010	0.044	3.960	3.022	3.013	3.027	3.037	3.032	3.037
0.015	-0.073	0.015	0.010	-0.005	0.005	0.044	3.960	3.018	3.003	3.018	3.037	3.027	3.032
0.000	-0.044	0.015	0.005	-0.005	-0.005	0.039	3.965	3.018	3.018	3.018	3.037	3.027	3.027
-0.005	0.054	0.000	0.005	-0.024	0.010	0.044	3.970	3.022	3.047	3.022	3.037	3.027	3.032
0.010	0.073	0.000	0.005	-0.029	0.005	0.039	3.979	3.032	3.047	3.027	3.042	3.027	3.032
-0.005	0.000	-0.005	-0.005	-0.034	0.005	0.044	4.097	3.032	3.018	3.022	3.037	3.027	3.032
-0.005	-0.005	0.000	0.000	-0.039	0.029	0.044	3.970	3.032	3.022	3.022	3.037	3.027	3.037
-0.010	0.015	0.000	0.000	-0.039	0.020	0.044	3.965	3.032	3.032	3.022	3.037	3.032	3.032
-0.010	0.024	-0.010	0.000	-0.049	0.000	0.039	3.965	3.027	3.032	3.022	3.037	3.027	3.027
-0.010	0.015	-0.015	-0.005	-0.034	0.005	0.039	3.965	3.027	3.027	3.018	3.037	3.037	3.032
-0.005	0.068	-0.010	0.000	-0.044	-0.020	0.044	3.960	3.027	3.047	3.027	3.042	3.032	3.027
0.005	0.044	0.000	-0.005	-0.049	0.005	0.039	3.979	3.032	3.027	3.032	3.042	3.032	3.032
0.015	-0.044	-0.005	0.005	-0.029	-0.010	0.044	3.984	3.027	3.003	3.018	3.042	3.042	3.032
0.015	-0.054	-0.024	0.005	-0.029	-0.029	0.039	3.970	3.022	3.008	3.008	3.037	3.037	3.032
0.015	-0.015	-0.029	0.000	-0.039	-0.044	0.044	3.970	3.022	3.022	3.013	3.032	3.027	3.027
0.000	-0.015	-0.020	0.000	-0.039	-0.068	0.044	3.965	3.022	3.022	3.013	3.032	3.027	3.022
-0.005	-0.010	0.000	-0.005	-0.044	-0.034	0.039	3.975	3.018	3.022	3.022	3.032	3.027	3.037
-0.010	0.005	0.010	-0.005	-0.044	-0.005	0.044	3.965	3.018	3.027	3.027	3.037	3.032	3.042
-0.015	0.034	0.010	0.000	-0.020	0.020	0.044	3.955	3.018	3.027	3.022	3.042	3.042	3.047
-0.010	0.020	0.015	-0.010	0.005	0.010	0.039	3.970	3.022	3.022	3.027	3.037	3.042	3.047
-0.005	-0.010	0.015	0.010	-0.005	0.010	0.044	3.965	3.022	3.013	3.022	3.047	3.037	3.047
-0.005	-0.020	0.015	0.015	-0.024	0.005	0.044	3.960	3.022	3.013	3.018	3.042	3.032	3.042
0.000	-0.029	0.015	0.000	-0.039	0.010	0.044	3.960	3.022	3.013	3.013	3.037	3.032	3.037
-0.005	-0.049	0.020	-0.005	-0.044	0.000	0.044	3.965	3.022	3.013	3.018	3.032	3.027	3.037
0.010	-0.029	0.020	-0.010	-0.020	0.020	0.039	3.970	3.032	3.022	3.013	3.032	3.032	3.037
0.000	0.005	0.020	-0.020	-0.010	0.010	0.039	3.970	3.027	3.032	3.022	3.032	3.037	3.037
0.010	0.063	0.010	-0.005	0.010	0.000	0.044	3.965	3.032	3.052	3.027	3.037	3.037	3.037
0.000	0.103	0.010	0.005	-0.024	0.015	0.044	3.979	3.032	3.052	3.032	3.042	3.032	3.042
-0.005	0.020	0.000	0.015	0.000	0.029	0.039	3.960	3.022	3.022	3.027	3.047	3.042	3.042
-0.010	-0.039	0.000	0.015	0.034	0.020	0.044	3.926	3.013	3.003	3.018	3.042	3.052	3.042
-0.024	-0.063	-0.010	0.010	0.049	0.000	0.044	3.965	3.008	2.998	3.008	3.037	3.052	3.042
-0.005	-0.122	-0.010	0.015	0.083	-0.020	0.044	3.979	3.018	2.983	2.998	3.032	3.052	3.037
0.010	-0.137	-0.015	0.034	0.068	-0.005	0.044	3.960	3.022	2.993	2.993	3.032	3.042	3.047
0.010	0.020	0.000	0.024	0.063	-0.005	0.044	3.955	3.032	3.057	3.018	3.027	3.037	3.042
0.015	0.029	0.005	0.020	0.059	0.005	0.044	3.955	3.027	3.042	3.027	3.032	3.032	3.047
0.034	0.029	0.005	0.015	0.073	-0.005	0.044	3.970	3.037	3.047	3.027	3.037	3.037	3.037
0.010	0.015	0.005	0.010	0.034	0.000	0.039	3.979	3.032	3.032	3.027	3.037	3.022	3.037
0.010	0.059	0.000	0.015	0.020	0.010	0.039	3.970	3.032	3.052	3.032	3.037	3.027	3.037
-0.005	0.088	0.005	0.010	0.054	0.029	0.039	3.960	3.027	3.047	3.037	3.042	3.037	3.042
0.000	-0.015	0.000	0.000	0.059	0.024	0.044	3.960	3.022	3.013	3.027	3.042	3.037	3.037
-0.005	-0.059	0.000	-0.005	0.034	0.015	0.044	3.960	3.022	3.003	3.018	3.037	3.032	3.037
0.000	0.034	-0.005	-0.010	0.093	0.024	0.044	3.970	3.032	3.042	3.027	3.037	3.047	3.042
0.015	0.059	0.000	0.000	-0.039	0.024	0.039	3.975	3.037	3.037	3.027	3.042	3.003	3.032
0.024	-0.029	0.000	0.000	-0.132	0.020	0.039	3.975	3.032	3.013	3.018	3.037	2.988	3.018
0.000	-0.010	-0.005	-0.005	-0.142	0.020	0.044	3.975	3.022	3.022	3.022	3.037	2.998	3.013
-0.034	0.059	-0.005	-0.005	-0.151	0.000	0.039	3.955	3.013	3.037	3.027	3.037	3.003	3.008
-0.020	0.166	0.005	-0.005	-0.132	0.005	0.044	3.975	3.022	3.066	3.037	3.042	3.018	3.013
-0.005	0.039	-0.005	-0.005	-0.112	0.000	0.044	3.960	3.018	3.008	3.027	3.042	3.027	3.018
0.005	-0.015	0.005	-0.005	-0.103	-0.005	0.044	3.955	3.018	2.998	3.022	3.042	3.032	3.022
-0.005	-0.029	0.005	-0.005	-0.078	0.000	0.044	3.970	3.013	2.998	3.013	3.037	3.042	3.027
-0.005	-0.010	0.015	-0.010	-0.044	-0.010	0.039	3.975	3.018	3.008	3.018	3.037	3.047	3.032
0.005	0.024	0.005	-0.005	-0.029	0.000	0.039	3.975	3.022	3.022	3.013	3.037	3.047	3.037
0.005	0.039	0.000	-0.010	-0.029	0.015	0.039	3.979	3.027	3.027	3.018	3.032	3.042	3.047
0.005	-0.015	0.005	-0.010	-0.010	0.015	0.044	3.975	3.018	3.008	3.013	3.037	3.047	3.047
0.000	-0.005	-0.005	-0.015	0.015	-0.010	0.044	3.975	3.022	3.013	3.008	3.032	3.047	3.042
-0.005	-0.005	-0.010	-0.015	0.000	0.010	0.044	3.965	3.022	3.018	3.008	3.027	3.037	3.042
-0.015	0.015	-0.005	-0.015	0.005	0.015	0.044	3.975	3.022	3.027	3.013	3.027	3.037	3.047
-0.010	-0.005	0.005	0.000	0.029	0.005	0.039	3.970	3.027	3.018	3.018	3.037	3.042	3.042
-0.010	-0.010	-0.015	0.010	0.034	-0.005	0.044	3.960	3.022	3.018	3.013	3.037	3.042	3.042
-0.005	-0.029	-0.015	0.000	0.024	0.000	0.044	3.979	3.027	3.013	3.013	3.032	3.032	3.037
0.005	-0.054	-0.015	-0.010	0.010	0.010	0.044	3.965	3.027	3.013	3.008	3.027	3.027	3.037
0.010	-0.054	-0.010	-0.020	-0.005	-0.005	0.044	3.911	3.022	3.013	3.013	3.022	3.018	3.032
0.020	-0.020	-0.005	-0.024	-0.005	0.015	0.039	3.970	3.027	3.022	3.018	3.022	3.022	3.037
0.015	-0.029	0.005	-0.015	0.024	0.029	0.039	3.979	3.027	3.022	3.018	3.032	3.032	3.037
0.029	-0.015	0.010	0.015	0.049	0.010	0.044	3.979	3.032	3.032	3.027	3.047	3.037	3.037
0.024	-0.010	0.005	0.020	0.034	0.005	0.039	3.965	3.027	3.032	3.022	3.042	3.037	3.037
0.015	-0.015	0.000	0.015	0.034	0.020	0.039	3.970	3.022	3.022	3.022	3.042	3.037	3.037
0.005	0.000	0.005	0.010	0.039	0.010	0.044	3.970	3.022	3.027	3.022	3.042	3.037	3.037
-0.015	0.000	0.010	0.015	0.044	-0.020	0.039	3.975	3.022	3.027	3.027	3.042	3.037	3.027
-0.005	0.000	0.015	0.010	0.039	-0.010	0.044	3.940	3.018	3.027	3.022	3.037	3.037	3.037
0.000	-0.005	0.010	0.000	0.039	0.005	0.044	3.979	3.022	3.027	3.022	3.037	3.037	3.037
0.005	-0.020	0.005	0.005	0.044	-0.005	0.039	3.965	3.022	3.018	3.022	3.042	3.037	3.037
-0.020	0.000	0.005	0.000	0.034	-0.020	0.039	3.970	3.013	3.022	3.018	3.037	3.032	3.032
-0.054	-0.020	0.005	0.000	0.034	-0.020	0.044	3.970	3.008	3.013	3.018	3.032	3.032	3.032
-0.073	-0.029	0.010	-0.005	0.039	0.000	0.039	3.960	3.008	3.008	3.013	3.032	3.032	3.037
-0.078	-0.034	0.005	-0.005	0.049	0.005	0.044	3.979	3.008	3.008	3.008	3.032	3.032	3.037
-0.020	0.000	0.000	0.015	0.044	0.010	0.044	3.965	3.037	3.027	3.013	3.037	3.032	3.037
0.107	0.044	-0.005	0.029	0.039	0.020	0.039	3.965	3.071	3.057	3.022	3.042	3.037	3.042
-0.020	0.063	-0.010	0.015	0.054	0.020	0.039	3.970	3.018	3.042	3.027	3.037	3.037	3.037
-0.098	0.059	-0.005	-0.015	0.063	0.010	0.044	3.970	2.998	3.032	3.027	3.032	3.037	3.032
-0.059	0.044	0.000	-0.029	0.063	0.000	0.039	3.965	3.018	3.022	3.027	3.027	3.032	3.032
0.015	0.029	0.000	-0.054	0.063	0.015	0.044	3.950	3.042	3.022	3.022	3.027	3.027	3.032
0.107	0.015	-0.005	-0.044	0.078	0.005	0.039	3.975	3.066	3.032	3.022	3.032	3.032	3.032
0.210	0.010	0.005	-0.015	0.073	-0.005	0.039	3.975	3.086	3.052	3.032	3.047	3.037	3.032
0.225	0.024	0.005	0.015	0.073	0.005	0.039	3.970	3.071	3.062	3.042	3.057	3.042	3.037
0.200	0.015	0.005	0.015	0.049	0.010	0.039	4.097	3.066	3.057	3.042	3.057	3.037	3.037
0.122	0.005	0.010	0.005	0.029	-0.005	0.044	3.975	3.027	3.047	3.042	3.052	3.037	3.032
0.020	0.010	0.005	0.010	0.034	0.005	0.039	3.975	2.998	3.032	3.037	3.057	3.047	3.042
-0.034	0.000	0.010	0.010	0.049	0.010	0.044	3.979	2.993	3.013	3.032	3.052	3.047	3.047
-0.078	-0.015	0.010	0.000	0.054	0.010	0.044	3.960	2.983	3.003	3.022	3.047	3.047	3.047
-0.117	-0.024	0.005	-0.015	0.049	0.015	0.044	3.960	2.983	2.993	3.013	3.037	3.047	3.047
-0.161	-0.029	0.005	-0.015	0.044	0.024	0.039	3.970	2.983	2.983	3.003	3.037	3.042	3.047
-0.151	-0.034	0.000	-0.005	0.054	0.010	0.039	3.955	3.003	2.988	2.998	3.032	3.037	3.042
-0.122	-0.034	0.000	-0.005	0.044	-0.010	0.044	3.984	3.018	2.998	2.998	3.027	3.032	3.032
-0.088	-0.034	0.005	-0.010	0.039	-0.020	0.039	3.975	3.027	3.003	2.998	3.022	3.027	3.027
-0.073	-0.034	-0.005	-0.005	0.034	-0.024	0.039	3.970	3.032	3.013	2.998	3.022	3.022	3.027
-0.039	-0.034	0.000	-0.005	0.044	-0.020	0.039	3.975	3.042	3.022	3.003	3.022	3.022	3.027
-0.020	-0.015	-0.005	0.000	0.054	-0.015	0.039	3.979	3.047	3.032	3.013	3.027	3.022	3.032
0.010	-0.010	0.005	0.015	0.015	-0.029	0.044	3.960	3.047	3.037	3.018	3.027	3.018	3.022
0.029	-0.005	-0.005	0.010	0.020	-0.029	0.039	3.975	3.047	3.042	3.022	3.032	3.022	3.022
0.034	0.000	-0.005	0.000	0.034	-0.005	0.039	3.970	3.042	3.042	3.027	3.037	3.027	3.027
0.024	0.015	-0.005	0.005	0.020	-0.005	0.044	3.931	3.027	3.042	3.032	3.037	3.022	3.032
0.020	0.024	0.005	0.015	0.010	0.015	0.039	3.979	3.032	3.037	3.037	3.047	3.027	3.037
0.024	0.020	0.000	0.029	0.015	0.020	0.044	3.965	3.027	3.032	3.032	3.047	3.032	3.037
0.015	0.020	0.000	0.010	0.000	0.024	0.044	3.970	3.027	3.032	3.032	3.047	3.032	3.037
0.000	0.020	0.005	0.005	0.005	0.010	0.039	3.970	3.018	3.027	3.032	3.042	3.037	3.037
0.005	0.010	0.005	0.010	0.000	0.015	0.044	3.975	3.022	3.022	3.027	3.047	3.037	3.037
0.010	0.005	0.000	0.005	0.020	0.005	0.039	3.970	3.022	3.022	3.027	3.047	3.042	3.032
0.010	0.000	0.005	-0.010	0.015	-0.005	0.044	3.970	3.022	3.022	3.022	3.037	3.037	3.037
0.010	0.015	0.005	-0.024	0.005	0.010	0.044	3.940	3.022	3.022	3.022	3.032	3.037	3.037
0.005	0.020	-0.010	-0.029	0.034	0.005	0.044	4.058	3.027	3.027	3.022	3.032	3.042	3.037
0.010	0.000	-0.005	-0.024	0.044	-0.015	0.044	3.931	3.022	3.022	3.018	3.037	3.037	3.037
0.015	0.010	-0.005	-0.024	0.020	0.000	0.039	3.940	3.018	3.022	3.018	3.037	3.032	3.037
0.015	-0.005	-0.005	0.005	0.010	-0.005	0.039	4.082	3.037	3.022	3.018	3.042	3.032	3.037
0.029	-0.010	-0.005	0.020	0.010	-0.010	0.039	3.936	3.027	3.022	3.022	3.047	3.032	3.032
0.034	-0.010	-0.005	0.039	-0.005	-0.005	0.044	3.960	3.027	3.022	3.022	3.047	3.032	3.037
0.015	-0.005	-0.005	0.029	-0.015	-0.005	0.044	4.019	3.022	3.022	3.022	3.042	3.032	3.032
0.000	0.000	0.015	0.024	-0.010	-0.020	0.044	4.009	3.027	3.027	3.027	3.042	3.032	3.032
-0.010	0.005	0.015	0.010	-0.015	-0.029	0.044	3.950	3.022	3.027	3.022	3.037	3.032	3.032
-0.005	0.020	0.015	-0.005	-0.010	-0.029	0.044	3.931	3.027	3.027	3.022	3.032	3.032	3.032
-0.015	0.020	0.010	-0.010	-0.010	-0.024	0.044	4.028	3.032	3.027	3.022	3.037	3.032	3.032
-0.020	0.024	0.000	-0.010	-0.015	-0.020	0.039	3.945	3.027	3.027	3.022	3.037	3.032	3.037
-0.010	0.034	-0.005	0.010	-0.005	-0.015	0.044	4.023	3.037	3.032	3.022	3.042	3.037	3.037
0.000	0.020	-0.005	0.005	-0.005	-0.010	0.044	4.019	3.042	3.032	3.027	3.042	3.037	3.042
0.015	-0.010	0.000	0.000	-0.015	-0.005	0.044	3.989	3.042	3.027	3.022	3.042	3.037	3.042
0.010	-0.005	-0.005	0.010	0.000	0.000	0.044	4.077	3.047	3.032	3.027	3.047	3.042	3.042
0.005	-0.015	0.000	0.010	-0.005	-0.005	0.039	3.936	3.037	3.027	3.027	3.042	3.037	3.042
0.005	-0.015	-0.005	0.005	-0.005	-0.024	0.039	3.945	3.032	3.032	3.027	3.042	3.037	3.032
0.015	-0.005	-0.010	-0.010	-0.005	-0.034	0.044	4.077	3.047	3.037	3.022	3.037	3.032	3.032
0.005	0.015	-0.005	-0.015	-0.015	-0.010	0.044	4.023	3.047	3.047	3.027	3.037	3.032	3.042
0.005	0.024	0.000	-0.010	-0.005	-0.015	0.039	3.979	3.042	3.047	3.032	3.047	3.037	3.037
0.015	0.010	0.000	-0.015	-0.015	-0.020	0.039	4.043	3.047	3.042	3.032	3.042	3.032	3.037
0.015	0.005	0.000	-0.015	-0.015	-0.034	0.039	3.999	3.037	3.037	3.032	3.042	3.032	3.032
0.015	-0.024	-0.005	-0.010	-0.010	-0.034	0.039	4.023	3.027	3.027	3.032	3.047	3.037	3.037
0.020	-0.029	0.000	0.029	-0.024	-0.024	0.044	4.009	3.032	3.022	3.027	3.057	3.042	3.042
0.024	-0.068	-0.005	0.044	-0.010	0.000	0.039	4.014	3.037	3.013	3.022	3.057	3.047	3.047
0.005	-0.103	0.000	0.039	0.005	0.005	0.044	4.033	3.032	3.013	3.018	3.052	3.052	3.052
-0.010	-0.024	0.005	0.029	-0.010	0.020	0.039	4.019	3.042	3.042	3.027	3.047	3.047	3.052
-0.020	0.073	0.010	0.034	0.024	0.020	0.039	3.945	3.037	3.066	3.042	3.052	3.057	3.057
-0.005	0.049	0.010	0.029	0.015	0.015	0.039	3.931	3.027	3.047	3.042	3.052	3.052	3.057
-0.010	0.034	0.000	0.034	0.005	0.005	0.044	3.931	3.032	3.042	3.037	3.052	3.047	3.052
-0.005	0.039	-0.005	0.015	-0.005	0.000	0.044	3.989	3.037	3.037	3.037	3.047	3.047	3.047
-0.015	-0.010	-0.005	0.000	0.005	0.015	0.044	3.970	3.032	3.022	3.032	3.042	3.047	3.052
0.000	0.010	-0.005	0.005	0.005	0.005	0.039	3.970	3.037	3.032	3.032	3.047	3.042	3.047
0.005	0.029	-0.005	0.005	0.000	0.000	0.044	3.970	3.037	3.037	3.032	3.047	3.042	3.047
0.000	0.015	-0.010	0.000	0.000	0.015	0.044	3.970	3.032	3.032	3.027	3.047	3.042	3.052
-0.005	0.015	-0.010	0.000	0.000	0.010	0.044	3.970	3.027	3.032	3.027	3.042	3.042	3.047
-0.005	-0.005	-0.005	-0.005	0.005	0.000	0.044	3.955	3.027	3.022	3.027	3.042	3.042	3.047
0.005	-0.010	-0.010	0.000	-0.010	0.000	0.044	3.970	3.027	3.022	3.022	3.042	3.037	3.047
0.010	-0.010	-0.005	0.010	-0.005	0.015	0.044	3.970	3.027	3.022	3.022	3.047	3.042	3.047
-0.005	-0.015	0.000	0.010	-0.010	0.000	0.039	3.970	3.022	3.027	3.022	3.042	3.037	3.042
-0.010	0.005	0.005	0.005	-0.005	0.024	0.039	3.979	3.027	3.027	3.022	3.042	3.042	3.047
0.010	-0.015	0.010	0.015	-0.024	0.024	0.039	3.970	3.032	3.022	3.027	3.047	3.032	3.042
-0.010	-0.039	0.005	0.010	-0.020	0.005	0.039	3.999	3.032	3.018	3.018	3.042	3.037	3.037
-0.010	-0.049	0.010	0.005	-0.034	0.020	0.044	3.984	3.032	3.022	3.018	3.037	3.032	3.042
0.010	-0.049	-0.005	0.010	-0.039	0.005	0.044	3.994	3.042	3.022	3.018	3.037	3.032	3.037
0.015	-0.039	-0.015	0.015	-0.034	0.015	0.039	3.989	3.037	3.032	3.018	3.037	3.032	3.037
0.005	0.024	-0.015	0.010	-0.029	0.015	0.039	4.004	3.037	3.052	3.027	3.037	3.037	3.042
-0.015	0.132	-0.010	0.015	-0.010	0.015	0.039	3.984	3.037	3.076	3.047	3.047	3.042	3.042
0.010	0.044	-0.005	0.005	-0.015	-0.010	0.044	3.960	3.042	3.042	3.042	3.047	3.042	3.032
0.024	0.039	0.000	0.029	-0.010	-0.015	0.044	3.989	3.042	3.037	3.042	3.057	3.047	3.037
-0.005	0.068	0.000	0.034	-0.005	0.000	0.044	3.994	3.032	3.047	3.042	3.057	3.052	3.047
-0.039	0.098	0.020	0.010	-0.010	0.000	0.039	3.994	3.027	3.047	3.047	3.052	3.047	3.047
-0.029	0.034	0.029	-0.010	-0.010	0.015	0.039	3.975	3.027	3.022	3.042	3.047	3.047	3.052
-0.005	-0.029	0.010	-0.010	0.000	0.015	0.044	3.975	3.037	3.008	3.022	3.047	3.047	3.052
0.015	-0.049	-0.015	-0.024	0.000	-0.015	0.044	4.038	3.042	3.008	3.013	3.037	3.042	3.042
0.005	-0.029	-0.015	-0.024	0.000	0.015	0.044	3.936	3.037	3.022	3.018	3.037	3.042	3.052
0.000	-0.015	-0.010	-0.010	-0.015	0.005	0.044	3.950	3.032	3.027	3.018	3.037	3.037	3.042
0.010	0.000	-0.005	0.000	-0.029	0.000	0.039	4.062	3.042	3.037	3.027	3.042	3.032	3.037
0.000	0.000	0.000	0.005	-0.015	-0.020	0.039	3.921	3.032	3.037	3.027	3.042	3.037	3.037
0.005	-0.010	0.015	0.005	-0.020	-0.034	0.044	3.970	3.032	3.032	3.032	3.047	3.037	3.032
-0.005	-0.015	0.020	0.020	-0.020	-0.039	0.044	4.048	3.037	3.032	3.037	3.052	3.042	3.032
0.000	-0.015	0.039	0.015	-0.010	-0.039	0.039	3.994	3.037	3.032	3.037	3.052	3.047	3.037
-0.015	-0.010	0.015	-0.005	-0.020	0.010	0.044	3.921	3.027	3.032	3.027	3.047	3.042	3.052
-0.024	0.005	0.005	-0.015	-0.015	0.034	0.044	3.999	3.032	3.037	3.027	3.042	3.042	3.057
-0.015	-0.039	0.000	-0.010	-0.020	0.039	0.039	4.004	3.037	3.022	3.022	3.042	3.037	3.052
0.000	-0.068	-0.005	0.005	-0.020	0.049	0.044	3.921	3.032	3.018	3.018	3.047	3.042	3.057
-0.005	-0.039	-0.005	0.020	-0.020	0.049	0.044	3.940	3.027	3.027	3.022	3.047	3.042	3.052
0.010	-0.020	-0.010	0.034	-0.015	0.039	0.044	4.019	3.042	3.037	3.022	3.052	3.042	3.047
0.024	0.039	-0.005	0.034	-0.005	0.049	0.044	3.970	3.047	3.057	3.037	3.047	3.047	3.047
0.015	0.078	-0.010	0.020	-0.005	0.034	0.044	4.028	3.052	3.062	3.037	3.047	3.047	3.047
0.024	0.044	-0.005	0.000	-0.020	0.024	0.039	3.989	3.047	3.047	3.042	3.047	3.037	3.042
0.024	0.000	-0.010	0.000	-0.029	0.020	0.044	3.965	3.037	3.032	3.037	3.047	3.032	3.037
0.024	-0.078	0.000	-0.024	-0.039	0.010	0.044	4.004	3.037	3.013	3.027	3.037	3.032	3.032
0.029	-0.088	0.000	-0.024	-0.039	0.010	0.044	3.984	3.037	3.018	3.022	3.037	3.032	3.037
0.005	-0.020	0.000	-0.024	-0.024	-0.010	0.044	3.965	3.027	3.037	3.027	3.037	3.037	3.032
-0.024	0.029	0.005	-0.010	-0.020	-0.005	0.039	3.970	3.018	3.047	3.037	3.047	3.042	3.037
-0.039	0.093	0.015	0.010	-0.005	-0.015	0.044	3.965	3.022	3.062	3.042	3.057	3.052	3.037
-0.010	0.083	0.015	0.034	0.000	-0.010	0.044	3.994	3.037	3.052	3.042	3.066	3.052	3.047
0.015	0.078	0.010	0.059	-0.005	-0.005	0.039	3.970	3.042	3.042	3.047	3.071	3.057	3.052
0.000	0.015	0.010	0.024	0.000	-0.005	0.044	3.970	3.032	3.022	3.032	3.057	3.057	3.052
0.000	-0.039	0.010	0.000	0.000	-0.024	0.039	3.999	3.037	3.013	3.027	3.047	3.052	3.052
0.024	-0.063	0.000	0.005	-0.005	-0.010	0.044	3.999	3.042	3.013	3.022	3.042	3.047	3.052
0.029	-0.015	-0.010	0.010	0.005	0.000	0.039	3.994	3.047	3.037	3.022	3.042	3.052	3.057
0.024	-0.010	-0.010	0.005	0.005	0.005	0.039	3.994	3.042	3.037	3.022	3.042	3.047	3.052
0.010	-0.078	-0.010	0.005	0.015	0.000	0.044	3.994	3.037	3.018	3.018	3.037	3.047	3.052
-0.005	-0.049	-0.010	-0.010	0.015	-0.015	0.044	3.970	3.032	3.032	3.022	3.032	3.037	3.047
0.000	0.059	-0.010	-0.010	0.005	-0.005	0.039	3.994	3.037	3.062	3.032	3.037	3.032	3.047
-0.020	-0.020	-0.005	-0.010	0.000	-0.024	0.039	3.994	3.027	3.027	3.032	3.042	3.032	3.037
-0.024	-0.020	-0.005	-0.010	-0.005	-0.024	0.044	3.994	3.027	3.022	3.027	3.042	3.032	3.037
-0.015	-0.054	0.010	-0.020	-0.015	-0.015	0.044	3.970	3.032	3.027	3.027	3.037	3.032	3.037
-0.005	0.161	0.020	-0.024	-0.020	-0.024	0.044	3.989	3.042	3.091	3.052	3.047	3.032	3.032
-0.010	0.132	0.015	-0.015	-0.020	-0.010	0.044	3.994	3.037	3.057	3.052	3.057	3.037	3.037
0.000	-0.029	0.005	-0.005	-0.024	-0.010	0.044	3.979	3.032	3.013	3.032	3.057	3.042	3.042
0.020	-0.039	-0.005	0.005	-0.024	-0.020	0.044	3.970	3.037	3.013	3.027	3.057	3.047	3.042
0.024	-0.044	-0.010	0.015	-0.020	-0.015	0.044	2.764	2.896	2.993	3.013	3.052	3.042	3.037
0.000	0.044	-0.010	0.010	0.010	-0.005	0.039	2.646	2.788	2.959	3.003	3.042	3.052	3.047
-0.020	-0.059	-0.010	0.010	0.020	-0.020	0.044	2.661	2.705	2.866	2.964	3.027	3.047	3.042
-0.015	-0.142	0.000	0.010	0.020	-0.005	0.044	2.778	2.676	2.803	2.925	3.003	3.032	3.042
0.010	-0.024	0.005	0.005	0.024	-0.015	0.044	2.705	2.656	2.803	2.896	2.979	3.018	3.042
0.015	-0.020	0.005	0.005	0.024	0.000	0.044	2.690	2.632	2.759	2.856	2.954	2.998	3.032
0.005	-0.054	0.000	-0.010	0.034	0.005	0.044	2.744	2.617	2.705	2.812	2.910	2.974	3.018
0.000	-0.098	-0.005	-0.029	0.044	0.005	0.044	2.695	2.607	2.676	2.773	2.876	2.954	3.003
0.005	-0.015	-0.005	-0.015	0.054	-0.010	0.044	2.710	2.603	2.690	2.749	2.847	2.925	2.979
0.005	0.127	0.000	-0.005	0.034	0.000	0.044	2.715	2.598	2.705	2.739	2.827	2.896	2.959
0.024	0.044	0.005	0.024	0.015	-0.005	0.044	2.627	2.593	2.651	2.715	2.808	2.861	2.930
0.039	0.210	0.005	0.020	-0.010	-0.015	0.044	2.661	2.593	2.686	2.710	2.788	2.832	2.905
0.010	0.103	0.010	0.020	-0.015	0.000	0.044	2.725	2.573	2.632	2.686	2.764	2.812	2.886
0.010	0.220	0.005	0.010	-0.020	0.005	0.039	2.632	2.568	2.651	2.676	2.744	2.793	2.861
0.039	0.063	-0.005	0.005	-0.005	-0.010	0.039	2.651	2.559	2.573	2.642	2.720	2.773	2.832
0.020	-0.039	0.000	-0.020	0.024	0.000	0.044	2.637	2.544	2.549	2.617	2.690	2.759	2.812
-0.015	-0.044	0.010	-0.024	0.010	-0.015	0.044	2.666	2.529	2.544	2.598	2.666	2.729	2.788
-0.020	-0.015	0.015	-0.015	0.000	-0.015	0.044	2.666	2.524	2.554	2.583	2.651	2.705	2.769
-0.010	0.068	0.010	-0.005	-0.005	-0.015	0.044	2.671	2.534	2.573	2.583	2.642	2.686	2.744
-0.029	0.098	0.020	0.010	-0.029	-0.005	0.044	2.676	2.520	2.563	2.578	2.632	2.661	2.729
-0.078	0.044	0.020	0.034	-0.010	-0.015	0.039	2.676	2.495	2.529	2.568	2.622	2.656	2.705
-0.039	-0.039	0.020	0.044	-0.044	-0.015	0.044	2.681	2.510	2.500	2.544	2.612	2.632	2.681
-0.005	-0.068	0.010	0.024	-0.098	0.000	0.044	2.681	2.510	2.500	2.529	2.588	2.607	2.666
0.010	-0.063	0.005	0.000	-0.078	-0.005	0.044	2.666	2.505	2.505	2.520	2.568	2.598	2.651
0.015	-0.059	0.000	0.010	-0.049	0.000	0.044	2.671	2.495	2.505	2.515	2.563	2.598	2.637
0.015	-0.059	-0.010	0.015	-0.039	0.015	0.039	2.676	2.480	2.495	2.505	2.554	2.588	2.627
-0.005	-0.049	-0.024	0.010	-0.010	0.005	0.039	2.710	2.471	2.495	2.495	2.539	2.578	2.612
0.000	-0.039	-0.015	-0.024	-0.034	-0.020	0.044	2.695	2.466	2.490	2.495	2.524	2.554	2.588
-0.024	-0.024	-0.015	-0.059	-0.044	-0.049	0.044	2.695	2.451	2.480	2.495	2.510	2.534	2.563
-0.010	-0.020	-0.015	-0.020	-0.078	-0.059	0.044	2.690	2.446	2.480	2.490	2.520	2.520	2.554
0.010	-0.024	-0.010	-0.015	-0.103	-0.049	0.039	2.695	2.446	2.466	2.480	2.515	2.515	2.544
0.005	-0.034	-0.010	-0.039	-0.103	0.010	0.039	2.700	2.432	2.456	2.476	2.500	2.510	2.549
0.020	-0.029	0.020	-0.039	-0.049	0.029	0.044	2.676	2.427	2.451	2.480	2.505	2.524	2.554
0.020	-0.010	0.015	-0.029	0.024	0.054	0.039	2.700	2.422	2.451	2.471	2.505	2.539	2.554
0.024	0.000	0.015	0.005	0.083	0.024	0.044	2.700	2.417	2.446	2.466	2.510	2.544	2.549
0.024	0.015	0.020	0.020	0.171	0.034	0.044	2.676	2.407	2.441	2.461	2.505	2.559	2.559
0.010	0.024	0.015	0.024	0.303	0.029	0.039	2.695	2.402	2.432	2.451	2.500	2.573	2.563
-0.015	0.034	0.024	0.020	0.278	0.049	0.039	2.676	2.388	2.422	2.446	2.490	2.544	2.563
-0.103	0.020	0.029	0.015	0.215	0.044	0.039	2.681	2.354	2.402	2.432	2.476	2.510	2.544
-0.161	0.000	0.020	0.005	0.151	0.039	0.039	2.686	2.344	2.383	2.412	2.461	2.480	2.524
-0.171	-0.005	0.024	0.010	0.156	0.044	0.039	2.759	2.354	2.373	2.402	2.451	2.471	2.510
-0.122	-0.010	0.000	0.010	0.156	0.054	0.044	2.642	2.358	2.368	2.383	2.437	2.461	2.500
-0.029	-0.005	-0.010	0.000	0.146	0.029	0.039	2.651	2.378	2.378	2.378	2.427	2.446	2.480
0.049	-0.005	-0.010	-0.005	0.063	0.039	0.039	2.783	2.402	2.383	2.378	2.412	2.412	2.461
0.142	0.000	0.000	-0.015	0.024	0.034	0.044	2.729	2.412	2.397	2.388	2.407	2.397	2.441
0.234	0.005	-0.020	-0.015	-0.005	0.024	0.039	2.695	2.412	2.402	2.383	2.402	2.393	2.427
0.269	0.000	-0.039	-0.015	-0.024	0.010	0.039	2.720	2.397	2.402	2.383	2.402	2.388	2.412
0.244	0.000	-0.015	-0.010	-0.024	0.010	0.044	2.666	2.358	2.393	2.393	2.402	2.388	2.407
0.200	0.010	0.005	-0.005	-0.098	0.005	0.044	2.632	2.324	2.378	2.393	2.407	2.373	2.393
0.112	0.015	0.000	0.024	-0.068	-0.020	0.044	2.720	2.290	2.349	2.383	2.417	2.393	2.388
0.054	0.000	0.015	0.049	0.000	-0.015	0.044	2.725	2.271	2.324	2.373	2.417	2.422	2.402
-0.015	0.005	0.015	0.029	0.054	0.000	0.039	2.715	2.236	2.305	2.349	2.397	2.427	2.412
-0.122	0.000	-0.010	-0.005	0.039	-0.005	0.044	2.661	2.212	2.275	2.324	2.373	2.407	2.407
-0.195	-0.010	-0.015	-0.020	0.029	-0.020	0.044	2.637	2.202	2.251	2.300	2.354	2.388	2.402
-0.190	-0.020	-0.024	-0.020	0.005	-0.034	0.044	2.646	2.217	2.241	2.280	2.339	2.368	2.383
-0.142	-0.024	-0.010	0.005	-0.059	-0.029	0.044	2.637	2.241	2.241	2.275	2.329	2.339	2.373
-0.103	-0.020	0.000	-0.015	-0.122	-0.044	0.044	2.681	2.256	2.251	2.266	2.310	2.314	2.354
-0.039	-0.005	-0.005	-0.020	-0.176	-0.039	0.044	2.666	2.271	2.261	2.266	2.300	2.295	2.339
0.039	0.015	0.005	-0.005	-0.176	-0.029	0.044	2.681	2.285	2.275	2.266	2.305	2.295	2.329
0.098	0.005	-0.005	0.000	-0.127	-0.020	0.044	2.671	2.285	2.280	2.266	2.300	2.310	2.329
0.112	-0.005	-0.015	0.010	-0.103	-0.034	0.044	2.666	2.271	2.271	2.266	2.295	2.310	2.319
0.054	0.000	0.005	0.010	-0.132	-0.029	0.044	2.671	2.236	2.261	2.271	2.295	2.295	2.314
0.024	0.000	0.024	0.015	-0.195	-0.020	0.044	2.681	2.222	2.256	2.271	2.295	2.275	2.305
-0.029	0.015	0.015	0.000	-0.181	-0.005	0.044	2.690	2.202	2.241	2.261	2.285	2.280	2.305
-0.078	-0.005	0.010	-0.005	-0.146	0.000	0.044	2.681	2.187	2.222	2.246	2.275	2.290	2.305
-0.093	0.015	0.024	-0.015	-0.103	-0.005	0.044	2.681	2.192	2.222	2.241	2.275	2.300	2.300
-0.068	0.000	-0.039	-0.005	-0.088	0.010	0.337	2.705	2.202	2.212	2.217	2.266	2.295	2.314
-0.044	0.020	-0.034	-0.005	-0.078	0.005	0.059	2.671	2.207	2.217	2.222	2.261	2.280	2.295
-0.063	0.029	0.000	0.000	-0.068	0.015	0.044	2.710	2.207	2.222	2.227	2.261	2.280	2.295
-0.054	0.005	-0.005	0.015	-0.034	0.020	0.044	2.671	2.202	2.207	2.222	2.256	2.280	2.295
-0.039	-0.005	0.015	0.015	0.088	0.034	0.039	2.695	2.207	2.207	2.222	2.261	2.310	2.305
-0.010	-0.020	0.015	0.010	0.107	0.024	0.039	2.700	2.212	2.207	2.217	2.251	2.290	2.300
0.024	-0.024	-0.010	0.015	0.024	0.029	0.039	2.666	2.212	2.207	2.207	2.241	2.256	2.285
0.039	-0.020	0.005	0.005	-0.024	0.029	0.034	2.686	2.212	2.212	2.212	2.236	2.236	2.275
0.054	-0.024	-0.010	0.010	0.029	0.068	0.034	2.681	2.202	2.207	2.202	2.236	2.251	2.275
0.054	-0.010	0.000	0.005	0.088	0.103	0.034	2.666	2.187	2.207	2.207	2.231	2.261	2.285
0.049	-0.010	-0.005	0.005	0.098	0.103	0.049	2.666	2.183	2.202	2.207	2.231	2.251	2.275
0.049	-0.005	-0.010	0.000	0.103	0.078	0.034	2.671	2.178	2.192	2.197	2.222	2.246	2.261
0.049	0.005	-0.015	-0.005	0.088	0.054	0.034	3.965	2.314	2.222	2.202	2.222	2.236	2.256
0.034	0.010	0.005	0.005	0.112	0.024	0.039	3.975	2.407	2.271	2.227	2.231	2.241	2.246
0.024	0.005	0.000	0.015	0.181	-0.015	0.034	4.072	2.485	2.319	2.246	2.246	2.261	2.231
-0.010	0.020	0.010	0.005	0.176	-0.049	0.034	3.931	2.510	2.373	2.280	2.256	2.256	2.231
-0.029	0.020	0.005	-0.005	0.176	-0.049	0.034	3.950	2.524	2.407	2.314	2.271	2.251	2.236
-0.073	0.024	-0.010	-0.020	0.088	-0.078	0.034	4.067	2.549	2.441	2.344	2.290	2.236	2.227
-0.059	0.005	0.024	-0.020	0.034	-0.112	0.029	3.877	2.554	2.466	2.383	2.319	2.246	2.227
-0.010	0.000	0.049	-0.005	-0.049	-0.103	0.034	2.295	2.383	2.456	2.407	2.349	2.241	2.217
-0.010	-0.010	0.029	0.005	-0.122	-0.068	0.034	2.051	2.222	2.393	2.397	2.368	2.256	2.236
-0.029	-0.020	0.024	-0.029	-0.190	0.010	0.034	2.026	2.109	2.319	2.378	2.363	2.266	2.266
-0.034	-0.015	0.020	-0.024	-0.190	0.000	0.034	1.934	2.021	2.246	2.344	2.368	2.295	2.271
-0.010	-0.024	-0.034	0.000	-0.146	-0.010	0.039	2.017	1.982	2.173	2.280	2.354	2.324	2.285
0.005	-0.015	-0.059	0.000	-0.112	0.010	0.034	2.031	1.963	2.119	2.236	2.334	2.334	2.305
0.034	0.005	-0.039	0.005	-0.078	0.005	0.039	1.968	1.934	2.080	2.197	2.305	2.334	2.314
0.005	-0.005	-0.010	-0.005	-0.024	0.005	0.034	1.938	1.904	2.036	2.163	2.266	2.329	2.319
-0.010	0.000	0.020	0.005	-0.044	-0.020	0.039	2.002	1.899	2.002	2.124	2.236	2.300	2.310
-0.015	0.015	0.000	0.034	-0.010	-0.039	0.034	1.992	1.895	1.978	2.080	2.207	2.285	2.300
-0.059	0.015	0.005	0.034	0.093	0.010	0.034	1.958	1.875	1.953	2.051	2.173	2.285	2.314
-0.024	0.010	0.034	0.034	0.239	0.044	0.034	2.012	1.899	1.943	2.026	2.148	2.290	2.314
-0.024	0.024	0.059	0.034	0.352	0.034	0.034	1.992	1.904	1.938	2.012	2.114	2.271	2.305
0.034	0.029	0.059	0.005	0.361	0.029	0.039	2.007	1.929	1.938	1.992	2.080	2.212	2.280
0.073	0.020	0.039	-0.005	0.234	0.000	0.034	2.021	1.934	1.943	1.968	2.046	2.134	2.227
0.132	0.024	0.005	0.015	0.107	-0.083	0.044	2.021	1.943	1.943	1.953	2.026	2.065	2.158
0.137	0.010	-0.010	0.005	0.029	-0.093	0.039	1.997	1.924	1.934	1.943	2.002	2.026	2.119
0.093	0.015	-0.005	-0.015	0.015	-0.093	0.034	2.021	1.899	1.929	1.938	1.987	2.012	2.090
0.083	-0.010	-0.020	-0.024	-0.024	-0.078	0.034	1.992	1.880	1.909	1.924	1.968	1.987	2.065
0.049	-0.024	-0.015	-0.024	-0.039	-0.015	0.190	1.987	1.865	1.895	1.919	1.963	1.982	2.070
0.020	-0.039	-0.015	-0.029	0.010	0.063	0.566	1.992	1.855	1.880	1.909	1.953	1.987	2.075
0.005	-0.039	0.020	-0.029	-0.015	0.107	0.552	1.992	1.851	1.875	1.904	1.943	1.968	2.061
-0.010	-0.039	-0.005	-0.034	-0.029	0.112	0.615	2.002	1.851	1.870	1.890	1.934	1.953	2.031
-0.049	-0.005	-0.029	-0.034	-0.112	0.098	0.347	2.021	1.841	1.870	1.875	1.919	1.919	1.987
-0.078	0.010	-0.024	-0.015	-0.146	0.073	0.762	2.002	1.831	1.865	1.875	1.919	1.909	1.973
-0.112	0.010	-0.005	-0.005	-0.107	0.049	0.796	2.026	1.831	1.855	1.875	1.914	1.919	1.948
-0.103	-0.005	-0.005	-0.005	-0.103	-0.024	0.698	2.007	1.831	1.846	1.865	1.904	1.909	1.914
-0.107	-0.005	-0.010	-0.010	-0.127	-0.083	0.742	2.026	1.826	1.841	1.855	1.895	1.895	1.899
-0.088	0.000	-0.020	0.005	-0.156	-0.122	0.820	2.017	1.826	1.836	1.851	1.890	1.885	1.890
-0.127	0.015	-0.010	0.020	-0.142	-0.137	0.850	1.992	1.807	1.836	1.851	1.885	1.890	1.885
-0.137	0.029	0.015	0.024	-0.112	-0.098	0.874	2.017	1.802	1.831	1.851	1.885	1.899	1.904
-0.112	0.029	-0.005	0.005	-0.068	-0.020	0.894	1.992	1.812	1.826	1.836	1.875	1.904	1.924
-0.044	0.024	-0.010	-0.005	-0.049	0.044	0.898	2.026	1.831	1.831	1.836	1.865	1.904	1.938
-0.005	0.010	0.015	-0.010	0.024	0.098	0.903	2.012	1.836	1.831	1.836	1.865	1.909	1.948
0.073	0.010	-0.039	-0.005	0.073	0.151	0.908	2.002	1.851	1.836	1.821	1.860	1.914	1.953
0.156	-0.015	-0.098	0.000	0.205	0.220	0.923	2.080	1.870	1.836	1.812	1.855	1.934	1.973
0.190	0.010	-0.156	0.000	0.225	0.229	0.923	1.958	1.855	1.851	1.812	1.851	1.909	1.953
0.205	0.005	-0.068	-0.005	0.107	0.146	0.923	1.982	1.841	1.851	1.841	1.851	1.855	1.899
0.195	0.000	0.000	-0.005	-0.078	0.103	0.903	2.109	1.826	1.846	1.855	1.851	1.797	1.855
0.146	0.000	0.073	-0.005	-0.205	-0.005	0.835	2.036	1.792	1.836	1.870	1.860	1.782	1.807
0.112	0.005	0.127	-0.005	-0.210	-0.049	0.864	2.021	1.763	1.816	1.870	1.865	1.802	1.797
0.049	0.000	0.137	-0.010	-0.215	-0.098	0.845	2.061	1.738	1.792	1.851	1.865	1.812	1.787
-0.010	-0.005	0.127	-0.010	-0.205	-0.103	0.854	2.002	1.714	1.768	1.826	1.860	1.826	1.797
-0.049	0.000	0.107	-0.005	-0.176	-0.161	0.864	2.036	1.699	1.748	1.797	1.851	1.841	1.797
-0.078	0.015	0.015	-0.015	-0.107	-0.176	0.933	2.026	1.694	1.733	1.753	1.826	1.855	1.812
-0.112	0.010	-0.049	-0.020	-0.093	-0.122	0.933	2.070	1.694	1.719	1.729	1.807	1.846	1.836
-0.088	0.015	-0.034	-0.015	-0.029	-0.049	0.933	2.080	1.709	1.719	1.733	1.792	1.851	1.860
-0.044	0.000	0.015	-0.015	-0.005	-0.059	0.972	1.997	1.719	1.719	1.743	1.787	1.836	1.851
0.000	0.000	0.059	-0.010	0.068	-0.063	0.977	2.065	1.738	1.729	1.748	1.787	1.841	1.846
0.059	-0.015	0.083	-0.005	0.103	-0.054	0.967	1.963	1.743	1.733	1.753	1.782	1.841	1.851
0.098	-0.020	0.088	-0.010	0.190	-0.024	0.986	2.070	1.748	1.738	1.748	1.782	1.846	1.855
0.112	-0.005	0.073	-0.005	0.234	-0.005	0.996	2.002	1.738	1.738	1.743	1.777	1.836	1.860
0.103	-0.015	0.044	0.000	0.269	0.044	1.006	2.007	1.719	1.733	1.733	1.768	1.831	1.865
0.063	0.010	-0.039	0.000	0.303	0.098	1.016	1.987	1.704	1.733	1.714	1.758	1.821	1.870
0.049	0.024	-0.078	0.000	0.405	0.117	1.025	2.026	1.699	1.724	1.709	1.753	1.831	1.865
-0.020	0.005	-0.054	-0.005	0.303	0.137	1.030	2.021	1.670	1.709	1.714	1.743	1.772	1.841
-0.166	0.015	-0.024	0.005	0.146	0.146	1.040	2.002	1.636	1.689	1.709	1.733	1.719	1.807
-0.205	-0.005	-0.010	0.005	0.024	0.122	1.060	2.007	1.641	1.665	1.699	1.729	1.689	1.768
-0.103	-0.029	-0.020	0.000	-0.039	0.088	1.060	2.021	1.670	1.665	1.685	1.719	1.680	1.733
-0.098	-0.024	-0.029	0.000	0.005	0.054	1.064	2.007	1.665	1.665	1.680	1.714	1.699	1.714
-0.059	0.005	-0.044	0.000	0.000	0.000	1.064	2.012	1.670	1.680	1.670	1.709	1.694	1.694
-0.107	0.024	-0.078	-0.005	-0.034	-0.029	1.074	2.021	1.641	1.670	1.665	1.699	1.685	1.689
-0.059	0.034	-0.083	-0.005	0.015	0.029	1.084	2.021	1.655	1.670	1.665	1.699	1.704	1.709
0.015	0.029	-0.049	0.000	0.068	0.024	1.108	2.021	1.670	1.675	1.680	1.699	1.714	1.709
0.054	0.015	0.015	0.005	0.049	-0.049	1.104	2.017	1.665	1.675	1.694	1.704	1.704	1.685
0.073	0.015	0.059	0.000	0.049	-0.103	1.108	2.036	1.665	1.670	1.699	1.709	1.699	1.680
0.107	0.015	0.010	0.005	-0.010	-0.137	1.108	2.031	1.660	1.670	1.675	1.704	1.685	1.670
0.073	-0.015	-0.034	0.024	-0.063	-0.127	1.123	2.002	1.631	1.650	1.655	1.699	1.670	1.675
0.059	-0.010	-0.039	0.029	-0.142	-0.127	1.138	2.021	1.621	1.641	1.650	1.689	1.655	1.670
0.034	0.000	-0.010	0.039	-0.264	-0.049	1.143	2.021	1.606	1.636	1.655	1.685	1.631	1.680
0.000	-0.005	0.039	0.029	-0.312	0.059	1.152	2.007	1.592	1.621	1.655	1.680	1.636	1.694
-0.078	-0.015	0.063	0.010	-0.249	0.161	1.162	2.012	1.567	1.602	1.650	1.675	1.670	1.714
-0.127	-0.024	0.068	-0.010	-0.146	0.195	1.157	1.997	1.562	1.587	1.636	1.665	1.689	1.719
-0.098	-0.024	0.063	-0.029	-0.059	0.176	1.187	2.017	1.582	1.587	1.621	1.655	1.704	1.714
-0.195	-0.010	-0.015	-0.044	-0.010	0.088	1.187	2.017	1.558	1.577	1.587	1.636	1.689	1.680
-0.200	-0.015	-0.029	-0.005	-0.010	-0.005	1.196	2.085	1.577	1.572	1.577	1.641	1.675	1.655
-0.083	0.010	-0.010	0.029	-0.005	-0.054	1.196	1.958	1.606	1.592	1.592	1.641	1.660	1.646
0.005	0.005	0.005	0.020	-0.039	-0.088	1.255	1.992	1.616	1.606	1.597	1.626	1.646	1.641
0.068	0.005	0.029	0.010	-0.049	-0.127	1.260	2.109	1.636	1.616	1.606	1.626	1.631	1.626
0.146	0.005	0.034	0.005	-0.024	-0.127	1.245	1.958	1.631	1.626	1.616	1.626	1.636	1.631
0.215	0.015	0.024	0.000	0.034	-0.122	1.240	2.031	1.636	1.626	1.616	1.631	1.650	1.636
0.249	0.024	0.015	-0.005	0.068	-0.117	1.260	2.046	1.631	1.636	1.616	1.631	1.655	1.641
0.249	0.020	-0.020	-0.020	0.088	-0.117	1.245	2.031	1.616	1.626	1.611	1.626	1.646	1.646
0.225	0.015	-0.044	-0.010	0.107	-0.142	1.279	1.968	1.582	1.611	1.606	1.626	1.646	1.641
0.156	0.010	-0.059	-0.010	0.088	-0.176	1.279	2.036	1.558	1.592	1.597	1.621	1.631	1.626
0.039	-0.015	-0.024	0.010	0.005	-0.176	1.299	2.075	1.528	1.567	1.597	1.626	1.606	1.621
-0.039	-0.039	-0.039	0.024	-0.015	-0.112	1.304	2.070	1.519	1.543	1.577	1.621	1.611	1.631
-0.112	-0.044	-0.044	0.034	-0.010	-0.059	1.328	2.002	1.504	1.533	1.562	1.611	1.611	1.646
-0.127	-0.034	-0.024	0.029	-0.010	0.039	1.348	1.958	1.514	1.533	1.558	1.602	1.611	1.665
-0.137	-0.020	-0.020	0.020	-0.010	0.083	1.353	1.992	1.523	1.533	1.553	1.592	1.606	1.660
-0.122	-0.005	0.020	0.010	-0.010	0.117	1.367	1.963	1.528	1.538	1.558	1.582	1.602	1.650
-0.098	-0.005	0.024	0.010	0.005	0.122	1.377	2.026	1.538	1.543	1.558	1.582	1.597	1.641
-0.098	0.005	0.005	0.005	0.005	0.186	1.367	2.012	1.543	1.543	1.548	1.577	1.592	1.646
-0.068	0.015	0.000	0.005	-0.015	0.186	1.382	2.007	1.553	1.553	1.543	1.572	1.577	1.626
-0.073	0.020	-0.005	0.015	-0.034	0.171	1.406	2.021	1.543	1.553	1.548	1.567	1.567	1.606
-0.098	0.034	0.010	0.015	-0.020	0.151	1.416	2.012	1.543	1.553	1.553	1.567	1.572	1.592
-0.093	0.029	0.005	0.005	-0.029	0.112	1.406	2.017	1.538	1.543	1.548	1.567	1.567	1.577
-0.059	0.034	0.005	-0.005	-0.039	0.068	1.392	2.002	1.543	1.548	1.548	1.558	1.558	1.558
-0.034	0.015	0.000	-0.010	-0.024	0.024	1.411	2.026	1.548	1.548	1.543	1.558	1.558	1.548
0.034	0.015	-0.020	0.000	-0.010	-0.044	1.426	2.012	1.553	1.543	1.543	1.562	1.558	1.538
0.083	0.005	-0.005	0.005	-0.039	-0.063	1.470	2.007	1.553	1.553	1.543	1.562	1.553	1.538
0.161	-0.005	0.010	0.015	-0.068	-0.039	1.494	2.002	1.558	1.553	1.553	1.562	1.553	1.548
0.073	-0.010	0.010	0.020	-0.088	-0.005	1.504	2.026	1.523	1.538	1.548	1.567	1.548	1.558
0.020	-0.010	-0.020	0.020	-0.127	-0.005	1.479	2.036	1.504	1.528	1.533	1.558	1.543	1.548
-0.054	-0.005	-0.034	0.020	-0.098	-0.020	1.470	2.026	1.479	1.514	1.523	1.558	1.558	1.548
-0.088	-0.005	-0.054	0.024	-0.068	-0.034	1.484	2.036	1.479	1.504	1.514	1.553	1.558	1.548
-0.059	0.005	-0.015	0.020	-0.078	-0.039	1.484	2.002	1.489	1.504	1.523	1.548	1.553	1.548
0.010	0.000	0.010	0.020	-0.024	0.005	1.494	2.031	1.519	1.509	1.523	1.548	1.562	1.562
0.059	0.005	0.020	0.020	0.034	0.059	1.489	2.021	1.528	1.519	1.523	1.548	1.577	1.587
0.117	0.024	0.034	0.020	0.093	0.146	1.499	1.992	1.533	1.528	1.533	1.548	1.587	1.611
0.059	0.029	0.063	0.015	0.122	0.220	1.499	2.017	1.509	1.523	1.538	1.553	1.587	1.626
0.044	0.010	0.059	0.015	0.117	0.244	1.509	2.012	1.519	1.514	1.528	1.553	1.572	1.616
0.049	-0.010	0.059	0.010	0.244	0.225	1.523	2.051	1.519	1.509	1.523	1.548	1.602	1.611
0.073	0.000	0.049	0.010	0.283	0.171	1.567	2.012	1.523	1.519	1.519	1.548	1.587	1.587
0.112	0.005	0.024	0.015	0.215	0.024	1.562	2.021	1.533	1.523	1.514	1.543	1.553	1.538
0.146	-0.005	0.024	0.010	0.181	-0.107	1.519	2.075	1.533	1.523	1.514	1.538	1.538	1.499
0.142	-0.010	0.020	0.010	0.156	-0.210	1.519	1.978	1.514	1.519	1.509	1.533	1.523	1.479
0.093	-0.010	0.015	0.010	0.063	-0.244	1.519	1.997	1.479	1.504	1.514	1.533	1.494	1.475
0.024	-0.020	0.015	0.015	0.039	-0.254	1.519	2.119	1.470	1.489	1.499	1.528	1.499	1.479
-0.015	-0.015	-0.024	0.015	-0.029	-0.176	1.523	2.051	1.460	1.479	1.484	1.519	1.489	1.499
0.029	-0.005	-0.020	0.010	-0.005	-0.117	1.528	2.021	1.475	1.484	1.489	1.514	1.504	1.514
-0.054	-0.005	-0.039	0.005	-0.063	-0.078	1.528	2.036	1.445	1.470	1.479	1.509	1.484	1.519
-0.132	0.000	-0.034	-0.015	-0.122	-0.029	1.528	2.036	1.431	1.455	1.475	1.494	1.475	1.519
-0.107	0.005	-0.063	-0.015	-0.234	0.010	1.528	1.968	1.445	1.455	1.460	1.489	1.445	1.509
-0.049	0.000	-0.063	0.059	-0.347	0.029	1.538	2.036	1.465	1.455	1.460	1.504	1.431	1.489
0.039	0.000	-0.034	0.049	-0.322	-0.034	1.533	2.061	1.494	1.470	1.470	1.494	1.455	1.460
0.215	0.010	0.015	0.020	-0.293	-0.112	1.538	2.070	1.533	1.499	1.489	1.494	1.470	1.440
0.215	0.029	0.049	0.015	-0.195	-0.127	1.553	1.987	1.514	1.504	1.504	1.504	1.504	1.465
0.020	0.029	0.063	0.015	-0.107	-0.059	1.572	2.061	1.440	1.484	1.504	1.509	1.528	1.504
-0.063	0.024	0.015	0.034	0.034	0.000	1.582	1.987	1.411	1.460	1.479	1.519	1.562	1.538
-0.151	0.034	0.000	0.059	0.117	0.059	1.587	2.070	1.406	1.445	1.470	1.514	1.572	1.562
-0.244	0.015	0.015	0.049	0.234	0.112	1.582	2.036	1.401	1.426	1.460	1.504	1.592	1.587
-0.278	0.000	0.039	0.034	0.337	0.176	1.587	2.017	1.411	1.416	1.460	1.499	1.592	1.606
-0.215	-0.010	0.054	0.024	0.337	0.176	1.587	2.002	1.445	1.426	1.450	1.489	1.558	1.597
-0.142	0.000	0.039	0.010	0.283	0.142	1.587	2.012	1.479	1.445	1.440	1.475	1.519	1.567
-0.068	-0.024	0.034	-0.015	0.215	0.103	1.592	2.041	1.504	1.455	1.440	1.460	1.484	1.528
-0.015	-0.039	0.024	-0.039	0.166	-0.005	1.592	2.012	1.499	1.465	1.440	1.450	1.455	1.479
0.029	-0.044	0.015	-0.063	0.127	-0.039	1.592	2.007	1.494	1.475	1.445	1.450	1.436	1.460
0.039	-0.029	-0.005	-0.029	0.039	-0.044	1.587	2.031	1.484	1.479	1.450	1.460	1.421	1.440
0.039	-0.015	-0.005	-0.010	0.020	-0.098	1.587	2.012	1.475	1.479	1.460	1.470	1.426	1.426
0.059	-0.024	-0.039	-0.015	-0.029	-0.132	1.592	2.012	1.460	1.475	1.450	1.465	1.426	1.411
0.039	0.000	-0.020	-0.005	0.088	-0.103	1.587	2.026	1.445	1.470	1.465	1.479	1.470	1.440
0.029	-0.024	-0.024	0.010	0.186	-0.083	1.592	2.026	1.436	1.455	1.460	1.484	1.499	1.465
0.005	-0.020	-0.020	0.054	0.146	0.000	1.597	2.031	1.436	1.450	1.460	1.494	1.489	1.494
0.000	-0.005	-0.015	0.059	0.063	0.063	1.602	2.017	1.431	1.445	1.455	1.484	1.465	1.499
-0.034	0.024	-0.020	0.029	-0.005	0.132	1.602	2.031	1.416	1.445	1.455	1.475	1.450	1.509
-0.142	0.020	-0.015	0.020	-0.063	0.225	1.592	2.017	1.392	1.431	1.445	1.470	1.440	1.509
-0.161	0.029	0.010	0.020	-0.156	0.254	1.597	2.036	1.406	1.426	1.445	1.465	1.421	1.489
-0.103	0.029	-0.015	0.024	-0.229	0.151	1.577	2.012	1.431	1.426	1.431	1.460	1.406	1.436
0.029	0.020	-0.078	0.000	-0.254	-0.005	1.577	2.031	1.465	1.436	1.416	1.445	1.401	1.387
0.112	0.020	-0.029	-0.020	-0.259	-0.117	1.577	2.021	1.475	1.450	1.436	1.440	1.406	1.362
0.186	0.005	-0.029	-0.034	-0.239	-0.225	1.577	2.017	1.470	1.455	1.440	1.440	1.421	1.348
0.190	0.015	-0.029	-0.039	-0.146	-0.312	1.577	2.007	1.440	1.455	1.445	1.445	1.450	1.357
0.166	0.024	-0.005	-0.039	-0.024	-0.273	1.567	2.026	1.421	1.445	1.455	1.460	1.484	1.401
0.117	0.029	0.015	-0.005	-0.029	-0.210	1.567	2.026	1.401	1.436	1.450	1.475	1.475	1.440
0.083	0.024	0.015	-0.010	-0.083	-0.103	1.572	2.090	1.401	1.421	1.445	1.470	1.465	1.479
0.049	0.020	0.034	-0.029	-0.098	0.000	1.567	1.968	1.392	1.411	1.440	1.455	1.460	1.499
0.024	0.010	0.063	-0.049	-0.132	0.054	1.567	1.992	1.387	1.401	1.436	1.450	1.450	1.499
0.015	0.024	0.039	-0.044	-0.151	0.063	1.562	2.114	1.401	1.401	1.416	1.445	1.445	1.484
0.029	0.015	0.024	-0.034	-0.122	0.083	1.562	2.061	1.416	1.401	1.411	1.445	1.455	1.479
-0.020	-0.005	0.010	-0.020	-0.054	0.098	1.562	2.026	1.401	1.396	1.401	1.445	1.465	1.484
-0.078	-0.020	0.015	-0.015	-0.010	0.142	1.558	2.085	1.396	1.392	1.401	1.440	1.475	1.494
-0.073	-0.015	0.015	-0.005	0.151	0.151	1.558	2.017	1.401	1.401	1.401	1.440	1.509	1.504
-0.020	-0.005	0.024	-0.005	0.249	0.166	1.558	2.051	1.426	1.406	1.406	1.440	1.514	1.514
0.034	-0.015	0.015	0.000	0.249	0.103	1.558	2.041	1.445	1.421	1.406	1.431	1.489	1.489
0.068	-0.005	0.015	-0.005	0.195	0.068	1.558	2.075	1.455	1.431	1.411	1.431	1.455	1.470
0.098	0.005	0.005	0.005	0.112	-0.005	1.558	2.075	1.455	1.440	1.416	1.431	1.421	1.431
0.049	0.000	-0.034	-0.005	0.020	-0.083	1.553	1.978	1.411	1.431	1.406	1.421	1.396	1.401
-0.166	-0.005	-0.029	-0.015	-0.034	-0.137	1.553	2.056	1.353	1.401	1.406	1.421	1.387	1.382
-0.176	-0.005	-0.024	-0.010	-0.063	-0.186	1.553	1.997	1.357	1.387	1.401	1.421	1.382	1.367
-0.117	-0.005	-0.024	-0.010	-0.078	-0.146	1.548	1.973	1.372	1.382	1.396	1.421	1.392	1.387
-0.137	-0.010	-0.024	-0.005	-0.088	-0.107	1.548	2.031	1.367	1.382	1.392	1.421	1.396	1.396
-0.068	-0.010	-0.029	0.000	-0.093	-0.024	1.543	2.007	1.392	1.387	1.387	1.416	1.406	1.421
0.024	0.000	-0.049	0.005	-0.103	0.034	1.543	2.031	1.416	1.396	1.387	1.416	1.401	1.431
0.029	0.000	-0.020	0.000	-0.068	0.059	1.548	2.007	1.411	1.401	1.396	1.411	1.416	1.436
0.117	0.020	-0.034	0.000	-0.039	0.093	1.543	2.036	1.436	1.416	1.401	1.416	1.421	1.440
0.146	0.010	-0.034	0.000	0.024	0.122	1.548	2.012	1.436	1.421	1.401	1.416	1.440	1.445
0.103	-0.005	0.000	-0.005	0.054	0.083	1.543	1.992	1.401	1.411	1.416	1.421	1.440	1.436
0.059	-0.005	0.000	0.005	0.068	0.059	1.543	2.007	1.387	1.401	1.411	1.426	1.436	1.431
0.049	0.010	-0.020	-0.005	0.063	0.000	1.548	2.007	1.387	1.401	1.401	1.421	1.426	1.411
0.049	0.000	-0.024	-0.010	0.054	-0.034	1.543	2.021	1.392	1.396	1.401	1.416	1.421	1.401
0.049	-0.005	0.005	-0.005	0.039	-0.039	1.543	2.026	1.387	1.396	1.406	1.421	1.416	1.411
0.049	0.000	0.029	0.015	0.073	-0.063	1.538	2.026	1.387	1.392	1.411	1.431	1.431	1.406
0.059	0.005	0.049	0.015	0.083	-0.034	1.543	2.036	1.396	1.392	1.411	1.431	1.431	1.421
0.054	0.000	0.073	0.010	0.107	-0.020	1.538	2.017	1.387	1.396	1.411	1.431	1.440	1.431
-0.020	-0.015	0.073	0.005	0.039	-0.024	1.543	2.026	1.367	1.377	1.401	1.426	1.411	1.426
-0.039	-0.010	0.068	0.005	0.054	0.020	1.538	2.036	1.367	1.377	1.392	1.421	1.421	1.436
-0.083	-0.020	0.039	-0.010	0.127	0.068	1.538	2.026	1.362	1.367	1.377	1.411	1.440	1.445
-0.142	-0.020	0.029	-0.015	0.215	0.083	1.538	2.026	1.353	1.362	1.372	1.401	1.450	1.455
-0.156	-0.024	0.020	-0.005	0.132	0.068	1.538	2.026	1.362	1.362	1.367	1.396	1.411	1.436
-0.132	-0.015	0.015	0.005	0.039	0.034	1.543	2.002	1.377	1.367	1.362	1.396	1.382	1.411
-0.103	-0.010	-0.010	0.034	-0.088	-0.005	1.543	2.012	1.382	1.372	1.357	1.392	1.348	1.382
-0.039	0.000	-0.005	0.000	-0.146	-0.024	1.543	2.031	1.401	1.387	1.367	1.382	1.338	1.362
0.049	0.010	0.015	-0.015	-0.181	-0.024	1.543	2.026	1.421	1.401	1.382	1.382	1.338	1.357
0.117	0.010	0.000	-0.034	-0.229	0.005	1.548	2.017	1.421	1.406	1.382	1.377	1.338	1.357
0.103	0.020	-0.010	-0.029	-0.195	0.078	1.543	2.095	1.406	1.406	1.387	1.387	1.362	1.382
0.039	0.029	-0.015	-0.005	-0.088	0.103	1.543	1.978	1.372	1.401	1.392	1.401	1.401	1.396
-0.137	0.020	-0.020	-0.005	-0.063	0.127	1.543	1.992	1.313	1.372	1.387	1.401	1.406	1.401
-0.220	0.020	-0.015	-0.020	-0.073	0.039	1.543	2.124	1.323	1.353	1.372	1.396	1.396	1.377
-0.161	0.015	-0.020	-0.015	-0.103	-0.078	1.543	2.065	1.348	1.353	1.367	1.396	1.382	1.348
0.005	0.005	-0.024	-0.010	-0.103	-0.146	1.548	2.031	1.401	1.367	1.367	1.392	1.382	1.338
0.146	0.005	-0.020	-0.005	-0.059	-0.200	1.548	2.065	1.431	1.387	1.372	1.396	1.396	1.338
0.244	0.010	-0.054	0.000	-0.029	-0.239	1.548	2.017	1.440	1.401	1.372	1.396	1.401	1.348
0.254	0.000	-0.098	0.000	0.029	-0.190	1.543	2.012	1.421	1.401	1.372	1.396	1.416	1.382
0.210	0.000	-0.142	-0.005	0.068	-0.122	1.553	2.036	1.392	1.396	1.367	1.392	1.421	1.411
0.083	-0.005	-0.107	-0.005	0.142	-0.039	1.548	1.968	1.348	1.382	1.382	1.392	1.436	1.440
-0.034	-0.005	-0.088	-0.010	0.259	0.054	1.553	2.056	1.328	1.362	1.382	1.401	1.460	1.475
-0.112	0.000	0.020	-0.010	0.430	0.122	1.543	1.992	1.318	1.353	1.401	1.411	1.494	1.499
-0.151	0.000	0.068	-0.005	0.430	0.112	1.548	1.948	1.318	1.348	1.401	1.416	1.470	1.484
-0.156	0.000	0.127	-0.005	0.381	0.083	1.548	1.987	1.343	1.348	1.401	1.411	1.436	1.465
-0.166	0.000	0.156	0.000	0.283	0.049	1.548	2.051	1.353	1.348	1.392	1.411	1.401	1.436
-0.142	0.010	0.127	0.010	0.186	0.010	1.553	2.002	1.367	1.357	1.372	1.401	1.372	1.411
-0.083	0.020	0.098	0.015	0.054	0.059	1.543	2.012	1.387	1.367	1.362	1.396	1.348	1.401
-0.049	0.015	0.063	-0.005	-0.073	0.083	1.543	2.026	1.392	1.372	1.353	1.382	1.323	1.387
-0.010	0.000	0.029	-0.010	-0.098	0.107	1.538	2.021	1.396	1.372	1.348	1.377	1.328	1.372
-0.005	-0.005	0.000	-0.010	-0.156	0.044	1.543	2.007	1.382	1.377	1.348	1.372	1.318	1.343
0.005	0.005	-0.005	0.000	-0.254	0.010	1.538	2.017	1.382	1.377	1.357	1.372	1.309	1.323
0.010	-0.015	-0.039	0.000	-0.269	-0.005	1.543	2.002	1.367	1.367	1.348	1.367	1.318	1.313
0.054	-0.024	-0.063	0.005	-0.278	-0.054	1.538	2.012	1.377	1.367	1.348	1.367	1.328	1.309
0.112	-0.029	-0.054	0.015	-0.259	-0.059	1.543	2.012	1.382	1.372	1.357	1.372	1.343	1.313
0.161	-0.020	-0.068	0.010	-0.244	-0.059	1.538	2.012	1.382	1.377	1.362	1.372	1.353	1.328
0.190	-0.010	-0.059	0.015	-0.225	-0.024	1.543	2.036	1.387	1.382	1.367	1.377	1.367	1.348
0.122	-0.010	0.010	0.010	-0.200	0.000	1.538	2.007	1.348	1.372	1.387	1.387	1.377	1.367
0.083	0.000	0.044	0.010	-0.156	0.020	1.543	2.041	1.343	1.367	1.392	1.396	1.392	1.377
0.059	0.010	0.054	0.010	-0.068	0.044	1.543	2.031	1.338	1.357	1.387	1.401	1.421	1.396
0.024	0.015	0.049	0.000	-0.005	0.010	1.548	2.026	1.338	1.357	1.377	1.396	1.421	1.392
0.015	0.024	0.034	0.005	0.054	-0.024	1.548	2.007	1.338	1.353	1.367	1.396	1.436	1.401
-0.015	0.034	0.024	-0.005	0.166	-0.044	1.553	2.031	1.333	1.348	1.357	1.387	1.450	1.411
-0.049	0.024	0.015	-0.010	0.259	-0.015	1.553	2.031	1.338	1.343	1.353	1.382	1.455	1.431
-0.078	0.020	-0.005	-0.010	0.254	0.015	1.553	2.026	1.338	1.338	1.343	1.377	1.431	1.440
-0.088	0.024	-0.005	-0.015	0.229	0.103	1.553	2.017	1.348	1.338	1.338	1.372	1.406	1.455
-0.083	0.010	-0.034	-0.010	0.137	0.112	1.558	2.017	1.353	1.338	1.333	1.362	1.372	1.426
-0.063	0.000	-0.024	-0.010	0.078	0.093	1.558	2.007	1.367	1.343	1.338	1.362	1.353	1.401
-0.034	-0.005	-0.015	0.000	0.093	0.015	1.558	2.017	1.372	1.353	1.343	1.362	1.357	1.367
-0.029	-0.010	0.010	-0.005	0.054	-0.068	1.558	2.021	1.372	1.357	1.353	1.362	1.343	1.338
0.000	-0.020	0.024	0.000	0.024	-0.132	1.558	2.119	1.382	1.362	1.357	1.367	1.338	1.318
0.024	-0.015	0.029	0.000	-0.029	-0.063	1.558	1.978	1.372	1.367	1.357	1.367	1.333	1.343
-0.005	-0.024	0.029	0.000	-0.063	0.000	1.558	1.992	1.353	1.362	1.357	1.372	1.333	1.357
0.020	-0.015	0.024	0.000	-0.107	0.068	1.562	2.021	1.372	1.367	1.362	1.372	1.333	1.367
0.083	-0.005	0.010	0.000	-0.156	0.093	1.558	1.958	1.372	1.372	1.357	1.372	1.333	1.362
0.039	0.005	-0.005	0.005	-0.234	0.029	1.562	2.041	1.357	1.367	1.353	1.372	1.313	1.323
0.000	-0.010	-0.020	0.000	-0.229	-0.049	1.562	2.085	1.333	1.353	1.348	1.367	1.328	1.309
-0.024	-0.010	-0.034	-0.010	-0.186	-0.142	1.562	2.036	1.323	1.343	1.343	1.362	1.343	1.294
0.029	0.005	-0.024	-0.005	-0.151	-0.166	1.558	2.075	1.353	1.348	1.348	1.367	1.362	1.304
0.039	0.015	-0.015	0.000	-0.098	-0.171	1.558	2.041	1.353	1.353	1.353	1.372	1.372	1.323
-0.088	0.020	-0.015	0.005	-0.054	-0.132	1.562	1.973	1.294	1.333	1.353	1.372	1.387	1.357
-0.186	0.015	-0.029	0.010	0.000	-0.054	1.562	1.948	1.284	1.318	1.338	1.372	1.401	1.392
-0.166	0.024	-0.059	0.000	0.068	0.034	1.562	2.056	1.304	1.313	1.323	1.362	1.406	1.416
-0.166	0.029	-0.088	0.005	0.063	0.078	1.567	2.065	1.333	1.323	1.318	1.353	1.392	1.426
-0.044	0.020	-0.034	0.005	0.059	0.063	1.562	2.002	1.377	1.338	1.338	1.357	1.377	1.401
0.132	0.010	0.015	0.010	0.034	0.063	1.558	1.968	1.421	1.367	1.357	1.362	1.367	1.396
0.269	0.015	0.073	0.010	0.054	0.024	1.562	2.026	1.445	1.392	1.382	1.372	1.377	1.382
0.415	0.000	0.098	0.005	0.098	0.039	1.558	2.007	1.460	1.411	1.396	1.387	1.387	1.392
0.366	-0.015	0.107	0.000	0.083	0.024	1.562	2.002	1.401	1.401	1.401	1.392	1.382	1.382
0.127	-0.024	0.059	0.005	0.103	0.024	1.562	2.026	1.323	1.372	1.377	1.392	1.392	1.382
0.005	-0.020	-0.034	0.015	0.156	0.049	1.562	2.007	1.294	1.343	1.348	1.387	1.401	1.396
-0.098	-0.010	-0.073	0.010	0.186	0.103	1.562	2.007	1.279	1.323	1.333	1.377	1.401	1.411
-0.137	-0.020	-0.137	0.000	0.225	0.127	1.562	2.031	1.299	1.309	1.304	1.357	1.401	1.411
-0.034	-0.010	-0.107	-0.005	0.122	0.112	1.562	2.002	1.348	1.328	1.318	1.353	1.357	1.392
-0.039	-0.010	-0.039	0.000	0.049	0.073	1.562	2.007	1.348	1.333	1.343	1.353	1.333	1.367
0.000	0.000	0.063	-0.005	0.015	0.034	1.562	2.021	1.357	1.348	1.372	1.362	1.328	1.343
-0.034	0.005	0.146	0.005	0.034	0.010	1.567	2.026	1.348	1.353	1.387	1.377	1.348	1.338
-0.103	0.015	0.171	0.010	0.059	-0.015	1.562	2.002	1.323	1.343	1.382	1.387	1.362	1.338
-0.166	0.015	0.156	0.005	-0.059	-0.015	1.572	2.007	1.309	1.328	1.362	1.382	1.328	1.338
-0.181	0.020	0.117	0.005	-0.127	0.020	1.572	2.021	1.313	1.323	1.343	1.372	1.323	1.343
-0.142	0.010	0.068	0.010	-0.112	0.112	1.567	2.031	1.333	1.323	1.323	1.367	1.343	1.367
-0.068	-0.034	0.015	0.005	-0.107	0.137	1.572	2.026	1.362	1.323	1.309	1.353	1.348	1.367
-0.039	-0.024	-0.020	0.000	-0.078	0.093	1.572	2.021	1.362	1.333	1.304	1.343	1.353	1.348
-0.049	-0.020	-0.063	-0.005	-0.063	-0.005	1.577	2.026	1.353	1.338	1.304	1.338	1.348	1.323
-0.020	-0.010	-0.059	-0.010	-0.059	-0.088	1.572	2.012	1.357	1.348	1.313	1.333	1.338	1.299
-0.010	0.005	-0.073	-0.010	-0.068	-0.186	1.582	2.021	1.353	1.353	1.318	1.333	1.328	1.284
0.054	-0.010	-0.093	-0.010	-0.093	-0.195	1.577	2.021	1.362	1.353	1.323	1.333	1.323	1.294
0.083	0.005	-0.093	-0.005	-0.117	-0.171	1.577	2.031	1.357	1.357	1.333	1.343	1.318	1.309
0.024	-0.005	-0.063	0.000	-0.142	-0.117	1.577	2.026	1.333	1.348	1.343	1.348	1.318	1.323
0.044	0.000	-0.049	0.010	-0.117	-0.029	1.582	2.017	1.338	1.348	1.348	1.357	1.343	1.353
0.068	0.000	-0.063	0.005	0.010	0.034	1.577	2.080	1.353	1.343	1.343	1.362	1.382	1.382
0.186	0.005	-0.122	0.010	0.078	0.073	1.587	1.973	1.382	1.357	1.333	1.362	1.396	1.396
0.142	0.010	-0.107	0.015	0.142	0.024	1.582	1.997	1.353	1.357	1.343	1.362	1.396	1.382
0.039	0.024	-0.073	0.005	0.098	0.000	1.587	2.109	1.328	1.353	1.357	1.362	1.377	1.372
-0.063	0.029	0.020	0.005	0.098	-0.005	1.587	2.061	1.309	1.343	1.377	1.372	1.372	1.372
-0.103	0.029	0.117	0.005	0.063	-0.015	1.582	2.031	1.309	1.338	1.392	1.387	1.362	1.367
-0.083	0.020	0.156	0.000	-0.010	-0.005	1.582	1.943	1.328	1.328	1.382	1.387	1.353	1.367
-0.049	0.000	0.181	0.000	0.020	0.024	1.582	2.007	1.343	1.328	1.372	1.392	1.372	1.372
-0.015	-0.005	0.151	0.005	0.024	0.010	1.587	1.968	1.357	1.338	1.353	1.387	1.372	1.372
0.015	0.015	0.083	0.020	0.103	0.010	1.582	2.031	1.362	1.343	1.338	1.382	1.401	1.382
-0.059	0.000	0.015	0.015	0.200	0.024	1.582	1.973	1.328	1.333	1.318	1.367	1.416	1.396
-0.078	-0.015	-0.059	0.005	0.205	0.029	1.582	2.056	1.338	1.328	1.299	1.348	1.396	1.396
-0.024	-0.010	-0.107	0.000	0.059	0.020	1.582	2.070	1.362	1.333	1.294	1.333	1.333	1.372
0.010	-0.020	-0.151	-0.005	-0.068	-0.024	1.577	1.963	1.357	1.338	1.294	1.323	1.299	1.338
0.020	-0.015	-0.098	-0.015	-0.132	-0.010	1.582	2.021	1.353	1.348	1.323	1.323	1.289	1.323
0.044	-0.010	-0.015	0.024	-0.151	0.020	1.577	2.036	1.357	1.353	1.353	1.348	1.299	1.328
0.063	-0.010	0.054	0.029	-0.142	0.059	1.582	2.031	1.357	1.357	1.372	1.362	1.323	1.338
0.063	0.000	0.103	-0.005	-0.103	0.068	1.577	2.021	1.353	1.357	1.377	1.362	1.343	1.343
0.059	0.020	0.137	-0.029	-0.068	0.122	1.582	2.012	1.343	1.362	1.382	1.367	1.357	1.362
0.049	0.015	0.117	-0.029	-0.059	0.142	1.577	2.031	1.343	1.353	1.367	1.372	1.362	1.362
0.049	0.020	0.063	-0.029	-0.068	0.132	1.577	2.017	1.348	1.348	1.348	1.372	1.357	1.357
0.093	0.024	0.010	-0.010	-0.088	0.059	1.572	2.012	1.348	1.348	1.338	1.367	1.353	1.333
0.059	0.020	-0.020	0.000	-0.122	-0.059	1.577	2.007	1.333	1.338	1.328	1.362	1.343	1.304
0.039	-0.005	-0.039	0.010	-0.122	-0.166	1.577	2.041	1.333	1.333	1.323	1.362	1.343	1.284
0.044	-0.005	-0.054	0.015	-0.093	-0.229	1.572	2.007	1.333	1.333	1.323	1.357	1.353	1.289
0.039	-0.005	-0.049	0.010	-0.063	-0.205	1.577	2.017	1.323	1.328	1.323	1.353	1.362	1.318
0.005	0.000	-0.054	0.010	-0.010	-0.166	1.572	2.046	1.313	1.323	1.323	1.353	1.367	1.343
-0.010	-0.005	-0.059	0.010	-0.015	-0.107	1.577	2.017	1.318	1.318	1.318	1.348	1.367	1.367
-0.059	-0.005	-0.093	0.010	0.132	-0.049	1.572	2.026	1.304	1.313	1.313	1.343	1.401	1.396
-0.073	-0.005	-0.063	-0.005	0.200	0.000	1.572	2.026	1.313	1.313	1.318	1.343	1.401	1.411
-0.068	0.000	-0.020	0.000	0.278	0.059	1.572	2.026	1.328	1.323	1.328	1.348	1.411	1.431
0.010	0.005	0.005	0.000	0.317	0.088	1.572	1.992	1.362	1.338	1.338	1.348	1.401	1.431
0.054	0.005	0.020	0.000	0.273	0.088	1.567	2.031	1.372	1.348	1.348	1.353	1.367	1.411
0.010	0.010	0.024	0.000	0.000	0.059	1.572	2.021	1.353	1.348	1.343	1.348	1.289	1.362
-0.044	0.005	0.044	0.005	-0.122	0.005	1.567	2.002	1.323	1.343	1.343	1.348	1.274	1.323
-0.171	0.010	0.049	0.000	-0.083	0.024	1.572	2.031	1.289	1.323	1.343	1.353	1.309	1.323
-0.156	-0.010	0.029	-0.005	-0.073	-0.010	1.562	2.012	1.309	1.313	1.323	1.348	1.318	1.309
-0.073	0.000	-0.015	0.000	-0.024	-0.015	1.567	2.046	1.343	1.323	1.318	1.348	1.343	1.318
-0.156	-0.005	0.000	0.005	0.142	0.010	1.567	2.012	1.299	1.318	1.323	1.353	1.392	1.348
-0.122	0.005	-0.010	0.005	0.151	0.029	1.567	2.021	1.333	1.323	1.318	1.348	1.377	1.362
0.117	0.000	0.005	0.005	0.122	0.039	1.567	2.090	1.421	1.357	1.333	1.348	1.362	1.367
0.293	0.005	-0.005	0.010	0.093	0.029	1.562	1.963	1.436	1.382	1.338	1.353	1.348	1.357
0.283	0.005	-0.054	0.015	0.039	0.034	1.562	1.992	1.401	1.387	1.338	1.348	1.333	1.353
0.210	0.010	-0.059	0.010	-0.010	0.015	1.562	2.109	1.372	1.377	1.353	1.353	1.323	1.338
0.088	-0.005	-0.020	0.010	-0.039	0.054	1.558	2.065	1.328	1.357	1.362	1.362	1.328	1.343
-0.024	0.000	0.015	0.015	0.034	0.093	1.558	2.026	1.299	1.343	1.367	1.372	1.362	1.362
-0.088	-0.015	0.059	0.015	0.049	0.151	1.558	2.061	1.294	1.323	1.367	1.377	1.367	1.377
-0.103	-0.024	0.078	0.010	0.000	0.171	1.558	2.031	1.304	1.313	1.357	1.372	1.353	1.377
-0.088	-0.015	0.073	0.005	-0.142	0.132	1.558	1.958	1.313	1.313	1.343	1.367	1.313	1.343
-0.005	-0.010	0.068	0.005	-0.273	0.039	1.553	2.046	1.343	1.323	1.333	1.357	1.289	1.299
-0.024	-0.010	0.063	0.000	-0.298	-0.078	1.558	1.968	1.323	1.323	1.328	1.353	1.294	1.265
-0.029	0.005	0.034	0.000	-0.273	-0.186	1.553	2.085	1.323	1.323	1.318	1.348	1.313	1.250
-0.029	0.005	0.015	0.005	-0.215	-0.234	1.553	1.978	1.313	1.318	1.318	1.348	1.333	1.260
-0.029	0.005	0.039	0.005	-0.181	-0.244	1.553	1.963	1.313	1.318	1.323	1.348	1.343	1.284
-0.024	0.005	0.029	0.010	-0.122	-0.176	1.548	1.973	1.309	1.318	1.318	1.348	1.362	1.323
-0.024	0.010	-0.005	0.005	-0.029	-0.078	1.548	2.056	1.318	1.318	1.309	1.343	1.387	1.372
0.024	0.015	-0.034	0.010	0.059	0.024	1.548	2.026	1.338	1.323	1.309	1.343	1.401	1.411
0.034	0.024	-0.044	0.005	0.073	0.063	1.543	2.017	1.348	1.333	1.313	1.338	1.387	1.411
0.073	0.024	-0.020	0.005	0.142	0.068	1.543	2.007	1.353	1.338	1.323	1.338	1.392	1.406
0.098	0.015	-0.024	0.000	0.210	0.054	1.538	2.026	1.362	1.348	1.328	1.343	1.396	1.401
0.107	0.010	-0.039	0.000	0.239	0.005	1.543	2.017	1.367	1.348	1.328	1.343	1.387	1.387
0.112	0.005	-0.078	0.000	0.190	0.015	1.543	2.017	1.357	1.348	1.318	1.343	1.357	1.382
0.063	-0.005	-0.103	0.000	0.098	0.034	1.543	2.012	1.333	1.338	1.323	1.333	1.323	1.372
0.010	-0.010	-0.098	-0.005	0.132	0.063	1.543	2.026	1.318	1.333	1.323	1.338	1.338	1.372
-0.015	-0.010	-0.054	0.000	0.068	0.073	1.538	2.012	1.318	1.328	1.338	1.343	1.323	1.357
-0.063	-0.005	0.005	-0.010	0.127	0.103	1.543	2.026	1.309	1.328	1.348	1.348	1.348	1.362
-0.103	0.005	0.054	-0.005	0.093	0.112	1.533	2.017	1.304	1.323	1.353	1.357	1.338	1.357
-0.103	0.015	0.088	-0.005	0.083	0.078	1.538	2.031	1.318	1.328	1.357	1.362	1.343	1.343
-0.039	0.020	0.083	0.005	0.034	-0.005	1.533	2.026	1.343	1.328	1.348	1.362	1.328	1.313
-0.029	0.020	0.049	0.000	-0.044	-0.015	1.533	2.026	1.343	1.333	1.333	1.357	1.313	1.309
-0.010	0.020	0.029	0.010	-0.054	-0.054	1.528	2.021	1.338	1.333	1.323	1.353	1.318	1.299
-0.029	0.020	0.015	0.010	-0.088	-0.083	1.533	2.007	1.318	1.328	1.323	1.348	1.313	1.294
-0.088	0.000	0.000	0.010	-0.103	-0.088	1.523	2.002	1.304	1.318	1.318	1.343	1.318	1.304
-0.088	0.000	0.000	0.005	-0.083	-0.098	1.528	2.026	1.313	1.313	1.313	1.343	1.328	1.304
-0.049	-0.010	-0.015	0.005	-0.103	-0.078	1.523	2.036	1.323	1.309	1.309	1.338	1.328	1.318
-0.020	-0.024	-0.034	0.015	-0.171	-0.010	1.523	2.002	1.328	1.313	1.309	1.333	1.309	1.333
-0.015	-0.015	-0.034	0.015	-0.176	0.034	1.523	1.997	1.328	1.318	1.309	1.333	1.318	1.343
-0.029	-0.020	-0.024	0.010	-0.117	0.083	1.519	2.012	1.323	1.323	1.313	1.333	1.338	1.357
-0.034	-0.005	-0.010	0.005	-0.103	0.132	1.519	2.012	1.318	1.323	1.323	1.333	1.338	1.362
-0.039	0.000	0.010	0.000	-0.054	0.107	1.519	2.021	1.323	1.323	1.328	1.338	1.348	1.353
-0.044	-0.010	0.024	0.000	-0.029	0.020	1.514	2.090	1.333	1.323	1.328	1.338	1.348	1.328
-0.015	-0.010	0.010	0.000	-0.034	-0.015	1.509	1.973	1.333	1.328	1.323	1.338	1.343	1.323
0.015	-0.015	-0.034	0.005	-0.029	-0.044	1.499	1.997	1.338	1.323	1.313	1.338	1.338	1.313
0.044	-0.020	-0.034	-0.005	-0.039	-0.063	1.499	2.109	1.348	1.333	1.318	1.333	1.333	1.318
0.059	-0.005	-0.020	0.000	0.010	-0.063	1.499	1.958	1.343	1.338	1.323	1.338	1.348	1.323
0.073	0.000	-0.059	-0.005	0.020	-0.063	1.494	2.026	1.343	1.338	1.318	1.338	1.348	1.333
0.063	0.015	-0.073	-0.005	0.000	-0.083	1.494	2.031	1.338	1.343	1.323	1.338	1.333	1.323
0.049	0.034	-0.029	0.000	-0.034	-0.020	1.489	2.036	1.333	1.343	1.343	1.343	1.333	1.348
0.039	0.024	0.063	0.000	-0.059	0.005	1.494	1.982	1.323	1.343	1.362	1.357	1.333	1.343
0.054	0.015	0.117	-0.005	0.005	-0.005	1.484	2.046	1.333	1.333	1.372	1.367	1.357	1.348
0.068	0.020	0.122	0.000	0.059	0.000	1.489	2.085	1.338	1.338	1.362	1.372	1.377	1.357
0.044	0.015	0.122	0.000	0.044	0.000	1.489	2.046	1.328	1.333	1.353	1.372	1.372	1.362
0.029	0.015	0.078	0.000	0.039	0.010	1.489	2.065	1.333	1.333	1.333	1.367	1.367	1.362
0.015	0.000	0.024	0.000	-0.034	-0.005	1.489	1.968	1.323	1.323	1.313	1.353	1.343	1.353
0.005	0.015	-0.015	0.005	-0.024	-0.005	1.494	1.987	1.318	1.323	1.309	1.343	1.343	1.348
-0.024	0.005	-0.098	0.000	0.005	0.000	1.489	1.958	1.304	1.309	1.289	1.333	1.353	1.353
-0.020	-0.005	-0.098	0.005	0.068	0.039	1.489	2.031	1.313	1.309	1.294	1.328	1.362	1.367
0.029	-0.005	-0.054	0.000	0.122	0.063	1.489	2.012	1.338	1.318	1.313	1.333	1.367	1.377
0.044	-0.015	0.010	0.000	0.068	0.098	1.489	2.012	1.338	1.323	1.333	1.338	1.348	1.372
0.024	-0.005	0.034	0.000	0.171	0.117	1.494	2.026	1.333	1.333	1.338	1.343	1.372	1.377
0.034	0.000	0.049	0.000	0.215	0.083	1.484	1.997	1.338	1.333	1.338	1.348	1.377	1.372
0.024	0.005	0.015	0.000	0.234	0.029	1.484	2.012	1.333	1.333	1.328	1.348	1.367	1.353
-0.005	0.010	0.020	0.000	0.220	-0.029	1.479	2.021	1.323	1.328	1.333	1.348	1.357	1.338
-0.049	0.000	0.024	0.005	0.234	-0.044	1.484	2.036	1.313	1.323	1.328	1.348	1.357	1.338
-0.073	0.015	0.034	0.010	0.181	-0.039	1.479	2.017	1.313	1.323	1.328	1.348	1.338	1.343
-0.068	0.015	0.000	0.005	0.137	-0.054	1.484	2.031	1.318	1.318	1.318	1.343	1.323	1.328
-0.024	-0.005	-0.083	-0.005	0.034	-0.010	1.479	2.046	1.338	1.313	1.289	1.328	1.299	1.328
0.000	-0.010	-0.103	-0.010	-0.078	0.015	1.479	2.007	1.338	1.318	1.294	1.318	1.274	1.323
0.024	-0.005	-0.054	-0.015	-0.190	0.005	1.479	2.041	1.343	1.328	1.318	1.318	1.255	1.294
0.049	0.010	0.010	-0.010	-0.234	0.015	1.479	2.021	1.348	1.343	1.338	1.333	1.260	1.289
0.103	-0.010	0.063	-0.005	-0.259	-0.015	1.475	2.026	1.353	1.343	1.353	1.343	1.279	1.274
0.112	-0.010	0.093	0.000	-0.225	-0.029	1.479	2.036	1.343	1.343	1.357	1.353	1.309	1.284
0.117	-0.020	0.073	-0.005	-0.176	0.020	1.475	2.031	1.338	1.333	1.348	1.357	1.333	1.309
0.078	-0.020	0.034	0.000	-0.117	-0.010	1.475	2.021	1.318	1.328	1.333	1.357	1.357	1.313
0.039	-0.010	0.024	0.020	-0.034	-0.005	1.475	2.031	1.313	1.323	1.328	1.362	1.382	1.333
0.010	-0.005	-0.020	0.024	0.015	-0.034	1.475	2.002	1.304	1.313	1.313	1.357	1.382	1.343
-0.088	-0.010	-0.020	0.024	0.034	-0.020	1.479	2.046	1.279	1.304	1.309	1.348	1.377	1.353
-0.176	0.005	-0.015	0.010	0.005	-0.034	1.470	1.997	1.265	1.294	1.309	1.333	1.357	1.348
-0.181	0.010	-0.005	-0.010	0.049	-0.054	1.475	2.021	1.284	1.289	1.304	1.328	1.357	1.348
-0.142	0.024	0.005	-0.020	0.151	-0.029	1.475	2.026	1.304	1.299	1.304	1.323	1.377	1.367
-0.093	0.029	-0.010	-0.020	0.215	-0.010	1.479	2.070	1.333	1.313	1.304	1.323	1.382	1.377
-0.054	0.044	0.010	-0.010	0.200	-0.010	1.484	1.973	1.343	1.323	1.313	1.333	1.357	1.372
-0.029	0.024	-0.005	0.000	0.122	0.034	1.484	2.007	1.348	1.323	1.313	1.333	1.333	1.372
-0.024	0.015	-0.024	0.005	0.024	0.039	1.479	2.114	1.353	1.328	1.309	1.328	1.299	1.353
-0.049	0.000	-0.029	0.020	-0.176	0.044	1.494	2.061	1.333	1.323	1.313	1.328	1.255	1.323
-0.103	-0.005	-0.034	0.015	-0.234	0.034	1.509	2.041	1.318	1.323	1.313	1.328	1.255	1.299
-0.117	0.005	-0.024	0.010	-0.234	0.029	1.533	2.056	1.318	1.323	1.318	1.328	1.274	1.294
-0.103	-0.005	-0.010	0.024	-0.200	0.029	1.538	2.002	1.318	1.318	1.323	1.333	1.304	1.299
-0.059	-0.005	-0.020	0.024	-0.093	0.010	1.543	2.056	1.323	1.318	1.318	1.338	1.338	1.309
0.015	-0.010	-0.024	0.005	-0.049	-0.005	1.543	2.041	1.348	1.328	1.318	1.333	1.348	1.313
0.063	-0.024	-0.010	-0.010	0.039	-0.005	1.548	2.075	1.357	1.333	1.323	1.338	1.367	1.328
0.103	-0.015	0.010	-0.020	0.083	-0.005	1.548	2.085	1.372	1.348	1.333	1.338	1.367	1.338
0.244	-0.015	0.000	-0.020	0.127	-0.005	1.548	1.973	1.392	1.362	1.343	1.348	1.377	1.353
0.210	-0.010	0.000	-0.020	0.122	0.000	1.548	1.963	1.362	1.362	1.343	1.348	1.362	1.357
0.186	-0.015	0.005	-0.024	0.107	0.034	1.548	2.007	1.343	1.353	1.348	1.353	1.357	1.362
0.127	-0.015	0.005	-0.020	0.039	0.024	1.548	2.026	1.328	1.348	1.343	1.353	1.338	1.348
